Time [s],Phi [rad],STIM [ ],Fsee [N],Gamma [ ],Lcerel [ ],q [ ],Lmtc [m],fisomrel [ ]
0.0,1.8,1.0,18.291608480668852,0.0005793345487489623,1.3793035595674907,0.005086615486344701,0.288653,0.5412270717456347
0.0005,1.79999375,1.0,18.777970302539657,0.0061852942489227375,1.3792470878952825,0.014596400351512818,0.2886527375,0.541363668121645
0.001,1.799975,1.0,22.54214542757735,0.01175980894748601,1.378844940148899,0.038636849967679444,0.28865195,0.5423358141695702
0.0015,1.79994375,1.0,32.92788185584466,0.01730305502692024,1.3778901534250645,0.07470656821717683,0.2886506375,0.5446397702308075
0.002,1.7999,1.0,57.29197988904569,0.02281520787845011,1.3761314995396607,0.11955328093083024,0.2886488,0.5488682877998923
0.0025,1.79984375,1.0,103.11323734178997,0.028296441909972287,1.373650640862409,0.169818594772466,0.28864643749999996,0.5547997403798186
0.003,1.7997750000000001,1.0,168.5941763091379,0.03374693055438027,1.37093183248126,0.22267945011427,0.28864354999999997,0.5612550244008114
0.0035,1.79969375,1.0,246.22201390152676,0.03916684626682993,1.3683240408976818,0.2759752840390927,0.2886401375,0.5674024263290907
0.004,1.7996,1.0,330.50062389918344,0.04455636053749666,1.3659184779399436,0.32810270246570283,0.2886362,0.5730346540246014
0.0045000000000000005,1.7994937500000001,1.0,418.590850654351,0.049915643894500414,1.3637051978201191,0.377954482077889,0.2886317375,0.5781840850721557
0.005,1.799375,1.0,508.8968976529978,0.05524486588666383,1.3616577687211184,0.42484800598367045,0.28862675,0.582919828838208
0.0055,1.79924375,1.0,600.3479081259769,0.06054419521515137,1.3597528539992425,0.4684313269872871,0.2886212375,0.587301926146045
0.006,1.7991000000000001,1.0,692.0653128348476,0.06581379944689622,1.3579734746618488,0.5085917202511256,0.2886152,0.5913743349442688
0.006500000000000001,1.79894375,1.0,783.3604684957857,0.07105384537716064,1.35630592977947,0.5453767900480264,0.2886086375,0.5951724630229192
0.007,1.798775,1.0,873.6461703420836,0.07626449881020052,1.354739602380514,0.5789352705312195,0.28860155,0.598723898287356
0.0075,1.79859375,1.0,962.4311393013962,0.08144592445953909,1.353265798326102,0.6094734357964617,0.2885939375,0.6020512619037686
0.008,1.7984,1.0,1049.355336083019,0.08659828668549459,1.351876470535466,0.6372246721236275,0.2885858,0.6051752215672939
0.0085,1.79819375,1.0,1134.0936561222175,0.09172174808647136,1.3505651985367297,0.6624304715895631,0.2885771375,0.6081123774709927
0.009000000000000001,1.797975,1.0,1216.4089145657447,0.0968164707280701,1.3493259773410107,0.685327346501951,0.28856795,0.6108780661822313
0.0095,1.79774375,1.0,1296.142519638629,0.10188261630950868,1.3481531243726472,0.7061395192220582,0.2885582375,0.6134866134871302
0.01,1.7975,1.0,1373.1603581275256,0.10692034481342826,1.3470417995981347,0.7250753431791671,0.288548,0.6159502210831891
0.0105,1.79724375,1.0,1447.375256903485,0.11192981542710898,1.3459875068010687,0.7423253891577564,0.2885372375,0.618280118423407
0.011,1.796975,1.0,1518.747417687334,0.11691118667795947,1.344985962704665,0.7580621666465014,0.28852595000000003,0.6204868799003046
0.0115,1.79669375,1.0,1587.2746428429848,0.12186461703240958,1.3440331184229655,0.7724407743144848,0.2885141375,0.6225803999622762
0.012,1.7964,1.0,1652.943245846998,0.12679026235367086,1.3431256469013872,0.7856002123714666,0.28850180000000003,0.6245688470615578
0.0125,1.79609375,1.0,1715.7771655253437,0.1316882783540288,1.342260259219423,0.7976643926243496,0.2884889375,0.6264601880071854
0.013000000000000001,1.7957750000000001,1.0,1775.8185132592246,0.1365588199565047,1.34143387952599,0.8087436353861419,0.28847555,0.6282618173208923
0.0135,1.79544375,1.0,1833.1449013481076,0.14140204261466624,1.3406433987739703,0.818935970609896,0.2884616375,0.6299811060960391
0.014,1.7951000000000001,1.0,1887.8053303060317,0.14621809879700354,1.339886345734655,0.8283287198063248,0.2884472,0.6316239540278781
0.0145,1.79474375,1.0,1939.8565634517695,0.15100714020485276,1.3391604219414028,0.8369995240771673,0.2884322375,0.6331958169277092
0.015,1.794375,1.0,1989.3762635792855,0.15576931853955,1.3384633289275722,0.8450174002054053,0.28841675,0.634702088556333
0.0155,1.79399375,1.0,2036.4432651718237,0.1605047845004735,1.3377929567224032,0.8524438121969647,0.2884007375,0.6361476989436756
0.016,1.7936,1.0,2081.161282602544,0.16521368929571598,1.3371471091951246,0.8593334750013311,0.2883842,0.6375377128870241
0.0165,1.7931937500000001,1.0,2123.6017778414084,0.16989618098858172,1.3365240820392728,0.8657353272907681,0.2883671375,0.6388760912232935
0.017,1.792775,1.0,2163.8390885314434,0.17455240707799408,1.3359222667000903,0.8716930939921644,0.28834955,0.6401665520888821
0.0175,1.7923437500000001,1.0,2201.958434754919,0.17918251506287636,1.33534005462282,0.8772458742990515,0.2883314375,0.6414127798646814
0.018000000000000002,1.7919,1.0,2238.042747763091,0.1837866513086499,1.3347759601406803,0.88242871745118,0.2883128,0.6426181648975944
0.0185,1.79144375,1.0,2272.189879812133,0.18836496320574309,1.334228435702468,0.8872730473848698,0.2882936375,0.6437862014281925
0.019,1.790975,1.0,2304.4730016542967,0.19291759476080764,1.3336962583103915,0.8918071763363647,0.28827395,0.6449196657833051
0.0195,1.79049375,1.0,2334.9635113151653,0.19744468914122232,1.3331782865067363,0.8960566003528386,0.2882537375,0.6460211396697549
0.02,1.79,1.0,2363.7385745548127,0.20194638951436597,1.3326733788337877,0.9000442992559008,0.288233,0.6470931856355586
0.0205,1.78949375,1.0,2390.8767228572697,0.2064228384016094,1.3321804318473172,0.9037910270225238,0.2882117375,0.6481382675310264
0.021,1.788975,1.0,2416.4551723580985,0.2108741780534111,1.3316984005733592,0.9073155629803628,0.28818995000000003,0.6491587087279189
0.021500000000000002,1.78844375,1.0,2440.5523526001803,0.2153005509354312,1.3312262687420482,0.9106349214330259,0.2881676375,0.6501567566811877
0.022,1.7879,1.0,2463.226375202532,0.2197020954710376,1.3307632505872928,0.9137645809371322,0.2881448,0.6511341583575502
0.0225,1.78734375,1.0,2484.5383687769104,0.22407895008359818,1.330308560343002,0.9167186029140999,0.28812143749999997,0.6520926497580783
0.023,1.786775,1.0,2504.552228649423,0.2284312531964808,1.3298614122430843,0.919509781010569,0.28809755,0.6530339563552232
0.0235,1.78619375,1.0,2523.334380271799,0.23275914323305327,1.3294210205214485,0.9221497729515392,0.28807313749999996,0.6539597934904573
0.024,1.7856,1.0,2540.941253561596,0.23706275542519648,1.3289867153143162,0.9246492364726605,0.2880482,0.6548716235545187
0.0245,1.78499375,1.0,2557.44381377874,0.24134223061730756,1.3285577084674918,0.9270178931322183,0.2880227375,0.655771148617955
0.025,1.784375,1.0,2572.8891138864683,0.24559770258363905,1.328133453683404,0.9292646778196183,0.28799675,0.6566595554011524
0.025500000000000002,1.78374375,1.0,2587.323422927568,0.2498293044462137,1.3277134254879277,0.9313977811596119,0.2879702375,0.6575379807237516
0.026000000000000002,1.7831000000000001,1.0,2600.79431063858,0.2540371693270542,1.3272970984069372,0.9334247186911218,0.2879432,0.6584075554030602
0.0265,1.78244375,1.0,2613.3505354990525,0.2582214303481832,1.3268839469663072,0.9353523956199321,0.2879156375,0.6592694043868893
0.027,1.781775,1.0,2625.0419389040226,0.2623822206316235,1.326473445691912,0.937187164570645,0.28788755,0.6601246468687824
0.0275,1.7810937500000001,1.0,2635.9091250267506,0.26651966994914744,1.3260651636442553,0.9389348900187795,0.2878589375,0.660974199801164
0.028,1.7804,1.0,2646.0020500121605,0.2706339132662129,1.3256585910376573,0.9406009708920918,0.2878298,0.6618191392964539
0.0285,1.77969375,1.0,2655.3637942770774,0.2747250821336987,1.3252532888106192,0.9421904011224198,0.2878001375,0.6626603894064922
0.029,1.778975,1.0,2664.0265591166003,0.27879330373888406,1.3248489241445933,0.9437078103950586,0.28776995,0.6634986494964932
0.029500000000000002,1.7782437500000001,1.0,2672.0230794543086,0.28283870526904853,1.3244451642210318,0.9451574831510307,0.2877392375,0.6643346154770018
0.03,1.7775,1.0,2679.386576495842,0.28686141391147135,1.3240416762213862,0.9465433887489046,0.287708,0.6651689798202625
0.0305,1.77674375,1.0,2686.150712838125,0.29086155685343196,1.3236381273271092,0.9478692086334176,0.2876762375,0.6660024315695213
0.031,1.775975,1.0,2692.349550034808,0.2948392612822097,1.3232341847196523,0.949138360840462,0.28764395,0.6668356563412683
0.0315,1.7751937500000001,1.0,2698.017508617154,0.2987946543850839,1.322829515580468,0.9503540221284666,0.2876111375,0.6676693363204096
0.032,1.7744,1.0,2703.1818769759616,0.30272785804091795,1.3224238551703351,0.9515191546776716,0.2875778,0.6685040102586057
0.0325,1.77359375,1.0,2707.8769200825786,0.3066390035684568,1.3220168774599503,0.9526365124872112,0.2875439375,0.6693403400221407
0.033,1.772775,1.0,2712.1247430436133,0.31052821282323145,1.321608369627365,0.9537086731641811,0.28750955,0.6701787518674367
0.0335,1.7719437500000002,1.0,2715.9468177883177,0.31439560697199603,1.3211981263494064,0.954738042247563,0.2874746375,0.6710196544312206
0.034,1.7711000000000001,1.0,2719.364785013757,0.3182413071815045,1.3207859423029014,0.9557268661257244,0.2874392,0.6718634541480857
0.0345,1.7702437500000001,1.0,2722.400436853699,0.322065434618511,1.3203716121646774,0.9566772444423974,0.2874032375,0.6727105552264208
0.035,1.7693750000000001,1.0,2725.0757004824336,0.32586811044976954,1.3199549306115612,0.9575911413970674,0.28736675,0.6735613596216552
0.035500000000000004,1.76849375,1.0,2727.4126226532494,0.3296494558420342,1.31953569232038,0.9584703960498501,0.2873297375,0.6744162670068095
0.036000000000000004,1.7676,1.0,2729.427871156924,0.3334095865636512,1.3191137418162149,0.959316735621565,0.2872922,0.675275573290989
0.0365,1.76669375,1.0,2731.1401836844393,0.33714862135339535,1.3186889055835276,0.9601317788027055,0.2872541375,0.6761396092409868
0.037,1.765775,1.0,2732.580348594253,0.340866692354293,1.3182609013299516,0.9609170369681526,0.28721555,0.6770089243770627
0.0375,1.76484375,1.0,2733.7606685544893,0.34456391353570387,1.3178296153577862,0.9616739423204179,0.2871764375,0.677883723219138
0.038,1.7639,1.0,2734.6934954182775,0.34824039886698777,1.3173949339693305,0.9624038411372556,0.28713679999999997,0.6787642088348353
0.0385,1.76294375,1.0,2735.391224409735,0.3518962623175043,1.3169567434668836,0.9631079998662171,0.28709663750000003,0.6796505828152684
0.039,1.761975,1.0,2735.8662885951153,0.3555316178566133,1.3165149301527448,0.9637876107231677,0.28705595,0.6805430452500099
0.0395,1.7609937500000001,1.0,2736.1311536425187,0.3591465794536745,1.316069380329213,0.9644437968400512,0.2870147375,0.6814417947012352
0.04,1.76,1.0,2736.1983128663005,0.3627412610780476,1.315619980298587,0.9650776170026318,0.286973,0.6823470281770393
0.0405,1.7589937500000001,1.0,2736.0802825593514,0.3663157766990924,1.3151666163631668,0.9656900700148803,0.2869307375,0.68325894110393
0.041,1.757975,1.0,2735.789597611663,0.36987024028616855,1.3147091748252508,0.9662820987230509,0.28688795,0.6841777272985003
0.0415,1.75694375,1.0,2735.3388074151057,0.37340476580863585,1.3142475419871387,0.9668545937292713,0.2868446375,0.6851035789382702
0.042,1.7559,1.0,2734.740472055493,0.37691946723585407,1.313781604151129,0.9674083968215643,0.28680079999999997,0.6860366865317098
0.0425,1.75484375,1.0,2733.997120587383,0.38041444452588224,1.31331133878784,0.9679443093875557,0.2867564375,0.6869770567186588
0.043000000000000003,1.753775,1.0,2733.1282398845883,0.38388982537216965,1.3128365694236752,0.9684630817607166,0.28671155,0.6879250026505932
0.043500000000000004,1.75269375,1.0,2732.141902391036,0.38734571866485024,1.3123572232628324,0.9689654297718673,0.28666613750000003,0.6888806284296335
0.044,1.7516,1.0,2731.0444897513557,0.39078223068293444,1.311873242893546,0.9694520324802756,0.2866202,0.6898440062725231
0.0445,1.75049375,1.0,2729.8423855962888,0.3941994677054329,1.3113845709040506,0.9699235336635117,0.2865737375,0.6908152072796565
0.045,1.7493750000000001,1.0,2728.541974291693,0.3975975360113562,1.3108911498825804,0.9703805439929337,0.28652675,0.6917943014180068
0.0455,1.74824375,1.0,2727.149639761475,0.4009765418797148,1.31039292241737,0.9708236430545558,0.2864792375,0.6927813575038408
0.046,1.7471,1.0,2725.6717643837446,0.4043365915895193,1.3098898310966538,0.9712533812276773,0.2864312,0.6937764431852276
0.0465,1.7459437500000001,1.0,2724.1147279592456,0.4076777914197801,1.3093818185086665,0.97167028143256,0.28638263750000004,0.6947796249243321
0.047,1.744775,1.0,2722.4849067537025,0.41100024764950793,1.3088688272416427,0.9720748407574427,0.28633355,0.6957909679795036
0.0475,1.74359375,1.0,2720.7886726131055,0.41430406655771324,1.3083507998838164,0.9724675319742873,0.28628393750000003,0.6968105363871512
0.048,1.7424,1.0,2719.0323921511917,0.4175893544234065,1.3078276790234222,0.9728488049518412,0.2862338,0.6978383929434087
0.0485,1.74119375,1.0,2717.2161708095937,0.4208562046144092,1.3072994642344578,0.9732190903448963,0.2861831375,0.698874487503875
0.049,1.739975,1.0,2715.3457250901033,0.4241047272044891,1.3067661039735765,0.97357879689153,0.28613195,0.6999188694288038
0.0495,1.73874375,1.0,2713.43247668516,0.427335040427826,1.3062274946312784,0.9739283115042503,0.2860802375,0.7009716885581962
0.05,1.7375,1.0,2711.479141595136,0.430547242500199,1.3056836118572317,0.9742680059971811,0.286028,0.7020329382714201
0.0505,1.73624375,1.0,2709.4884329345105,0.43374143163738726,1.3051344313011048,0.9745982350289358,0.2859752375,0.7031026110795642
0.051000000000000004,1.734975,1.0,2707.463060737982,0.43691770605516994,1.3045799286125659,0.9749193370440749,0.28592195,0.704180698617233
0.051500000000000004,1.73369375,1.0,2705.405731779464,0.44007616396932614,1.3040200794412837,0.9752316351548401,0.2858681375,0.705267191634297
0.052000000000000005,1.7324,1.0,2703.3191494040993,0.44321690359563504,1.3034548594369264,0.9755354379674522,0.2858138,0.7063620799876125
0.0525,1.73109375,1.0,2701.206013373807,0.44634002314987575,1.3028842442491624,0.9758310403569048,0.28575893750000003,0.7074653526326969
0.053,1.729775,1.0,2699.0690197256213,0.44944562084782747,1.3023082095276601,0.9761187241938882,0.28570355000000003,0.7085769976153711
0.0535,1.72844375,1.0,2696.910860643304,0.45253379490526935,1.3017267309220881,0.976398759027182,0.2856476375,0.7096970020633604
0.054,1.7271,1.0,2694.7342243422727,0.45560464353798047,1.3011397840821146,0.9766714027246058,0.2855912,0.7108253521778616
0.0545,1.7257437500000001,1.0,2692.541794967339,0.4586582649617401,1.3005473446574078,0.9769369020753701,0.2855342375,0.711962033225068
0.055,1.724375,1.0,2690.3362525036337,0.46169475739232724,1.2999493882976365,0.9771954933564619,0.28547675,0.7131070295276585
0.0555,1.72299375,1.0,2688.120272701102,0.4647142190455211,1.299345890652469,0.9774474028654874,0.2854187375,0.7142603244562501
0.056,1.7216,1.0,2685.894272360529,0.4677167378648759,1.2987368480311867,0.9776928476773632,0.2853602,0.7154218610599223
0.0565,1.72019375,1.0,2683.658614758955,0.47070240683554443,1.2981222572282283,0.9779320363652346,0.28530113749999997,0.7165915808199812
0.057,1.718775,1.0,2681.4193053774143,0.473671341579554,1.2975020632899892,0.9781651679882981,0.28524155,0.717769522762115
0.0575,1.71734375,1.0,2679.177339973491,0.47662363210254693,1.2968762571334569,0.9783924337734985,0.2851814375,0.7189556375970332
0.058,1.7159,1.0,2676.9337126569635,0.47955936841016567,1.2962448296756188,0.9786140172174247,0.2851208,0.7201498752884681
0.0585,1.71444375,1.0,2674.689415884175,0.48247864050805256,1.2956077718334624,0.9788300944582936,0.2850596375,0.7213521850499223
0.059000000000000004,1.7129750000000001,1.0,2672.4454404538888,0.48538153840185,1.2949650745239751,0.9790408346271819,0.28499795,0.7225625153414088
0.059500000000000004,1.71149375,1.0,2670.2027755054187,0.4882681520972005,1.2943167286641448,0.9792464001798176,0.2849357375,0.7237808138661868
0.06,1.71,1.0,2667.962408518301,0.49113857159974633,1.2936627251709583,0.9794469472101481,0.284873,0.7250070275674945
0.0605,1.7084937500000001,1.0,2665.7253253139556,0.49399288691513,1.2930030549614036,0.9796426257468214,0.2848097375,0.7262411026252702
0.061,1.7069750000000001,1.0,2663.492510059081,0.49683118804899384,1.2923377089524677,0.9798335800336341,0.28474595,0.7274829844528772
0.0615,1.7054437500000001,1.0,2661.2649452707774,0.4996535650069803,1.2916666780611383,0.9800199487949277,0.2846816375,0.7287326176938147
0.062,1.7039,1.0,2659.043611824057,0.5024601077947318,1.290989953204403,0.9802018654868527,0.2846168,0.7299899462184293
0.0625,1.70234375,1.0,2656.82948896017,0.5052509064178907,1.2903075252992489,0.9803794585353494,0.2845514375,0.7312549131206186
0.063,1.7007750000000001,1.0,2654.6235542976424,0.5080260508820995,1.2896193852626638,0.9805528515616413,0.28448555,0.7325274607145302
0.0635,1.69919375,1.0,2652.4267838452674,0.5107856311930005,1.2889255240116348,0.9807221635959906,0.28441913750000003,0.733807530531257
0.064,1.6976,1.0,2650.2386451507173,0.5135297117879204,1.288225946363287,0.980887508125286,0.2843522,0.7350950377646288
0.0645,1.69599375,1.0,2648.0595727643204,0.5162583960762233,1.2875206482192036,0.9810489968665189,0.2842847375,0.7363899134171203
0.065,1.694375,1.0,2645.8908988642575,0.518971791878836,1.2868096171875476,0.981206737359556,0.28421675,0.7376921029615191
0.0655,1.69274375,1.0,2643.7327504322125,0.5216699806780936,1.286092851987652,0.981360831952285,0.2841482375,0.7390015307448069
0.066,1.6911,1.0,2641.585254275721,0.5243530439563311,1.285370351338851,0.9815113793381762,0.2840792,0.7403181204615457
0.0665,1.6894437500000001,1.0,2639.4485370309735,0.5270210631958835,1.2846421139604776,0.9816584747112375,0.2840096375,0.7416417951534137
0.067,1.687775,1.0,2637.322725164558,0.5296741198790861,1.2839081385718656,0.9818022099133243,0.28393955,0.742972477208732
0.0675,1.68609375,1.0,2635.2079449773064,0.5323122954882739,1.2831684238923484,0.9819426735742401,0.2838689375,0.7443100883620002
0.068,1.6844000000000001,1.0,2633.1043226059164,0.5349356715057817,1.2824229686412596,0.9820799512450216,0.2837978,0.745654549693425
0.0685,1.68269375,1.0,2631.0119840261555,0.5375443294139449,1.2816717715379327,0.9822141255247914,0.2837261375,0.7470057816284524
0.069,1.680975,1.0,2628.931055055398,0.5401383506950985,1.280914831301701,0.9823452761815229,0.28365395,0.7483637039372989
0.0695,1.67924375,1.0,2626.8616613555164,0.5427178168315776,1.2801521466518984,0.9824734802670577,0.28358123749999997,0.749728235734481
0.07,1.6775,1.0,2624.803928435584,0.5452828093057172,1.279383716307858,0.9825988122266766,0.283508,0.7510992954783491
0.07050000000000001,1.67574375,1.0,2622.7579816548114,0.5478334095998524,1.2786095389889136,0.9827213440035268,0.2834342375,0.7524768009706155
0.07100000000000001,1.673975,1.0,2620.7239462251873,0.5503696991963182,1.2778296134143987,0.9828411451381706,0.28335995,0.7538606693558858
0.07150000000000001,1.67219375,1.0,2618.7019472146844,0.5528917595774497,1.2770439383036467,0.9829582828635209,0.2832851375,0.75525081712119
0.07200000000000001,1.6704,1.0,2616.6921095501034,0.5553996722255821,1.2762525123759911,0.9830728221954023,0.2832098,0.7566471600955129
0.0725,1.66859375,1.0,2614.6945580198326,0.5578935186230503,1.2754553343507655,0.9831848260189687,0.2831339375,0.758049613449324
0.073,1.6667750000000001,1.0,2612.709417277378,0.5603733802521895,1.2746524029473034,0.9832943551711931,0.28305755,0.7594580916941074
0.0735,1.66494375,1.0,2610.733623592504,0.5628393004620337,1.273843746516771,0.9834014676359171,0.2829806375,0.7608724569313091
0.074,1.6631,1.0,2608.7679964674985,0.5652913807983322,1.273029357349104,0.9835062212957408,0.2829032,0.7622926340099976
0.0745,1.6612437500000001,1.0,2606.8148927531556,0.5677297290502935,1.2722092134240979,0.9836086718907288,0.2828252375,0.7637185718336541
0.075,1.659375,1.0,2604.8740497922145,0.5701544176663288,1.271383317062461,0.9837088724526398,0.28274675,0.765150176084744
0.0755,1.65749375,1.0,2602.9452053767423,0.5725655190948489,1.2705516705849016,0.983806874343128,0.2826677375,0.7665873518613485
