Time [s],Phi [rad],STIM [ ],Fsee [N],Gamma [ ],Lcerel [ ],q [ ],Lmtc [m],fisomrel [ ]
0.0,1.8,1.0,17.967932352239185,1.0801331227904027e-05,1.3793396594860825,0.005000031075376116,0.288653,0.5411397408832366
0.0005,1.79999375,1.0,18.27746259668254,0.005619950053096223,1.3793023079844098,0.012942737759803091,0.2886527375,0.5412300993549106
0.001,1.799975,1.0,21.61963675929356,0.01119763588555364,1.3789381739152016,0.035612748989296485,0.28865195,0.5421105240746571
0.0015,1.79994375,1.0,31.071662180167433,0.016744035311393762,1.3780459970311552,0.07060741557714376,0.2886506375,0.5442641075533158
0.002,1.7999,1.0,53.587089225038504,0.022259323821760078,1.3763678266919825,0.11472459953361269,0.2886488,0.5483012086452609
0.0025,1.79984375,1.0,97.12648120529933,0.027743675923710378,1.3739348037605246,0.1645820324292567,0.28864643749999996,0.5541223295171492
0.003,1.7997750000000001,1.0,160.96793897961967,0.033197265147931046,1.371213977980621,0.21728782023764034,0.28864354999999997,0.5605873168105966
0.0035,1.79969375,1.0,237.6943414762616,0.03862026404833112,1.3685843951020114,0.2706202156136058,0.2886401375,0.5667906367579222
0.004,1.7996,1.0,321.47847926804826,0.04401284421282383,1.3661557823006647,0.32292289686052794,0.2886362,0.5724806858666717
0.0045000000000000005,1.7994937500000001,1.0,409.279889730361,0.04937517626851138,1.3639225292214743,0.37304124345241435,0.2886317375,0.5776798237405778
0.005,1.799375,1.0,499.4258902552463,0.054707429872772786,1.3618580791451147,0.4202537635805749,0.28862675,0.5824576867264283
0.0055,1.79924375,1.0,590.802925219604,0.0600097737607279,1.3599385906617065,0.46417953458732286,0.2886212375,0.5868756726800526
0.006,1.7991000000000001,1.0,682.5306350481069,0.06528237568840586,1.3581461870460152,0.5046853267115617,0.2886152,0.5909799384706655
0.006500000000000001,1.79894375,1.0,773.8939875531927,0.07052540248806471,1.3564670363139726,0.5418056636115094,0.2886086375,0.59480628833397
0.007,1.798775,1.0,864.2979992753968,0.07573902005296435,1.35489019812065,0.5756812547229163,0.28860155,0.5983831226973398
0.0075,1.79859375,1.0,953.2546928100537,0.08092339334554172,1.353406602657412,0.6065139909741445,0.2885939375,0.6017339706573535
0.008,1.7984,1.0,1040.3671241579832,0.0860786863579032,1.352008518702965,0.6345357853655108,0.2885858,0.6048788353333687
0.0085,1.79819375,1.0,1125.3306549747576,0.09120506237742645,1.3506890089468961,0.6599877590427883,0.2885771375,0.6078355197826653
0.009000000000000001,1.797975,1.0,1207.892473293948,0.09630268336683184,1.3494421403616657,0.6831073952945877,0.28856795,0.610619230036537
0.0095,1.79774375,1.0,1287.881720759069,0.10137171067654778,1.348262262547782,0.7041204114367855,0.2885582375,0.6132442489958538
0.01,1.7975,1.0,1365.1737177388804,0.1064123050229954,1.3471442995714549,0.7232367874078807,0.288548,0.6157233267699107
0.0105,1.79724375,1.0,1439.6683144579297,0.11142462538863954,1.3460838360578047,0.7406489794421053,0.2885372375,0.6180675332254929
0.011,1.796975,1.0,1511.3134549268661,0.11640883012952305,1.345076660641332,0.7565313449194997,0.28852595000000003,0.6202873031907749
0.0115,1.79669375,1.0,1580.1181474475018,0.12136507819766593,1.3441185172857235,0.7710406063691759,0.2885141375,0.6223930040212857
0.012,1.7964,1.0,1646.0747351653608,0.1262935258974374,1.3432059574971975,0.7843173150046503,0.28850180000000003,0.6243930827118362
0.0125,1.79609375,1.0,1709.1894606075216,0.13119432842816842,1.3423358569124182,0.796486918052369,0.2884889375,0.6262951564797206
0.013000000000000001,1.7957750000000001,1.0,1769.5049231536143,0.13606764098919,1.34150509116805,0.8076610308193909,0.28847555,0.6281067369461157
0.0135,1.79544375,1.0,1827.0758384324854,0.14091361793435703,1.3407107693911713,0.8179389423119164,0.2884616375,0.6298347309339162
0.014,1.7951000000000001,1.0,1881.9870043947612,0.14573241365065664,1.339949987444049,0.8274088536535887,0.2884472,0.6314859886377262
0.0145,1.79474375,1.0,1934.292615315082,0.15052417973185353,1.3392204559566436,0.8361493462045666,0.2884322375,0.6330659510859911
0.015,1.794375,1.0,1984.0573525295429,0.15528906731228406,1.3385199974931663,0.8442303051934843,0.28841675,0.6345797554120749
0.0155,1.79399375,1.0,2031.363609059771,0.16002722742138403,1.3378464447532303,0.8517139021969501,0.2884007375,0.6360324609936304
0.016,1.7936,1.0,2076.3003794368606,0.16473881011195676,1.337197738888024,0.858655535977365,0.2883842,0.6374288421199106
0.0165,1.7931937500000001,1.0,2118.9582530606167,0.1694239655110408,1.3365719600624248,0.8651046439991427,0.2883671375,0.638773328124163
0.017,1.792775,1.0,2159.4068338240168,0.17408284069364557,1.3359675379174132,0.8711054639638312,0.28834955,0.6400695582452537
0.0175,1.7923437500000001,1.0,2197.7265526506817,0.17871558273478047,1.33538290209397,0.8766975471631477,0.2883314375,0.6413211383387325
0.018000000000000002,1.7919,1.0,2234.0050306969692,0.1833223383616714,1.334816509601722,0.881916316692078,0.2883128,0.6425315844965562
0.0185,1.79144375,1.0,2268.3262014441575,0.18790325322702106,1.3342669436855652,0.8867935744190477,0.2882936375,0.6437041146655331
0.019,1.790975,1.0,2300.788095804645,0.19245847475994657,1.3337327254481606,0.8913578736398199,0.28827395,0.6448420534596386
0.0195,1.79049375,1.0,2331.455349927165,0.19698814533898965,1.3332127762619024,0.8956349992529862,0.2882537375,0.6459478499229445
0.02,1.79,1.0,2360.398230342411,0.20149240734269197,1.3327060174991836,0.8996481871182801,0.288233,0.6470239346933448
0.0205,1.78949375,1.0,2387.6921706157896,0.2059714031495953,1.3322113705323981,0.9034184103304597,0.2882117375,0.6480727209470207
0.021,1.788975,1.0,2413.417333795946,0.21042527513824133,1.3317277567339394,0.906964630380688,0.28818995000000003,0.6490966052687128
0.021500000000000002,1.78844375,1.0,2437.641297808163,0.21485416326784584,1.3312542600541586,0.9103040507532097,0.2881676375,0.6500976249871553
0.022,1.7879,1.0,2460.4506202123825,0.21925821104248902,1.330789817356636,0.9134522458149017,0.2881448,0.6510781145827916
0.0225,1.78734375,1.0,2481.9033393534282,0.2236375565742988,1.3303336714112837,0.9164234211340717,0.28812143749999997,0.6520397497829786
0.023,1.786775,1.0,2502.0546797810016,0.22799233706426345,1.329885117498382,0.9192305090195566,0.28809755,0.6529840856284399
0.0235,1.78619375,1.0,2520.962272096979,0.2323226897133713,1.3294434508982103,0.9218852913709152,0.28807313749999996,0.6539126679218066
0.024,1.7856,1.0,2538.6859516337563,0.23662875172261075,1.3290079668910488,0.9243985179053401,0.2880482,0.6548270335529928
0.0245,1.78499375,1.0,2555.2870838902186,0.24091066016174137,1.328577965306433,0.926780011549212,0.2880227375,0.6557287012598361
0.025,1.784375,1.0,2570.8173640818895,0.2451685488755331,1.3281528536777025,0.9290387773522981,0.28799675,0.6566189560688149
0.025500000000000002,1.78374375,1.0,2585.34708705637,0.24940255728378907,1.3277318801343732,0.9311830421020654,0.2879702375,0.657499409258893
0.026000000000000002,1.7831000000000001,1.0,2598.917698611108,0.25361281720842915,1.3273145762257632,0.9332203969973601,0.2879432,0.6583710720349141
0.0265,1.78244375,1.0,2611.571767364375,0.25779946047137325,1.3269004735011904,0.9351578156541508,0.2879156375,0.6592349503338568
0.027,1.781775,1.0,2623.3528904425307,0.26196261889454125,1.3264891035099728,0.937001712631172,0.28788755,0.660092044927469
0.0275,1.7810937500000001,1.0,2634.3056040319357,0.26610242429985315,1.3260799978014284,0.938757995697138,0.2878589375,0.6609433515109071
0.028,1.7804,1.0,2644.4752987966945,0.2702190085092287,1.3256726879248752,0.9404321125762897,0.2878298,0.6617898607773814
0.0285,1.77969375,1.0,2653.896423896658,0.27431249858522366,1.3252668134322083,0.9420291064803488,0.2878001375,0.6626323344376818
0.029,1.778975,1.0,2662.621523777744,0.27838303059559655,1.3248618530758023,0.943553619610618,0.28776995,0.6634718635719256
0.029500000000000002,1.7782437500000001,1.0,2670.6867385699293,0.28243073343302566,1.3244574425380242,0.9450099666890028,0.2877392375,0.6643092091252703
0.03,1.7775,1.0,2678.1214688893397,0.2864557328545995,1.3240532839816481,0.946402152518811,0.287708,0.6651449908823639
0.0305,1.77674375,1.0,2684.9555349825087,0.29045815461740676,1.323649079569447,0.9477338909585362,0.2876762375,0.6659798255543676
0.031,1.775975,1.0,2691.219138767582,0.2944381244785359,1.3232445314641947,0.9490086297194583,0.28764395,0.6668143267809095
0.0315,1.7751937500000001,1.0,2696.942827842783,0.2983957681950756,1.3228393418286646,0.9502295727585937,0.2876111375,0.6676491051263861
0.032,1.7744,1.0,2702.1574614615793,0.3023312115241143,1.3224332128256302,0.9513997005261788,0.2875778,0.6684847680706054
0.0325,1.77359375,1.0,2706.894178474684,0.3062445802227407,1.3220258466178652,0.9525217882963676,0.2875439375,0.669321919993773
0.033,1.772775,1.0,2711.1722111693975,0.3101359946971417,1.3216170562349394,0.953598434230061,0.28750955,0.6701609347537367
0.0335,1.7719437500000002,1.0,2715.0267365295995,0.3140055842117146,1.3212065110916804,0.9546320481115187,0.2874746375,0.6710024784193565
0.034,1.7711000000000001,1.0,2718.4849035534608,0.31785347251773655,1.320793955631368,0.9556248871257355,0.2874392,0.6718470600458544
0.0345,1.7702437500000001,1.0,2721.5649236358445,0.32167977884869337,1.3203792171437876,0.956579068805838,0.2874032375,0.6726950166528503
0.035,1.7693750000000001,1.0,2724.2851335723626,0.32548462243807097,1.319962122918724,0.957496573890122,0.28736675,0.6735466833461206
0.035500000000000004,1.76849375,1.0,2726.6639826328837,0.32926812251935517,1.3195425002459624,0.9583792567434183,0.2873297375,0.6744023932925992
0.036000000000000004,1.7676,1.0,2728.720020295838,0.3330303983260318,1.319120176415288,0.9592288548699369,0.2872922,0.6752624776934805
0.0365,1.76669375,1.0,2730.4718846445526,0.33677156909158673,1.3186949787164857,0.9600469976061883,0.2872541375,0.6761272657554169
0.037,1.765775,1.0,2731.9382914243865,0.3404917540495058,1.3182667344393406,0.9608352140730634,0.28721555,0.6769970846598159
0.0375,1.76484375,1.0,2733.1380237617036,0.34419107243327496,1.317835270873638,0.961594940457777,0.2871764375,0.6778722595302332
0.038,1.7639,1.0,2734.085134537723,0.3478696364678209,1.317400458793799,0.9623275294131399,0.28713679999999997,0.6787530253746361
0.0385,1.76294375,1.0,2734.801803370195,0.35152757147330016,1.316962095597267,0.963034249040814,0.28709663750000003,0.6796397638858068
0.039,1.761975,1.0,2735.3000576030563,0.3551649915923363,1.316520071252765,0.9637162993929855,0.28705595,0.6805326673920428
0.0395,1.7609937500000001,1.0,2735.5910024092436,0.3587820097010354,1.3160742843887059,0.9643748114462652,0.2870147375,0.6814319092734933
0.04,1.76,1.0,2735.6857697806126,0.36237873867550363,1.3156246336335022,0.9650108513069579,0.286973,0.682337661491446
0.0405,1.7589937500000001,1.0,2735.595514410737,0.3659552913918471,1.3151710176155664,0.9656254246159686,0.2869307375,0.6832500945636746
0.041,1.757975,1.0,2735.3314098050837,0.36951178072617197,1.3147133349633109,0.966219480609922,0.28688795,0.6841693775391291
0.0415,1.75694375,1.0,2734.9046446193233,0.37304831955458434,1.314251484305148,0.9667939158686326,0.2868446375,0.6850956779719748
0.042,1.7559,1.0,2734.326419225546,0.3765650207531903,1.3137853642694903,0.9673495777761638,0.28680079999999997,0.6860291618949721
0.0425,1.75484375,1.0,2733.605877030684,0.3800619934575825,1.3133148922450326,0.9678872686607128,0.2867564375,0.6869699563057513
0.043000000000000003,1.753775,1.0,2732.746720897778,0.38353933705080534,1.3128400351054783,0.968407750254362,0.28671155,0.6879180881224589
0.043500000000000004,1.75269375,1.0,2731.772437129421,0.3869971882743317,1.312360580051852,0.9689117352624859,0.28666613750000003,0.6888739414211432
0.044,1.7516,1.0,2730.6888159651776,0.3904356523668141,1.3118764750248038,0.9693999067348736,0.2866202,0.6898375775704814
0.0445,1.75049375,1.0,2729.50164992207,0.393854834566905,1.3113876679649836,0.9698729122000358,0.2865737375,0.6908090568856158
0.045,1.7493750000000001,1.0,2728.2167326757167,0.3972548401132568,1.3108941068130417,0.970331365857454,0.28652675,0.6917884386126307
0.0455,1.74824375,1.0,2726.8398580015496,0.4006357742445219,1.3103957395096284,0.9707758506138977,0.2864792375,0.6927757809128536
0.046,1.7471,1.0,2725.376818776952,0.40399774219935275,1.3098925139953932,0.971206919976302,0.2864312,0.6937711408469867
0.0465,1.7459437500000001,1.0,2723.8334060422308,0.40734084921640185,1.3093843782109864,0.9716250998126018,0.28638263750000004,0.6947745743590603
0.047,1.744775,1.0,2722.215408122596,0.41066520053432154,1.3088712800970583,0.9720308899908962,0.28633355,0.6957861362602186
0.0475,1.74359375,1.0,2720.528609810334,0.41397090139176435,1.308353167594259,0.9724247659064327,0.28628393750000003,0.6968058802123305
0.048,1.7424,1.0,2718.778791606009,0.41725805702738267,1.3078299886432383,0.9728071799050615,0.2862338,0.6978338587114279
0.0485,1.74119375,1.0,2716.9717290211106,0.4205267726798289,1.3073016911846465,0.9731785626110907,0.2861831375,0.69887012307097
0.049,1.739975,1.0,2715.1131919396316,0.42377715358775553,1.3067682231591333,0.9735393241667739,0.28613195,0.6999147234049368
0.0495,1.73874375,1.0,2713.2089440404284,0.427009304989815,1.3062295325073494,0.9738898553900802,0.2860802375,0.7009677086107469
0.05,1.7375,1.0,2711.2603433882678,0.4302233107327726,1.3056856072884573,0.9742305290611206,0.286028,0.702029048139946
0.0505,1.73624375,1.0,2709.275304201795,0.43341929764022147,1.3051363757398695,0.9745617017289305,0.2859752375,0.7030988271694425
0.051000000000000004,1.734975,1.0,2707.257054686051,0.4365973675778436,1.3045818087705725,0.974883713530909,0.28592195,0.7041770464478521
0.051500000000000004,1.73369375,1.0,2705.207913674535,0.4397576174819711,1.3040218855552514,0.9751968891640682,0.2858681375,0.7052636897430791
0.052000000000000005,1.7324,1.0,2703.1301971286634,0.44290014428893604,1.303456585268591,0.9755015387397971,0.2858138,0.7063587399780813
0.0525,1.73109375,1.0,2701.026218009438,0.44602504493507034,1.3028858870852764,0.975797958563405,0.28575893750000003,0.707462179223741
0.053,1.729775,1.0,2698.8982861582713,0.44913241635670614,1.3023097701799924,0.9760864318654721,0.28570355000000003,0.7085739886917097
0.0535,1.72844375,1.0,2696.748708187694,0.4522223554901755,1.3017282137274238,0.9763672294883797,0.2856476375,0.7096941487272261
0.054,1.7271,1.0,2694.5797873816387,0.45529495927181035,1.3011411969022557,0.976640610531124,0.2855912,0.7108226388019032
0.0545,1.7257437500000001,1.0,2692.393823605345,0.45835032463794284,1.300548698879173,0.976906822955281,0.2855342375,0.711959437506493
0.055,1.724375,1.0,2690.1931132246145,0.46138854852490496,1.2999506988328606,0.9771661041547669,0.28547675,0.7131045225436178
0.0555,1.72299375,1.0,2687.979949035206,0.4644097278690288,1.2993471759380035,0.977418681491849,0.2854187375,0.7142578707204783
0.056,1.7216,1.0,2685.756620201294,0.46741395960664633,1.2987381093692867,0.9776647728016579,0.2853602,0.715419457941531
0.0565,1.72019375,1.0,2683.5254122040583,0.4704013406740897,1.2981234783013949,0.9779045868673061,0.28530113749999997,0.7165892592011408
0.057,1.718775,1.0,2681.2884944349657,0.4733719670849112,1.2975032629395062,0.978138323843699,0.28524155,0.7177672466210046
0.0575,1.71734375,1.0,2679.0431400382645,0.4763258905730034,1.296877488378208,0.978366174340242,0.2851814375,0.7189533064229816
0.058,1.7159,1.0,2676.7987728047633,0.4792632661186155,1.2962460682276982,0.9785883240508433,0.2851208,0.7201475352666773
0.0585,1.71444375,1.0,2674.5559739688692,0.482184181673819,1.295608997150246,0.9788049498492235,0.2850596375,0.7213498750121998
0.059000000000000004,1.7129750000000001,1.0,2672.315323790369,0.4850887251906849,1.294966269808121,0.9790162215724355,0.28499795,0.7225602668223302
0.059500000000000004,1.71149375,1.0,2670.077401555589,0.48797698462128464,1.2943178808635927,0.9792223023541113,0.2849357375,0.7237786511605997
0.06,1.71,1.0,2667.8427855787963,0.49084904791768935,1.2936638249789303,0.9794233489394084,0.284873,0.7250049677893629
0.0605,1.7084937500000001,1.0,2665.612053204723,0.49370500303197035,1.2930040968164034,0.9796195119827934,0.2848097375,0.726239155767869
0.061,1.7069750000000001,1.0,2663.3857808112953,0.49654493791619897,1.292338691038281,0.9798109363297234,0.28474595,0.7274811534503332
0.0615,1.7054437500000001,1.0,2661.1645438130276,0.4993689405224464,1.2916676023068328,0.9799977612832117,0.2846816375,0.7287308984840027
0.062,1.7039,1.0,2658.948916665636,0.5021770988027838,1.2909908252843283,0.9801801208561965,0.2846168,0.7299883278072243
0.0625,1.70234375,1.0,2656.7394728702734,0.5049695007092827,1.2903083546330365,0.9803581440105718,0.2845514375,0.7312533776475099
0.063,1.7007750000000001,1.0,2654.5367849793715,0.5077462341940142,1.289620185015227,0.9805319548836748,0.28448555,0.7325259835195974
0.0635,1.69919375,1.0,2652.3414246024668,0.5105073872090495,1.2889263110931692,0.9807016730029846,0.28441913750000003,0.7338060802235115
0.064,1.6976,1.0,2650.1539624129146,0.51325304770646,1.2882267275291324,0.9808674134897174,0.2843522,0.7350936018426253
0.0645,1.69599375,1.0,2647.97496815527,0.5159833036383168,1.2875214289853862,0.9810292872519781,0.2842847375,0.7363884817417139
0.065,1.694375,1.0,2645.8050106532983,0.5186982429566912,1.2868104101241997,0.9811874011680728,0.28421675,0.7376906525650139
0.0655,1.69274375,1.0,2643.644657818266,0.5213979536136546,1.2860936656078426,0.9813418582605481,0.2841482375,0.739000046234273
0.066,1.6911,1.0,2641.4944766584363,0.5240825235612782,1.285371190098584,0.9814927578614956,0.2840792,0.7403165939468043
0.0665,1.6894437500000001,1.0,2639.3550018916653,0.5267520381542143,1.2846429785489157,0.9816401956067554,0.2840096375,0.7416402256466885
0.067,1.687775,1.0,2637.226658688358,0.5294065340267534,1.2839090269166467,0.9817842605269866,0.28393955,0.7429708687348304
0.0675,1.68609375,1.0,2635.110868405131,0.532046163231366,1.283169321937898,0.9819250458069,0.2838689375,0.7443084665600483
0.068,1.6844000000000001,1.0,2633.007550866633,0.5346710043577312,1.2824238642243442,0.9820626371593689,0.2837978,0.7456529365962666
0.0685,1.68269375,1.0,2630.9166260803177,0.5372811359955282,1.2816726543876598,0.982197117341846,0.2837261375,0.7470041956958227
0.069,1.680975,1.0,2628.838014235117,0.539876636734436,1.2809156930395198,0.9823285662771662,0.28365395,0.7483621600896884
0.0695,1.67924375,1.0,2626.7716356997707,0.5424575851641338,1.2801529807915983,0.9824570611685997,0.28358123749999997,0.7497267453876988
0.07,1.6775,1.0,2624.7174110216456,0.5450240598743007,1.2793845182555703,0.9825826766094703,0.283508,0.751097866578772
0.07050000000000001,1.67574375,1.0,2622.675260925143,0.5475761394546159,1.2786103060431104,0.9827054846876254,0.2834342375,0.7524754380311364
0.07100000000000001,1.673975,1.0,2620.645106310184,0.5501139024947586,1.2778303447658932,0.9828255550850367,0.28335995,0.753859373492554
0.07150000000000001,1.67219375,1.0,2618.6268682511136,0.5526374275844077,1.277044635035593,0.9829429551727838,0.2832851375,0.7552495860905455
0.07200000000000001,1.6704,1.0,2616.6204679949783,0.5551467933132425,1.2762531774638848,0.9830577501016722,0.2832098,0.7566459883326129
0.0725,1.66859375,1.0,2614.625826960319,0.5576420782709419,1.2754559726624428,0.9831700028887029,0.2831339375,0.7580484921064654
0.073,1.6667750000000001,1.0,2612.6428667356886,0.5601233610471854,1.274653021242942,0.9832797744996192,0.28305755,0.7594570086802424
0.0735,1.66494375,1.0,2610.671509078335,0.562590720231652,1.2738443238170571,0.9833871239277262,0.2829806375,0.7608714487027384
0.074,1.6631,1.0,2608.7116759127334,0.5650442344140207,1.2730298809964624,0.9834921082691764,0.2829032,0.7622917222036275
0.0745,1.6612437500000001,1.0,2606.7632893292853,0.5674839821839708,1.2722096933928326,0.9835947827949032,0.2828252375,0.7637177385936864
0.075,1.659375,1.0,2604.826271583128,0.5699100421311812,1.2713837616178423,0.9836952010193677,0.28274675,0.7651494066650196
0.0755,1.65749375,1.0,2602.9005450924615,0.5723224928453313,1.270552086283166,0.9837934147662835,0.2826677375,0.7665866345912827
