Time [s],Phi [rad],STIM [ ],Fsee [N],Gamma [ ],Lcerel [ ],q [ ],Lmtc [m],fisomrel [ ]
0.0,1.8,1.0,17.96700069881596,1.3260500141246543e-05,1.3793397638615275,0.005000046760459817,0.288653,0.5411394883720682
0.0005,1.79999375,1.0,18.27744575882135,0.005622395428017986,1.3793023098547321,0.012949569143043255,0.2886527375,0.5412300948305637
0.001,1.799975,1.0,21.62150365684126,0.011200067543855165,1.3789379832487467,0.035625571517670936,0.28865195,0.5421109848576932
0.0015,1.79994375,1.0,31.07742553612533,0.016746453330016314,1.3780455060549546,0.07062496947434285,0.2886506375,0.544265291299915
0.002,1.7999,1.0,53.60060582993149,0.022261728277207588,1.3763669498980622,0.11474538964996907,0.2886488,0.5483033132156555
0.0025,1.79984375,1.0,97.14991246090057,0.027746066892065692,1.3739336747761748,0.16460464980552292,0.28864643749999996,0.554125021901741
0.003,1.7997750000000001,1.0,160.99881424608327,0.033199642704844004,1.3712128223805051,0.2173111525516249,0.28864354999999997,0.5605900526157512
0.0035,1.79969375,1.0,237.7294478348975,0.038622628269027855,1.3685833137982675,0.2706434214763815,0.2886401375,0.5667931785379078
0.004,1.7996,1.0,321.5159725287957,0.04401519517211077,1.3661547892944297,0.32294536596968254,0.2886362,0.57248300470903
0.0045000000000000005,1.7994937500000001,1.0,409.3188179181675,0.049377514040780626,1.363921615463804,0.37306257215003613,0.2886317375,0.5776819445096145
0.005,1.799375,1.0,499.4656922443065,0.054709754532017145,1.361857233383491,0.4202737178133686,0.28862675,0.5824596385460641
0.0055,1.79924375,1.0,590.8431464121876,0.06001208538042302,1.3599378048588344,0.46419800876006334,0.2886212375,0.5868774765095779
0.006,1.7991000000000001,1.0,682.5709667807994,0.06528467434172273,1.3581454539400253,0.5047023039064398,0.2886152,0.5909816129531035
0.006500000000000001,1.79894375,1.0,773.9363333945613,0.0705276882495581,1.3564663134585102,0.5418211621126666,0.2886086375,0.594807931662306
0.007,1.798775,1.0,864.3402618538522,0.07574129298937055,1.3548895154577438,0.5756953742038434,0.28860155,0.5983846677875249
0.0075,1.79859375,1.0,953.2957394016878,0.08092565353637884,1.3534059713290099,0.6065268373776636,0.2885939375,0.6017353935873695
0.008,1.7984,1.0,1040.4111277687355,0.08608093391399728,1.3520078708480017,0.6345474243845415,0.2885858,0.6048802897355121
0.0085,1.79819375,1.0,1125.367906075828,0.09120729712006499,1.350688481616478,0.659998377894954,0.2885771375,0.6078366991757947
0.009000000000000001,1.797975,1.0,1207.935041176428,0.09630490562837112,1.3494415587254216,0.6831169970011962,0.28856795,0.6106205262613129
0.0095,1.79774375,1.0,1287.9328420149814,0.10137392081613592,1.3482615860808158,0.704129075415133,0.2885582375,0.6132457514683499
0.01,1.7975,1.0,1365.2147345248288,0.1064145025215894,1.3471437724001252,0.7232447321940993,0.288548,0.6157244938897006
0.0105,1.79724375,1.0,1439.701346550041,0.11142681030248813,1.346083422639459,0.7406562634461705,0.2885372375,0.6180684457084109
0.011,1.796975,1.0,1511.360639282852,0.11641100343844955,1.3450760842668488,0.7565379082740495,0.28852595000000003,0.6202885716424066
0.0115,1.79669375,1.0,1580.1643294670125,0.12136723934615702,1.344117965573832,0.7710466059965438,0.2885141375,0.62239421482566
0.012,1.7964,1.0,1646.1041263181592,0.1262956743301625,1.343205613482272,0.7843228882470173,0.28850180000000003,0.6243938356959735
0.0125,1.79609375,1.0,1709.2079665793428,0.1311964643530098,1.3423356443419174,0.7964920786789672,0.2884889375,0.6262956205771819
0.013000000000000001,1.7957750000000001,1.0,1769.5308179723895,0.13606976524197445,1.3415047988384603,0.807665737876347,0.28847555,0.628107373629792
0.0135,1.79544375,1.0,1827.1228309867345,0.14091573124821355,1.3407102473132233,0.8179431835304711,0.2884616375,0.6298358653563847
0.014,1.7951000000000001,1.0,1882.0300992815662,0.1457345148414858,1.3399495157044579,0.827412775195827,0.2884472,0.6314870113912774
0.0145,1.79474375,1.0,1934.3228079699356,0.15052626849154985,1.3392201299504143,0.8361530130961181,0.2884322375,0.6330666563661481
0.015,1.794375,1.0,1984.0773396799593,0.15529114371132463,1.3385197844046455,0.8442337315918463,0.28841675,0.6345802154548226
0.0155,1.79399375,1.0,2031.392769979962,0.16002929283655076,1.3378461375022979,0.8517170451870251,0.2884007375,0.6360331230063089
0.016,1.7936,1.0,2076.3402601242474,0.16474086503048144,1.337197323261901,0.85865841740335,0.2883842,0.637429735921585
0.0165,1.7931937500000001,1.0,2118.9915482450365,0.16942600852053938,1.3365716165789114,0.8651073402437623,0.2883671375,0.6387740654128132
0.017,1.792775,1.0,2159.4308638339294,0.17408487153414734,1.335967292348785,0.8711079992173619,0.28834955,0.6400700844127104
0.0175,1.7923437500000001,1.0,2197.746748681546,0.17871760155017005,1.3353826975128376,0.8766999201021286,0.2883314375,0.641321575921596
0.018000000000000002,1.7919,1.0,2234.0328487171637,0.1833243463444138,1.3348162301092141,0.8819185112491049,0.2883128,0.6425321812992786
0.0185,1.79144375,1.0,2268.3709091507844,0.1879052518593427,1.33426649791142,0.8867955829571768,0.2882936375,0.6437050649682227
0.019,1.790975,1.0,2300.8304818030147,0.1924604618222336,1.3337323058153052,0.8913597576438403,0.28827395,0.6448429466045906
0.0195,1.79049375,1.0,2331.487637336977,0.1969901199603632,1.3332124587167191,0.8956367868706157,0.2882537375,0.6459485247320114
0.02,1.79,1.0,2360.4244197405487,0.20149437000100823,1.3327057615115117,0.8996498773435737,0.288233,0.6470244778604756
0.0205,1.78949375,1.0,2387.7137773028,0.2059733537035158,1.332211160548783,0.9034200074163595,0.2882117375,0.6480731658381083
0.021,1.788975,1.0,2413.4477844304456,0.21042721575650955,1.331727462382516,0.9069661145892667,0.28818995000000003,0.6490972280014556
0.021500000000000002,1.78844375,1.0,2437.689833426561,0.21485609603655592,1.3312537932218722,0.9103054131409815,0.2881676375,0.650098611212121
0.022,1.7879,1.0,2460.4998421550617,0.21926013339161077,1.330789346122623,0.913453528088978,0.2881448,0.6510791087109934
0.0225,1.78734375,1.0,2481.9408197474654,0.22363946666963008,1.3303333141405391,0.9164246518033289,0.28812143749999997,0.6520405024519385
0.023,1.786775,1.0,2502.078607829645,0.22799423471856967,1.3298848903313913,0.9192316951998738,0.28809755,0.6529845635556311
0.0235,1.78619375,1.0,2520.9762223711123,0.23232457533157996,1.3294433189552126,0.921886430235321,0.28807313749999996,0.6539129451395856
0.024,1.7856,1.0,2538.696743257859,0.2366306263302756,1.3290078651797417,0.9243996016700986,0.2880482,0.6548272469702453
0.0245,1.78499375,1.0,2555.307793890993,0.24091252609342986,1.3285777707494766,0.9267810234208341,0.2880227375,0.6557291089582411
0.025,1.784375,1.0,2570.8550329609484,0.24517040821445918,1.3281525008742134,0.9290397117600826,0.28799675,0.6566196944196407
0.025500000000000002,1.78374375,1.0,2585.385565388692,0.24940440628677993,1.3277315207637481,0.9311839275351896,0.2879702375,0.657500160388651
0.026000000000000002,1.7831000000000001,1.0,2598.9478213556645,0.25361465390380844,1.3273142956278767,0.9332212497198902,0.2879432,0.6583716577730451
0.0265,1.78244375,1.0,2611.591441674776,0.25780128465896107,1.326900290676395,0.935158640907684,0.2879156375,0.6592353314913537
0.027,1.781775,1.0,2623.364529333564,0.2619644313335408,1.3264889955978738,0.9370025091579022,0.28788755,0.6600922696221031
0.0275,1.7810937500000001,1.0,2634.3094141916845,0.2661042251255944,1.3260799625483273,0.9387587651613024,0.2878589375,0.660943424822964
0.028,1.7804,1.0,2644.4813484653982,0.27022080114950164,1.325672632058697,0.9404328444220956,0.2878298,0.661789976811099
0.0285,1.77969375,1.0,2653.9141124088815,0.2743142874696862,1.3252666503765118,0.942029792229393,0.2878001375,0.6626326726812628
0.029,1.778975,1.0,2662.642095923407,0.27838481215057187,1.3248616637493003,0.9435542718091655,0.28776995,0.6634722558228208
0.029500000000000002,1.7782437500000001,1.0,2670.700245088924,0.2824325032565824,1.3244573184245911,0.9450105981893474,0.2877392375,0.6643094659461846
0.03,1.7775,1.0,2678.1240114709144,0.2864574888521415,1.3240532606499134,0.9464027686587119,0.287708,0.6651450391012733
0.0305,1.77674375,1.0,2684.949304201384,0.2904598970016729,1.3236491366727958,0.9477344901991828,0.2876762375,0.665979707687991
0.031,1.775975,1.0,2691.204719440159,0.29443985261732103,1.323244663459484,0.9490092122292941,0.28764395,0.6668140546714441
0.0315,1.7751937500000001,1.0,2696.9233978294005,0.2983974838862323,1.3228395195032823,0.9502301365052035,0.2876111375,0.6676487393076844
0.032,1.7744,1.0,2702.144832268651,0.30233292059822753,1.3224333281996854,0.9514002351882409,0.2875778,0.6684845308229399
0.0325,1.77359375,1.0,2706.891159563772,0.30624628462660597,1.3220258741729758,0.9525222928623351,0.2875439375,0.6693218634028405
0.033,1.772775,1.0,2711.184731340104,0.3101376978446669,1.3216169420474366,0.9535989048258504,0.28750955,0.6701611689670146
0.0335,1.7719437500000002,1.0,2715.0480936299564,0.31400728212570966,1.3212063164473504,0.9546324922340927,0.2874746375,0.6710028771502697
0.034,1.7711000000000001,1.0,2718.503967487935,0.31785515934303343,1.3207937819970001,0.9556253158587797,0.2874392,0.6718474152808073
0.0345,1.7702437500000001,1.0,2721.5752306351924,0.32168145136993764,1.3203791233206683,0.9565794886054239,0.2874032375,0.6726952083554847
0.035,1.7693750000000001,1.0,2724.284900132042,0.32548628007972147,1.319962125042638,0.9574969869138166,0.28736675,0.673546679012115
0.035500000000000004,1.76849375,1.0,2726.656116079036,0.3292697673456842,1.319542571787192,0.9583796611529641,0.2873297375,0.6744022474988114
0.036000000000000004,1.7676,1.0,2728.7046758560223,0.33303202784630526,1.319120315910576,0.9592292504405622,0.2872922,0.6752621937918819
0.0365,1.76669375,1.0,2730.4590647384575,0.33677318997610955,1.318695095223984,0.9600473771286364,0.2872541375,0.6761270289546422
0.037,1.765775,1.0,2731.934281140481,0.34049337057093854,1.3182667708750486,0.9608355735339875,0.28721555,0.6769970107039838
0.0375,1.76484375,1.0,2733.143875103031,0.34419268503822903,1.3178352177225943,0.961595279869339,0.2871764375,0.6778723672679563
0.038,1.7639,1.0,2734.1014490743305,0.3478712487854178,1.317400310625445,0.9623278498356053,0.28713679999999997,0.6787533253025224
0.0385,1.76294375,1.0,2734.820651379506,0.35152917721994176,1.3169619244424255,0.9630345567655719,0.28709663750000003,0.6796401098652873
0.039,1.761975,1.0,2735.3151700366957,0.3551665857492377,1.31651993403236,0.9637165992668926,0.28705595,0.6805329443882351
0.0395,1.7609937500000001,1.0,2735.598726921121,0.35878358978074243,1.3160742142540722,0.9643751064101737,0.2870147375,0.6814320506494607
0.04,1.76,1.0,2735.6850722756903,0.36238030472189275,1.315624639966387,0.9650111425033051,0.286973,0.6823376487439052
0.0405,1.7589937500000001,1.0,2735.5871147678745,0.3659568449705349,1.3151710938800951,0.9656257119986115,0.2869307375,0.6832499412704856
0.041,1.757975,1.0,2735.306381051664,0.36951331083412053,1.3147135622231083,0.96621976950492,0.28688795,0.6841689214057454
0.0415,1.75694375,1.0,2734.8749365338494,0.3730498386522929,1.3142517540742014,0.9667941992544735,0.2868446375,0.6850951373127796
0.042,1.7559,1.0,2734.2998613500104,0.37656653645077404,1.3137856054579833,0.9673498512288112,0.28680079999999997,0.686028679232675
0.0425,1.75484375,1.0,2733.5882443742835,0.38006351225528584,1.3133150523990633,0.9678875292840528,0.2867564375,0.6869696362888145
0.043000000000000003,1.753775,1.0,2732.747181413689,0.38354087409155047,1.31284003092205,0.9684079941185378,0.28671155,0.6879180964690395
0.043500000000000004,1.75269375,1.0,2731.7837734943528,0.38699872998528984,1.312360477051553,0.9689119660206771,0.28666613750000003,0.6888741466075456
0.044,1.7516,1.0,2730.705125236894,0.390437187962226,1.311876326812181,0.9694001274153352,0.2866202,0.6898378723665234
0.0445,1.75049375,1.0,2729.5183433243697,0.393856356048081,1.3113875162285429,0.9698731252253765,0.2865737375,0.690809358217535
0.045,1.7493750000000001,1.0,2728.23053505918,0.39725634226857687,1.310893981325248,0.9703315730634783,0.28652675,0.6917886874226287
0.0455,1.74824375,1.0,2726.8488070119456,0.40063725464943556,1.3103956581269054,0.9707760532679592,0.2864792375,0.6927759420151954
0.046,1.7471,1.0,2725.380263760793,0.4039992012163791,1.3098924826581237,0.9712071187951233,0.2864312,0.6937712027805627
0.0465,1.7459437500000001,1.0,2723.832006721057,0.4073422899951296,1.3093843909435126,0.9716252949795248,0.28638263750000004,0.6947745492363259
0.047,1.744775,1.0,2722.2111330659964,0.410666629011409,1.3088713190076806,0.9720310811725434,0.28633355,0.6957860596124221
0.0475,1.74359375,1.0,2720.5177566747325,0.4139723084650974,1.3083532664077842,0.9724249545121078,0.28628393750000003,0.6968056858917413
0.048,1.7424,1.0,2718.7680462810904,0.41725945599767283,1.307830086506666,0.9728073634699036,0.2862338,0.6978336665857732
0.0485,1.74119375,1.0,2716.965388152996,0.42052817222611594,1.307301748953506,0.9731787396641722,0.2861831375,0.6988700098536875
0.049,1.739975,1.0,2715.1130410389997,0.4237785574812792,1.3067682245343921,0.9735394942432652,0.28613195,0.6999147207143392
0.0495,1.73874375,1.0,2713.214260773138,0.4270107120940152,1.3062294840354127,0.9738900190000614,0.2860802375,0.7009678032761637
0.05,1.7375,1.0,2711.2722999871885,0.43022473639517655,1.3056854982426556,0.9742306874554092,0.286028,0.7020292607274854
0.0505,1.73624375,1.0,2709.2904078423066,0.4334207307156159,1.305136237942209,0.9745618558714948,0.2859752375,0.703099095326772
0.051000000000000004,1.734975,1.0,2707.271829779585,0.4365987953861857,1.3045816739201608,0.9748838642002576,0.28592195,0.7041773083928344
0.051500000000000004,1.73369375,1.0,2705.2198072892047,0.4397590307377386,1.3040217769625992,0.975197036971553,0.2858681375,0.7052639002949731
0.052000000000000005,1.7324,1.0,2703.1375776988402,0.4429015371011272,1.3034565178556128,0.9755016841253881,0.2858138,0.7063588704430681
0.0525,1.73109375,1.0,2701.028373981182,0.4460264148072039,1.302885867385289,0.9757981017922136,0.28575893750000003,0.7074622172776184
0.053,1.729775,1.0,2698.8954245794303,0.4491337641868215,1.3023097963377162,0.9760865730249317,0.28570355000000003,0.7085739382597213
0.0535,1.72844375,1.0,2696.741953253054,0.4522236855708325,1.3017282754989825,0.9763673684859995,0.2856476375,0.7096940298610017
0.054,1.7271,1.0,2694.567628047468,0.45529625613341157,1.3011413081399912,0.9766407467673248,0.2855912,0.710822425164971
0.0545,1.7257437500000001,1.0,2692.3801369605967,0.4583516004591396,1.300548824140103,0.9769069556104153,0.2855342375,0.7119591974107187
0.055,1.724375,1.0,2690.1819388881627,0.46138981815556646,1.2999508011428038,0.9771662325742732,0.28547675,0.713104326829688
0.0555,1.72299375,1.0,2687.974239245033,0.464411001571318,1.2993472282371674,0.9774188051635289,0.2854187375,0.714257770876037
0.056,1.7216,1.0,2685.758241554605,0.46741524305501975,1.2987380945122686,0.9776648913623966,0.2853602,0.7154194862473815
0.0565,1.72019375,1.0,2683.5351474278355,0.4704026349552975,1.298123389057181,0.9779047001089655,0.28530113749999997,0.7165894288809332
0.057,1.718775,1.0,2681.3061565437633,0.47337326962077686,1.297503100960979,0.9781384317421206,0.28524155,0.7177675539496223
0.0575,1.71734375,1.0,2679.072466632677,0.4763272394000835,1.296877219312737,0.9783662784228813,0.2851814375,0.7189538158582178
0.058,1.7159,1.0,2676.835273463025,0.47926463664184304,1.2962457332015285,0.9785884245318133,0.2851208,0.7201481682394414
0.0585,1.71444375,1.0,2674.59577082986,0.4821855536946813,1.2956086317164284,0.9788050470440551,0.2850596375,0.721350563950067
0.059000000000000004,1.7129750000000001,1.0,2672.3551505463147,0.4850900829072238,1.2949659039465105,0.9790163158833867,0.28499795,0.7225609550670216
0.059500000000000004,1.71149375,1.0,2670.114602437942,0.48797831662809626,1.294317538980849,0.979222394256664,0.2849357375,0.7237792928834708
0.06,1.71,1.0,2667.8753143390118,0.49085034720592435,1.2936635259085183,0.9794234389698563,0.284873,0.7250055279049012
0.0605,1.7084937500000001,1.0,2665.63847209259,0.49370626698933373,1.2930038538185922,0.979619600726832,0.2848097375,0.7262396098451948
0.061,1.7069750000000001,1.0,2663.40525955182,0.49654616832695014,1.2923385118001454,0.9798110244119596,0.28474595,0.7274814876226923
0.0615,1.7054437500000001,1.0,2661.176829145556,0.49937014327702195,1.291667489213259,0.979997849349134,0.2846816375,0.7287311088521476
0.062,1.7039,1.0,2658.9501090647054,0.5021782353906563,1.2909908143030229,0.9801802078639007,0.2846168,0.7299883481864275
0.0625,1.70234375,1.0,2656.733049155977,0.5049705978859832,1.2903084138163632,0.9803582304246002,0.2845514375,0.7312532680721531
0.063,1.7007750000000001,1.0,2654.525792787822,0.5077473142114884,1.2896202863311583,0.9805320409841659,0.28448555,0.7325257963821998
0.0635,1.69919375,1.0,2652.3284831164174,0.5105084678156576,1.2889264304252857,0.9807017589007967,0.28441913750000003,0.7338058603370619
0.064,1.6976,1.0,2650.141263087653,0.5132541421469764,1.2882268446766234,0.9808674991404976,0.2843522,0.7350933865043292
0.0645,1.69599375,1.0,2647.964275440654,0.5159844206539305,1.2875215276630492,0.9810293724692485,0.2842847375,0.7363883007981711
0.065,1.694375,1.0,2645.797662709601,0.5186993867850055,1.2868104779624414,0.9811874856354037,0.28421675,0.7376905284788136
0.0655,1.69274375,1.0,2643.641567227013,0.5213991239886872,1.2860936941526775,0.981341941542888,0.2841482375,0.7389999941520224
0.066,1.6911,1.0,2641.496131126309,0.5240837157134611,1.2853711748116357,0.9814928394157152,0.2840792,0.7403166217685806
0.0665,1.6894437500000001,1.0,2639.3614963449213,0.5267532454078131,1.2846429185171937,0.9816402749543202,0.2840096375,0.7416403346237699
0.067,1.687775,1.0,2637.2378046265226,0.5294077965202286,1.2839089238472297,0.9817843404841711,0.28393955,0.7429710553568494
0.0675,1.68609375,1.0,2635.1251975247187,0.5320474524991936,1.2831691893796213,0.9819251250970886,0.2838689375,0.7443087059505362
0.068,1.6844000000000001,1.0,2633.0238164055895,0.5346722967931936,1.2824237136922465,0.9820627147856845,0.2837978,0.7456532077304846
0.0685,1.68269375,1.0,2630.9338024506305,0.5372824128507142,1.2816724953629832,0.9821971925712942,0.2837261375,0.7470044813647647
0.069,1.680975,1.0,2628.8552966600305,0.5398778841202412,1.2809155329697095,0.9823286386257649,0.28365395,0.7483624468633421
0.0695,1.67924375,1.0,2626.788439855606,0.5424587940502602,1.2801528250903031,0.9824571303874319,0.28358123749999997,0.7497270235775575
0.07,1.6775,1.0,2624.7333726841357,0.5450252260892569,1.2793843703026422,0.9825827426715986,0.283508,0.7510981301996049
0.07050000000000001,1.67574375,1.0,2622.6902356202886,0.5475772636857169,1.2786101671846044,0.9827055477758172,0.2834342375,0.7524756847620114
0.07100000000000001,1.673975,1.0,2620.659168970015,0.550114990288126,1.2778302143140678,0.9828256155802451,0.28335995,0.7538596046371147
0.07150000000000001,1.67219375,1.0,2618.6375656436117,0.5526384596188618,1.2770445357632996,0.9829430130103487,0.2832851375,0.7552497614913833
0.07200000000000001,1.6704,1.0,2616.625920126745,0.5551477614366023,1.2762531268484318,0.9830578056618565,0.2832098,0.7566460775078578
0.0725,1.66859375,1.0,2614.6274262396328,0.5576430092133746,1.2754559578096933,0.9831700572434051,0.2831339375,0.7580485181988025
0.073,1.6667750000000001,1.0,2612.6418199459376,0.5601242772605443,1.2746530309683286,0.9832798285036839,0.28305755,0.7594569916451223
0.0735,1.66494375,1.0,2610.6688376744496,0.5625916398894766,1.2738443486455826,0.983387178229921,0.2829806375,0.7608714053408054
0.074,1.6631,1.0,2608.7082163135806,0.5650451714115369,1.2730299131626999,0.9834921633225338,0.2829032,0.7622916661937773
0.0745,1.6612437500000001,1.0,2606.7596932055485,0.5674849461380904,1.2722097268409251,0.9835948388664606,0.2828252375,0.7637176805267504
0.075,1.659375,1.0,2604.8230061411714,0.5699110383805025,1.271383792001503,0.9836952581993476,0.28274675,0.765149354078077
0.0755,1.65749375,1.0,2602.8978933541653,0.5723235224501384,1.270552110965678,0.9837934729767411,0.2826677375,0.7665865920026002
