Time [s],Phi [rad],STIM [ ],Fsee [N],Gamma [ ],Lcerel [ ],q [ ],Lmtc [m],fisomrel [ ]
0.0,1.8,1.0,17.968776558149496,1.0960642973625077e-05,1.3793395649099363,0.005000031995109838,0.288653,0.5411399696873096
0.0005,1.79999375,1.0,18.2782824118735,0.005620108471228789,1.379302216921711,0.012943178402068531,0.2886527375,0.5412303196373573
0.001,1.799975,1.0,21.62052930273777,0.011197793415085979,1.378938082758613,0.0356135736473969,0.28865195,0.5421107443725335
0.0015,1.79994375,1.0,31.072801368161908,0.01674419195730975,1.3780458999809286,0.07060854253570664,0.2886506375,0.5442643415421228
0.002,1.7999,1.0,53.58874543816949,0.02225947958901648,1.3763677192509527,0.11472593374177718,0.2886488,0.548301466536467
0.0025,1.79984375,1.0,97.12876584755588,0.02774383081723558,1.3739346936739896,0.16458348499114753,0.28864643749999996,0.5541225920501901
0.003,1.7997750000000001,1.0,160.97064802432322,0.03319741917262609,1.3712138765820043,0.217289320432907,0.28864354999999997,0.5605875568653076
0.0035,1.79969375,1.0,237.69725031227122,0.038620417209069544,1.368584305504517,0.2706217092080608,0.2886401375,0.566790847371661
0.004,1.7996,1.0,321.4814719675271,0.04401299651445169,1.366155703037114,0.3229243441929885,0.2886362,0.5724808709610865
0.0045000000000000005,1.7994937500000001,1.0,409.28291365283593,0.049375327715847336,1.3639224582396716,0.37304261817601675,0.2886317375,0.5776799884846762
0.005,1.799375,1.0,499.4289136813758,0.0547075804706041,1.3618580148984545,0.42025505040105143,0.28862675,0.5824578349928249
0.0055,1.79924375,1.0,590.8059319462384,0.06000992351383191,1.3599385319182562,0.46418072642049585,0.2886212375,0.5868758075272018
0.006,1.7991000000000001,1.0,682.5336030698563,0.06528252460151632,1.3581461330958338,0.5046864224156882,0.2886152,0.5909800616980272
0.006500000000000001,1.79894375,1.0,773.8967145743669,0.07052555056615568,1.3564669897623558,0.5418066678430952,0.2886086375,0.59480639416379
0.007,1.798775,1.0,864.3010067335107,0.07573916730035199,1.3548901495409493,0.5756821667001791,0.28860155,0.5983832326492431
0.0075,1.79859375,1.0,953.2582216655613,0.08092353976654576,1.3534065483803444,0.6065148149761842,0.2885939375,0.6017340929907249
0.008,1.7984,1.0,1040.3594235224107,0.0860788315964563,1.3520086320790463,0.634536630498807,0.2885858,0.6048785808094344
0.0085,1.79819375,1.0,1125.329142633651,0.09120520689551308,1.3506890303559367,0.6599884779817068,0.2885771375,0.6078354719005514
0.009000000000000001,1.797975,1.0,1207.914341496802,0.09630282759602166,1.3494418415590679,0.6831078721590521,0.28856795,0.6106198959432632
0.0095,1.79774375,1.0,1287.9057708390783,0.10137185422519264,1.3482619443010984,0.7041208260542889,0.2885582375,0.6132449558406208
0.01,1.7975,1.0,1365.1801270571434,0.10641244731023666,1.3471442171946872,0.7232372767877453,0.288548,0.615723509146326
0.0105,1.79724375,1.0,1439.6722694000337,0.11142476679935694,1.3460837865588544,0.7406494395387173,0.2885372375,0.6180676424779505
0.011,1.796975,1.0,1511.3347037290905,0.11640897145634369,1.3450764010781848,0.7565316654306053,0.28852595000000003,0.6202878744226012
0.0115,1.79669375,1.0,1580.132836019434,0.12136521845903996,1.344118341808335,0.7710409316345559,0.2885141375,0.6223933891297257
0.012,1.7964,1.0,1646.0681836186948,0.12629366443957984,1.3432060341815713,0.7843177179301042,0.28850180000000003,0.6243929148640247
0.0125,1.79609375,1.0,1709.1847803800345,0.13119446627955306,1.3423359106724522,0.7964872796082912,0.2884889375,0.6262950391073433
0.013000000000000001,1.7957750000000001,1.0,1769.517263748325,0.13606777882843019,1.341504951853389,0.8076612875376343,0.28847555,0.6281070403686686
0.0135,1.79544375,1.0,1827.1019145074508,0.14091375553108637,1.3407104796903264,0.8179391191648422,0.2884616375,0.6298353604247056
0.014,1.7951000000000001,1.0,1882.0026526570537,0.14573254983239678,1.3399498161492085,0.8274090553878416,0.2884472,0.6314863600131357
0.0145,1.79474375,1.0,1934.2877568201263,0.15052431416391895,1.3392205084166477,0.8361496084753667,0.2884322375,0.6330658375942316
0.015,1.794375,1.0,1984.0586383219063,0.155289201543022,1.3385199837849469,0.8442305267224919,0.28841675,0.6345797850071407
0.0155,1.79399375,1.0,2031.3786392281902,0.16002736172105259,1.337846286389185,0.851714060892876,0.2884007375,0.636032802209939
0.016,1.7936,1.0,2076.3189778444694,0.16473894402895786,1.3371975450597735,0.858655670849872,0.2883842,0.6374292589466264
0.0165,1.7931937500000001,1.0,2118.96517753881,0.16942409779768505,1.3365718886271245,0.8651048035690112,0.2883671375,0.6387734814603652
0.017,1.792775,1.0,2159.3982798222937,0.1740829711721259,1.335967625333207,0.8711056571732233,0.28834955,0.6400693709437688
0.0175,1.7923437500000001,1.0,2197.724983942692,0.1787157131403132,1.3353829179846592,0.8766977086823605,0.2883314375,0.6413211043497938
0.018000000000000002,1.7919,1.0,2234.0172292242755,0.18332246921486467,1.3348163870407732,0.8819164312444965,0.2883128,0.6425318462020508
0.0185,1.79144375,1.0,2268.3491835215887,0.18790338447533622,1.334266714534011,0.8867936537440699,0.2882936375,0.6437046031716773
0.019,1.790975,1.0,2300.8025348938045,0.19245860400128378,1.3337325824968358,0.8913579668222232,0.28827395,0.6448423577168134
0.0195,1.79049375,1.0,2331.457341278378,0.1969882717642646,1.3332127566769918,0.8956351138895332,0.2882537375,0.6459478915424741
0.02,1.79,1.0,2360.402440116135,0.20149253283612756,1.3327059763507512,0.8996482893250762,0.288233,0.6470240220041243
0.0205,1.78949375,1.0,2387.708837299825,0.20597152924400847,1.3322112085578957,0.9034184795991319,0.2882117375,0.6480730641214999
0.021,1.788975,1.0,2413.44210988901,0.2104254016128589,1.331727517235398,0.9069646783135962,0.28818995000000003,0.6490971119542053
0.021500000000000002,1.78844375,1.0,2437.6718366803243,0.21485429056763045,1.3312539663202307,0.9103040841026819,0.2881676375,0.6500982455265161
0.022,1.7879,1.0,2460.471260881702,0.2192583367332747,1.3307896197493667,0.9134522950196494,0.2881448,0.6510785314606804
0.0225,1.78734375,1.0,2481.9029247050657,0.2236376782059855,1.3303336753638113,0.9164235048756827,0.28812143749999997,0.6520397414561101
0.023,1.786775,1.0,2502.04912386862,0.2279924574199647,1.3298851702449985,0.919230597356604,0.28809755,0.6529839746569781
0.0235,1.78619375,1.0,2520.963705816736,0.23232281083260872,1.3294434373379378,0.9218853635617441,0.28807313749999996,0.6539126964125136
0.024,1.7856,1.0,2538.6982754573282,0.2366288740438105,1.329007850738744,0.9243985684949014,0.2880482,0.6548272772712768
0.0245,1.78499375,1.0,2555.3063255526226,0.24091078265346297,1.3285777845435325,0.9267800479860383,0.2880227375,0.6557290800524999
0.025,1.784375,1.0,2570.8430774291537,0.24516867226145905,1.3281526128484185,0.9290388016416986,0.28799675,0.6566194600789413
0.025500000000000002,1.78374375,1.0,2585.3653303735173,0.24940267846769165,1.327731709749517,0.9311830753664179,0.2879702375,0.6574997653847525
0.026000000000000002,1.7831000000000001,1.0,2598.9212122490935,0.2536129331691329,1.327314543495614,0.9332204483711745,0.2879432,0.6583711403579651
0.0265,1.78244375,1.0,2611.572129522428,0.25779957482165317,1.3269004701358074,0.9351578686789724,0.2879156375,0.6592349573500897
0.027,1.781775,1.0,2623.357971163709,0.2619627342839544,1.3264890564031113,0.9370017570852575,0.28788755,0.660092143013412
0.0275,1.7810937500000001,1.0,2634.317398482872,0.2661025416133592,1.3260798886745977,0.9387580296382425,0.2878589375,0.6609435784501339
0.028,1.7804,1.0,2644.489874183597,0.2702191268671902,1.325672553327338,0.9404321415651072,0.2878298,0.6617901403356259
0.0285,1.77969375,1.0,2653.915591892765,0.2743126201027698,1.325266636738404,0.942029129215104,0.2878001375,0.6626327009722166
0.029,1.778975,1.0,2662.6354094833314,0.2783831513774206,1.3248617252848676,0.9435536476790419,0.28776995,0.6634721283320767
0.029500000000000002,1.7782437500000001,1.0,2670.6881929852266,0.28243084931409634,1.3244574291731683,0.9450100073193128,0.2877392375,0.664309236780416
0.03,1.7775,1.0,2678.1055420845832,0.28645583902568594,1.324053430132565,0.9464022095249491,0.287708,0.6651446888371135
0.0305,1.77674375,1.0,2684.937576642284,0.29045825785437257,1.3236492441527414,0.9477339475417701,0.2876762375,0.6659794858397933
0.031,1.775975,1.0,2691.2092494401877,0.2944382293937827,1.323244621991585,0.9490086756269265,0.28764395,0.6668141401578997
0.0315,1.7751937500000001,1.0,2696.9458266096126,0.29839587723754296,1.322839314406983,0.9502296037526504,0.2876111375,0.6676491615855522
0.032,1.7744,1.0,2702.172859534536,0.30233132497927995,1.3224330721568227,0.9513997179003868,0.2875778,0.6684850573326313
0.0325,1.77359375,1.0,2706.9161581326416,0.30624469621262024,1.3220256459989916,0.9525217984340169,0.2875439375,0.669322332011901
0.033,1.772775,1.0,2711.201765513211,0.3101361145311904,1.321616786691377,0.9535984367545953,0.28750955,0.6701614876221724
0.0335,1.7719437500000002,1.0,2715.055934012734,0.31400570352861706,1.3212062449918662,0.9546320504156884,0.2874746375,0.671003023527504
0.034,1.7711000000000001,1.0,2718.505102607559,0.31785358679852677,1.3207937716583464,0.9556248968579817,0.2874392,0.6718474364324385
0.0345,1.7702437500000001,1.0,2721.573660314675,0.32167988587984886,1.3203791376150569,0.9565790875914554,0.2874032375,0.6726951791487004
0.035,1.7693750000000001,1.0,2724.281347824322,0.3254847190773705,1.3199621573626745,0.9574966016653884,0.28736675,0.6735466130606604
0.035500000000000004,1.76849375,1.0,2726.6581382108884,0.3292682165942089,1.319542553397198,0.9583792850535269,0.2873297375,0.6744022849757616
0.036000000000000004,1.7676,1.0,2728.7192406467516,0.3330304950949488,1.3191201835030166,0.9592288782371509,0.2872922,0.675262463268498
0.0365,1.76669375,1.0,2730.4799449423153,0.336771671244175,1.318694905464519,0.960047013337333,0.2872541375,0.6761274146395451
0.037,1.765775,1.0,2731.9556126914167,0.3404918617064723,1.3182665770660944,0.96083522208123,0.28721555,0.6769974040900248
0.0375,1.76484375,1.0,2733.161668865617,0.34419118314642533,1.317835056092132,0.9615949430972119,0.2871764375,0.6778726948944878
0.038,1.7639,1.0,2734.1135938564594,0.347869752228619,1.31740020032702,0.9623275286021767,0.28713679999999997,0.6787535485726007
0.0385,1.76294375,1.0,2734.826915966481,0.351527685617638,1.3169618675551482,0.9630342505378049,0.28709663750000003,0.679640224859543
0.039,1.761975,1.0,2735.3172043483205,0.35516509997806706,1.3165199155609055,0.9637163062066761,0.28705595,0.6805329816751188
0.0395,1.7609937500000001,1.0,2735.6000623927052,0.35878211197449095,1.3160742021286804,0.9643748234539782,0.2870147375,0.6814320750915754
0.04,1.76,1.0,2735.6810930618703,0.3623788249380971,1.3156246760950392,0.9650108711208182,0.286973,0.6823375760200945
0.0405,1.7589937500000001,1.0,2735.5835929864693,0.3659553685624443,1.315171125856132,0.9656254480955223,0.2869307375,0.6832498769980171
0.041,1.757975,1.0,2735.320704173028,0.36951185883748655,1.3147134321697735,0.9662195027779596,0.28688795,0.6841691824359737
0.0415,1.75694375,1.0,2734.9005671061386,0.3730484048388697,1.3142515213315762,0.9667939336444353,0.2868446375,0.685095603765274
0.042,1.7559,1.0,2734.3313338192906,0.3765651156422399,1.3137853196371532,0.9673495898824215,0.28680079999999997,0.6860292512124031
0.0425,1.75484375,1.0,2733.621165621495,0.38006210032324306,1.3133147533821175,0.9678872745953809,0.2867564375,0.6869702337790271
0.043000000000000003,1.753775,1.0,2732.7782309440927,0.38353946795752525,1.3128397488620818,0.9684077477677764,0.28671155,0.6879186592216506
0.043500000000000004,1.75269375,1.0,2731.8107033087886,0.3869973276207325,1.312360232372659,0.9689117290104515,0.28666613750000003,0.6888746340309261
0.044,1.7516,1.0,2730.7267594151463,0.3904357883885108,1.3118761302094624,0.9693999001046997,0.2866202,0.6898382634106202
0.0445,1.75049375,1.0,2729.5345773494805,0.39385495933650627,1.3113873686681043,0.9698729073616311,0.2865737375,0.6908096512562312
0.045,1.7493750000000001,1.0,2728.2423349132996,0.39725494954036483,1.3108938740441982,0.9703313638119454,0.28652675,0.6917889001332596
0.0455,1.74824375,1.0,2726.858208072954,0.40063586807573254,1.3103955726333567,0.9707758512398398,0.2864792375,0.6927761112551358
0.046,1.7471,1.0,2725.39036952913,0.4039978240182554,1.309892390731193,0.9712069220735545,0.2864312,0.693771384460796
0.0465,1.7459437500000001,1.0,2723.84102699034,0.40734092443661696,1.3093843088674786,0.9716251048581688,0.28638263750000004,0.6947747111817366
0.047,1.744775,1.0,2722.221928679027,0.4106652735255664,1.3088712207484512,0.9720308953142434,0.28633355,0.6957862531676069
0.0475,1.74359375,1.0,2720.538560786843,0.4139709756851859,1.3083530769947107,0.972424769012937,0.28628393750000003,0.6968060583797641
0.048,1.7424,1.0,2718.793912440454,0.41725813511196297,1.30782985093003,0.9728071800468912,0.2862338,0.697834129070139
0.0485,1.74119375,1.0,2716.9909711837686,0.42052685600238515,1.3073015158781822,0.9731785607010011,0.2861831375,0.6988704666421279
0.049,1.739975,1.0,2715.13043936219,0.4237772417954671,1.306768065972026,0.9735393240370499,0.28613195,0.6999150309304296
0.0495,1.73874375,1.0,2713.230941839329,0.4270093961795319,1.3062293319566847,0.9738898525874243,0.2860802375,0.7009681002849574
0.05,1.7375,1.0,2711.289296499929,0.43022342068989533,1.305685343232571,0.9742305241315986,0.286028,0.7020295629234223
0.0505,1.7362437504168822,1.0,2709.3007266948102,0.4334194167076134,1.3051361439869242,0.9745616999398931,0.28597523751750903,0.7030992781657878
0.051000000000000004,1.7349813525053288,1.0,2707.5747275305994,0.43659748561280115,1.3045817783651246,0.9748837247259724,0.2859222168052238,0.7041771055100068
0.051500000000000004,1.7337189545937757,1.0,2706.3928625238004,0.4397577279156153,1.3040224504710627,0.9751969378069112,0.2858691960929386,0.7052625944182724
0.052000000000000005,1.7324565566822225,1.0,2705.701677008703,0.442900244430719,1.3034586450666625,0.9755016812027962,0.28581617538065335,0.7063547536170451
0.0525,1.7311941587706694,1.0,2705.4655659437826,0.4460251337998108,1.302890685505928,0.9757982712307551,0.2857631546683681,0.7074529101841489
0.053,1.7299317608591163,1.0,2705.6490514416687,0.4491324946645891,1.3023188951428633,0.9760870102415701,0.2857101339560829,0.7085563955344338
0.0535,1.7286693629475631,1.0,2706.2191931229545,0.45222242485313174,1.3017435750669335,0.9763681859068335,0.28565711324379767,0.7096645883476591
0.054,1.7274069650360098,1.0,2707.147942031264,0.45529502082714324,1.3011649823975782,0.976642070619685,0.2856040925315124,0.7107769559230435
0.0545,1.7261445671244566,1.0,2708.3898306949022,0.45835038561288777,1.3005835337065526,0.9769089353824245,0.2855510718192272,0.7118926634709242
0.055,1.7248821692129035,1.0,2709.9249930638625,0.46138861384684127,1.2999994121834604,0.9771690249024462,0.28549805110694193,0.7130113287295226
0.0555,1.7236197713013504,1.0,2711.733590096881,0.4644098001654795,1.2994128010179056,0.9774225736009078,0.28544503039465674,0.7141325720236356
0.056,1.7223573733897972,1.0,2713.79579927715,0.46741403920527824,1.298823883399492,0.9776698061350221,0.2853920096823715,0.7152560162947921
0.0565,1.721094975478244,1.0,2716.091804872694,0.4704014256027135,1.2982328425178238,0.9779109378897576,0.28533898897008625,0.7163812871292696
0.057,1.7198325775666907,1.0,2718.6017889405907,0.47337205399426086,1.2976398615625044,0.9781461754409776,0.285285968257801,0.7175080127839706
0.0575,1.7185701796551376,1.0,2721.3059230749036,0.4763260190163963,1.297045123723138,0.9783757169918854,0.28523294754551576,0.7186358242101585
0.058,1.7173077817435844,1.0,2724.1853105697023,0.4792634146873024,1.296448803548765,0.9785997522443419,0.28517992683323057,0.7197643714110517
0.0585,1.7160453838320313,1.0,2727.22942709656,0.48218433086013573,1.2958509992492568,0.9788184587369462,0.2851269061209453,0.720893451030664
0.059000000000000004,1.7147829859204782,1.0,2730.414243529066,0.4850888674252728,1.2952519316873323,0.9790320146250423,0.2850738854086601,0.7220226302133255
0.059500000000000004,1.713520588008925,1.0,2733.730644836769,0.487977114086921,1.2946516858605168,0.9792405828122352,0.28502086469637483,0.7231517347562351
0.06,1.7122581900973717,1.0,2737.1695029707694,0.4908491605492878,1.2940503467663356,0.9794443198874186,0.2849678439840896,0.7242805917302226
0.0605,1.7109957921858185,1.0,2740.721674723476,0.49370509651658073,1.2934479994023138,0.9796433764206801,0.2849148232718044,0.7254090294859045
0.061,1.7097333942742654,1.0,2744.3779997481743,0.49654501169300724,1.2928447287659768,0.9798378972431717,0.28486180255951915,0.7265368776593797
0.0615,1.7084709963627123,1.0,2748.1292987393053,0.49936899578277477,1.2922406198548502,0.9800280217119242,0.2848087818472339,0.7276639671774647
0.062,1.7072085984511591,1.0,2751.96637177263,0.5021771384900908,1.2916357576664588,0.9802138839605266,0.2847557611349487,0.7287901302624699
0.0625,1.705946200539606,1.0,2755.87999680504,0.5049695295191629,1.2910302271983283,0.9803956131365269,0.2847027404226634,0.7299152004365097
0.063,1.7046838026280526,1.0,2759.863451850017,0.5077462548053793,1.290424090636717,0.980573332172168,0.2846497197103782,0.7310390547762626
0.0635,1.7034214047164995,1.0,2763.911418106363,0.5105074004586485,1.2898173973373117,0.9807471588658477,0.284596698998093,0.7321615950275089
0.064,1.7021590068049464,1.0,2768.0107269975233,0.5132530655842134,1.2892102673843964,0.980917211262459,0.28454367828580773,0.7332825932380291
0.0645,1.7008966088933932,1.0,2772.157838866494,0.5159833342491443,1.2886027336732304,0.9810835977041751,0.28449065757352254,0.7344019837893445
0.065,1.69963421098184,1.0,2776.3492042854637,0.5186982905205121,1.2879948290990726,0.981246422666386,0.2844376368612373,0.7355197015695025
0.0655,1.698371813070287,1.0,2780.5812637736967,0.5213980184653872,1.2873865865571816,0.9814057869246154,0.28438461614895205,0.7366356819738888
0.066,1.6971094151587336,1.0,2784.850447538684,0.5240826021508405,1.2867780389428167,0.9815617877130856,0.2843315954366668,0.7377498609059703
0.0665,1.6958470172471805,1.0,2789.153175241773,0.5267521256439422,1.2861692191512368,0.9817145188753993,0.28427857472438156,0.73886217477797
0.067,1.6945846193356273,1.0,2793.485855787736,0.5294066730117635,1.2855601600777007,0.9818640710077939,0.28422555401209637,0.7399725605114731
0.0675,1.6933222214240742,1.0,2797.844887138052,0.5320463283213746,1.284950894617467,0.9820105315953725,0.2841725332998111,0.7410809555379629
0.068,1.692059823512521,1.0,2802.2266561486867,0.5346711756398462,1.284341455665795,0.9821539851417096,0.2841195125875259,0.742187297799288
0.0685,1.6907974256009677,1.0,2806.6275384312307,0.537281299034249,1.2837318761179437,0.9822945132921977,0.28406649187524063,0.7432915257480608
0.069,1.6895350276894145,1.0,2811.043898238728,0.5398767825716537,1.2831221888691717,0.9824321949514738,0.2840134711629554,0.744393578347988
0.0695,1.6882726297778614,1.0,2815.4755860480527,0.5424576954533291,1.2825123955113842,0.9825671040059382,0.2839604504506702,0.7454934514745511
0.07,1.6870102318663083,1.0,2819.9183444142045,0.5450241313021295,1.2819025343680914,0.9826993151178917,0.28390742973838495,0.7465910749899459
0.07050000000000001,1.6857478339547551,1.0,2824.3679715490143,0.547576182352688,1.281292643145168,0.9828289003770101,0.2838544090260997,0.7476863804604754
0.07100000000000001,1.684485436043202,1.0,2828.8234407706605,0.5501139259973308,1.2806827310805238,0.9829559273221186,0.28380138831381446,0.7487793509986556
0.07150000000000001,1.6832230381316486,1.0,2833.2837221406,0.5526374396283833,1.280072807412068,0.9830804613080828,0.2837483676015292,0.749869969860723
0.07200000000000001,1.6819606402200955,1.0,2837.747782460647,0.5551468006381713,1.2794628813777105,0.9832025655913664,0.283695346889244,0.7509582204466445
0.0725,1.6806982423085424,1.0,2842.214585271007,0.5576420864190206,1.278852962215361,0.9833223014116923,0.2836423261769588,0.7520440863001225
0.073,1.6794358443969892,1.0,2846.6830908514053,0.5601233743632569,1.2782430591629295,0.9834397280700151,0.28358930546467354,0.7531275511085923
