Time [s],Phi [rad],STIM [ ],Fsee [N],Gamma [ ],Lcerel [ ],q [ ],Lmtc [m],fisomrel [ ]
0.0,1.8,1.0,17.964680162756082,1.535149029554491e-05,1.379340023848706,0.005000062597720979,0.288653,0.5411388593956098
0.0005,1.79999375,1.0,18.27604467236623,0.0056244746893727255,1.3793024654881605,0.012955383090154756,0.2886527375,0.5412297183501366
0.001,1.799975,1.0,21.62178785766207,0.011202135142196958,1.3789379542240072,0.035636486248441006,0.28865195,0.5421110550016717
0.0015,1.79994375,1.0,31.08103346249279,0.01674850933076795,1.3780451987214404,0.07063991387555771,0.2886506375,0.5442660322821002
0.002,1.7999,1.0,53.61078261268534,0.022263772745418065,1.376366289824376,0.1147630893296326,0.2886488,0.5483048975887557
0.0025,1.79984375,1.0,97.16854296692485,0.027748099892427772,1.373932777202715,0.16462390280043548,0.28864643749999996,0.554127162415385
0.003,1.7997750000000001,1.0,161.023870928988,0.03320166430168105,1.3712118846399046,0.21733101090862078,0.28864354999999997,0.5605922726469712
0.0035,1.79969375,1.0,237.75822688530653,0.038624638526303094,1.3685824274401959,0.27066316939327884,0.2886401375,0.5667952620608825
0.004,1.7996,1.0,321.54690026855764,0.044017194153431076,1.3661539702191094,0.32296448479609735,0.2886362,0.5724849173877025
0.0045000000000000005,1.7994937500000001,1.0,409.35106984936675,0.04937950180940142,1.3639208584501858,0.37308071905487794,0.2886317375,0.5776837014823972
0.005,1.799375,1.0,499.49878356098657,0.05471173115086381,1.3618565302441437,0.42029069405406444,0.28862675,0.5824612612234348
0.0055,1.79924375,1.0,590.8766676556256,0.0600140509119417,1.3599371499735418,0.46421372500369396,0.2886212375,0.5868789798116203
0.006,1.7991000000000001,1.0,682.6046586974498,0.06528662884814003,1.3581448415419308,0.5047167458705357,0.2886152,0.5909830117248256
0.006500000000000001,1.79894375,1.0,773.969590478331,0.07052963178956911,1.3564657457645688,0.5418343696977879,0.2886086375,0.5948092222465237
0.007,1.798775,1.0,864.3757536816598,0.0757432256359026,1.354888942174941,0.57570738388134,0.28860155,0.5983859653123449
0.0075,1.79859375,1.0,953.3332560224078,0.08092757533606643,1.353405394306186,0.6065377352787653,0.2885939375,0.6017366941176316
0.008,1.7984,1.0,1040.4468980570311,0.08608284493449445,1.3520073442204317,0.6345573347867574,0.2885858,0.6048814719862199
0.0085,1.79819375,1.0,1125.4060154915749,0.09120919755473378,1.3506879421447007,0.6600073550460487,0.2885771375,0.6078379057216681
0.009000000000000001,1.797975,1.0,1207.962850681024,0.09630679518825486,1.3494411787492693,0.6831252251240328,0.28856795,0.6106213730686265
0.0095,1.79774375,1.0,1287.9535216370757,0.10137579954786635,1.348261312439529,0.7041366027061899,0.2885582375,0.6132463592407421
0.01,1.7975,1.0,1365.2494033392886,0.1064163711186838,1.3471433268227528,0.723251489031225,0.288548,0.6157254803648962
0.0105,1.79724375,1.0,1439.7428987569476,0.1114286687121445,1.3460829025930117,0.7406623747466248,0.2885372375,0.6180695935357016
0.011,1.796975,1.0,1511.3888933818007,0.11641285105907581,1.3450757391368133,0.7565435572016541,0.28852595000000003,0.620289331183616
0.0115,1.79669375,1.0,1580.1831865608704,0.12136907619154869,1.3441177403005333,0.7710518170016837,0.2885141375,0.6223947092170112
0.012,1.7964,1.0,1646.1342565036082,0.12629750129168504,1.3432052608203717,0.7843276009349454,0.28850180000000003,0.6243946076059331
0.0125,1.79609375,1.0,1709.2463749906844,0.13119828151865562,1.342335203163937,0.7964963591093202,0.2884889375,0.6262965837841389
0.013000000000000001,1.7957750000000001,1.0,1769.5599648255372,0.13607157203163117,1.3415044697988383,0.8076697088031963,0.28847555,0.6281080902659897
0.0135,1.79544375,1.0,1827.1299678592668,0.14091752683059816,1.3407101680245734,0.8179469284359542,0.2884616375,0.6298360376424328
0.014,1.7951000000000001,1.0,1882.0439600274537,0.14573630078686325,1.3399493639784967,0.8274162011413561,0.2884472,0.6314873403399731
0.0145,1.79474375,1.0,1934.3487086229047,0.15052804513080587,1.3392198502892503,0.8361561311085266,0.2884322375,0.6330672613830951
0.015,1.794375,1.0,1984.1101739206933,0.15529291101118436,1.3385194343520834,0.8442365899016907,0.28841675,0.6345809711924282
0.0155,1.79399375,1.0,2031.4130749688206,0.16003104957675718,1.337845923562246,0.8517197340243512,0.2884007375,0.6360335839680265
0.016,1.7936,1.0,2076.339303902475,0.1647426104514799,1.337197333227348,0.8586609799604531,0.2883842,0.6374297144909595
0.0165,1.7931937500000001,1.0,2118.9952759033886,0.16942774458740165,1.3365715781233924,0.8651097086967368,0.2883671375,0.6387741479576823
0.017,1.792775,1.0,2159.447370186465,0.17408659886182762,1.335967123667068,0.8711101673227167,0.28834955,0.6400704458382558
0.0175,1.7923437500000001,1.0,2197.7711025323024,0.17871932003157465,1.3353824508151992,0.8767019194407182,0.2883314375,0.6413221035879798
0.018000000000000002,1.7919,1.0,2234.0517182601284,0.1833260548534596,1.3348160405246103,0.8819203916118894,0.2883128,0.6425325861206075
0.0185,1.79144375,1.0,2268.372921975814,0.187906948901366,1.3342664778419329,0.8867973826481844,0.2882936375,0.6437051077523872
0.019,1.790975,1.0,2300.8297311142096,0.19246214895537114,1.3337323132472938,0.891361449557433,0.28827395,0.6448429307863845
0.0195,1.79049375,1.0,2331.497274177496,0.1969917987611221,1.3332123639392643,0.895638349585976,0.2882537375,0.6459487261416048
0.02,1.79,1.0,2360.443198363354,0.20149604044111108,1.3327055779611672,0.8996513240077172,0.288233,0.6470248673262937
0.0205,1.78949375,1.0,2387.740241772068,0.2059750161178302,1.3322109033563239,0.9034213506365493,0.2882117375,0.648073710749921
0.021,1.788975,1.0,2413.465806994702,0.21042886791377166,1.331727288168057,0.906967395069048,0.28818995000000003,0.649097596571004
0.021500000000000002,1.78844375,1.0,2437.6895302758317,0.21485773606409125,1.331253796137666,0.9103066547050581,0.2881676375,0.6500986050522499
0.022,1.7879,1.0,2460.495172797442,0.2192617634987082,1.3307893908252504,0.9134547076635711,0.2881448,0.651079014405165
0.0225,1.78734375,1.0,2481.944854686584,0.22364108901449045,1.3303332756788393,0.9164257503800354,0.28812143749999997,0.6520405834798724
0.023,1.786775,1.0,2502.093642402882,0.22799584973238884,1.329884747597418,0.919232714561159,0.28809755,0.6529848638475377
0.0235,1.78619375,1.0,2520.9990045549685,0.23232618277335426,1.3294431034799719,0.9218873815686969,0.28807313749999996,0.6539133978618767
0.024,1.7856,1.0,2538.7206111062037,0.2366322252583376,1.329007640225486,0.9244005006381742,0.2880482,0.6548277189836007
0.0245,1.78499375,1.0,2555.32014354055,0.24091411430828977,1.3285776547329453,0.9267818935249131,0.2880227375,0.6557293520733336
0.025,1.784375,1.0,2570.8500393614654,0.2451719834679429,1.328152547643689,0.9290405633533227,0.28799675,0.6566195965400395
0.025500000000000002,1.78374375,1.0,2585.3780849036125,0.2494059724706936,1.3277315906279645,0.9311847406507904,0.2879702375,0.6575000143637254
0.026000000000000002,1.7831000000000001,1.0,2598.9465597460735,0.25361621326586115,1.3273143073799267,0.9332220146907939,0.2879432,0.6583716332410678
0.0265,1.78244375,1.0,2611.598235180724,0.25780283759723605,1.3269002275474637,0.9351593582112321,0.2879156375,0.6592354631040065
0.027,1.781775,1.0,2623.376913243034,0.2619659772086088,1.3264888807784632,0.937003184981484,0.28788755,0.6600925086990641
0.0275,1.7810937500000001,1.0,2634.3273368879113,0.26610576384377005,1.3260797967208129,0.938759402059888,0.2878589375,0.6609437696763819
0.028,1.7804,1.0,2644.495105070215,0.27022232924651024,1.3256725050224012,0.9404334565306927,0.2878298,0.6617902406646495
0.0285,1.77969375,1.0,2653.9157340663946,0.27431580140297274,1.325266635427826,0.9420303902869092,0.2878001375,0.6626327036908857
0.029,1.778975,1.0,2662.637414625049,0.2783863144737066,1.3248617068314625,0.9435548502548854,0.28776995,0.6634721665642503
0.029500000000000002,1.7782437500000001,1.0,2670.7001151642744,0.28243399857800905,1.324457319618487,0.9450111462746117,0.2877392375,0.6643094634757238
0.03,1.7775,1.0,2678.1330874421697,0.28645897946549614,1.3240531773652986,0.9464032831758439,0.287708,0.6651452112227498
0.0305,1.77674375,1.0,2684.966001349834,0.29046138288578405,1.3236489836482968,0.9477349748407695,0.2876762375,0.6659800235440834
0.031,1.775975,1.0,2691.2289071743367,0.2944413345884889,1.3232444420438814,0.9490096690018077,0.28764395,0.6668145111216194
0.0315,1.7751937500000001,1.0,2696.952199810185,0.29839896032322677,1.3228392561284519,0.9502305696347568,0.2876111375,0.6676492815766194
0.032,1.7744,1.0,2702.1665849189726,0.30233438583961375,1.3224331294784075,0.9514006572064752,0.2875778,0.6684849394603332
0.0325,1.77359375,1.0,2706.903047036973,0.306247736887266,1.3220257656701482,0.9525227070057716,0.2875439375,0.6693220862390141
0.033,1.772775,1.0,2711.1864247054596,0.3101391347359282,1.3216169266034852,0.9535993113081899,0.28750955,0.6701612006445422
0.0335,1.7719437500000002,1.0,2715.045717587051,0.3140087078798469,1.321206338102091,0.9546328863588324,0.2874746375,0.6710028327903226
0.034,1.7711000000000001,1.0,2718.503534001373,0.3178565786787852,1.3207937859451901,0.9556256934287068,0.2874392,0.6718474072032894
0.0345,1.7702437500000001,1.0,2721.5795630645543,0.32168286676351,1.3203790838832459,0.9565798482527625,0.2874032375,0.6726952889353702
0.035,1.7693750000000001,1.0,2724.2936243796416,0.3254876917647881,1.319962045666722,0.9574973299063608,0.28736675,0.6735468409845871
0.035500000000000004,1.76849375,1.0,2726.6656539877586,0.3292711733133863,1.3195424850460817,0.9583799912151586,0.2873297375,0.674402424268414
0.036000000000000004,1.7676,1.0,2728.715691088202,0.33303343104007144,1.3191202157717885,0.9592295682574844,0.2872922,0.6752623975949208
0.0365,1.76669375,1.0,2730.463865527847,0.3367745845756104,1.3186950515943061,0.9600476890477014,0.2872541375,0.6761271176317046
0.037,1.765775,1.0,2731.930386059615,0.3404947535507701,1.3182668062640974,0.9608358814795646,0.28721555,0.6769969388726131
0.0375,1.76484375,1.0,2733.1206064706344,0.3441940441418234,1.3178354290850829,0.9615955909910568,0.2871764375,0.6778719388338688
0.038,1.7639,1.0,2734.0673030488156,0.3478725919208307,1.3174006207395943,0.9623281584229535,0.28713679999999997,0.6787526975577813
0.0385,1.76294375,1.0,2734.785233950494,0.3515305132510077,1.3169622460611987,0.9630348566004107,0.28709663750000003,0.6796394597316331
0.039,1.761975,1.0,2735.285250582156,0.3551679205578599,1.3165202057004004,0.9637168862045339,0.28705595,0.6805323959929088
0.0395,1.7609937500000001,1.0,2735.578235307689,0.3587849262668927,1.316074400307703,0.9643753782644446,0.2870147375,0.681431675606269
0.04,1.76,1.0,2735.67509719705,0.3623816428036114,1.3156247305336102,0.9650113989391035,0.286973,0.6823374664400063
0.0405,1.7589937500000001,1.0,2735.586767994475,0.3659581825935216,1.3151710970286257,0.9656259539219799,0.2869307375,0.683249934941877
0.041,1.757975,1.0,2735.324198305186,0.3695146580621286,1.3147134004432532,0.9662199925019743,0.28688795,0.6841692461143002
0.0415,1.75694375,1.0,2734.8983540011823,0.37305118163493783,1.3142515414279967,0.9667944113107371,0.2868446375,0.6850955634889289
0.042,1.7559,1.0,2734.320212845598,0.3765678657374548,1.31378542063336,0.9673500577836017,0.28680079999999997,0.6860290491005911
0.0425,1.75484375,1.0,2733.600761336527,0.38006482279518483,1.3133149387098466,0.9678877333587456,0.2867564375,0.686969863460603
0.043000000000000003,1.753775,1.0,2732.750991768509,0.3835421652336334,1.3128399963079602,0.9684081964368426,0.28671155,0.6879181655294497
0.043500000000000004,1.75269375,1.0,2731.7793227061543,0.38700000000733376,1.312360517490638,0.968912166148946,0.28666613750000003,0.6888740660490459
0.044,1.7516,1.0,2730.693113530374,0.3904384356752379,1.3118764359700792,0.9694003248418457,0.2866202,0.6898376552506413
0.0445,1.75049375,1.0,2729.5049039590895,0.3938575930400788,1.3113876383870344,0.9698733175104676,0.2865737375,0.6908091156241885
0.045,1.7493750000000001,1.0,2728.2202258699804,0.3972575768846974,1.3108940750537692,0.9703317584523001,0.28652675,0.6917885015831038
0.0455,1.74824375,1.0,2726.844611337686,0.4006384919919347,1.3103956962825487,0.9707762306694994,0.2864792375,0.6927758664836472
0.046,1.7471,1.0,2725.3835916924,0.40400044314463146,1.3098924523856381,0.9712072877618084,0.2864312,0.6937712626097418
0.0465,1.7459437500000001,1.0,2723.842696633042,0.40734353512562876,1.3093842936753026,0.9716254556874412,0.28638263750000004,0.6947747411576343
0.047,1.744775,1.0,2722.2274533953023,0.4106678727177675,1.3088711704638079,0.9720312344023104,0.28633355,0.6957863522203998
0.0475,1.74359375,1.0,2720.543385974779,0.4139735607038885,1.3083530330634185,0.9724250993870771,0.28628393750000003,0.6968061447722906
0.048,1.7424,1.0,2718.7960144037443,0.4172607038668329,1.3078298317864006,0.9728075030706825,0.2862338,0.697834166652922
0.0485,1.74119375,1.0,2716.990854084384,0.42052940698944147,1.3073015169450186,0.973178876158278,0.2861831375,0.6988704645513089
0.049,1.739975,1.0,2715.1334151748115,0.4237797748545552,1.3067680388515384,0.9735396288707978,0.28613195,0.6999150839897355
0.0495,1.73874375,1.0,2713.2292020314585,0.42701191224501506,1.306229347818225,0.9738901521028128,0.2860802375,0.7009680693074765
0.05,1.7375,1.0,2711.2528778744568,0.43022592076576244,1.3056856753750763,0.9742308369963432,0.286028,0.7020289154033275
0.0505,1.73624375,1.0,2709.2768624860746,0.4334219030998862,1.3051363615228866,0.9745619976293252,0.2859752375,0.7030988548360149
0.051000000000000004,1.734975,1.0,2707.2854355961463,0.4365999594058047,1.3045815497419175,0.97488398610003,0.28592195,0.7041775496071805
0.051500000000000004,1.733695987270725,1.0,2705.3573930789657,0.4397601891350944,1.304021531156322,0.9751971479803045,0.28586823146537044,0.7052643768921096
0.052000000000000005,1.732415966025175,1.0,2703.9184042609963,0.4429026917393319,1.3034565968902525,0.9755018132752089,0.28581447057305737,0.7063587174865651
0.0525,1.731135944779625,1.0,2702.98607065717,0.4460275666700936,1.3028870380678623,0.9757982972681482,0.28576070968074424,0.7074599559007568
0.053,1.7298559235340751,1.0,2702.528260689564,0.44913491337895595,1.3023131458133037,0.9760869013132373,0.28570694878843117,0.7085674804479087
0.0535,1.728575902288525,1.0,2702.515858123413,0.45222482953025644,1.3017351849983394,0.9763679117745189,0.28565318789611804,0.7096807338457204
0.054,1.727295881042975,1.0,2702.899002589794,0.45529741520694644,1.3011536110294935,0.976641614499831,0.2855994270038049,0.7107987964409967
0.0545,1.7260158597974251,1.0,2703.6470576806987,0.45835276711077333,1.3005687044757743,0.9769082721599722,0.28554566611149185,0.7119210902096769
0.055,1.7247358385518752,1.0,2704.734388986836,0.4613909808005111,1.2999807007909607,0.977168133458415,0.2854919052191788,0.7130471274010335
0.0555,1.723455817306325,1.0,2706.135408523294,0.4644121518349338,1.2993898354288314,0.9774214366357886,0.28543814432686565,0.7141764236029888
0.056,1.722175796060775,1.0,2707.8245591761247,0.46741637577281514,1.2987963438431647,0.9776684100030151,0.2853843834345525,0.7153084977868537
0.0565,1.7208957748152252,1.0,2709.776300377598,0.4704037481729293,1.2982004614877396,0.9779092724431334,0.28533062254223945,0.7164428723485304
0.057,1.7196157535696752,1.0,2711.968889179915,0.4733743630939561,1.2976023892174706,0.97814423176242,0.2852768616499264,0.717579138813945
0.0575,1.718335732324125,1.0,2714.378612532553,0.4763283164343273,1.2970023458292164,0.9783734885271629,0.28522310075761326,0.7187168576911434
0.058,1.7170557110785751,1.0,2716.9877158600902,0.4792657015290726,1.2964004957004078,0.9785972319583368,0.28516933986530013,0.7198556956267619
0.0585,1.7157756898330252,1.0,2719.7818171126064,0.48218661019653813,1.2957969723933969,0.9788156418961225,0.28511557897298706,0.7209953798561863
0.059000000000000004,1.7144956685874753,1.0,2722.7465237467886,0.48509113425506994,1.2951919094705349,0.9790288910850302,0.285061818080674,0.7221356396146031
0.059500000000000004,1.713215647341925,1.0,2725.8674279687502,0.48797936552301435,1.2945854404941737,0.9792371455131288,0.28500805718836086,0.7232762061506813
0.06,1.7119356260963752,1.0,2729.1301023729457,0.49085139581871734,1.2939776990266645,0.979440564732539,0.28495429629604774,0.7244168127391195
0.0605,1.7106556048508252,1.0,2732.5258073337936,0.4937073121186734,1.2933687667449967,0.9796392989855288,0.28490053540373467,0.7255572917682389
0.061,1.7093755836052753,1.0,2736.0375700424106,0.49654720972895444,1.292758799959915,0.9798334974245332,0.28484677451142154,0.7266973375192298
0.0615,1.7080955623597252,1.0,2739.650650318504,0.4993711826939004,1.2921479343965008,0.9800233023781754,0.28479301361910847,0.7278366850378122
0.062,1.7068155411141752,1.0,2743.358424397662,0.5021793180158266,1.2915362318873262,0.9802088464327682,0.28473925272679534,0.7289752088550355
0.0625,1.7055355198686253,1.0,2747.1542549721653,0.5049717026970484,1.2909237542649632,0.9803902572473545,0.2846854918344823,0.7301127844527402
0.063,1.7042554986230753,1.0,2751.0314900853914,0.5077484237398809,1.290310563361984,0.9805676577753122,0.28463173094216915,0.731249288266733
0.0635,1.7029754773775252,1.0,2754.983462112201,0.5105095681466396,1.2896967210109604,0.9807411664744204,0.2845779700498561,0.732384597689725
0.064,1.7016954561319753,1.0,2759.0034868227835,0.5132552229196397,1.2890822890444644,0.9809108975060709,0.28452420915754295,0.7335185910740203
0.0645,1.7004154348864253,1.0,2763.0848625326794,0.5159854750611964,1.2884673292950684,0.9810769609242562,0.2844704482652299,0.7346511477339623
0.065,1.6991354136408754,1.0,2767.2208693361213,0.5187004115736251,1.2878519035953442,0.9812394628549357,0.28441668737291675,0.7357821479481399
0.0655,1.6978553923953252,1.0,2771.404768425595,0.521400119459241,1.2872360737778639,0.9813985056663259,0.2843629264806037,0.7369114729613442
0.066,1.6965753711497753,1.0,2775.6318784498453,0.5240846812353376,1.2866198829540014,0.981554186905127,0.28430916558829056,0.7380390392073806
0.0665,1.6952953499042254,1.0,2779.899464608595,0.5267541785037294,1.2860033565800473,0.9817065998000494,0.28425540469597743,0.7391647959979156
0.067,1.6940153286586754,1.0,2784.197207711395,0.5294087106675659,1.2853865882999147,0.9818558388367253,0.28420164380366436,0.740288568936655
0.0675,1.6927353074131253,1.0,2788.5227985384836,0.5320483587047139,1.284769599440105,0.9820019905701841,0.2841478829113513,0.7414103164372519
0.068,1.6914552861675753,1.0,2792.873920855273,0.5346732035930399,1.2841524113271188,0.9821451386073157,0.28409412201903816,0.7425299972480355
0.0685,1.6901752649220254,1.0,2797.2482513134887,0.5372833263104111,1.283535045287457,0.9822853637284619,0.28404036112672504,0.743647570452295
0.069,1.6888952436764755,1.0,2801.6434593616027,0.5398788078346939,1.2829175226476208,0.9824227440031902,0.28398660023441197,0.7447629954685362
0.0695,1.6876152224309253,1.0,2806.0572071658053,0.5424597291437552,1.2822998647341108,0.9825573549005665,0.28393283934209884,0.7458762320507102
0.07,1.6863352011853754,1.0,2810.487149541203,0.5450261712154618,1.2816820928734283,0.9826892693942196,0.28387907844978577,0.7469872402884099
0.07050000000000001,1.6850551799398255,1.0,2814.9309338926314,0.5475782150276806,1.281064228392074,0.9828185580624819,0.28382531755747265,0.7480959806070413
0.07100000000000001,1.6837751586942755,1.0,2819.3862001660177,0.550115941558278,1.2804462926165487,0.9829452891838674,0.2837715566651596,0.7492024137679628
0.07150000000000001,1.6824951374487254,1.0,2823.850580809593,0.5526394317851212,1.2798283068733534,0.9830695288281323,0.28371779577284645,0.7503065008685982
0.07200000000000001,1.6812151162031754,1.0,2828.321700745192,0.5551487666860767,1.2792102924889892,0.9831913409431513,0.2836640348805334,0.7514082033425162
0.0725,1.6799350949576255,1.0,2832.7971773495024,0.5576440272390113,1.2785922707899566,0.9833107874378311,0.28361027398822025,0.7525074829594882
0.073,1.6786550737120756,1.0,2837.2769740433705,0.5601252779572125,1.2779742421196996,0.9834279263767938,0.2835565130959072,0.7536043390241666
