Time [s],Phi [rad],STIM [ ],Fsee [N],Gamma [ ],Lcerel [ ],q [ ],Lmtc [m],fisomrel [ ]
0.0,1.8,1.0,17.969064309798963,5.5289151895062085e-05,1.3793395326737092,0.005000803794540504,0.288653,0.5411400476750379
0.0005,1.79999375,1.0,18.293566553768102,0.00566418833228607,1.3793005195772499,0.013066725510006597,0.2886527375,0.54123442553708
0.001,1.799975,1.0,21.66892060951353,0.011241626022974554,1.3789331433067178,0.035844968555117956,0.28865195,0.5421226814530946
0.0015,1.79994375,1.0,31.191533035852338,0.016787778698944572,1.3780357946749926,0.0709250500203924,0.2886506375,0.5442887051799964
0.002,1.7999,1.0,53.847787679087865,0.02230282184345599,1.3763509351807601,0.11510063048450819,0.2886488,0.5483417525145641
0.0025,1.79984375,1.0,97.5662379860936,0.027786929955925598,1.3739136376849617,0.16499103398953913,0.28864643749999996,0.5541728046977016
0.003,1.7997750000000001,1.0,161.54097227956893,0.033240276559219635,1.371192548504802,0.2177097164162495,0.28864354999999997,0.5606380482605555
0.0035,1.79969375,1.0,238.3422675224894,0.03866303419958285,1.3685644513098938,0.27103980686498796,0.2886401375,0.5668375166793269
0.004,1.7996,1.0,322.16809049830044,0.04405537445732906,1.3661375272503629,0.32332915469115414,0.2886362,0.5725233135809624
0.0045000000000000005,1.7994937500000001,1.0,409.99418433918845,0.04941746795205207,1.363905769562262,0.37342687424139603,0.2886317375,0.5777187209161283
0.005,1.799375,1.0,500.15488011151285,0.05474948433395203,1.3618425940119776,0.42061453980732716,0.28862675,0.5824934220621274
0.0055,1.79924375,1.0,591.5384614626001,0.06005159232878366,1.3599242246892949,0.4645135508931468,0.2886212375,0.5869086494955676
0.006,1.7991000000000001,1.0,683.2671904503567,0.06532395968709552,1.358132802162303,0.5049922797640639,0.2886152,0.5910105102531149
0.006500000000000001,1.79894375,1.0,774.6286976152492,0.07056675323747562,1.3564544974096133,0.5420862920801587,0.2886086375,0.5948347936111607
0.007,1.798775,1.0,865.0251085095317,0.07578013885336647,1.3548784555286009,0.5759369806056145,0.28860155,0.5984096996225602
0.0075,1.79859375,1.0,953.9694341444914,0.08096428144624841,1.3533956113231356,0.606746574472089,0.2885939375,0.6017587432957503
0.008,1.7984,1.0,1041.0748978979211,0.08611934527980654,1.3519980999757282,0.634747045182791,0.2885858,0.604902224532772
0.0085,1.79819375,1.0,1126.012988966113,0.09124549309234523,1.3506793511405613,0.6601797399651491,0.2885771375,0.6078571195268971
0.009000000000000001,1.797975,1.0,1208.5517608627003,0.09634288709479932,1.3494331331809077,0.6832818929435601,0.28856795,0.6106393030464732
0.0095,1.79774375,1.0,1288.5318749846415,0.10141168928335803,1.3482536603192175,0.7042790404630446,0.2885582375,0.6132633548286579
0.01,1.7975,1.0,1365.7998958636983,0.10645205929972579,1.3471362524321697,0.7233812395633964,0.288548,0.6157411423703729
0.0105,1.79724375,1.0,1440.268308864417,0.11146415656565149,1.3460763274725787,0.7407807098653857,0.2885372375,0.6180841057496572
0.011,1.796975,1.0,1511.8966643181084,0.11644813978815789,1.3450695371529504,0.7566516010174804,0.28852595000000003,0.6203029800033437
0.0115,1.79669375,1.0,1580.6804367059508,0.12140416746463722,1.3441118004650485,0.7711505861881908,0.2885141375,0.6224077448364242
0.012,1.7964,1.0,1646.6043443536387,0.12633239555235676,1.3431997590459992,0.7844181267143193,0.28850180000000003,0.6244066498430105
0.0125,1.79609375,1.0,1709.6904997104693,0.13123297982670976,1.342330102088077,0.7965794705070799,0.2884889375,0.6263077206771902
0.013000000000000001,1.7957750000000001,1.0,1769.9804060024792,0.136106075312586,1.3414997237283426,0.8077461392084935,0.28847555,0.6281184269562043
0.0135,1.79544375,1.0,1827.5495300910907,0.1409518374926812,1.3407055070781044,0.8180172455976018,0.2884616375,0.6298461653273333
0.014,1.7951000000000001,1.0,1882.4466794724287,0.14577041895475068,1.3399449558741603,0.8274810685993861,0.2884472,0.6314968972439898
0.0145,1.79474375,1.0,1934.7280345561987,0.15056197148658826,1.3392157547486137,0.8362161007098294,0.2884322375,0.6330761215890575
0.015,1.794375,1.0,1984.4709407711496,0.15532664687598774,1.3385155883335684,0.8442921111442623,0.28841675,0.6345892744106443
0.0155,1.79399375,1.0,2031.7532030109903,0.16006459588505573,1.3378423400200896,0.8517712314862165,0.2884007375,0.636041305133132
0.016,1.7936,1.0,2076.679771842502,0.16477596980825004,1.3371937851209361,0.8587087582400149,0.2883842,0.6374373446295152
0.0165,1.7931937500000001,1.0,2119.3212269787496,0.1694609167465319,1.3365682156558423,0.8651541509947258,0.2883671375,0.6387813654663343
0.017,1.792775,1.0,2159.751944650542,0.1741195843042993,1.335964011275414,0.8711515917348246,0.28834955,0.6400771145654766
0.0175,1.7923437500000001,1.0,2198.057318533952,0.1787521200859502,1.3353795516302576,0.8767405828993383,0.2883314375,0.6413283046820389
0.018000000000000002,1.7919,1.0,2234.3194486980806,0.18335867053428703,1.3348133506904538,0.8819565329959774,0.2883128,0.642538329717574
0.0185,1.79144375,1.0,2268.6380851874947,0.18793938310422614,1.3342638340289543,0.8868311764179406,0.2882936375,0.6437107438146163
0.019,1.790975,1.0,2301.085816342738,0.19249440179278735,1.3337297780160284,0.8913931071034726,0.28827395,0.6448483267390701
0.0195,1.79049375,1.0,2331.7343181377405,0.19702386989842308,1.3332100326950145,0.8956680689371085,0.2882537375,0.6459536802021282
0.02,1.79,1.0,2360.661104183688,0.20152793071958572,1.3327034481092515,0.8996792616386431,0.288233,0.6470293865312966
0.0205,1.78949375,1.0,2387.94356539404,0.2060067267307343,1.3322089274223379,0.9034476379142671,0.2882117375,0.6480778971329715
0.021,1.788975,1.0,2413.6622767436734,0.21046040074814068,1.3317253890426017,0.9069921448472182,0.28818995000000003,0.6491016143639494
0.021500000000000002,1.78844375,1.0,2437.892900800902,0.2148890946167324,1.3312518401003568,0.9103299583279304,0.2881676375,0.6501027373409682
0.022,1.7879,1.0,2460.6938704614918,0.21929294696244794,1.3307874886080113,0.9134766956621156,0.2881448,0.6510830273609847
0.0225,1.78734375,1.0,2482.126674194762,0.22367209641122582,1.3303315425779734,0.9164465422976882,0.28812143749999997,0.6520442346239048
0.023,1.786775,1.0,2502.255602367345,0.22802668158900447,1.3298832100226505,0.9192524029225169,0.28809755,0.6529880986771424
0.0235,1.78619375,1.0,2521.145202682339,0.23235684070507076,1.3294417207526177,0.9219060387027035,0.28807313749999996,0.6539163030215379
0.024,1.7856,1.0,2538.8510387011784,0.23666271002462846,1.3290064109652542,0.9244181992720825,0.2880482,0.6548302982900582
0.0245,1.78499375,1.0,2555.451921396532,0.24094442959068252,1.3285764167873548,0.9267986731025537,0.2880227375,0.6557319462091279
0.025,1.784375,1.0,2570.9922505320396,0.24520213283357725,1.328151215728072,0.9290564731818763,0.28799675,0.6566223839801926
0.025500000000000002,1.78374375,1.0,2585.5178508308863,0.249435953183657,1.3277302852965582,0.9311998573803509,0.2879702375,0.6575027426640196
0.026000000000000002,1.7831000000000001,1.0,2599.0758540812717,0.2536460240712661,1.3273131030019665,0.9332364019673268,0.2879432,0.6583741473317095
0.0265,1.78244375,1.0,2611.7145872938,0.2578324789267487,1.3268991463534492,0.9351730670741433,0.2879156375,0.6592377171982979
0.027,1.781775,1.0,2623.4834669124148,0.26199545118044937,1.3264878928601591,0.9370162550713679,0.28788755,0.6600945657389454
0.0275,1.7810937500000001,1.0,2634.4269057245897,0.2661350705387703,1.3260788754828248,0.9387718695011392,0.2878589375,0.660945685471481
0.028,1.7804,1.0,2644.59472179846,0.2702514730451625,1.3256715851148617,0.9404453507190178,0.2878298,0.6617921513034866
0.0285,1.77969375,1.0,2654.0219529375872,0.2743447871298132,1.3252656562960394,0.9420417391683816,0.2878001375,0.6626347348032742
0.029,1.778975,1.0,2662.743494925605,0.2784151407531372,1.3248607305798172,0.9435656944705705,0.28776995,0.6634741891809548
0.029500000000000002,1.7782437500000001,1.0,2670.7948037477336,0.2824626618755497,1.324456449519655,0.9450215283734666,0.2877392375,0.6643112639193228
0.03,1.7775,1.0,2678.2118441794682,0.2864874784574654,1.3240524546690113,0.9464132351776905,0.287708,0.6651467047926924
0.0305,1.77674375,1.0,2685.0310412236217,0.29048971845929944,1.3236483875813465,0.9477445191398273,0.2876762375,0.6659812538775336
0.031,1.775975,1.0,2691.282416399825,0.29446950541386574,1.3232439522215684,0.9490188257100799,0.28764395,0.6668155208934323
0.0315,1.7751937500000001,1.0,2696.99648016975,0.29842696602935664,1.3228388512169538,0.9502393576516147,0.2876111375,0.6676501152580281
0.032,1.7744,1.0,2702.215765047651,0.302362236125605,1.3224326801964241,0.9514090840079191,0.2875778,0.6684858633333881
0.0325,1.77359375,1.0,2706.9615503501836,0.30627543678006414,1.322025231685043,0.9525307886631477,0.2875439375,0.6693231829024058
0.033,1.772775,1.0,2711.255326132217,0.31016668907018763,1.321616298207874,0.953607066283419,0.28750955,0.6701624895633413
0.0335,1.7719437500000002,1.0,2715.1187735730946,0.31403611407342885,1.3212056722899812,0.9546403374519709,0.2874746375,0.6710041967115472
0.034,1.7711000000000001,1.0,2718.573746316568,0.31788383286724126,1.3207931464564282,0.955632862422199,0.2874392,0.6718487155184458
0.0345,1.7702437500000001,1.0,2721.642252765543,0.3217099665290783,1.3203785132322783,0.9565867536293965,0.2874032375,0.6726964549077643
0.035,1.7693750000000001,1.0,2724.34643933067,0.3255146361363934,1.3199615651425958,0.9575039870862891,0.28736675,0.6735478215290194
0.035500000000000004,1.76849375,1.0,2726.708574634195,0.32929796276664003,1.3195420947124439,0.9583864127736206,0.2873297375,0.6744032197282639
0.036000000000000004,1.7676,1.0,2728.7510346670742,0.33306006749727163,1.3191198944668865,0.959235764124866,0.2872922,0.6752630515160818
0.0365,1.76669375,1.0,2730.49628890171,0.33680107140574156,1.3186947569309873,0.9600536666934235,0.2872541375,0.6761277165328411
0.037,1.765775,1.0,2731.9568546327528,0.3405210838601516,1.3182665657823927,0.9608416525903843,0.28721555,0.6769974269932459
0.0375,1.76484375,1.0,2733.158458549031,0.3442202375751493,1.3178350852531515,0.9616011541698294,0.2871764375,0.6778726357848275
0.038,1.7639,1.0,2734.113446813003,0.3478986466423333,1.317400201662461,0.9623335255448567,0.28713679999999997,0.6787535458693528
0.0385,1.76294375,1.0,2734.8339257028974,0.35155642475836885,1.3169618039014175,0.9630400406088254,0.28709663750000003,0.6796403535317582
0.039,1.761975,1.0,2735.332039226134,0.35519368561992126,1.3165197808611167,0.9637218985073972,0.28705595,0.6805332535830061
0.0395,1.7609937500000001,1.0,2735.619964007444,0.35881054292365583,1.3160740214326547,0.9643802288274167,0.2870147375,0.6814324393347887
0.04,1.76,1.0,2735.70990444915,0.36240711036623785,1.3156244145071276,0.9650160963721007,0.286973,0.6823381025734467
0.0405,1.7589937500000001,1.0,2735.6140881663127,0.3659835016443326,1.3151708489756317,0.9656305055595613,0.2869307375,0.683250433533098
0.041,1.757975,1.0,2735.3447616947306,0.3695398304546053,1.314713213729263,0.9662244044780359,0.28688795,0.6841696208679824
0.0415,1.75694375,1.0,2734.914186473313,0.3730762104937213,1.3142513976591175,0.9667986886279273,0.2868446375,0.6850958516240153
0.042,1.7559,1.0,2734.334635099864,0.3765927554583459,1.3137852896562914,0.9673542043778446,0.28680079999999997,0.6860293112095578
0.0425,1.75484375,1.0,2733.6087093190918,0.38008955742973866,1.3133148665199494,0.9678917559007829,0.2867564375,0.6869700077091399
0.043000000000000003,1.753775,1.0,2732.7584655218775,0.3835667559496368,1.3128399284148329,0.9684120974602025,0.28671155,0.6879183009866143
0.043500000000000004,1.75269375,1.0,2731.7914234102436,0.38702446010157654,1.3123604075458286,0.9689159489694963,0.28666613750000003,0.6888742850695276
0.044,1.7516,1.0,2730.7135640904276,0.3904627755111191,1.3118762501231784,0.9694039930797925,0.2866202,0.6898380249014817
0.0445,1.75049375,1.0,2729.5308710104787,0.3938818078038257,1.3113874023571235,0.9698768769426549,0.2865737375,0.6908095843535806
0.045,1.7493750000000001,1.0,2728.2493287884813,0.39728166260525766,1.3108938104579058,0.9703352144009281,0.28652675,0.6917890262084304
0.0455,1.74824375,1.0,2726.8749221064368,0.40066244554097613,1.3103954206357662,0.9707795880237565,0.2864792375,0.6927764121439597
0.046,1.7471,1.0,2725.413634667743,0.40402426223654236,1.3098921791009468,0.9712105509982527,0.2864312,0.6937718027170495
0.0465,1.7459437500000001,1.0,2723.8714482186188,0.4073672183175176,1.3093840320636887,0.9716286288892045,0.28638263750000004,0.6947752573469849
0.047,1.744775,1.0,2722.2543416339167,0.4106914194094631,1.3088709257342337,0.9720343212771907,0.28633355,0.6957868342987166
0.0475,1.74359375,1.0,2720.5682900676325,0.41399697113794,1.3083528063228231,0.9724281032845883,0.28628393750000003,0.6968065906659424
0.048,1.7424,1.0,2718.8192641660994,0.4172839791285097,1.3078296200396984,0.9728104269981169,0.2862338,0.6978345823540018
0.0485,1.74119375,1.0,2717.0132293471934,0.4205525490067332,1.307301313095101,0.9731817227958405,0.2861831375,0.6988708640625851
0.049,1.739975,1.0,2715.1561451418224,0.423802786398172,1.3067678316992728,0.9735424005858657,0.28613195,0.6999154892682611
0.0495,1.73874375,1.0,2713.2464681029905,0.42703478311172743,1.306229190406535,0.9738928539654068,0.2860802375,0.7009683767313715
0.05,1.7375,1.0,2711.289373595446,0.4302486468281282,1.3056853425294526,0.9742334559400658,0.286028,0.7020295642941685
0.0505,1.73624375,1.0,2709.298039406547,0.4334444964333227,1.3051361683159828,0.9745645586922136,0.2859752375,0.7030992308209192
0.051000000000000004,1.734975,1.0,2707.2746930163826,0.43662242893757547,1.3045816477878027,0.9748865023139227,0.28592195,0.70417735915455
0.051500000000000004,1.73369375,1.0,2705.2215592551033,0.43978254135115086,1.304021760966589,0.9751996114815938,0.2858681375,0.7052639313098669
0.052000000000000005,1.7324,1.0,2703.1408601747803,0.4429249306843132,1.3034564878740187,0.9755041962872754,0.2858138,0.7063589284667269
0.0525,1.73109375,1.0,2701.03481493076,0.4460496939473269,1.3028858085317685,0.9758005530181431,0.28575893750000003,0.7074623309631916
0.053,1.729775,1.0,2698.9056396709257,0.4491569281504565,1.3023097029615156,0.9760889648877964,0.28570355000000003,0.7085741182886487
0.0535,1.72844375,1.0,2696.755547434655,0.4522467303039662,1.3017281511849366,0.9763697027227359,0.2856476375,0.7096942690769135
0.054,1.7271,1.0,2694.586748060137,0.4553191974181206,1.3011411332237084,0.9766430256071283,0.2855912,0.7108227610993008
0.0545,1.7257437500000001,1.0,2692.40144810067,0.45837442650318394,1.300548629099508,0.9769091814887274,0.2855342375,0.7119595712576732
0.055,1.724375,1.0,2690.2018507497446,0.4614125145694207,1.2999506188340122,0.9771684077485944,0.28547675,0.7131046755774654
0.0555,1.72299375,1.0,2687.990155775201,0.46443355862709523,1.2993470824488977,0.9774209317370677,0.2854187375,0.7142580492006787
0.056,1.7216,1.0,2685.768559461849,0.46743765568647194,1.2987379999658417,0.9776669712782422,0.2853602,0.7154196663788546
0.0565,1.72019375,1.0,2683.539254563324,0.47042490275781523,1.298123351406521,0.9779067351450544,0.28530113749999997,0.7165895004660205
0.057,1.718775,1.0,2681.30443026283,0.4733953968513895,1.297503116792612,0.9781404235069083,0.28524155,0.7177675239116117
0.0575,1.71734375,1.0,2679.068818876319,0.47634921302556504,1.296877252780071,0.9783682250801948,0.2851814375,0.7189537524928503
0.058,1.7159,1.0,2676.8310155555387,0.47928646983896545,1.2962457722831837,0.9785903279302091,0.2851208,0.7201480944015946
0.0585,1.71444375,1.0,2674.5915690306297,0.48220726079081294,1.2956086702992309,0.9788069093703851,0.2850596375,0.7213504912114816
0.059000000000000004,1.7129750000000001,1.0,2672.3515370263253,0.48511167485306633,1.294965937141375,0.9790181390083766,0.28499795,0.7225608926221632
0.059500000000000004,1.71149375,1.0,2670.1119755022373,0.48799980099768436,1.2943175631227783,0.979224179755278,0.2849357375,0.723779247568461
0.06,1.71,1.0,2667.8739386505376,0.4908717281966259,1.2936635385566033,0.9794251881402465,0.284873,0.7250055042168826
0.0605,1.7084937500000001,1.0,2665.638478896365,0.49372754542184966,1.293003853756012,0.9796213146079772,0.2848097375,0.726239609962135
0.061,1.7069750000000001,1.0,2663.4066468997958,0.49656734164531446,1.292338499034167,0.9798127038000851,0.28474595,0.7274815114236297
0.0615,1.7054437500000001,1.0,2661.179491560185,0.4993912058389791,1.2916674647042306,0.9799994948213863,0.2846816375,0.7287311544419848
0.062,1.7039,1.0,2658.958060022785,0.5021992269748023,1.2909907410793648,0.9801818214919897,0.2846168,0.7299884840755168
0.0625,1.70234375,1.0,2656.7433976866337,0.504991494024743,1.2903083184727324,0.9803598125860654,0.2845514375,0.7312534445967301
0.063,1.7007750000000001,1.0,2654.536548215654,0.5077680959607598,1.2896201871974953,0.9805335920580797,0.28448555,0.7325259794888004
0.0635,1.69919375,1.0,2652.338553550964,0.5105291217548117,1.2889263375668158,0.9807032792572474,0.28441913750000003,0.7338060314420485
0.064,1.6976,1.0,2650.15045392533,0.5132746603788573,1.2882267598938566,0.9808689891308949,0.2843522,0.7350935423504118
0.0645,1.69599375,1.0,2647.9732878805403,0.5160048008048553,1.28752144449178,0.9810308324173882,0.2842847375,0.7363884533079091
0.065,1.694375,1.0,2645.805552727241,0.5187195953442201,1.2868104051196276,0.9811889144012759,0.28421675,0.737690661719117
0.0655,1.69274375,1.0,2643.6479299817347,0.5214191604009999,1.2860936353860168,0.9813433401010943,0.2841482375,0.7390001013763166
0.066,1.6911,1.0,2641.5018141400033,0.5241036034191093,1.285371122301776,0.9814942097966097,0.2840792,0.7403167173349003
0.0665,1.6894437500000001,1.0,2639.3671922109565,0.5267730045999353,1.2846428658673033,0.981641618954551,0.2840096375,0.7416404302004095
0.067,1.687775,1.0,2637.2440512674384,0.5294274441448648,1.283908866082996,0.9817856596798794,0.28393955,0.7429711599472814
0.0675,1.68609375,1.0,2635.132378446815,0.532067002255285,1.2831691229492517,0.9819264208562946,0.2838689375,0.7443088259188508
0.068,1.6844000000000001,1.0,2633.032160950452,0.5346917591325832,1.2824236364664683,0.9820639882799105,0.2837978,0.7456533468273475
0.0685,1.68269375,1.0,2630.943386043976,0.5373017949781462,1.281672406635043,0.982198444786477,0.2837261375,0.7470046407539
0.069,1.680975,1.0,2628.8660410572684,0.5398971899933612,1.2809154334553734,0.9823298703724994,0.28365395,0.7483626251485322
0.0695,1.67924375,1.0,2626.8001133842126,0.5424780243796153,1.2801527169278573,0.9824583423105908,0.28358123749999997,0.7497272168301654
0.07,1.6775,1.0,2624.745590483107,0.5450443783382956,1.2793842570528924,0.9825839352593672,0.283508,0.7510983319866178
0.07050000000000001,1.67574375,1.0,2622.702459876314,0.5475963320707892,1.278610053830876,0.9827067213681774,0.2834342375,0.7524758861746058
0.07100000000000001,1.673975,1.0,2620.6707091503836,0.5501339657784831,1.277830107262206,0.9828267703769485,0.28335995,0.753859794319742
0.07150000000000001,1.67219375,1.0,2618.650325955993,0.5526573596627644,1.27704441734728,0.9829441497113981,0.2832851375,0.7552499707165377
0.07200000000000001,1.6704,1.0,2616.641298008295,0.5551665939250202,1.2762529840864951,0.9830589245738637,0.2832098,0.7566463290284013
0.0725,1.66859375,1.0,2614.6436130862453,0.5576617487666377,1.2754558074802493,0.9831711580299759,0.2831339375,0.7580487822876397
0.073,1.6667750000000001,1.0,2612.6572590333067,0.5601429043890039,1.2746528875289402,0.9832809110913894,0.28305755,0.759457242895457
0.0735,1.66494375,1.0,2610.6822237569345,0.5626101409935059,1.2738442242329655,0.9833882427947805,0.2829806375,0.7608716226219557
0.074,1.6631,1.0,2608.7184952288335,0.5650635387815308,1.2730298175927226,0.9834932102772981,0.2829032,0.7622918326061372
0.0745,1.6612437500000001,1.0,2606.766061484829,0.5675031779544657,1.272209667608609,0.9835958688486497,0.2828252375,0.7637177833559012
0.075,1.659375,1.0,2604.8249106250564,0.5699291387136975,1.2713837742810226,0.983696272059996,0.28274675,0.7651493847480453
