Time [s],Phi [rad],STIM [ ],Fsee [N],Gamma [ ],Lcerel [ ],q [ ],Lmtc [m],fisomrel [ ]
0.0,1.8,1.0,17.968491175576315,3.790611571983537e-05,1.3793395968810158,0.005000378946265675,0.288653,0.5411398923410345
0.0005,1.79999375,1.0,18.287134069010538,0.005646902801191577,1.3793012338352832,0.013018168233194734,0.2886527375,0.5412326977392596
0.001,1.799975,1.0,21.649509991135172,0.011224437450042143,1.3789351239460585,0.035754139252068086,0.28865195,0.5421178948979122
0.0015,1.79994375,1.0,31.14448887296439,0.016770686540308593,1.3780397963204705,0.07080087034604984,0.2886506375,0.5442790573915091
0.002,1.7999,1.0,53.74564623881753,0.022285825558330155,1.3763575483786423,0.11495365880292394,0.2886488,0.5483258793954653
0.0025,1.79984375,1.0,97.39414095864467,0.02777002900650965,1.373921915250101,0.16483120085329916,0.28864643749999996,0.5541530653561744
0.003,1.7997750000000001,1.0,161.31686773725198,0.0332234704107692,1.3712009247116352,0.21754486105592802,0.28864354999999997,0.5606182190472797
0.0035,1.79969375,1.0,238.08895360644826,0.0386463223203477,1.3685722453266165,0.27087586418796966,0.2886401375,0.5668191963485218
0.004,1.7996,1.0,321.89852095725956,0.044038756318528605,1.3661446608348913,0.32317043026371445,0.2886362,0.5725066560653777
0.0045000000000000005,1.7994937500000001,1.0,409.714990998396,0.04940094302784014,1.3639123186007007,0.37327621479085543,0.2886317375,0.5777035215901215
0.005,1.799375,1.0,499.8699466028382,0.05473305210124887,1.361848645198158,0.4204735948862119,0.28862675,0.5824794578069439
0.0055,1.79924375,1.0,591.2510235473812,0.060035252268282456,1.3599298376590991,0.4643830625013212,0.2886212375,0.5868957651871638
0.006,1.7991000000000001,1.0,682.9793910184691,0.06530771128151376,1.3581380312721665,0.504872365445913,0.2886152,0.5909985668255635
0.006500000000000001,1.79894375,1.0,774.3389795338719,0.07055059593043032,1.356459441163026,0.5419766913420421,0.2886086375,0.5948235548652527
0.007,1.798775,1.0,864.7434972959699,0.07576407226812341,1.3548830028779084,0.5758370553440839,0.28860155,0.59839940774349
0.0075,1.79859375,1.0,953.6841714904899,0.08094830498649434,1.3533999976151045,0.6066557721296765,0.2885939375,0.601748857415957
0.008,1.7984,1.0,1040.7927256135897,0.08610345830398299,1.3520022532458258,0.6346645656133014,0.2885858,0.6048929008605279
0.0085,1.79819375,1.0,1125.7462419127712,0.09122969532959183,1.350683126349837,0.660104743515907,0.2885771375,0.6078486763185725
0.009000000000000001,1.797975,1.0,1208.2903639884662,0.09632717781241218,1.3494367040886142,0.6832137532323537,0.28856795,0.610631345139306
0.0095,1.79774375,1.0,1288.2733846578733,0.10139606791025395,1.3482570801598879,0.7042171023644558,0.2885582375,0.6132557593064714
0.01,1.7975,1.0,1365.562406313824,0.106436525922214,1.3471393042402964,0.723324761196622,0.288548,0.6157343860062594
0.0105,1.79724375,1.0,1440.0475732395373,0.11144871053602784,1.3460790896702002,0.7407291640864364,0.2885372375,0.6180780092252729
0.011,1.796975,1.0,1511.6827512147827,0.11643278043943095,1.345072149789959,0.7566045417632079,0.28852595000000003,0.620297230355026
0.0115,1.79669375,1.0,1580.4607947961072,0.12138889367055548,1.3441144240530605,0.7711076208308488,0.2885141375,0.6224019871129799
0.012,1.7964,1.0,1646.397275536838,0.1263172075520451,1.343202182423692,0.7843787438224125,0.28850180000000003,0.6244013455982618
0.0125,1.79609375,1.0,1709.4991698271433,0.13121787730361054,1.342332299561273,0.7965432923249988,0.2884889375,0.6263029230774582
0.013000000000000001,1.7957750000000001,1.0,1769.8040555499185,0.13609105791912346,1.3415017143583443,0.8077128481227441,0.28847555,0.6281140914869637
0.0135,1.79544375,1.0,1827.3648678853904,0.14093690351886298,1.340707558437665,0.8179866530664367,0.2884616375,0.6298417079829243
0.014,1.7951000000000001,1.0,1882.2661403096747,0.14575556868541817,1.339946931969408,0.8274528600719568,0.2884472,0.6314926130248302
0.0145,1.79474375,1.0,1934.5590356669622,0.15054720486835543,1.339217579361552,0.8361900175270724,0.2884322375,0.6330721742732437
0.015,1.794375,1.0,1984.310691630963,0.15531196326123486,1.3385172966545773,0.8442679606820069,0.28841675,0.6345855863063677
0.0155,1.79399375,1.0,2031.6047860946833,0.16004999484909535,1.337843903683367,0.8517488216743286,0.2884007375,0.636037936045867
0.016,1.7936,1.0,2076.530285915278,0.16476144980279683,1.3371953429174837,0.8586879693890536,0.2883842,0.6374339946261499
0.0165,1.7931937500000001,1.0,2119.180118111757,0.16944647830425252,1.3365696712842352,0.8651348073334238,0.2883671375,0.638778240980937
0.017,1.792775,1.0,2159.621979610741,0.17410522732613143,1.3359653393379298,0.8711335562398935,0.28834955,0.6400742690164212
0.0175,1.7923437500000001,1.0,2197.9343072342344,0.17873784384110247,1.3353807976328755,0.876723752283925,0.2883314375,0.6413256396018374
0.018000000000000002,1.7919,1.0,2234.2053772887466,0.1833444748218347,1.3348144967233806,0.8819407979980132,0.2883128,0.6425358826016243
0.0185,1.79144375,1.0,2268.5143927062463,0.1879252653598952,1.334265067287093,0.8868164903937331,0.2882936375,0.6437081147689897
0.019,1.790975,1.0,2300.9643208945017,0.1924803631397517,1.3337309807974482,0.8913793544170039,0.28827395,0.6448457667601188
0.0195,1.79049375,1.0,2331.622256685738,0.19700991085287461,1.3332111347653413,0.8956551564527393,0.2882537375,0.645951338228296
0.02,1.79,1.0,2360.5576263784337,0.20151405080192997,1.3327044595082613,0.8996671234571041,0.288233,0.647027240508022
0.0205,1.78949375,1.0,2387.8449941977924,0.20599292528958374,1.3322098853436986,0.903436220586227,0.2882117375,0.648075867601807
0.021,1.788975,1.0,2413.5636287332172,0.21044667661850197,1.3317263425891424,0.9069814022380909,0.28818995000000003,0.6490995970421907
0.021500000000000002,1.78844375,1.0,2437.781349159952,0.2148754448353922,1.3312529130046868,0.9103198632774158,0.2881676375,0.6501004707458845
0.022,1.7879,1.0,2460.5838110919653,0.21927937326495264,1.3307885422436723,0.9134671724723185,0.2881448,0.6510808045928134
0.0225,1.78734375,1.0,2482.0292466859905,0.22365860000999038,1.3303324712476534,0.9164375283380959,0.28812143749999997,0.6520422781869204
0.023,1.786775,1.0,2502.173549201773,0.2280132623380463,1.3298839889921332,0.9192438560490325,0.28809755,0.6529864598425961
0.0235,1.78619375,1.0,2521.0750280178268,0.23234349751666133,1.3294423844526146,0.921897931122318,0.28807313749999996,0.6539149085656112
0.024,1.7856,1.0,2538.7942056106554,0.2366494428133764,1.3290069466046004,0.9244104975584017,0.2880482,0.6548291743811149
0.0245,1.78499375,1.0,2555.38952948242,0.2409312346962155,1.3285770029045751,0.9267913788383346,0.2880227375,0.6557307179918586
0.025,1.784375,1.0,2570.9151069412073,0.24518900862653567,1.3281519382318165,0.9290495729379913,0.28799675,0.6566208719218816
0.025500000000000002,1.78374375,1.0,2585.440601884494,0.2494229025318994,1.3277310067518389,0.9311933034939609,0.2879702375,0.6575012347366906
0.026000000000000002,1.7831000000000001,1.0,2599.007308191634,0.2536330483418054,1.3273137415038485,0.9332301589401111,0.2879432,0.6583728144858159
0.0265,1.78244375,1.0,2611.6576402368883,0.25781957798575245,1.3268996755270526,0.9351671103838679,0.2879156375,0.6592366139678181
0.027,1.781775,1.0,2623.4350389043243,0.26198262339323936,1.3264883418606572,0.9370105701047581,0.28788755,0.6600936308325211
0.0275,1.7810937500000001,1.0,2634.383882435981,0.2661223164937648,1.3260792735438696,0.9387664437976998,0.2878589375,0.6609448576693313
0.028,1.7804,1.0,2644.549402115807,0.2702387892168276,1.3256720036158958,0.9404401772974079,0.2878298,0.661791282081658
0.0285,1.77969375,1.0,2653.969960930803,0.2743321698140112,1.32526613555896,0.9420368071110405,0.2878001375,0.6626337406203455
0.029,1.778975,1.0,2662.695272089625,0.2784025928156446,1.324861174369729,0.9435609770624579,0.28776995,0.6634732697293386
0.029500000000000002,1.7782437500000001,1.0,2670.757512837951,0.28245018560838514,1.3244567921861259,0.9450170047740751,0.2877392375,0.6643105548606159
0.03,1.7775,1.0,2678.1871607042126,0.28647507458333415,1.3240526811711049,0.946408892230704,0.287708,0.6651462366894716
0.0305,1.77674375,1.0,2685.015120580752,0.29047738613159296,1.3236485334876205,0.9477403507063457,0.2876762375,0.6659809527146449
0.031,1.775975,1.0,2691.272685394012,0.294457246644263,1.3232440412986266,0.9490148255403199,0.28764395,0.6668153372606243
0.0315,1.7751937500000001,1.0,2696.991498875718,0.2984147825124455,1.3228388967670779,0.9502355185108352,0.2876111375,0.6676500214739032
0.032,1.7744,1.0,2702.203235560612,0.3023501198626446,1.3224327946583798,0.9514054083022477,0.2875778,0.6684856279616935
0.0325,1.77359375,1.0,2706.9312721802735,0.30626337600245457,1.3220255080463073,0.9525272753304627,0.2875439375,0.6693226153300947
0.033,1.772775,1.0,2711.217579573878,0.3101546891720643,1.321616642463495,0.9536036974883131,0.28750955,0.6701617834518765
0.0335,1.7719437500000002,1.0,2715.081620301676,0.31402417921733583,1.3212060108935315,0.9546370984431881,0.2874746375,0.6710035030799251
0.034,1.7711000000000001,1.0,2718.543018738249,0.3178719659841314,1.3207934263200047,0.9556297413060715,0.2874392,0.671848142952397
0.0345,1.7702437500000001,1.0,2721.6215453754858,0.3216981693183131,1.3203787017265032,0.9565837411618634,0.2874032375,0.6726960697705368
0.035,1.7693750000000001,1.0,2724.3371019008855,0.325502909065743,1.3199616500966154,0.9575010764819243,0.28736675,0.67354764817427
0.035500000000000004,1.76849375,1.0,2726.709707051829,0.32928630507228324,1.3195420844139292,0.9583835995302403,0.2873297375,0.6744032407155656
0.036000000000000004,1.7676,1.0,2728.7594832443224,0.33304847718379604,1.319119817662033,0.9592330458624131,0.2872922,0.6752632078295628
0.0365,1.76669375,1.0,2730.506643978441,0.33678954524614335,1.3186946628245153,0.960051043005941,0.2872541375,0.676127907803471
0.037,1.765775,1.0,2731.9714820179697,0.34050962910518756,1.3182664328849643,0.9608391184007582,0.28721555,0.6769976967432416
0.0375,1.76484375,1.0,2733.166587769624,0.34420883943309755,1.3178350114111332,0.9615987116177291,0.2871764375,0.6778727854632807
0.038,1.7639,1.0,2734.1114748101327,0.347887299661645,1.317400219572096,0.9623311724556254,0.28713679999999997,0.6787535096160244
0.0385,1.76294375,1.0,2734.8278659209846,0.35154513588908254,1.3169618589288352,0.9630377692361355,0.28709663750000003,0.6796402422971211
0.039,1.761975,1.0,2735.3265200593323,0.3551824601778269,1.316519830974773,0.963719702332845,0.28705595,0.6805331524225164
0.0395,1.7609937500000001,1.0,2735.61822704377,0.35879938459029503,1.3160740372033306,0.9643781024921032,0.2870147375,0.6814324075446032
0.04,1.76,1.0,2735.7138033412803,0.3623960211889038,1.3156243791079298,0.9650140356126518,0.286973,0.6823381738288705
0.0405,1.7589937500000001,1.0,2735.6240880709342,0.36597248203607,1.3151707581819927,0.9656285071483136,0.2869307375,0.6832506160299359
0.041,1.757975,1.0,2735.3599392215833,0.3695288791942106,1.3147130759189405,0.9662224661671315,0.28688795,0.6841698974669618
0.0415,1.75694375,1.0,2734.9322300852523,0.3730653247257424,1.3142512338121952,0.9667968090970712,0.2868446375,0.6850961799984472
0.042,1.7559,1.0,2734.351845905773,0.3765819306930823,1.3137851333551784,0.9673523831854962,0.28680079999999997,0.6860296239964059
0.0425,1.75484375,1.0,2733.6296807423632,0.3800788091586472,1.3133146760413115,0.9678899896970057,0.2867564375,0.6869703883199236
0.043000000000000003,1.753775,1.0,2732.77663454779,0.38355607218485394,1.3128397633640168,0.9684103868718916,0.28671155,0.6879186302880931
0.043500000000000004,1.75269375,1.0,2731.8036104631833,0.3870138318341194,1.3123602968167152,0.9689142926653798,0.28666613750000003,0.6888745056523393
0.044,1.7516,1.0,2730.715804276001,0.3904521892749486,1.3118762297652673,0.9694023897312208,0.2866202,0.6898380653935019
0.0445,1.75049375,1.0,2729.5236591367307,0.3938712628579243,1.311387467910003,0.9698753240776306,0.2865737375,0.6908094541728216
0.045,1.7493750000000001,1.0,2728.2366193974253,0.3972711662841898,1.310893926008078,0.9703337084247935,0.28652675,0.6917887971023077
0.0455,1.74824375,1.0,2726.859928349231,0.4006520037889799,1.3103955569891252,0.9707781257912826,0.2864792375,0.6927761422238862
0.046,1.7471,1.0,2725.398828684364,0.4040138796075292,1.3098923137827783,0.971209129795907,0.2864312,0.6937715365381254
0.0465,1.7459437500000001,1.0,2723.8585616671394,0.4073568979750724,1.3093841493186698,0.9716272464182574,0.28638263750000004,0.6947750259896781
0.047,1.744775,1.0,2722.2443663535673,0.4106811631268441,1.3088710165264332,0.9720329756376396,0.28633355,0.695786655452576
0.0475,1.74359375,1.0,2720.5614788609937,0.413986779298079,1.3083528683357015,0.9724267929598673,0.28628393750000003,0.6968064687153875
0.048,1.7424,1.0,2718.8151316855797,0.4172738507240117,1.3078296576761081,0.9728091508405684,0.2862338,0.6978345084662312
0.0485,1.74119375,1.0,2717.0105530704855,0.4205424816398769,1.307301337477286,0.9731804800129185,0.2861831375,0.6988708162776506
0.049,1.739975,1.0,2715.152966421435,0.4237927762809092,1.3067678606688682,0.9735411907270445,0.28613195,0.6999154325913453
0.0495,1.73874375,1.0,2713.247589772914,0.4270248388823434,1.306229180180488,0.9738916739077284,0.2860802375,0.7009683967027622
0.05,1.7375,1.0,2711.2996353027397,0.430238773679414,1.3056852489417785,0.9742323022364956,0.286028,0.702029746745545
0.0505,1.73624375,1.0,2709.3101143827257,0.43343466470798514,1.305136058150692,0.9745634313978127,0.2859752375,0.7030994452049031
0.051000000000000004,1.734975,1.0,2707.286401545188,0.4366126352041315,1.3045815409258577,0.9748854014271752,0.28592195,0.7041775667322389
0.051500000000000004,1.73369375,1.0,2705.2326458449647,0.43977279119706075,1.304021659742589,0.9751985368706485,0.2858681375,0.7052641275744942
0.052000000000000005,1.7324,1.0,2703.151116787195,0.4429152288362669,1.3034563941919284,0.9755031476990392,0.2858138,0.7063591097705133
0.0525,1.73109375,1.0,2701.044080913615,0.44604004427124383,1.3028857238649176,0.9757995300869818,0.28575893750000003,0.7074624945115588
0.053,1.729775,1.0,2698.9138016886773,0.44914733365148574,1.3023096283525988,0.9760879671435451,0.28570355000000003,0.7085742621342909
0.0535,1.72844375,1.0,2696.762539395853,0.4522371931264866,1.3017280872460135,0.9763687295980744,0.2856476375,0.7096943921137183
0.054,1.7271,1.0,2694.5925510425127,0.4553097188457404,1.301141080136204,0.9766420764443744,0.2855912,0.7108228630561236
0.0545,1.7257437500000001,1.0,2692.4060902741126,0.4583650069587412,1.3005485866142121,0.9769082555460916,0.2855342375,0.7119596526919625
0.055,1.724375,1.0,2690.2054072979695,0.461403153614983,1.29995058627108,0.9771675042059408,0.28547675,0.7131047378687352
0.0555,1.72299375,1.0,2687.992748815981,0.4644242549639598,1.2993470586978495,0.9774200497012184,0.2854187375,0.7142580945438337
0.056,1.7216,1.0,2685.770357966415,0.46742840715516565,1.2987379834855626,0.9776661097878624,0.2853602,0.7154196977773589
0.0565,1.72019375,1.0,2683.540474275556,0.47041570633809454,1.2981233402252612,0.9779058931751481,0.28530113749999997,0.7165895217249144
0.057,1.718775,1.0,2681.3053336180633,0.4733862486622405,1.2975031085079873,0.9781395999729576,0.28524155,0.7177675396303722
0.0575,1.71734375,1.0,2679.067168186335,0.4763401302770976,1.296877267924783,0.9783674221134173,0.2851814375,0.7189537238186114
0.058,1.7159,1.0,2676.826968025563,0.47927742896792846,1.2962458094338953,0.9785895427896733,0.2851208,0.7201480242119138
0.0585,1.71444375,1.0,2674.585271859518,0.48219823587553584,1.295608728122733,0.9788061392422283,0.2850596375,0.7213503821991711
0.059000000000000004,1.7129750000000001,1.0,2672.345041081091,0.48510267860086237,1.2949659968151075,0.979017383497057,0.28499795,0.7225607803662947
0.059500000000000004,1.71149375,1.0,2670.106949295187,0.48799084428971207,1.294317609314401,0.9792234384996493,0.2849357375,0.7237791608656109
0.06,1.71,1.0,2667.8716689770636,0.49086282008788873,1.2936635594239965,0.979424460816608,0.284873,0.7250054651352962
0.0605,1.7084937500000001,1.0,2665.6398714745674,0.49371869314119654,1.2930038409472755,0.979620600932825,0.2848097375,0.726239633897142
0.061,1.7069750000000001,1.0,2663.412227010632,0.4965585505954393,1.292338447687621,0.9798120035325972,0.28474595,0.7274816071543115
0.0615,1.7054437500000001,1.0,2661.1894046869547,0.499382479596421,1.2916673734484152,0.9799988077656614,0.2846816375,0.728731324189103
0.062,1.7039,1.0,2658.972072488947,0.5021905672899456,1.2909906120330403,0.9801811474990675,0.2846168,0.7299887235607034
0.0625,1.70234375,1.0,2656.7608972903686,0.504982900821817,1.290308157244879,0.9803591515557464,0.2845514375,0.7312537431029422
0.063,1.7007750000000001,1.0,2654.5565448600087,0.5077595673378392,1.2896200028873133,0.9805329439405662,0.28448555,0.7325263199220429
0.0635,1.69919375,1.0,2652.359679868705,0.5105206539838162,1.2889261427637257,0.9807026440546222,0.28441913750000003,0.7338063903943723
0.064,1.6976,1.0,2650.17096589692,0.5132662479055518,1.288226570677499,0.9808683668984542,0.2843522,0.735093890164186
0.0645,1.69599375,1.0,2647.9910654439473,0.51599643624885,1.2875212804320149,0.9810302232648432,0.2842847375,0.7363887541413734
0.065,1.694375,1.0,2645.820639937224,0.518711306159515,1.286810265830656,0.9811883199217876,0.28421675,0.737690916499198
0.0655,1.69274375,1.0,2643.660349742684,0.5214109447833504,1.286093520676805,0.9813427597862325,0.2841482375,0.7390003106720364
0.066,1.6911,1.0,2641.5108541764594,0.5240954392661603,1.2853710387738437,0.9814936420890786,0.2840792,0.7403168693531167
0.0665,1.6894437500000001,1.0,2639.3728115167723,0.5267648767537487,1.284642813925155,0.9816410625319673,0.2840096375,0.7416405244922502
0.067,1.687775,1.0,2637.246879016755,0.5294193443919195,1.283908839934121,0.9817851134363104,0.28393955,0.742971207293564
0.0675,1.68609375,1.0,2635.129586746997,0.5320588994331743,1.2831691487751233,0.981925883735369,0.2838689375,0.7443087792792478
0.068,1.6844000000000001,1.0,2633.0202752659943,0.5346836308839825,1.2824237464642638,0.9820634601489162,0.2837978,0.7456531487024529
0.0685,1.68269375,1.0,2630.924456634394,0.5372936627812844,1.2816725818896633,0.9821979259574377,0.2837261375,0.7470043259298819
0.069,1.680975,1.0,2628.841958410207,0.5398890727508655,1.2809156565085258,0.9823293610348206,0.28365395,0.7483622255369387
0.0695,1.67924375,1.0,2626.7726084903065,0.5424699384185114,1.2801529717780558,0.9824578425385173,0.28358123749999997,0.7497267614921043
0.07,1.6775,1.0,2624.7162351069055,0.5450363374100078,1.279384529155457,0.982583445018976,0.283508,0.7510978471574731
0.07050000000000001,1.67574375,1.0,2622.6726668237,0.5475883473511403,1.2786103300979341,0.9827062405239353,0.2834342375,0.7524753952892863
0.07100000000000001,1.673975,1.0,2620.641732532315,0.5501260458676946,1.2778303760626908,0.9828262986978586,0.28335995,0.7538593180384687
0.07150000000000001,1.67219375,1.0,2618.623261448602,0.5526495105854563,1.2770446685069314,0.9829436868767675,0.2832851375,0.7552495269511622
0.07200000000000001,1.6704,1.0,2616.6170831095674,0.555158819130211,1.2762532088878602,0.9830584701787114,0.2832098,0.7566459329692611
0.0725,1.66859375,1.0,2614.623027369219,0.5576540491277445,1.275455998662681,0.9831707115901049,0.2831339375,0.7580484464309474
0.073,1.6667750000000001,1.0,2612.640924395778,0.5601352782038422,1.274653039288598,0.9832804720481476,0.28305755,0.7594569770712241
0.0735,1.66494375,1.0,2610.670604667814,0.5626025839842901,1.2738443322228155,0.9833878105195244,0.2829806375,0.7608714340224498
0.074,1.6631,1.0,2608.711898971199,0.5650560440948734,1.2730298789225374,0.9834927840755814,0.2829032,0.7622917258148744
0.0745,1.6612437500000001,1.0,2606.764638395592,0.5674957361613782,1.272209680844968,0.9835954479641542,0.2828252375,0.7637177603771703
0.075,1.659375,1.0,2604.8286543315194,0.5699217378095897,1.2713837394473118,0.9836958556782178,0.28274675,0.7651494450369694
0.0755,1.65749375,1.0,2602.9037784669217,0.5723341266652938,1.2705520561867722,0.9837940590215196,0.2826677375,0.7665866865213955
