Time [s],Phi [rad],STIM [ ],Fsee [N],Gamma [ ],Lcerel [ ],q [ ],Lmtc [m],fisomrel [ ]
0.0,1.8,1.0,17.966332633085045,1.0001982439483234e-05,1.3793398387082552,0.005000026662305345,0.288653,0.5411393072984534
0.0005,1.79999375,1.0,18.275741557070205,0.005619155188022646,1.3793024991591534,0.012940521686220268,0.2886527375,0.5412296368992999
0.001,1.799975,1.0,21.617407197345678,0.011196845479044225,1.3789384016313988,0.03560859407395703,0.28865195,0.5421099737533186
0.0015,1.79994375,1.0,31.068178423050693,0.016743249338440118,1.3780462938320306,0.07060173150254216,0.2886506375,0.5442633919638584
0.002,1.7999,1.0,53.5810545368862,0.0222585422574934,1.3763682181853008,0.11471786848443931,0.2886488,0.5483002689413963
0.0025,1.79984375,1.0,97.11725293295251,0.027742898743401072,1.3739352484422376,0.1645747073935552,0.28864643749999996,0.554121269044777
0.003,1.7997750000000001,1.0,160.95641245026607,0.03319649232698873,1.3712144094242118,0.21728025997747266,0.28864354999999997,0.5605862953948777
0.0035,1.79969375,1.0,237.68159574473842,0.038619495562303305,1.3685847877004291,0.2706126930621248,0.2886401375,0.5667897138897627
0.004,1.7996,1.0,321.4651064334292,0.044012080037395054,1.3661561364932095,0.32291561067063784,0.2886362,0.5724798587639226
0.0045000000000000005,1.7994937500000001,1.0,409.26618029246407,0.04937441637950199,1.3639228510321602,0.373034325258541,0.2886317375,0.577679076838725
0.005,1.799375,1.0,499.4120168439889,0.054706674246144504,1.3618583739523435,0.4202472897485189,0.28862675,0.5824570063793556
0.0055,1.79924375,1.0,590.7890077677043,0.06000902237256125,1.3599388625736888,0.4641735399594268,0.2886212375,0.5868750484985943
0.006,1.7991000000000001,1.0,682.5167780050534,0.06528162851493025,1.358146438929141,0.5046798168893001,0.2886152,0.5909793631453285
0.006500000000000001,1.79894375,1.0,773.8797256131719,0.07052465950650813,1.3564672797737654,0.5418006311565927,0.2886086375,0.5948057348555233
0.007,1.798775,1.0,864.2845333687536,0.07573828123784423,1.354890415637505,0.575676662325965,0.28860155,0.5983826303846905
0.0075,1.79859375,1.0,953.2418566854011,0.080922658672393,1.3534068000897506,0.6065098103600943,0.2885939375,0.6017335256706731
0.008,1.7984,1.0,1040.3584516547376,0.0860779558464988,1.3520086463878365,0.634531952642412,0.2885858,0.6048785486868722
0.0085,1.79819375,1.0,1125.3173796360709,0.0912043358957513,1.3506891968760653,0.65998431649699,0.2885771375,0.6078350994720036
0.009000000000000001,1.797975,1.0,1207.8786815653852,0.09630196093387124,1.349442328810381,0.6831042734460215,0.28856795,0.6106188100624286
0.0095,1.79774375,1.0,1287.870967819658,0.10137099247460271,1.3482624048388023,0.7041175540710026,0.2885582375,0.6132439329588462
0.01,1.7975,1.0,1365.1571834433728,0.10641159064500232,1.3471445120819723,0.723234225955571,0.288548,0.6157228562862544
0.0105,1.79724375,1.0,1439.655055029097,0.11142391506095714,1.346084002009606,0.7406466270463364,0.2885372375,0.618067166942012
0.011,1.796975,1.0,1511.3134482550283,0.11640812430839491,1.3450766607228315,0.7565291237388335,0.28852595000000003,0.6202873030114153
0.0115,1.79669375,1.0,1580.1129251110112,0.12136437608750149,1.3441185796746924,0.7710386035247346,0.2885141375,0.6223928671003585
0.012,1.7964,1.0,1646.0526927941303,0.1262928270197438,1.34320621549878,0.7843155663248371,0.28850180000000003,0.624392517994276
0.0125,1.79609375,1.0,1709.1565032578217,0.13119363286355537,1.3423362354828137,0.7964853680454411,0.2884889375,0.6262943299599986
0.013000000000000001,1.7957750000000001,1.0,1769.4939667997007,0.13606695033080493,1.3415052148562345,0.8076595119743846,0.28847555,0.6281064675573886
0.0135,1.79544375,1.0,1827.089740202283,0.1409129322161713,1.3407106149445698,0.8179374403552024,0.2884616375,0.6298350665309091
0.014,1.7951000000000001,1.0,1881.9952600028307,0.14573173131433323,1.3399498970733463,0.8274074894020549,0.2884472,0.6314861845657566
0.0145,1.79474375,1.0,1934.2864462091163,0.15052350041996948,1.3392205225680907,0.8361481395264817,0.2884322375,0.6330658069790546
0.015,1.794375,1.0,1984.0410019134636,0.15528839132082767,1.3385201718123898,0.8442292257213162,0.28841675,0.6345793790692287
0.0155,1.79399375,1.0,2031.357792973072,0.16002655594458637,1.337846506034073,0.8517128676317246,0.2884007375,0.6360323289558965
0.016,1.7936,1.0,2076.305596165241,0.1647381432963668,1.3371976845204143,0.8586545408955331,0.2883842,0.6374289590372166
0.0165,1.7931937500000001,1.0,2118.9575987733438,0.16942330185400195,1.3365719668122833,0.8651037361269975,0.2883671375,0.6387733136355589
0.017,1.792775,1.0,2159.399540443228,0.17408218009532486,1.3359676124505495,0.8711046377018399,0.28834955,0.6400693985468029
0.0175,1.7923437500000001,1.0,2197.7119841990616,0.17871492528697763,1.3353830496696069,0.8766967972868479,0.2883314375,0.6413208226859504
0.018000000000000002,1.7919,1.0,2234.0008801221456,0.18332168566554916,1.3348165513034216,0.8819155899317149,0.2883128,0.6425314954505206
0.0185,1.79144375,1.0,2268.337658805853,0.18790260589876812,1.3342668294454325,0.8867928558437224,0.2882936375,0.643704358203119
0.019,1.790975,1.0,2300.795513441846,0.19245783023229285,1.3337326520112658,0.8913572093395031,0.28827395,0.6448422097625235
0.0195,1.79049375,1.0,2331.4542665863137,0.19698750291178166,1.3332127869165478,0.8956343949460902,0.2882537375,0.6459478272809545
0.02,1.79,1.0,2360.3920304324,0.20149176709570343,1.3327060781002702,0.8996476303091895,0.288233,0.6470238061069418
0.0205,1.78949375,1.0,2387.6951832003847,0.20597076702323291,1.3322113412546732,0.903417867088306,0.2882117375,0.6480727829775863
0.021,1.788975,1.0,2413.4341261509016,0.21042464412447467,1.3317275944102094,0.9069640906134756,0.28818995000000003,0.6490969486824478
0.021500000000000002,1.78844375,1.0,2437.6718820755705,0.2148535381435564,1.3312539658836045,0.9103035146611038,0.2881676375,0.650098246448928
0.022,1.7879,1.0,2460.47499589812,0.21925758882460572,1.330789583991584,0.91345175063411,0.2881448,0.6510786068962845
0.0225,1.78734375,1.0,2481.91323844417,0.22363693591175038,1.330333577050874,0.9164229788845197,0.28812143749999997,0.6520399485738977
0.023,1.786775,1.0,2502.0496589817176,0.22799171693027967,1.3298851651647496,0.9192301161974513,0.28809755,0.652983985345108
0.0235,1.78619375,1.0,2520.9573021220017,0.23232207302788926,1.3294434979047864,0.9218849196334469,0.28807313749999996,0.6539125691589891
0.024,1.7856,1.0,2538.6915877996075,0.23662814070944957,1.3290079137700281,0.9243981487992904,0.2880482,0.6548271450149673
0.0245,1.78499375,1.0,2555.302700434692,0.2409100546378493,1.328577818599105,0.9267796457152768,0.2880227375,0.6557290086883087
0.025,1.784375,1.0,2570.8425027670232,0.2451679494759773,1.3281526182306476,0.9290384155430602,0.28799675,0.6566194488149582
0.025500000000000002,1.78374375,1.0,2585.364393095123,0.24940195988672234,1.3277317185032858,0.9311827091728652,0.2879702375,0.6574997470882751
0.026000000000000002,1.7831000000000001,1.0,2598.9231703417663,0.25361222053297316,1.32731452525565,0.9332200966534197,0.2879432,0.6583711784332541
0.0265,1.78244375,1.0,2611.563632648801,0.2577988628252763,1.3269005490937598,0.9351575477851564,0.2879156375,0.659234792736602
0.027,1.781775,1.0,2623.34219038584,0.2619620235116046,1.3264892027177098,0.9370014608858823,0.28788755,0.6600918383569969
0.0275,1.7810937500000001,1.0,2634.3037242388855,0.26610183486232863,1.3260800151940249,0.9387577447236513,0.2878589375,0.6609433153414047
0.028,1.7804,1.0,2644.4837894714374,0.2702184257664308,1.325672609517038,0.9404318604082516,0.2878298,0.6617900236299838
0.0285,1.77969375,1.0,2653.9186355975676,0.27431192511289343,1.3252666086810811,0.9420288496334321,0.2878001375,0.662632759174453
0.029,1.778975,1.0,2662.645145876724,0.2783824617906989,1.324861635680487,0.9435533723481758,0.28776995,0.6634723139763985
0.029500000000000002,1.7782437500000001,1.0,2670.7007799598973,0.28243016468882964,1.324457313509588,0.9450097405921454,0.2877392375,0.6643094761165207
0.03,1.7775,1.0,2678.1235196869447,0.28645516269626786,1.3240532651627168,0.9464019489276406,0.287708,0.6651450297748149
0.0305,1.77674375,1.0,2684.9526611920337,0.2904575824151886,1.3236491059069169,0.9477337000604226,0.2876762375,0.6659797711914965
0.031,1.7759786026016413,1.0,2691.3896890609494,0.29443755153888546,1.3232445972459608,0.9490084505912134,0.28764410130926893,0.6668141911712264
0.0315,1.775213092861966,1.0,2697.8464730859077,0.29839520025740623,1.3228398147837421,0.9502294525647195,0.28761194990020256,0.6676481313469358
0.032,1.7744475831222908,1.0,2704.331468706744,0.30233065132065157,1.3224348453398929,0.9513997293123367,0.28757979849113624,0.6684814110670898
0.0325,1.7736820733826155,1.0,2710.8352308125527,0.3062440274785223,1.3220297757340445,0.9525220952934995,0.28754764708206987,0.6693138505761513
0.033,1.7729165636429403,1.0,2717.3482687127785,0.31013545148091903,1.321624692785829,0.9535991730616109,0.2875154956730035,0.6701452710153735
0.0335,1.772151053903265,1.0,2723.8610460276514,0.3140050460777425,1.321219683314878,0.9546334086597689,0.2874833442639371,0.6709754944231172
0.034,1.7713855441635897,1.0,2730.363980746061,0.31785293401889336,1.320814834140823,0.9556270856081776,0.28745119285487075,0.6718043437346819
0.0345,1.7706200344239145,1.0,2736.847445450817,0.3216792380542724,1.3204102320832958,0.9565823376268677,0.28741904144580444,0.6726316427816599
0.035,1.7698545246842392,1.0,2743.3086745298697,0.3254840685240918,1.3200059013397127,0.9575011503880239,0.28738689003673806,0.6734573440936162
0.035500000000000004,1.769089014944564,1.0,2749.740464341622,0.32926754898855454,1.3196019061890103,0.9583853902465015,0.2873547386276717,0.6742813187511194
0.036000000000000004,1.7683235052048887,1.0,2756.1265269296773,0.3330298219733096,1.3191983927886786,0.9592368185605759,0.2873225872186053,0.6751032718148102
0.0365,1.7675579954652134,1.0,2762.4657186292266,0.3367710017895475,1.3187953697985821,0.9600570660358101,0.28729043580953895,0.6759231893972745
0.037,1.7667924857255382,1.0,2768.756892955338,0.34049120274845873,1.3183928458785854,0.9608476630569256,0.28725828440047263,0.6767410576955848
0.0375,1.766026975985863,1.0,2774.9989006974206,0.34419053916123377,1.317990829688553,0.9616100469853515,0.28722613299140626,0.6775568629910258
0.038,1.7652614662461876,1.0,2781.1905900163074,0.3478691253390631,1.3175893298883496,0.9623455688484868,0.2871939815823399,0.6783705916488171
0.0385,1.7644959565065124,1.0,2787.330806542506,0.3515270755931372,1.3171883551378398,0.9630554994774968,0.2871618301732735,0.6791822301178303
0.039,1.763730446766837,1.0,2793.4183934760467,0.3551645042346465,1.3167879140968881,0.9637410351446186,0.28712967876420714,0.6799917649303018
0.0395,1.7629649370271618,1.0,2799.4521916882222,0.3587815255747815,1.316388015425359,0.9644033027457497,0.2870975273551408,0.6807991827015394
0.04,1.7621994272874864,1.0,2805.4310398246944,0.3623782539247327,1.3159886677831174,0.9650433645694848,0.2870653759460744,0.6816044701296259
0.0405,1.761433917547811,1.0,2811.3537744109935,0.36595480359569055,1.3155898798300274,0.96566222268965,0.2870332245370081,0.6824076139951176
0.041,1.7606684078081358,1.0,2817.219229958383,0.36951128889884555,1.315191660225954,0.966260823014719,0.2870010731279417,0.6832086011607361
0.0415,1.7599028980684606,1.0,2823.0262390727507,0.3730478241453881,1.3147940176307613,0.9668400590242296,0.28696892171887534,0.6840074185710585
0.042,1.7591373883287853,1.0,2828.7736325644,0.37656452364650883,1.3143969607043142,0.9674007752193939,0.28693677030980896,0.6848040532522
0.0425,1.75837187858911,1.0,2834.4606212862254,0.3800614968947808,1.3140004947015749,0.9679437692482323,0.2869046189007426,0.6855984991299944
0.043000000000000003,1.7576063688494348,1.0,2840.089066599566,0.3835388448425195,1.3136046012585918,0.9684697927444665,0.2868724674916763,0.686390797415305
0.043500000000000004,1.7568408591097595,1.0,2845.658702665941,0.3869966997708886,1.313209281040692,0.9689795639388873,0.2868403160826099,0.687180951115985
0.044,1.7560753493700842,1.0,2851.1703915816925,0.3904351670191459,1.3128145246986616,0.969473758378889,0.28680816467354353,0.6879689832192298
0.0445,1.755309839630409,1.0,2856.6250016481536,0.3938543519265494,1.3124203228832863,0.9699530165890865,0.28677601326447716,0.6887549166119362
0.045,1.7545443298907337,1.0,2862.023407255226,0.397254359832357,1.3120266662453524,0.9704179462318183,0.2867438618554108,0.6895387740810315
0.0455,1.7537788201510585,1.0,2867.366488767809,0.4006352960758266,1.311633545435646,0.9708691241140316,0.28671171044634447,0.6903205783138047
0.046,1.7530133104113832,1.0,2872.6551324134894,0.40399726599621605,1.3112409511049532,0.9713070980528612,0.2866795590372781,0.6911003518982275
0.0465,1.752247800671708,1.0,2877.8902301726785,0.4073403749327833,1.31084887390406,0.9717323886111238,0.2866474076282117,0.6918781173232711
0.047,1.7514822909320327,1.0,2883.072679670379,0.4106647282247863,1.3104573044837524,0.9721454907129539,0.28661525621914535,0.6926538969792176
0.0475,1.7507167811923574,1.0,2888.2033840698628,0.4139704312114828,1.3100662334948165,0.9725468751489232,0.286583104810079,0.6934277131579654
0.048,1.7499512714526821,1.0,2893.28325196855,0.4172575892321308,1.3096756515880383,0.9729369899791749,0.28655095340101266,0.6941995880533287
0.0485,1.7491857617130069,1.0,2898.3131972953224,0.4205263076259882,1.3092855494142042,0.9733162618423674,0.2865188019919463,0.6949695437613326
0.049,1.7484202519733316,1.0,2903.2941392105868,0.42377669173231286,1.3088959176240997,0.9736850971775765,0.2864866505828799,0.695737602280502
0.0495,1.7476547422336564,1.0,2908.226746551311,0.4270088382838341,1.30850674911803,0.9740438825023436,0.28645449917381355,0.6965037810861763
0.05,1.746889232493981,1.0,2913.110482754823,0.43022279308050204,1.308118047438778,0.9743929812427374,0.2864223477647472,0.6972680766661831
0.0505,1.7461237227543058,1.0,2917.9493331205817,0.4334187513081106,1.30772977637729,0.9747327546361481,0.28639019635568086,0.6980305635547932
0.051000000000000004,1.7453582130146306,1.0,2922.744115449605,0.43659680775353865,1.3073419276792972,0.9750635377850094,0.2863580449466145,0.698791261130018
0.051500000000000004,1.7445927032749553,1.0,2927.4956518298327,0.4397570572036651,1.3069544930905304,0.9753856507043877,0.2863258935375481,0.6995501886847435
0.052000000000000005,1.74382719353528,1.0,2932.204768558979,0.4428995944453687,1.30656746435672,0.9756993991336024,0.28629374212848174,0.700307365426949
0.0525,1.7430616837956048,1.0,2936.872296070042,0.4460245142655284,1.306180833223597,0.9760050752973508,0.28626159071941537,0.7010628104799232
0.053,1.7422961740559295,1.0,2941.499068857311,0.44913191145102316,1.3057945914368918,0.9763029586198869,0.28622943931034905,0.7018165428824759
0.0535,1.7415306643162543,1.0,2946.08592540449,0.4522218807887317,1.3054087307423354,0.9765933163955307,0.2861972879012827,0.7025685815891443
0.054,1.740765154576579,1.0,2950.633708114471,0.455294517065533,1.3050232428856585,0.9768764044185335,0.2861651364922163,0.7033189454703972
0.0545,1.7399996448369037,1.0,2955.143263240078,0.45834991506830586,1.3046381196125918,0.9771524675750819,0.28613298508314994,0.7040676533128323
0.055,1.7392341350972285,1.0,2959.615440816583,0.46138816958392914,1.304253352668866,0.9774217404000192,0.28610083367408357,0.7048147238193707
0.0555,1.7384686253575532,1.0,2964.051094596017,0.4644093753992818,1.3038689338002118,0.9776844476006661,0.28606868226501725,0.7055601756094467
0.056,1.737703115617878,1.0,2968.4510819820957,0.4674136273012426,1.30348485475236,0.9779408045499404,0.2860365308559509,0.7063040272191929
0.0565,1.7369376058782027,1.0,2972.8162639680963,0.4704010200766905,1.3031011072710414,0.9781910177508139,0.2860043794468845,0.7070462971016219
0.057,1.7361720961385274,1.0,2977.1475050748727,0.4733716485125043,1.3027176831019864,0.978435285273994,0.28597222803781813,0.7077870036268027
0.0575,1.7354065863988521,1.0,2981.4456732909675,0.4763256073955629,1.3023345739909262,0.9786737971705813,0.28594007662875176,0.7085261650820318
0.058,1.7346410766591767,1.0,2985.7116400145055,0.4792629915127452,1.301951771683591,0.9789067358613186,0.28590792521968544,0.7092637996720041
0.0585,1.7338755669195014,1.0,2989.946279995844,0.48218389565093,1.3015692679257118,0.9791342765039429,0.28587577381061907,0.709999925518974
0.059000000000000004,1.7331100571798261,1.0,2994.150471282558,0.48508841459699625,1.3011870544630195,0.9793565873400317,0.2858436224015527,0.710734560662915
0.059500000000000004,1.7323445474401509,1.0,2998.325095165455,0.48797664313782274,1.3008051230412445,0.9795738300226448,0.2858114709924863,0.7114677230616766
0.06,1.7315790377004756,1.0,3002.4710361260672,0.49084867606028837,1.3004234654061175,0.9797861599259644,0.28577931958341996,0.712199430591133
0.0605,1.7308135279608003,1.0,3006.5888680696985,0.4937045976317962,1.300042076020356,0.9799937257487796,0.28574716817435364,0.712929695846285
0.061,1.730048018221125,1.0,3010.677845261476,0.49654445146731435,1.2996609607872112,0.9801966679571698,0.28571501676528727,0.7136585095028236
0.0615,1.7292825084814498,1.0,3014.7408103479434,0.49936840331911253,1.2992800945624985,0.9803951295487452,0.2856828653562209,0.7143859215518558
0.062,1.7285169987417746,1.0,3018.7782147063476,0.5021765369577206,1.2988994729416836,0.9805892428823362,0.2856507139471545,0.7151119422040298
0.0625,1.7277514890020993,1.0,3022.79051148021,0.5049689361536682,1.2985190915202327,0.9807791353975458,0.28561856253808815,0.715836581626068
0.063,1.726985979262424,1.0,3026.7781555556903,0.5077456846774856,1.298138945893612,0.9809649298343867,0.28558641112902183,0.7165598499408354
0.0635,1.7262204695227488,1.0,3030.7416035383803,0.5105068662997023,1.297759031657287,0.9811467444415374,0.28555425971995546,0.717281757227407
0.064,1.7254549597830735,1.0,3034.681313730525,0.5132525647908484,1.2973793444067239,0.9813246931738874,0.2855221083108891,0.7180023135211324
0.0645,1.7246894500433982,1.0,3038.5977461086077,0.5159828639214535,1.2969998797373885,0.9814988858799936,0.2854899569018227,0.7187215288137014
0.065,1.723923940303723,1.0,3042.4913623014004,0.5186978474620477,1.2966206332447474,0.9816694284800364,0.28545780549275634,0.7194394130532049
0.0655,1.7231584305640477,1.0,3046.362625568475,0.5213975991831608,1.296241600524266,0.9818364231348202,0.28542565408369003,0.7201559761442002
0.066,1.7223929208243725,1.0,3050.2120007789035,0.5240822028553226,1.2958627771714109,0.9819999684063325,0.28539350267462366,0.7208712279477681
0.0665,1.7216274110846972,1.0,3054.0399543910166,0.526751742249063,1.2954841587816472,0.9821601594103352,0.2853613512655573,0.7215851782815761
0.067,1.720861901345022,1.0,3057.8469544317545,0.5294063011349117,1.2951057409504418,0.9823170879614451,0.2853291998564909,0.7222978369199322
0.0675,1.7200963916053467,1.0,3061.633470477108,0.5320459632833988,1.2947275192732604,0.9824708427111165,0.28529704844742454,0.7230092135938455
0.068,1.7193308818656714,1.0,3065.3999736327523,0.5346708124650541,1.2943494893455687,0.9826215092789239,0.2852648970383582,0.7237193179910808
0.0685,1.7185653721259961,1.0,3069.1469365148573,0.5372809324504074,1.2939716467628328,0.9827691703775157,0.28523274562929185,0.7244281597562126
0.069,1.7177998623863209,1.0,3072.8748332318255,0.5398764070099886,1.293593987120519,0.9829139059315809,0.2852005942202255,0.7251357484906775
0.0695,1.7170343526466456,1.0,3076.5841393662463,0.5424573199143276,1.2932165060140932,0.9830557931911612,0.2851684428111591,0.7258420937528292
0.07,1.7162688429069703,1.0,3080.2753319569983,0.545023754933954,1.2928391990390213,0.9831949068396081,0.28513629140209273,0.7265472050579862
0.07050000000000001,1.715503333167295,1.0,3083.9488894823835,0.5475757958393981,1.2924620617907694,0.9833313190964766,0.2851041399930264,0.7272510918784827
0.07100000000000001,1.7147378234276198,1.0,3087.60529184274,0.5501135264011894,1.2920850898648033,0.9834650998156246,0.28507198858396005,0.7279537636437174
