Time [s],Phi [rad],STIM [ ],Fsee [N],Gamma [ ],Lcerel [ ],q [ ],Lmtc [m],fisomrel [ ]
0.0,1.8,1.0,17.96749722484996,1.3600975285260316e-05,1.379339708234147,0.005000049182672193,0.288653,0.5411396229490825
0.0005,1.79999375,1.0,18.278011166967598,0.005622733993365643,1.379302247050584,0.012950513917068814,0.2886527375,0.5412302467550311
0.001,1.799975,1.0,21.622295841273075,0.011200404210119039,1.3789379023453499,0.035627342888077736,0.28865195,0.5421111803766139
0.0015,1.79994375,1.0,31.07875334597776,0.01674678810784862,1.378045392946229,0.07062739293630303,0.2886506375,0.5442655640055205
0.002,1.7999,1.0,53.60301745968411,0.022262061177200834,1.376366793472301,0.1147482594455792,0.2886488,0.5483036886842423
0.0025,1.79984375,1.0,97.15368716202953,0.02774639792475331,1.3739334929131024,0.16460777251876263,0.28864643749999996,0.5541254556052513
0.003,1.7997750000000001,1.0,161.00357942108613,0.033199971880699994,1.3712126440393069,0.21731437511838747,0.28864354999999997,0.5605904748257233
0.0035,1.79969375,1.0,237.73474731210752,0.038622955598467484,1.368583150577094,0.27064662760454383,0.2886401375,0.5667935622151252
0.004,1.7996,1.0,321.52155348317854,0.044015520665491005,1.3661546414882166,0.32294847108570124,0.2886362,0.5724833498617206
0.0045000000000000005,1.7994937500000001,1.0,409.3245548165786,0.0493778377084007,1.363921480805804,0.3730655202390628,0.2886317375,0.5776822570411697
0.005,1.799375,1.0,499.4715106121522,0.054710076384117165,1.361857109750477,0.4202764763857911,0.28862675,0.5824599238617068
0.0055,1.79924375,1.0,590.8489924950097,0.0600124054271878,1.3599376906459324,0.46420056303215806,0.2886212375,0.5868777386877331
0.006,1.7991000000000001,1.0,682.5767964701176,0.06528499259327843,1.35814534797612,0.5047046515073162,0.2886152,0.5909818549842598
0.006500000000000001,1.79894375,1.0,773.9421087680385,0.07052800471598124,1.3564662148727875,0.5418233088061435,0.2886086375,0.5948081557852924
0.007,1.798775,1.0,864.3459521817555,0.07574160768061287,1.354889423543761,0.575697330659062,0.28860155,0.5983848758188044
0.0075,1.79859375,1.0,953.3013398170123,0.08092596646246372,1.3534058851913342,0.6065286167190169,0.2885939375,0.6017355877300048
0.008,1.7984,1.0,1040.4166291289118,0.08608124508491453,1.3520077898537142,0.6345490409649133,0.2885858,0.6048804715634675
0.0085,1.79819375,1.0,1125.3729029233273,0.09120760653599835,1.350688410881255,0.6599998494382648,0.2885771375,0.6078368573774877
0.009000000000000001,1.797975,1.0,1207.9399475783682,0.09630521330788545,1.349441491686307,0.6831183339202364,0.28856795,0.6106206756634207
0.0095,1.79774375,1.0,1287.938471360156,0.10137422678580324,1.3482615115907817,0.7041302851664589,0.2885582375,0.613245916914872
0.01,1.7975,1.0,1365.2206399302913,0.10641480678223242,1.347143696501109,0.7232458306765589,0.288548,0.6157246619245725
0.0105,1.79724375,1.0,1439.7071003516676,0.11142711286618094,1.3460833506273344,0.7406572647395229,0.2885372375,0.6180686046510124
0.011,1.796975,1.0,1511.3657856205966,0.11641130426760042,1.3450760214029607,0.7565388248509094,0.28852595000000003,0.620288709989488
0.0115,1.79669375,1.0,1580.1699847133357,0.12136753849444666,1.3441178980141824,0.7710474404975804,0.2885141375,0.6223943630940714
0.012,1.7964,1.0,1646.1102146176192,0.12629597181461966,1.3432055422208753,0.7843236495327549,0.28850180000000003,0.6243939916737085
0.0125,1.79609375,1.0,1709.2139680668477,0.13119676018130824,1.3423355754055415,0.7964927767452934,0.2884889375,0.6262957710834083
0.013000000000000001,1.7957750000000001,1.0,1769.5357139070984,0.13607005935977187,1.3415047435679301,0.8076663835992367,0.28847555,0.6281074940070226
0.0135,1.79544375,1.0,1827.1272171865592,0.14091602373401788,1.3407101985837566,0.8179437796457966,0.2884616375,0.6298359712404884
0.014,1.7951000000000001,1.0,1882.0341439541114,0.14573480572187353,1.3399494714295948,0.827413325903916,0.2884472,0.6314871073811835
0.0145,1.79474375,1.0,1934.3262225046615,0.15052655774116605,1.3392200930820184,0.8361535238348762,0.2884322375,0.6330667361269986
0.015,1.794375,1.0,1984.0817479764144,0.15529143131331985,1.3385197374067264,0.8442342001686416,0.28841675,0.6345803169199014
0.0155,1.79399375,1.0,2031.396525619568,0.1600295787340055,1.337846097931561,0.8517174812128762,0.2884007375,0.6360332082666396
0.016,1.7936,1.0,2076.3436108855235,0.16474114937470566,1.3371972883413223,0.8586588232748755,0.2883842,0.6374298110180456
0.0165,1.7931937500000001,1.0,2118.9940833821906,0.1694262913601332,1.3365715904257556,0.8651077200448563,0.2883671375,0.6387741215506296
0.017,1.792775,1.0,2159.431487578242,0.17408515281500114,1.3359672859746052,0.8711083584767265,0.28834955,0.6400700980703375
0.0175,1.7923437500000001,1.0,2197.741669301504,0.1787178813525932,1.3353827489656966,0.8767002715652987,0.2883314375,0.6413214658680246
0.018000000000000002,1.7919,1.0,2234.020284408266,0.18332462420719792,1.3348163563448048,0.881918859904343,0.2883128,0.642531911747413
0.0185,1.7914472932046763,1.0,2268.5142135339274,0.18790552817066472,1.3342666692304799,0.8867959219066763,0.2882937863145964,0.6437046997498755
0.019,1.7909942049057397,1.0,2301.64588130931,0.19246073677161507,1.3337329070750228,0.8913601856823411,0.28827475660604107,0.6448416668853769
0.0195,1.790541116606803,1.0,2333.4769701414334,0.19699039353867026,1.333214289330735,0.8956374939913472,0.28825572689748574,0.645944634521088
0.02,1.7900880283078664,1.0,2364.0557670050157,0.2014946420004517,1.332710035449918,0.899651132097623,0.2882366971889304,0.6470154091547013
0.0205,1.7896349400089298,1.0,2393.431291111504,0.2059736250364324,1.3322193917274583,0.9034221207768459,0.28821766748037503,0.648055726276268
0.021,1.789181851709993,1.0,2421.65139741608,0.21042748529318606,1.3317416464840257,0.9069694713081929,0.2881986377718197,0.6490672193497058
0.021500000000000002,1.7887287634110565,1.0,2448.758840160804,0.21485636338669267,1.331276164553412,0.9103104115784189,0.28817960806326437,0.6500513482103978
0.022,1.7882756751121198,1.0,2474.7940473811623,0.21926039858086152,1.3308223568894286,0.913460572955663,0.28816057835470904,0.6510094648664653
0.0225,1.7878225868131834,1.0,2499.7996866495905,0.22363973013960195,1.3303796344458878,0.9164341524345183,0.2881415486461537,0.6519429118093162
0.023,1.7873694985142468,1.0,2523.812996170111,0.22799449476783107,1.3299474792640273,0.9192440763257198,0.2881225189375983,0.6528528728549562
0.0235,1.7869164102153101,1.0,2546.8826081369452,0.2323248327443074,1.3295252832274904,0.9219021055470932,0.28810348922904305,0.6537407133732214
0.024,1.7864633219163735,1.0,2569.0588864590463,0.23663088496865387,1.3291124394294556,0.9244189709627857,0.28808445952048767,0.6546077876683449
0.0245,1.7860102336174368,1.0,2590.3722122860345,0.24091278512095587,1.328708543540179,0.9268045093604951,0.28806542981193234,0.6554550172311677
0.025,1.7855571453185002,1.0,2610.854230291343,0.2451706668812988,1.3283131912299178,0.9290677206891246,0.288046400103377,0.6562833178074856
0.025500000000000002,1.7851040570195635,1.0,2630.5377702701717,0.24940466392976796,1.3279259781689279,0.9312168506897432,0.2880273703948217,0.657093599623571
0.026000000000000002,1.784650968720627,1.0,2649.4567723623695,0.25361490994644875,1.3275465000274664,0.9332594643615024,0.28800834068626635,0.6578867676012657
0.0265,1.7841978804216903,1.0,2667.6462158993186,0.25780153861142646,1.3271743524757897,0.9352025113755097,0.28798931097771097,0.6586637215626521
0.027,1.7837447921227536,1.0,2685.142051876027,0.26196468360478653,1.3268091311841546,0.9370523844049679,0.28797028126915564,0.6594253564242923
0.0275,1.783291703823817,1.0,2701.971658166383,0.266104474181184,1.326450518438255,0.938814982420662,0.2879512515606003,0.660172382051641
0.028,1.7828386155248805,1.0,2718.173535353928,0.27022104640398764,1.3260981018970157,0.9404957338942571,0.287932221852045,0.6609057013366185
0.0285,1.782385527225944,1.0,2733.7769919735765,0.27431453136024087,1.3257515600407133,0.9420996618015877,0.28791319214348965,0.661626024014801
0.029,1.7819324389270073,1.0,2748.8041522687945,0.27838505620541953,1.3254106422449656,0.9436314174263021,0.2878941624349343,0.6623339091636448
0.029500000000000002,1.7814793506280706,1.0,2763.27766020479,0.2824327480949996,1.3250750978853902,0.9450953048786797,0.287875132726379,0.6630299130574107
0.03,1.781026262329134,1.0,2777.22064891341,0.28645773418445675,1.3247446763376045,0.9464953114692686,0.2878561030178236,0.6637145892550527
0.0305,1.7805731740301973,1.0,2790.656711530941,0.29046014162926714,1.324419126977226,0.9478351350642288,0.2878370733092683,0.6643884886841023
0.031,1.7801200857312607,1.0,2803.609873428239,0.2944400975849064,1.3240981991798726,0.9491182087551782,0.28781804360071295,0.6650521597205473
0.0315,1.779666997432324,1.0,2816.1045658337334,0.2983977292068506,1.3237816423211615,0.9503477231363855,0.2877990138921576,0.6657061482647049
0.032,1.7792139091333874,1.0,2828.157606662995,0.30233315772655733,1.3234692771621304,0.9515266533399218,0.2877799841836023,0.6663508505491356
0.0325,1.7787608208344508,1.0,2839.796777556046,0.3062465145047222,1.3231608293601183,0.9526577615089782,0.2877609544750469,0.6669868570385221
0.033,1.778307732535514,1.0,2851.0426986787165,0.31013792507115767,1.3228560914632386,0.953743628439294,0.2877419247664916,0.6676146180008958
0.0335,1.7778546442365775,1.0,2861.9098117758003,0.3140075098726707,1.32255491334343,0.954786667139101,0.28772289505793625,0.668234463896723
0.034,1.777401555937641,1.0,2872.412773858569,0.31785538935606805,1.3222571448726308,0.9557891309806765,0.2877038653493809,0.6688467237836105
0.0345,1.7769484676387044,1.0,2882.566445605671,0.3216816839681567,1.3219626359227792,0.9567531261552965,0.2876848356408256,0.6694517253496682
0.035,1.7764953793397678,1.0,2892.385880263584,0.3254865141557434,1.3216712363658132,0.9576806230172729,0.28766580593227026,0.6700497949454374
0.035500000000000004,1.7760422910408311,1.0,2901.8863130469717,0.3292700003656351,1.3213827960736715,0.9585734664278068,0.28764677622371493,0.6706412576143779
0.036000000000000004,1.7755892027418945,1.0,2911.0831510387206,0.3330322630446386,1.321097164918292,0.9594333851972747,0.28762774651515954,0.6712264371219232
0.0365,1.7751361144429578,1.0,2919.9919635899605,0.3367734226395607,1.3208141927716135,0.960262000713869,0.2876087168066042,0.6718056559830932
0.037,1.7746830261440212,1.0,2928.622401340845,0.34049359197030543,1.3205337827873276,0.9610608384422252,0.2875896870980489,0.6723791265690253
0.0375,1.7742299378450845,1.0,2936.9917860205037,0.3441928960389408,1.3202557718627796,0.9618313274993181,0.28757065738949356,0.6729471957543853
0.038,1.773776849546148,1.0,2945.1150747779125,0.3478714566135435,1.31998001886637,0.96257481274339,0.2875516276809382,0.673510164305732
0.0385,1.7733237612472112,1.0,2953.0009281051343,0.3515293869561569,1.31970643877929,0.9632925629021188,0.28753259797238284,0.6740682174842605
0.039,1.7728706729482746,1.0,2960.6580907302687,0.35516680032882436,1.3194349465827306,0.9639857724322316,0.2875135682638275,0.6746215398650767
0.0395,1.7724175846493382,1.0,2968.0953876010376,0.35878380999358944,1.319165457257883,0.9646555666713693,0.2874945385552722,0.675170315348745
0.04,1.7719644963504015,1.0,2975.321720029428,0.3623805292124956,1.3188978857859386,0.965303006579478,0.28747550884671685,0.6757147271723803
0.0405,1.771511408051465,1.0,2982.3460619966536,0.36595707124758614,1.318632147148088,0.9659290931064499,0.2874564791381615,0.6762549579202781
0.041,1.7710583197525283,1.0,2989.1774566178356,0.36951354936090464,1.3183681563255227,0.9665347712191226,0.2874374494296062,0.6767911895340801
0.0415,1.7706052314535916,1.0,2995.825012767521,0.3730500768144944,1.3181058282994338,0.9671209336174937,0.28741841972105087,0.6773236033224845
0.042,1.770152143154655,1.0,3002.297901864917,0.37656676687039903,1.3178450780510123,0.967688424167126,0.2873993900124955,0.6778523799704909
0.0425,1.7696990548557183,1.0,3008.6051117669736,0.38006373221712636,1.3175858226657398,0.9682380411512165,0.28738036030394015,0.6783776952861138
0.043000000000000003,1.7692459665567817,1.0,3014.7475981816474,0.3835410683182773,1.3173280491793757,0.9687705430295159,0.2873613305953848,0.6788995829209556
0.043500000000000004,1.768792878257845,1.0,3020.7424976254315,0.38699891073119086,1.3170716049996538,0.9692866432869126,0.2873423008868295,0.6794183587466311
0.044,1.7683397899589084,1.0,3026.594559280976,0.39043736494563996,1.3168164451764162,0.9697870217887392,0.28732327117827416,0.6799341201077134
0.0445,1.7678867016599717,1.0,3032.3085637107397,0.3938565364513975,1.316562524759504,0.9702723231729866,0.2873042414697188,0.6804469640238787
0.045,1.7674336133610353,1.0,3037.889321599556,0.39725653073823636,1.3163097987987595,0.9707431590215775,0.2872852117611635,0.6809569871935213
0.0455,1.7669805250620987,1.0,3043.3416725411325,0.4006374532959295,1.3160582223440236,0.9712001098773687,0.2872661820526081,0.6814642859972442
0.046,1.766527436763162,1.0,3048.6704838710084,0.4039994096142497,1.3158077504451382,0.9716437271192352,0.2872471523440528,0.6819689565012159
0.0465,1.7660743484642254,1.0,3053.880649542613,0.4073425051829699,1.3155583381519451,0.9720745347064994,0.28722812263549746,0.682471094460404
0.047,1.7656212601652888,1.0,3058.977089049093,0.41066684549186294,1.3153099405142858,0.9724930308029673,0.28720909292694213,0.6829707953216758
0.0475,1.765168171866352,1.0,3063.964746389767,0.4139725360307018,1.315062512582002,0.9728996892899541,0.2871900632183868,0.6834681542267727
0.048,1.7647150835674155,1.0,3068.84858908116,0.41725968228925936,1.3148160094049348,0.9732949611768545,0.2871710335098314,0.6839632660151531
0.0485,1.7642619952684788,1.0,3073.633607213233,0.42052838975730844,1.3145703860329265,0.9736792759170949,0.2871520038012761,0.6844562252267079
0.049,1.7638089069695422,1.0,3078.3248125497717,0.42377876392462194,1.3143255975158183,0.9740530426366307,0.28713297409272076,0.6849471261043487
0.0495,1.7633558186706055,1.0,3082.9227652011577,0.4270108904069528,1.3140816371554072,0.9744166515040152,0.28711394438416543,0.6854359859750612
0.05,1.762902730371669,1.0,3087.43469260138,0.4302248900454447,1.3138384413303235,0.9747704749292699,0.2870949146756101,0.6859229360438557
0.0505,1.7624496420727322,1.0,3091.866061164404,0.4334208744702304,1.3135959616799786,0.9751148680915758,0.2870758849670547,0.6864080765880402
0.051000000000000004,1.7619965537737958,1.0,3096.2192617300257,0.4365989407251692,1.3133541762609173,0.9754501700498587,0.28705685525849944,0.6868914547826592
0.051500000000000004,1.7615434654748592,1.0,3100.4966956444287,0.4397591858541203,1.3131130631296848,0.9757767045797763,0.28703782554994406,0.6873731176579911
0.052000000000000005,1.7610903771759225,1.0,3104.7007744288153,0.4429017069009431,1.312872600342826,0.9760947809964093,0.28701879584138873,0.6878531121005049
0.0525,1.760637288876986,1.0,3108.833919456892,0.44602660090949664,1.3126327659568853,0.9764046949257386,0.2869997661328334,0.6883314848537864
0.053,1.7601842005780493,1.0,3112.8985616440154,0.4491339649236404,1.3123935380284082,0.9767067290285077,0.28698073642427807,0.6888082825194308
0.0535,1.7597311122791126,1.0,3116.897141146938,0.4522238959872335,1.3121548946139394,0.9770011536798047,0.28696170671572274,0.6892835515579094
0.054,1.759278023980176,1.0,3120.8321070739166,0.45529649114413523,1.3119168137700237,0.9772882276074143,0.28694267700716736,0.6897573382894018
0.0545,1.7588249356812393,1.0,3124.705917205818,0.45835184743820484,1.3116792735532061,0.9775681984917846,0.28692364729861203,0.6902296888945973
0.055,1.7583718473823027,1.0,3128.521037727681,0.46139006191330156,1.3114422520200317,0.9778413035302109,0.2869046175900567,0.6907006494154689
0.0555,1.757918759083366,1.0,3132.279942970958,0.46441123161328474,1.311205727227045,0.9781077699676585,0.28688558788150137,0.6911702657560144
0.056,1.7574656707844294,1.0,3135.985115166578,0.4674154535820136,1.3109696772307913,0.978367815596453,0.28686655817294604,0.6916385836829639
0.0565,1.757012582485493,1.0,3139.639044208606,0.47040282486334734,1.3107340800878153,0.9786216492269127,0.2868475284643907,0.6921056488264642
0.057,1.7565594941865563,1.0,3143.244227428727,0.4733734425011452,1.310498913854662,0.978869471130829,0.2868284987558354,0.6925715066807243
0.0575,1.7561064058876197,1.0,3146.7984398646713,0.47632735694043365,1.3102641966256083,0.9791114716552326,0.28680946904728,0.6930361233809499
0.058,1.755653317588683,1.0,3150.3081615468927,0.47926471445798197,1.3100298728139614,0.979347837684713,0.28679043933872467,0.6934996108512721
0.0585,1.7552002292897464,1.0,3153.775670949873,0.4821856153668596,1.3097959224953517,0.9795787466418792,0.28677140963016934,0.6939620102208357
0.059000000000000004,1.7547471409908098,1.0,3157.2020302587875,0.4850901472166601,1.3095623360768645,0.9798043684332551,0.286752379921614,0.6944233421002374
0.059500000000000004,1.754294052691873,1.0,3160.588305019563,0.4879783975569771,1.309329103965585,0.9800248663206216,0.2867333502130587,0.6948836270403327
0.06,1.7538409643929365,1.0,3163.9355640625363,0.490850453937404,1.3090962165685984,0.9802403972325298,0.2867143205045033,0.6953428855324557
0.0605,1.7533878760939998,1.0,3167.244879428256,0.49370640390753456,1.30886366429299,0.980451112058884,0.286695290795948,0.6958011380086324
0.061,1.7529347877950632,1.0,3170.517326294728,0.49654633501696227,1.3086314375458452,0.980657155929632,0.28667626108739264,0.696258404841789
0.0615,1.7524816994961265,1.0,3173.7539829078646,0.4993703348152807,1.308399526734249,0.9808586684785394,0.2866572313788373,0.6967147063459542
0.062,1.75202861119719,1.0,3176.9559305125977,0.5021784908520833,1.3081679222652869,0.9810557840929492,0.286638201670282,0.6971700627764544
0.0625,1.7515755228982535,1.0,3180.1242532870556,0.5049708906769639,1.307936614546044,0.9812486321503774,0.28661917196172665,0.6976244943301055
0.063,1.7511224345993168,1.0,3183.260038278428,0.5077476218395158,1.3077055939836055,0.9814373372427249,0.2866001422531713,0.698078021145397
0.0635,1.7506693463003802,1.0,3186.3643753406564,0.5105087718893327,1.307474850985057,0.9816220193888453,0.28658111254461593,0.6985306633026692
0.064,1.7502162580014435,1.0,3189.4383570747364,0.5132544283760082,1.3072443759574834,0.9818027942361565,0.2865620828360606,0.6989824408242875
0.0645,1.749763169702507,1.0,3192.4830787703104,0.5159846788491357,1.30701415930797,0.9819797732519309,0.2865430531275053,0.69943337367481
0.065,1.7493100814035702,1.0,3195.4996383499424,0.518699610858309,1.3067841914436022,0.9821530639048709,0.28652402341894995,0.6998834817611455
0.0655,1.7488569931046336,1.0,3198.4891363150423,0.5213993119531214,1.3065544627714654,0.9823227698375238,0.2865049937103946,0.7003327849327112
0.066,1.748403904805697,1.0,3201.452675694149,0.5240838696831667,1.3063249636986447,0.9824889910300669,0.2864859640018393,0.7007813029815817
0.0665,1.7479508165067603,1.0,3204.391361992935,0.5267533715980383,1.3060956846322251,0.9826518239559485,0.28646693429328396,0.7012290556426319
0.067,1.7474977282078237,1.0,3207.3063031462866,0.5294079052473298,1.3058666159792922,0.982811361729845,0.2864479045847286,0.7016760625936741
0.0675,1.747044639908887,1.0,3210.1963501773403,0.5320475073528672,1.3056377670832067,0.9829676919094551,0.28642887487617325,0.7021223065446158
0.068,1.7465915516099506,1.0,3213.064110641228,0.5346723147928667,1.305409115801809,0.9831209039092432,0.2864098451676179,0.7025678315853227
0.0685,1.746138463311014,1.0,3215.9105980219038,0.5372824194314113,1.3051806533836274,0.9832710818786391,0.2863908154590626,0.7030126556133363
0.069,1.7456853750120773,1.0,3218.7362661876455,0.5398778991747643,1.3049523757789199,0.9834183064815281,0.28637178575050726,0.703456787330333
0.0695,1.7452322867131407,1.0,3221.541570086609,0.5424588319291891,1.304724278937945,0.9835626556851857,0.2863527560419519,0.703900235413742
0.07,1.744779198414204,1.0,3224.3269657311316,0.5450252956009493,1.3044963588109613,0.9837042048688406,0.2863337263333966,0.7043430085167932
