Time [s],Phi [rad],STIM [ ],Fsee [N],Gamma [ ],Lcerel [ ],q [ ],Lmtc [m],fisomrel [ ]
0.0,1.8,1.0,17.991431274430283,0.00015503245551779204,1.3793370277378276,0.005006268617166786,0.288653,0.5411461077392559
0.0005,1.79999375,1.0,18.348337246534324,0.00576337215487383,1.3792944429623213,0.013348053428272218,0.2886527375,0.5412491248019847
0.001,1.799975,1.0,21.79766040068093,0.011340253502747933,1.3789200292242012,0.03636832737015419,0.28865195,0.5421543732548806
0.0015,1.79994375,1.0,31.48006622344378,0.016885852956572196,1.378011317352396,0.07163909297353026,0.2886506375,0.5443477166884763
0.002,1.7999,1.0,54.454469428325964,0.02240034598196768,1.3763117838745718,0.11594477588909334,0.2886488,0.5484357184857704
0.0025,1.79984375,1.0,98.57380365987254,0.02788390706119213,1.3738653213436849,0.1659084493825131,0.28864643749999996,0.5542880149763496
0.003,1.7997750000000001,1.0,162.84422017452434,0.033336709699586464,1.3711439525886997,0.2186555721593333,0.28864354999999997,0.5607530818138936
0.0035,1.79969375,1.0,239.81047430029375,0.038758926426225866,1.3685193585531052,0.27198015514808277,0.2886401375,0.5669435024604843
0.004,1.7996,1.0,323.7275385272233,0.04415072880437154,1.3660963182171966,0.32423937901396915,0.2886362,0.5726195337621593
0.0045000000000000005,1.7994937500000001,1.0,411.6072644874172,0.04951228743675916,1.3638679751206408,0.3742907149415859,0.2886317375,0.577806430744913
0.005,1.799375,1.0,501.79947667413705,0.0548437719573824,1.3618077010424372,0.421422591420978,0.28862675,0.5825739396249566
0.0055,1.79924375,1.0,593.1964245188794,0.06014535107143924,1.3598918752510958,0.46526159449413274,0.2886212375,0.586982902194674
0.006,1.7991000000000001,1.0,684.9252369399427,0.0654171925169605,1.3581026980678523,0.5056796819045332,0.2886152,0.5910792654225913
0.006500000000000001,1.79894375,1.0,776.2734815061299,0.07065946309212587,1.3564264483001256,0.5427148049754543,0.2886086375,0.5948985553321362
0.007,1.798775,1.0,866.647762885501,0.07587232869961592,1.3548522679392423,0.5765097523754253,0.28860155,0.5984689666402303
0.0075,1.79859375,1.0,955.557681489615,0.08105595410466303,1.3533712018932174,0.6072675668453653,0.2885939375,0.6018137553333642
0.008,1.7984,1.0,1042.6311453036371,0.0862105037406263,1.3519752038067816,0.6352204133546813,0.2885858,0.6049536221466025
0.0085,1.79819375,1.0,1127.5407092508551,0.09133614035858723,1.3506577382780631,0.6606096845344512,0.2885771375,0.607905454673831
0.009000000000000001,1.797975,1.0,1210.0398906453024,0.0964330260169326,1.3494128113922619,0.6836725965316487,0.28856795,0.61068458939718
0.0095,1.79774375,1.0,1289.966997218629,0.10150132228001077,1.3482346798120526,0.7046344434068402,0.2885582375,0.6133055094904248
0.01,1.7975,1.0,1367.1883923648938,0.106541189575783,1.3471184151659434,0.723704841689247,0.288548,0.6157806309077926
0.0105,1.79724375,1.0,1441.6110589088132,0.11155278697544078,1.3460595293918454,0.7410757406784962,0.2885372375,0.618121180220327
0.011,1.796975,1.0,1513.1814426755232,0.11653627271586892,1.3450538493436461,0.7569210550606605,0.28852595000000003,0.6203375033582027
0.0115,1.79669375,1.0,1581.9187929389739,0.12149180610321056,1.3440970119046893,0.7713970196316373,0.2885141375,0.6224401989740564
0.012,1.7964,1.0,1647.8067809072588,0.12641954301037225,1.3431856896434615,0.7846438356512047,0.28850180000000003,0.6244374439538958
0.0125,1.79609375,1.0,1710.8527442795516,0.13131963866199733,1.3423167560498337,0.7967865766438981,0.2884889375,0.6263368575494855
0.013000000000000001,1.7957750000000001,1.0,1771.100313587083,0.1361922482827291,1.3414870846136768,0.8079365211418732,0.28847555,0.6281459535779704
0.0135,1.79544375,1.0,1828.608669576561,0.1410375263826688,1.3406937434022248,0.8181926421568377,0.2884616375,0.6298717257862851
0.014,1.7951000000000001,1.0,1883.4530598807223,0.1458556270094524,1.3399339422519152,0.8276429173402858,0.2884472,0.6315207745697435
0.0145,1.79474375,1.0,1935.691220609921,0.1506467018409293,1.3392053571377636,0.8363656757274746,0.2884322375,0.6330986150798542
0.015,1.794375,1.0,1985.3930691158175,0.15541090212589218,1.3385057594105068,0.8444305743699071,0.28841675,0.6346104937688652
0.0155,1.79399375,1.0,2032.6414704770903,0.160148378605746,1.337832982770849,0.8518996007535601,0.2884007375,0.6360614660464006
0.016,1.7936,1.0,2077.527448321489,0.16485928217146056,1.3371849525235873,0.8588279877043188,0.2883842,0.6374563386213846
0.0165,1.7931937500000001,1.0,2120.1306656726656,0.16954376187191908,1.3365598667130845,0.865265064552742,0.2883671375,0.6387992860907871
0.017,1.792775,1.0,2160.5243100840216,0.17420196496691587,1.3359561195957608,0.8712549293143057,0.28834955,0.6400940232977006
0.0175,1.7923437500000001,1.0,2198.792514754267,0.17883403871624537,1.335372105428037,0.8768370103054375,0.2883314375,0.641344231188666
0.018000000000000002,1.7919,1.0,2235.021775081256,0.18344012954011205,1.334806295323546,0.8820466352193279,0.2883128,0.6425533948077886
0.0185,1.79144375,1.0,2269.3046061618033,0.18802038442117125,1.3342571891558144,0.8869154976583118,0.2882936375,0.6437249091124175
0.019,1.790975,1.0,2301.7263257566665,0.19257494903693637,1.3337234376216955,0.891472106441617,0.28827395,0.6448618213710405
0.0195,1.79049375,1.0,2332.3529165170385,0.19710396602664357,1.3332039495548638,0.8957421735395872,0.2882537375,0.6459666071461729
0.02,1.79,1.0,2361.2560203255803,0.2016075780295291,1.3326976337889942,0.8997488701411807,0.288233,0.6470417234413404
0.0205,1.78949375,1.0,2388.512469850001,0.20608592768482922,1.332203399157761,0.9035131119171957,0.2882117375,0.6480896096557056
0.021,1.788975,1.0,2414.19991190821,0.2105391568653706,1.3317201925225113,0.9070538171038817,0.28818995000000003,0.6491126080128446
0.021500000000000002,1.78844375,1.0,2438.3932960458674,0.21496740711659829,1.3312470275979795,0.9103881316237951,0.2881676375,0.6501129040417838
0.022,1.7879,1.0,2461.1675655492354,0.21937082028747484,1.330782954033255,0.9135316142971753,0.2881448,0.6510925934981937
0.0225,1.78734375,1.0,2482.5797197757884,0.22374953398688055,1.3303272244303035,0.916498436553801,0.28812143749999997,0.6520533316332013
0.023,1.786775,1.0,2502.689462978915,0.22810368582369567,1.3298790913910918,0.9193014904732352,0.28809755,0.6529967635937107
0.0235,1.78619375,1.0,2521.5589786875803,0.23243341340680035,1.3294378075175861,0.9219525219810232,0.28807313749999996,0.6539245248023147
0.024,1.7856,1.0,2539.2527164711673,0.2367388543450749,1.3290026254117526,0.9244622485867535,0.2880482,0.6548382413015752
0.0245,1.78499375,1.0,2555.82425950036,0.2410201433470088,1.328572919146728,0.9268404836514287,0.2880227375,0.655739275521039
0.025,1.784375,1.0,2571.34116932631,0.2452774200085933,1.3281479479946265,0.9290961893035597,0.28799675,0.6566292226623593
0.025500000000000002,1.78374375,1.0,2585.8532684089787,0.2495108187053903,1.3277271528379426,0.9312376056713428,0.2879702375,0.65750928983653
0.026000000000000002,1.7831000000000001,1.0,2599.403067860863,0.2537204715509712,1.327310055136335,0.9332723051505325,0.2879432,0.6583805095875297
0.0265,1.78244375,1.0,2612.0342160159184,0.25790651065890746,1.3268961763494629,0.9352072443473016,0.2879156375,0.6592439090819543
0.027,1.781775,1.0,2623.791401843852,0.26206906814277037,1.326485037936985,0.9370488224128943,0.28788755,0.6601005102145583
0.0275,1.7810937500000001,1.0,2634.720263440821,0.2662082761161314,1.3260761613585603,0.938802933142033,0.2878589375,0.6609513296991905
0.028,1.7804,1.0,2644.867301598056,0.27032426669256193,1.3256690680738477,0.9404750115690742,0.2878298,0.6617973791451262
0.0285,1.77969375,1.0,2654.27050950654,0.27441716692243384,1.32526336516357,0.9420700860182597,0.2878001375,0.6626394875078769
0.029,1.778975,1.0,2662.981881159573,0.2784871133308315,1.324858536794302,0.943592790680854,0.28776995,0.6634787342852844
0.029500000000000002,1.7782437500000001,1.0,2671.0317320727854,0.2825342324281615,1.324454272439246,0.9450474385358852,0.2877392375,0.6643157688007637
0.03,1.7775,1.0,2678.4503209726263,0.2865586504520972,1.3240502663966731,0.9464380255533504,0.287708,0.6651512271946594
0.0305,1.77674375,1.0,2685.268331285636,0.29056049364031217,1.3236462129648534,0.947768257510092,0.2876762375,0.6659857424537907
0.031,1.775975,1.0,2691.5168321616115,0.29453988823047966,1.3232418064420572,0.9490415747151153,0.28764395,0.6668199444135063
0.0315,1.7751937500000001,1.0,2697.227241568385,0.2984969604602732,1.3228367411265554,0.9502611743379072,0.2876111375,0.6676544597537802
0.032,1.7744,1.0,2702.431291459034,0.30243183656736616,1.322430711316618,0.9514300305980555,0.2875778,0.6684899119893486
0.0325,1.77359375,1.0,2707.145834739092,0.30634463547653906,1.322023549679239,0.952550927421954,0.2875439375,0.6693266372831082
0.033,1.772775,1.0,2711.4126269688686,0.3102354896914989,1.321614863620836,0.9536264370404437,0.28750955,0.6701654320731858
0.0335,1.7719437500000002,1.0,2715.2626003003543,0.3141045251042617,1.3212043615190283,0.9546589690339746,0.2874746375,0.6710068818276574
0.034,1.7711000000000001,1.0,2718.714277749973,0.3179518611324964,1.3207918665309553,0.9556507846347096,0.2874392,0.6718513340803118
0.0345,1.7702437500000001,1.0,2721.7863233114354,0.32177761719387193,1.320377201813756,0.9566039971988318,0.2874032375,0.6726991344323592
0.035,1.7693750000000001,1.0,2724.4975279819573,0.3255819127060572,1.3199601905245704,0.9575205836052281,0.28736675,0.6735506265289561
0.035500000000000004,1.76849375,1.0,2726.866796482551,0.32936486708672114,1.3195406558205371,0.9584023946492801,0.2873297375,0.6744061520337405
0.036000000000000004,1.7676,1.0,2728.9131346710374,0.3331265997535326,1.319118420858796,0.959251164530792,0.2872922,0.6752660506013659
0.0365,1.76669375,1.0,2730.655637649056,0.3368672301241605,1.3186933087964865,0.9600685195243677,0.2872541375,0.6761306598480463
0.037,1.765775,1.0,2732.1134785619015,0.34058687761627376,1.3182651427907475,0.9608559859110737,0.28721555,0.6770003153201056
0.0375,1.76484375,1.0,2733.3058980923242,0.3442856616475414,1.3178337459987188,0.9616149972418718,0.2871764375,0.677875350460529
0.038,1.7639,1.0,2734.239369711836,0.3479636934076906,1.3173990580501416,0.9623469104770311,0.28713679999999997,0.6787558608063867
0.0385,1.76294375,1.0,2734.9412616867353,0.351621098526293,1.316960829219343,0.9630529870580639,0.28709663750000003,0.6796423237901352
0.039,1.761975,1.0,2735.428292236754,0.3552579936597579,1.3165189068985053,0.9637344216891701,0.28705595,0.6805350177798959
0.0395,1.7609937500000001,1.0,2735.7109352644675,0.3588744911227473,1.3160731954706282,0.964392344163877,0.2870147375,0.6814341042888588
0.04,1.76,1.0,2735.799690569485,0.3624707032299229,1.3156235993187122,0.9650278194916955,0.286973,0.6823397434728987
0.0405,1.7589937500000001,1.0,2735.7050800153147,0.3660467422959467,1.3151700228257572,0.9656418522959503,0.2869307375,0.68325209410718
0.041,1.757975,1.0,2735.437643898472,0.3696027206354806,1.3147123703747639,0.9662353908684883,0.28688795,0.684171313562173
0.0415,1.75694375,1.0,2735.007937520456,0.3731387505631864,1.3142505463487322,0.9668093309113379,0.2868446375,0.6850975577790923
0.042,1.7559,1.0,2734.4265279626334,0.37665494439372604,1.313784455130662,0.9673645189924925,0.28680079999999997,0.6860309812447497
0.0425,1.75484375,1.0,2733.7039910634953,0.3801514144417614,1.3133140011035542,0.9679017557403703,0.2867564375,0.6869717369658228
0.043000000000000003,1.753775,1.0,2732.8509085985547,0.38362827302195435,1.3128390886504087,0.9684217987991824,0.28671155,0.6879199764425439
0.043500000000000004,1.75269375,1.0,2731.87108495366,0.3870856237759546,1.3123596837615261,0.9689253691553248,0.28666613750000003,0.6888757269145389
0.044,1.7516,1.0,2730.78087804725,0.39052358658440217,1.3118756384044914,0.9694131433781478,0.2866202,0.6898392416128538
0.0445,1.75049375,1.0,2729.5880513415223,0.39394226971998075,1.3113868826151829,0.969885767171626,0.2865737375,0.6908106165025457
0.045,1.7493750000000001,1.0,2728.2983463953365,0.3973417788168346,1.3108933648062717,0.9703438540302374,0.28652675,0.6917899098196252
0.0455,1.74824375,1.0,2726.917504799425,0.400722219509108,1.3103950333904293,0.9707879861969513,0.2864792375,0.6927771787198798
0.046,1.7471,1.0,2725.4512671957186,0.4040836974309455,1.3098918367803267,0.97121871655334,0.2864312,0.6937724792631229
0.0465,1.7459437500000001,1.0,2723.9053723557126,0.4074263182164913,1.3093837233886356,0.9716365703778526,0.28638263750000004,0.6947758663972711
0.047,1.744775,1.0,2722.2855563175362,0.4107501874998897,1.3088706416280274,0.9720420469826175,0.28633355,0.6957873939422535
0.0475,1.74359375,1.0,2720.597551583308,0.4140554109152851,1.308352539911173,0.9724356212382418,0.28628393750000003,0.6968071145737513
0.048,1.7424,1.0,2718.8470863733305,0.41734209409682177,1.3078293666507443,0.9728177449952461,0.2862338,0.6978350798067654
0.0485,1.74119375,1.0,2717.039883941553,0.42061034267864417,1.3073010702594121,0.9731888484100419,0.2861831375,0.6988713399790174
0.049,1.739975,1.0,2715.178682300398,0.4238602418807012,1.306767626305046,0.9735493405791381,0.28613195,0.6999158911070396
0.0495,1.73874375,1.0,2713.273538623971,0.4270919222201041,1.306228943610439,0.9738996122453658,0.2860802375,0.700968858722049
0.05,1.7375,1.0,2711.3277082845216,0.4303054846272659,1.3056849929146177,0.9742400365356588,0.286028,0.702030245876244
0.0505,1.73624375,1.0,2709.3439446168322,0.4335010272718489,1.3051357495039717,0.9745709693260045,0.2859752375,0.70310004583753
0.051000000000000004,1.734975,1.0,2707.3249978557906,0.43667864832351533,1.3045811886648913,0.97489275021189,0.28592195,0.7041782509932459
0.051500000000000004,1.73369375,1.0,2705.2736149502357,0.43983844595192756,1.3040212856837659,0.9752057033942176,0.2858681375,0.7052648528418051
0.052000000000000005,1.7324,1.0,2703.1925393897636,0.4429805183267478,1.3034560158469852,0.9755101385094861,0.2858138,0.7063598419842929
0.0525,1.73109375,1.0,2701.084511046014,0.44610496361763824,1.3028853544409396,0.975806351408194,0.28575893750000003,0.7074632081160281
0.053,1.729775,1.0,2698.952266026458,0.4492118799942614,1.3023092767520181,0.9760946248851164,0.28570355000000003,0.7085749400180859
0.0535,1.72844375,1.0,2696.798536542477,0.4523013656262794,1.3017277580666113,0.9763752293648232,0.2856476375,0.7096950255487771
0.054,1.7271,1.0,2694.6260507906595,0.4553735186833545,1.3011407736711085,0.9766484235455354,0.2855912,0.7108234516350964
0.0545,1.7257437500000001,1.0,2692.4375328477954,0.45842843733514915,1.3005482988518995,0.9769144550041842,0.2855342375,0.7119602042641241
0.055,1.724375,1.0,2690.2357025789975,0.4614662197513255,1.2999503088953746,0.9771735607653207,0.28547675,0.7131052684743922
0.0555,1.72299375,1.0,2688.0232755601696,0.4644869641015459,1.2993467790879227,0.9774259678363157,0.2854187375,0.7142586283472143
0.056,1.7216,1.0,2685.8007398991863,0.4674907456270079,1.298737705086922,0.9776718927719373,0.2853602,0.7154202281868598
0.0565,1.72019375,1.0,2683.5702913732925,0.47047766680565406,1.2981230668888641,0.9779115447654134,0.28530113749999997,0.7165900414182966
0.057,1.718775,1.0,2681.3361877038883,0.4734478532362272,1.2975028255475773,0.9781451253681773,0.28524155,0.7177680765025758
0.0575,1.71734375,1.0,2679.0993453089795,0.476401394047348,1.2968769727077043,0.9783728263418844,0.2851814375,0.718954282767567
0.058,1.7159,1.0,2676.8606790952076,0.47933837836763743,1.2962455000138866,0.9785948316939656,0.2851208,0.7201486088058747
0.0585,1.71444375,1.0,2674.621102452423,0.48225889532571636,1.2956083991107665,0.9788113180508614,0.2850596375,0.7213510024718424
0.059000000000000004,1.7129750000000001,1.0,2672.3815272495376,0.4851630340502057,1.2949656616429859,0.9790224550104276,0.28499795,0.7225614108785573
0.059500000000000004,1.71149375,1.0,2670.1428638322623,0.4880508836697263,1.2943172792551867,0.9792284054748316,0.2849357375,0.7237797803948485
0.06,1.71,1.0,2667.9060210221846,0.49092253331289903,1.2936632435920112,0.979429325965162,0.284873,0.7250060566422802
0.0605,1.7084937500000001,1.0,2665.6719061178605,0.4937780721083448,1.2930035462981015,0.9796253669188895,0.2848097375,0.7262401844921438
0.061,1.7069750000000001,1.0,2663.4414248966345,0.4966175891846844,1.2923381790180992,0.9798166729712383,0.28474595,0.7274821080624418
0.0615,1.7054437500000001,1.0,2661.215481618593,0.4994411736705388,1.2916671333966467,0.9800033832214542,0.2846816375,0.7287317707148682
0.062,1.7039,1.0,2658.994979032265,0.5022489146945288,1.290990401078386,0.9801856314848875,0.2846168,0.7299891150517861
0.0625,1.70234375,1.0,2656.780818380988,0.5050409013852755,1.2903079737079588,0.9803635465317511,0.2845514375,0.7312540829131987
0.063,1.7007750000000001,1.0,2654.573899411799,0.5078172228713994,1.2896198429300076,0.9805372523133448,0.28448555,0.7325266153737172
0.0635,1.69919375,1.0,2652.3751203855177,0.5105779682815217,1.288926000389174,0.9807068681765001,0.28441913750000003,0.7338066527395248
0.064,1.6976,1.0,2650.18537808769,0.5133232267442631,1.2882264377301003,0.9808725090669365,0.2843522,0.7350941345453337
0.0645,1.69599375,1.0,2648.0055678424837,0.5160530873882445,1.2875211465974283,0.9810342857221782,0.2842847375,0.7363889995513397
0.065,1.694375,1.0,2645.8365835268573,0.5187676393420868,1.2868101186358003,0.9811923048546451,0.28421675,0.7376911857401727
0.0655,1.69274375,1.0,2643.6782856867885,0.5214669707812598,1.2860933550204678,0.9813466697309104,0.2841482375,0.7390006129245298
0.066,1.6911,1.0,2641.5303570227497,0.5241511627919639,1.285370858572355,0.9814974795123838,0.2840792,0.7403171973140211
0.0665,1.6894437500000001,1.0,2639.3936993752086,0.5268202986929368,1.2846426208483672,0.9816448294462723,0.2840096375,0.741640874989071
0.067,1.687775,1.0,2637.267754927894,0.5294744626423628,1.283908646890007,0.9817888121293492,0.28393955,0.7429715568274406
0.0675,1.68609375,1.0,2635.1522099501913,0.5321137387025194,1.2831689394894241,0.9819295168026874,0.2838689375,0.7443091572335295
0.068,1.6844000000000001,1.0,2633.0498831993436,0.5347382106569266,1.2824234724537988,0.9820670282016392,0.2837978,0.7456536422421502
0.0685,1.68269375,1.0,2630.9599817609683,0.5373479616090833,1.2816722529870253,0.9822014296661405,0.2837261375,0.7470049167640729
0.069,1.680975,1.0,2628.8806818240096,0.5399430737414952,1.2809152978532885,0.982332802070964,0.28365395,0.748362868086729
0.0695,1.67924375,1.0,2626.8101625018826,0.5425236292366677,1.2801526238167737,0.9824612235414374,0.28358123749999997,0.7497273831906163
0.07,1.6775,1.0,2624.753312303779,0.5450897098146957,1.2793841854775947,0.9825867666453341,0.283508,0.7510984595185617
0.07050000000000001,1.67574375,1.0,2622.709693901407,0.5476413970400547,1.2786099867509497,0.9827095037630339,0.2834342375,0.7524760053655473
0.07100000000000001,1.673975,1.0,2620.677054616376,0.5501787711876387,1.2778300483989324,0.9828295055530275,0.28335995,0.7538598986181342
0.07150000000000001,1.6721937521406811,1.0,2618.6533561855267,0.552701912510655,1.277044390193475,0.9829468402907735,0.2832851375899086,0.7552500186936404
0.07200000000000001,1.6704064834781616,1.0,2616.95242880039,0.5552109001321905,1.2762530237884901,0.9830615735728567,0.28321007230608275,0.7566462590807268
0.0725,1.668619214815642,1.0,2615.812318368862,0.5577058154790225,1.27545645502422,0.9831737912628778,0.28313500702225697,0.7580476447241387
0.073,1.6668319461531222,1.0,2615.190047891161,0.5601867369368355,1.2746550795887375,0.9832835715191912,0.28305994173843113,0.7594534032401284
0.0735,1.6650446774906027,1.0,2615.0478020370347,0.5626537422053616,1.2738492469336835,0.983390988040765,0.2829848764546053,0.7608628506181583
0.074,1.663257408828083,1.0,2615.3479088906347,0.5651069089843329,1.2730393065106993,0.98349611231284,0.2829098111707795,0.7622753096306008
0.0745,1.6614701401655632,1.0,2616.052806770245,0.5675463149734817,1.2722256077714262,0.983599013697266,0.2828347458869537,0.7636901099281811
0.075,1.6596828715030436,1.0,2617.125013755744,0.5699720378725405,1.2714085001675055,0.983699759518659,0.28275968060312784,0.7651065881276313
