Time [s],Phi [rad],STIM [ ],Fsee [N],Gamma [ ],Lcerel [ ],q [ ],Lmtc [m],fisomrel [ ]
0.0,1.8,1.0,17.968026201284438,3.990943276080571e-05,1.379339648972091,0.005000419888244942,0.288653,0.5411397663192945
0.0005,1.79999375,1.0,18.287391875238512,0.00564889488120903,1.379301205206267,0.013023758071898511,0.2886527375,0.5412327669932187
0.001,1.799975,1.0,21.651290915151336,0.011226418356065655,1.3789349421854358,0.035764604325669115,0.28865195,0.5421183341547209
0.0015,1.79994375,1.0,31.149454203051693,0.01677265633501657,1.378039373819617,0.07081518293713547,0.2886506375,0.5442800760270148
0.002,1.7999,1.0,53.75694812928933,0.022287784304045433,1.3763568163231588,0.11497060114131083,0.2886488,0.5483276365022198
0.0025,1.79984375,1.0,97.41351368606271,0.027771976765211575,1.3739209830908041,0.16484962683022808,0.28864643749999996,0.5541552882793577
0.003,1.7997750000000001,1.0,161.34227213915173,0.033225407244084536,1.3711999748958892,0.2175638661228675,0.28864354999999997,0.5606204675934032
0.0035,1.79969375,1.0,238.11777078812594,0.038648248289558144,1.3685713584644694,0.27089476394624595,0.2886401375,0.5668212809937998
0.004,1.7996,1.0,321.92925451903255,0.04404067148457384,1.3661438473857292,0.3231887283469568,0.2886362,0.5725085555534943
0.0045000000000000005,1.7994937500000001,1.0,409.74687065650346,0.04940284745132198,1.3639115706867087,0.37329358303254884,0.2886317375,0.57770525739902
0.005,1.799375,1.0,499.9025227524596,0.054734945842456535,1.3618479532850787,0.4204898430826534,0.28862675,0.5824810545389015
0.0055,1.79924375,1.0,591.2839134206964,0.060037135387045276,1.3599291953300159,0.4643981051894761,0.2886212375,0.5868972396335692
0.006,1.7991000000000001,1.0,683.0123531618876,0.06530958383745453,1.358137432317734,0.5048861889720097,0.2886152,0.590999934862438
0.006500000000000001,1.79894375,1.0,774.3729071828977,0.0705524579972465,1.3564588621733407,0.5419893180145491,0.2886086375,0.5948248711035948
0.007,1.798775,1.0,864.7764739673516,0.07576592386309093,1.3548824703450602,0.575848567327986,0.28860155,0.5984006130159041
0.0075,1.79859375,1.0,953.7193198014749,0.08095014616990932,1.353399457127735,0.6066662162783903,0.2885939375,0.6017500755797902
0.008,1.7984,1.0,1040.8283276396971,0.08610528921473272,1.3520017291915671,0.6346740450569299,0.2885858,0.6048940773155187
0.0085,1.79819375,1.0,1125.7805677656734,0.09123151594722392,1.3506826405189167,0.6601133581376872,0.2885771375,0.6078497628784446
0.009000000000000001,1.797975,1.0,1208.3266941665768,0.09632898837663757,1.3494362077638045,0.6832215601179158,0.28856795,0.6106324512233778
0.0095,1.79774375,1.0,1288.307049995763,0.10139786841553525,1.3482566347462595,0.7042242145107025,0.2885582375,0.613256748581666
0.01,1.7975,1.0,1365.5806729895894,0.10643831599364152,1.3471390694989074,0.7233313312930353,0.288548,0.6157349056997218
0.0105,1.79724375,1.0,1440.0568289137973,0.1114504903839554,1.34607897384413,0.74073520538541,0.2885372375,0.6180782648692413
0.011,1.796975,1.0,1511.6924726907093,0.1164345502813534,1.3450720310522797,0.7566100522379497,0.28852595000000003,0.6202974916628015
0.0115,1.79669375,1.0,1580.4827624694317,0.12139065414685744,1.3441141616444587,0.7711125919985009,0.2885141375,0.6224025629965922
0.012,1.7964,1.0,1646.4142251902063,0.12631895802240675,1.3432019840519704,0.7843833189752597,0.28850180000000003,0.6244017797920632
0.0125,1.79609375,1.0,1709.5084933036242,0.1312196176845801,1.342332192475884,0.796547523561841,0.2884889375,0.6263031568707089
0.013000000000000001,1.7957750000000001,1.0,1769.8054288146516,0.13609278818240214,1.3415016988566573,0.8077167708022929,0.28847555,0.6281141252487787
0.0135,1.79544375,1.0,1827.3817185214757,0.14093862491561238,1.340707371244477,0.8179901988784203,0.2884616375,0.6298421147311164
0.014,1.7951000000000001,1.0,1882.2847285729044,0.145757280411427,1.339946728506801,0.8274561209396097,0.2884472,0.6314930541375108
0.0145,1.79474375,1.0,1934.5714254695135,0.15054890657078188,1.3392174455911368,0.8361930510063196,0.2884322375,0.6330724636690822
0.015,1.794375,1.0,1984.3199978142175,0.15531365529461302,1.3385171974449923,0.844270777413699,0.28841675,0.6345858004910334
0.0155,1.79399375,1.0,2031.6134337904152,0.16005167727891398,1.3378438125730194,0.8517514335229124,0.2884007375,0.6360381323537199
0.016,1.7936,1.0,2076.5495899990337,0.1647631237421049,1.3371951417459962,0.8586903594117278,0.2883842,0.6374344272413826
0.0165,1.7931937500000001,1.0,2119.1950572452074,0.16944814259959456,1.3365695171752061,0.8651370414252101,0.2883671375,0.6387785717743899
0.017,1.792775,1.0,2159.6274938226156,0.17410688167505817,1.3359652829895179,0.8711356630525475,0.28834955,0.6400743897505522
0.0175,1.7923437500000001,1.0,2197.934866991571,0.1787394886961904,1.3353807919629184,0.8767257306303832,0.2883314375,0.6413256517293549
0.018000000000000002,1.7919,1.0,2234.200804109887,0.18334610982336558,1.334814542669014,0.8819426589682088,0.2883128,0.642535784494066
0.0185,1.79144375,1.0,2268.528665902962,0.1879268931803638,1.3342649249765166,0.8868181838514583,0.2882936375,0.6437084181455476
0.019,1.790975,1.0,2300.983698478542,0.19248198209378115,1.3337307889609886,0.8913809270397366,0.28827395,0.6448461750621048
0.0195,1.79049375,1.0,2331.637515775865,0.1970115198902137,1.3332109846979927,0.895656639329755,0.2882537375,0.6459516571319964
0.02,1.79,1.0,2360.5675755845004,0.20151564989625753,1.3327043622630905,0.8996685265616629,0.288233,0.6470274468466526
0.0205,1.78949375,1.0,2387.8538095295885,0.20599451493264395,1.3322097996749203,0.9034375413754423,0.2882117375,0.6480760491069814
0.021,1.788975,1.0,2413.5715007744125,0.21044825683174448,1.3317262664960903,0.9069826467112675,0.28818995000000003,0.6490997580247606
0.021500000000000002,1.78844375,1.0,2437.802427596498,0.2148770187748394,1.331252710270281,0.9103210104722518,0.2881676375,0.6501008990388819
0.022,1.7879,1.0,2460.604771686997,0.2192809391332661,1.3307883415789725,0.9134682547248835,0.2881448,0.6510812279191103
0.0225,1.78734375,1.0,2482.0397632761583,0.22366015627836222,1.330332371003646,0.9164385691864956,0.28812143749999997,0.6520424893721605
0.023,1.786775,1.0,2502.171428430938,0.22801480858146525,1.3298840091257822,0.919244862378174,0.28809755,0.6529864174843778
0.0235,1.78619375,1.0,2521.06635016979,0.23234503441391266,1.3294424665268618,0.9218988950426225,0.28807313749999996,0.6539147361246733
0.024,1.7856,1.0,2538.782126937418,0.23665096953054807,1.329007060444205,0.9244114161351172,0.2880482,0.6548289355161455
0.0245,1.78499375,1.0,2555.386281930286,0.24093275389327778,1.3285770334126705,0.9267922362103208,0.2880227375,0.6557306540616352
0.025,1.784375,1.0,2570.9304286140327,0.2451905226232869,1.3281517947327597,0.9290503585609023,0.28799675,0.6566211722374642
0.025500000000000002,1.78374375,1.0,2585.459902779239,0.2494244086965274,1.3277308264929342,0.931194043560791,0.2879702375,0.6575016114995481
0.026000000000000002,1.7831000000000001,1.0,2599.021341700821,0.2536345450889515,1.3273136107816557,0.9332308697523881,0.2879432,0.6583730873631213
0.0265,1.78244375,1.0,2611.6625732515404,0.25782106477651123,1.3268996296873856,0.9351677993326476,0.2879156375,0.6592367095352365
0.027,1.781775,1.0,2623.4325109634656,0.2619841007351588,1.3264883652985862,0.9370112365510082,0.28788755,0.6600935820301561
0.0275,1.7810937500000001,1.0,2634.3770241018333,0.2661237846441762,1.3260793369990043,0.9387670849543649,0.2878589375,0.6609447257088323
0.028,1.7804,1.0,2644.5364829797268,0.270240247158133,1.3256721229172954,0.9404407967071076,0.2878298,0.6617910342938202
0.0285,1.77969375,1.0,2653.965218323176,0.27433362342259165,1.3252661792766058,0.9420373895963291,0.2878001375,0.6626336499323946
0.029,1.778975,1.0,2662.6946405595704,0.27840404053814166,1.3248611801816632,0.9435615293728806,0.28776995,0.6634732576880642
0.029500000000000002,1.7782437500000001,1.0,2670.756691090599,0.2824516256053724,1.3244567997371957,0.9450175333678055,0.2877392375,0.664310539235642
0.03,1.7775,1.0,2678.1837958551173,0.2864765057248734,1.3240527120479304,0.9464094009709358,0.287708,0.6651461728774908
0.0305,1.77674375,1.0,2685.0088212468745,0.29047880799723413,1.3236485912185953,0.9477408410813406,0.2876762375,0.6659808335529929
0.031,1.775975,1.0,2691.2650323869852,0.29445865952304395,1.3232441113539182,0.949015296863365,0.28764395,0.6668151928412492
0.0315,1.7751937500000001,1.0,2696.9860537510654,0.29841618740289244,1.3228389465586265,0.9502359681019666,0.2876111375,0.6676499189570035
0.032,1.7744,1.0,2702.1991158112423,0.30235151446791436,1.3224328322940224,0.9514058376100697,0.2875778,0.6684855505703279
0.0325,1.77359375,1.0,2706.938978655442,0.30626477061730495,1.322025437706004,0.9525276770180992,0.2875439375,0.669322759790359
0.033,1.772775,1.0,2711.2295129469044,0.31015607877220286,1.321616533628658,0.9536040795508091,0.28750955,0.6701620066858618
0.0335,1.7719437500000002,1.0,2715.09231048794,0.3140255601495017,1.3212059134662066,0.9546374665634163,0.2874746375,0.6710037026605222
0.034,1.7711000000000001,1.0,2718.5491339826467,0.3178733359660952,1.3207933706228712,0.955630099019753,0.2874392,0.6718482569018407
0.0345,1.7702437500000001,1.0,2721.62189951272,0.3216995274388769,1.3203786985028738,0.956584090009525,0.2874032375,0.6726960763571579
0.035,1.7693750000000001,1.0,2724.3326599599964,0.32550425578474057,1.3199616905104359,0.9575014161488186,0.28736675,0.6735475657069645
0.035500000000000004,1.76849375,1.0,2726.703589374605,0.32928764222057977,1.3195421400497793,0.958383927975171,0.2873297375,0.6744031273354822
0.036000000000000004,1.7676,1.0,2728.751573252033,0.3330498024975006,1.3191198895706813,0.9592333632363743,0.2872922,0.6752630614808552
0.0365,1.76669375,1.0,2730.4973427663313,0.3367908577272363,1.3186947473535047,0.9600513492753151,0.2872541375,0.6761277359989982
0.037,1.765775,1.0,2731.9676560188805,0.3405109365515137,1.3182664676461282,0.9608394096185938,0.28721555,0.6769976261864032
0.0375,1.76484375,1.0,2733.175286470409,0.34421015326703525,1.3178349323963463,0.9615989846109143,0.2871764375,0.6778729456269451
0.038,1.7639,1.0,2734.133058330842,0.34788862217050337,1.3174000235519536,0.9623314280877954,0.28713679999999997,0.6787539064069492
0.0385,1.76294375,1.0,2734.8538404596434,0.3515464575586206,1.3169616230607444,0.9630380135182002,0.28709663750000003,0.6796407190902378
0.039,1.761975,1.0,2735.3505405742,0.3551837737280894,1.3165196128705128,0.9637199396466721,0.28705595,0.6805335926922855
0.0395,1.7609937500000001,1.0,2735.636099768173,0.3588006849756123,1.3160738749290535,0.964378335680726,0.2870147375,0.6814327346534855
0.04,1.76,1.0,2735.7234873380253,0.3623973055978918,1.315624291184161,0.9650142660646216,0.286973,0.6823383508115306
0.0405,1.7589937500000001,1.0,2735.625695919187,0.36597374989163034,1.3151707435836293,0.9656287348765492,0.2869307375,0.6832506453729025
0.041,1.757975,1.0,2735.3557369308573,0.3695301321535304,1.314713114075253,0.9662226898825941,0.28688795,0.6841698208834719
0.0415,1.75694375,1.0,2734.926636329527,0.3730665666802946,1.3142512846068268,0.9667970262775833,0.2868446375,0.6850960781982115
0.042,1.7559,1.0,2734.3469012214528,0.3765831600428392,1.3137851782606174,0.9673525923015085,0.28680079999999997,0.6860295341325019
0.0425,1.75484375,1.0,2733.6277616906564,0.3800800296794158,1.313314693471589,0.9678901899187101,0.2867564375,0.6869703534910852
0.043000000000000003,1.753775,1.0,2732.780564138421,0.38355729147372625,1.3128397276669557,0.9684105776646061,0.28671155,0.6879187015091359
0.043500000000000004,1.75269375,1.0,2731.8122793353327,0.38701505237069705,1.3123602180532357,0.9689144755514484,0.28666613750000003,0.6888746625565532
0.044,1.7516,1.0,2730.7298815359754,0.3904534193152545,1.3118761018369471,0.9694025657521608,0.2866202,0.6898383198437187
0.0445,1.75049375,1.0,2729.5403469904277,0.39387249925232515,1.3113873162246081,0.9698754949597056,0.2865737375,0.6908097554031757
0.045,1.7493750000000001,1.0,2728.2506525412464,0.39727239912683515,1.310893798422737,0.9703338765769293,0.28652675,0.6917890500710544
0.0455,1.74824375,1.0,2726.867774309052,0.40065322588371105,1.3103954856378515,0.9707782927506089,0.2864792375,0.6927762834682473
0.046,1.7471,1.0,2725.398686465111,0.40401508646787915,1.3098923150764699,0.9712092962621829,0.2864312,0.6937715339813327
0.0465,1.7459437500000001,1.0,2723.8503600914064,0.40735808782426586,1.3093842239451103,0.9716274122865542,0.28638263750000004,0.6947748787432456
0.047,1.744775,1.0,2722.229762128034,0.41068233689779754,1.3088711494502911,0.9720331400293387,0.28633355,0.6957863936136988
0.0475,1.74359375,1.0,2720.54385440848,0.41398794063340055,1.3083530287985303,0.9724269542520348,0.28628393750000003,0.6968061531593519
0.048,1.7424,1.0,2718.7580139934507,0.41727500195644823,1.3078301778762558,0.9728093329079941,0.2862338,0.6978334872087779
0.0485,1.74119375,1.0,2716.952927595549,0.42054362797694794,1.3073018624763582,0.9731806582897355,0.2861831375,0.6988697873678618
0.049,1.739975,1.0,2715.1243306869005,0.423793921735332,1.306768121644345,0.9735413473490655,0.28613195,0.6999149220114808
0.0495,1.7387465085743574,1.0,2713.3745951235687,0.4270259843956996,1.3062292681187975,0.9738918157383872,0.286080353360123,0.7009682249599033
0.05,1.737517313052603,1.0,2712.116915800324,0.43023991712215004,1.3056856146382967,0.9742324596532029,0.2860287271482093,0.702029033811246
0.0505,1.7362881175308487,1.0,2711.3515254601725,0.43343582107878265,1.3051374739414239,0.9745636569266016,0.28597710093629564,0.703096690040328
0.051000000000000004,1.7350589220090944,1.0,2711.043926074812,0.4366137974296965,1.3045851587667603,0.9748857680529597,0.28592547472438196,0.7041705390912865
0.051500000000000004,1.73382972648734,1.0,2711.159749312789,0.439773947338991,1.304028981852887,0.9751991371459977,0.2858738485124683,0.705249930463957
0.052000000000000005,1.7326005309655856,1.0,2711.666945087567,0.4429163712223454,1.3034692357259208,0.9755040914632932,0.2858222223005546,0.7063342569130279
0.0525,1.7313713354438314,1.0,2712.536048553956,0.44604116738795957,1.3029061900468797,0.9758009420174544,0.2857705960886409,0.7074229592834298
0.053,1.7301421399220769,1.0,2713.7234676541725,0.4491484391022156,1.3023402437851554,0.9760899947019738,0.28571896987672724,0.7085152327421326
0.0535,1.7289129444003226,1.0,2715.2086362956356,0.45223828276981437,1.3017715862731793,0.9763715283799773,0.28566734366481356,0.7096106814992637
0.054,1.7276837488785683,1.0,2716.9710169054474,0.4553107947954569,1.3012004068433818,0.9766458098640208,0.2856157174528999,0.7107089123640985
0.0545,1.726454553356814,1.0,2718.9900894465372,0.45836607158384407,1.3006268948281936,0.9769130945437491,0.2855640912409862,0.7118095347766524
0.055,1.7252253578350596,1.0,2721.245341228576,0.46140420953967676,1.3000512395600452,0.977173626975856,0.2855124650290725,0.712912160836991
0.0555,1.7239961623133053,1.0,2723.71625751351,0.4644253050676559,1.2994736303713676,0.9774276414389017,0.28546083881715884,0.7140164053322495
0.056,1.722766966791551,1.0,2726.382312916326,0.4674294545724825,1.2988942565945913,0.977675362455348,0.28540921260524516,0.715121885761373
0.0565,1.7215377712697966,1.0,2729.2277489452454,0.4704167518341943,1.2983132640629778,0.9779170025212481,0.2853575863933314,0.7162283051150897
0.057,1.7203085757480423,1.0,2732.233496122587,0.4733872942957522,1.2977308285546219,0.9781527674962024,0.28530596018141774,0.717335311633222
0.0575,1.719079380226288,1.0,2735.3850228600536,0.47634117655270364,1.2971470843942474,0.9783828522874096,0.2852543339695041,0.7184426346811161
0.058,1.7178501847045335,1.0,2738.6721348582196,0.47927849047426335,1.296562126349699,0.9786074415126443,0.2852027077575904,0.7195500804047998
0.0585,1.7166209891827793,1.0,2742.0846230717916,0.48219932792964615,1.2959760491888208,0.9788267124444434,0.2851510815456767,0.7206574563347472
0.059000000000000004,1.715391793661025,1.0,2745.612261258191,0.48510378078806676,1.2953889476794571,0.9790408353629529,0.285099455333763,0.7217645713929304
0.059500000000000004,1.7141625981392705,1.0,2749.2448037258564,0.48799194091874,1.2948009165894527,0.979249973889174,0.28504782912184934,0.7228712358992938
0.06,1.7129334026175163,1.0,2752.9719832815595,0.4908639001908805,1.294212050686652,0.9794542852998448,0.28499620290993566,0.7239772615776625
0.0605,1.711704207095762,1.0,2756.783555262865,0.49371975041321087,1.2936224443238802,0.9796539207979624,0.284944576698022,0.725082462338233
0.061,1.7104750115740077,1.0,2760.6784867606466,0.49655957226098757,1.2930321083718264,0.9798490205004474,0.2848929504861083,0.7261868095126347
0.0615,1.7092458160522532,1.0,2764.637180716852,0.4993834726323803,1.2924412213678937,0.9800397301215393,0.2848413242741946,0.7272899618777251
0.062,1.708016620530499,1.0,2768.6554189392173,0.5021915379880931,1.2918498225648976,0.9802261810483082,0.28478969806228094,0.7283918401429778
0.0625,1.7067874250087447,1.0,2772.7289724410853,0.5049838547888301,1.2912579512156532,0.9804084997852974,0.28473807185036726,0.7294923656047837
0.063,1.7055582294869902,1.0,2776.8536010130692,0.5077605094952952,1.2906656465729764,0.9805868081735789,0.2846864456384536,0.7305914601476835
0.0635,1.704329033965236,1.0,2781.0250528291117,0.5105215885681923,1.2900729478896822,0.9807612235984239,0.2846348194265399,0.731689046245503
0.064,1.7030998384434817,1.0,2785.2390640861736,0.5132671784682256,1.2894798944185861,0.9809318591862533,0.2845831932146262,0.732785046962386
0.0645,1.7018706429217272,1.0,2789.4913586785165,0.515997365656099,1.2888865254125035,0.9810988239914991,0.28453156700271254,0.733879385953734
0.065,1.700641447399973,1.0,2793.7776479061804,0.5187122365925165,1.2882928801242495,0.9812622231739663,0.28447994079079886,0.7349719874670444
0.0655,1.6994122518782186,1.0,2798.093630217057,0.5214118777381822,1.2876989978066398,0.9814221581672373,0.2844283145788852,0.7360627763426502
0.066,1.6981830563564642,1.0,2802.4349909838893,0.5240963755538,1.2871049177124896,0.9815787268386368,0.2843766883669715,0.7371516780143641
0.0665,1.69695386083471,1.0,2806.7974023149673,0.5267658165000739,1.2865106790946141,0.981732023641236,0.2843250621550578,0.7382386185100225
0.067,1.6957246653129556,1.0,2811.1813820922143,0.5294202703346433,1.285916277683983,0.9818821365450876,0.28427343594314414,0.7393236038116567
0.0675,1.6944954697912011,1.0,2815.5800481666465,0.5320598396327706,1.2853217754536717,0.9820291558422595,0.28422180973123046,0.7404065192983564
0.068,1.6932662742694469,1.0,2819.989956104311,0.53468461252919,1.2847272034420176,0.9821731663235036,0.2841701835193168,0.741487307462015
0.0685,1.6920370787476926,1.0,2824.4098170321313,0.5372946688795115,1.2841325733294906,0.9823142484630198,0.2841185573074031,0.74256594634299
0.069,1.6908078832259381,1.0,2828.8383380101573,0.5398900885393451,1.28353789679656,0.9824524800341953,0.2840669310954894,0.7436424141587477
0.0695,1.6895786877041838,1.0,2833.27422201773,0.5424709513643006,1.2829431855236955,0.9825879362192551,0.28401530488357574,0.744716689303902
0.07,1.6883494921824296,1.0,2837.7161679432734,0.545037337209988,1.2823484511913663,0.9827206897137424,0.28396367867166206,0.7457887503502444
0.07050000000000001,1.6871202966606753,1.0,2842.162870576574,0.5475893259320173,1.2817537054800423,0.9828508108261055,0.2839120524597484,0.7468585760467652
0.07100000000000001,1.6858911011389208,1.0,2846.6130206044904,0.5501269973859981,1.2811589600701927,0.9829783675726551,0.2838604262478347,0.7479261453196677
0.07150000000000001,1.6846619056171666,1.0,2851.065304609388,0.5526504314275407,1.2805642266422874,0.9831034257681341,0.283808800035921,0.7489914372723698
0.07200000000000001,1.6834327100954123,1.0,2855.5184050709245,0.5551597079122548,1.2799695168767955,0.9832260491121321,0.28375717382400734,0.750054431185503
0.0725,1.6822035145736578,1.0,2859.9710003703676,0.5576549066957504,1.2793748424541866,0.9833462992715596,0.28370554761209366,0.7511151065168954
