Time [s],Phi [rad],STIM [ ],Fsee [N],Gamma [ ],Lcerel [ ],q [ ],Lmtc [m],fisomrel [ ]
0.0,1.8,1.0,17.9678026445466,1.1431669476346992e-05,1.379339674017395,0.005000034792591582,0.288653,0.5411397057282412
0.0005,1.79999375,1.0,18.277557243020652,0.005620576855645862,1.3793022974712643,0.012944488298958622,0.2886527375,0.5412301247864175
0.001,1.799975,1.0,21.620208258225425,0.011198259172236493,1.3789381155470777,0.03561603473436483,0.28865195,0.5421106651327474
0.0015,1.79994375,1.0,31.073231609287806,0.016744655101931474,1.3780458633280919,0.07061191362254136,0.2886506375,0.5442644299123651
0.002,1.7999,1.0,53.59064759579798,0.022259940135762345,1.3763675958571828,0.11472992686220844,0.2886488,0.5483017627190189
0.0025,1.79984375,1.0,97.13257925182349,0.027744288780678816,1.3739345099262403,0.1645878281721636,0.28864643749999996,0.554123030249434
0.003,1.7997750000000001,1.0,160.97593824948618,0.03319787456725638,1.3712136785731455,0.217293799432129,0.28864354999999997,0.560588025638372
0.0035,1.79969375,1.0,237.7034164058296,0.03862087004929546,1.3685841155793168,0.27062616261676886,0.2886401375,0.5667912938221072
0.004,1.7996,1.0,321.4881575298901,0.04401344681460167,1.3661555259670721,0.32292865521496905,0.2886362,0.5724812844508188
0.0045000000000000005,1.7994937500000001,1.0,409.2899283776289,0.04937577549017094,1.3639222935810986,0.37304670966063264,0.2886317375,0.5776803706462776
0.005,1.799375,1.0,499.43614600223685,0.05470802573327928,1.3618578612151642,0.420258877627947,0.28862675,0.5824581896581218
0.0055,1.79924375,1.0,590.8132831775163,0.060010366278916795,1.3599383882953566,0.4641842693733411,0.2886212375,0.5868761372172867
0.006,1.7991000000000001,1.0,682.5410158617532,0.06528296488303172,1.3581459983529032,0.5046896778913694,0.2886152,0.5909803694636553
0.006500000000000001,1.79894375,1.0,773.9042409225195,0.07052598837898888,1.35646686128425,0.5418096428218921,0.2886086375,0.5948066862441175
0.007,1.798775,1.0,864.3084914006566,0.07573960265525544,1.3548900286409162,0.5756848773633518,0.28860155,0.5983835062858727
0.0075,1.79859375,1.0,953.2650150216987,0.08092397267717306,1.353406443892515,0.6065172856928366,0.2885939375,0.6017343284924956
0.008,1.7984,1.0,1040.38072894987,0.08607926248812452,1.3520083184013036,0.6345387484059991,0.2885858,0.6048792850009135
0.0085,1.79819375,1.0,1125.343184022338,0.09120563520239337,1.3506888315834358,0.659990456493462,0.2885771375,0.6078359164625148
0.009000000000000001,1.797975,1.0,1207.9061048495855,0.09630325295533061,1.3494419541025933,0.6831098355087124,0.28856795,0.6106196451306158
0.0095,1.79774375,1.0,1287.8690991739927,0.10137227618224648,1.3482624295661945,0.7041228119561163,0.2885582375,0.6132438780377916
0.01,1.7975,1.0,1365.1768071342933,0.10641286794990183,1.3471442598644918,0.7232388721371954,0.288548,0.6157234146783616
0.0105,1.79724375,1.0,1439.696414987778,0.11142518605852339,1.346083484360901,0.7406507261127834,0.2885372375,0.6180683094790114
0.011,1.796975,1.0,1511.3558786914389,0.11640938830833787,1.3450761424188382,0.7565328534404007,0.28852595000000003,0.6202884436649672
0.0115,1.79669375,1.0,1580.1385621061409,0.12136563249957207,1.344118273401719,0.7710420982006388,0.2885141375,0.6223935392570785
0.012,1.7964,1.0,1646.072779822962,0.12629407622369263,1.3432059803840228,0.7843187914951202,0.28850180000000003,0.6243930326168423
0.0125,1.79609375,1.0,1709.1869145796566,0.1311948757339609,1.342335886157685,0.7964882757599515,0.2884889375,0.6262950926295678
0.013000000000000001,1.7957750000000001,1.0,1769.509020276493,0.13606818563321046,1.3415050449150157,0.8076622493103676,0.28847555,0.6281068376836516
0.0135,1.79544375,1.0,1827.0878534679448,0.14091415991306933,1.3407106359058738,0.8179400301827694,0.2884616375,0.6298350209841043
0.014,1.7951000000000001,1.0,1881.984016426766,0.14573295167245368,1.3399500201521388,0.8274099149916537,0.2884472,0.6314859177250014
0.0145,1.79474375,1.0,1934.291074364687,0.15052471484405144,1.339220472595177,0.8361503214460329,0.2884322375,0.6330659150902574
0.015,1.794375,1.0,1984.0645390029192,0.155289599936318,1.3385199208760687,0.8442311765787542,0.28841675,0.6345799208228959
0.0155,1.79399375,1.0,2031.3745475669773,0.16002775725892734,1.3378463295005547,0.8517146964472726,0.2884007375,0.6360327093207991
0.016,1.7936,1.0,2076.307512216277,0.16473933710672897,1.3371976645517638,0.8586562851770306,0.2883842,0.6374290019797072
0.0165,1.7931937500000001,1.0,2118.9494557677604,0.16942448826954828,1.3365720508184942,0.8651053884445954,0.2883671375,0.638773133315794
0.017,1.792775,1.0,2159.4028554543493,0.1740833607962102,1.335967578573491,0.8711061436792952,0.28834955,0.6400694711334985
0.0175,1.7923437500000001,1.0,2197.7347527763422,0.17871610069122773,1.3353828190284758,0.8766981473280404,0.2883314375,0.6413213160092879
0.018000000000000002,1.7919,1.0,2234.0215732920547,0.18332285395911393,1.3348163433951699,0.8819168544439544,0.2883128,0.6425319393988767
0.0185,1.79144375,1.0,2268.3483459522913,0.18790376660438185,1.3342667228852945,0.8867940623860033,0.2882936375,0.6437045853683857
0.019,1.790975,1.0,2300.794840859174,0.19245898308463816,1.3337326586700367,0.8913583659032568,0.28827395,0.6448421955900154
0.0195,1.79049375,1.0,2331.4586343559754,0.19698864994767273,1.3332127439595964,0.8956354680496595,0.2882537375,0.6459479185679733
0.02,1.79,1.0,2360.4109663800205,0.20149290981238252,1.3327058930108986,0.8996486058844818,0.288233,0.6470241988387133
0.0205,1.78949375,1.0,2387.7174299418807,0.20597190394690043,1.3322111250508681,0.9034187765194872,0.2882117375,0.6480732410473101
0.021,1.788975,1.0,2413.448102652219,0.21042577361935935,1.3317274593064312,0.9069649624981886,0.28818995000000003,0.6490972345092476
0.021500000000000002,1.78844375,1.0,2437.6771718825134,0.21485466009789222,1.3312539150045137,0.9103043527167889,0.2881676375,0.6500983539355306
0.022,1.7879,1.0,2460.4753461155065,0.2192587031802188,1.3307895806387227,0.9134525499864802,0.2881448,0.6510786139695728
0.0225,1.78734375,1.0,2481.9166267561527,0.22363804417416278,1.330333544752748,0.9164237281606189,0.28812143749999997,0.6520400166169777
0.023,1.786775,1.0,2502.0652079043007,0.22799282214901465,1.329885017546843,0.9192308040644143,0.28809755,0.6529842959123695
0.0235,1.78619375,1.0,2520.9747978646424,0.23232317327020338,1.3294433324283113,0.9218855674051475,0.28807313749999996,0.6539129168320447
0.024,1.7856,1.0,2538.7012393050513,0.23662923370315794,1.3290078228044566,0.9243987748783056,0.2880482,0.6548273358847936
0.0245,1.78499375,1.0,2555.3023296286206,0.24091113961330732,1.328577822082583,0.9267802549081515,0.2880227375,0.6557290013886047
0.025,1.784375,1.0,2570.837651197839,0.24516902716608047,1.328152663669994,0.9290390004992934,0.28799675,0.6566193537190299
0.025500000000000002,1.78374375,1.0,2585.3560514601304,0.24940302929918726,1.3277317964105633,0.931183269490275,0.2879702375,0.6574995842522484
0.026000000000000002,1.7831000000000001,1.0,2598.9209674144527,0.2536132845507015,1.3273145457762907,0.9332206206911309,0.2879432,0.6583711355971317
0.0265,1.78244375,1.0,2611.578042016581,0.25779992573802646,1.3269004151935064,0.9351580242750335,0.2879156375,0.6592350718951312
0.027,1.781775,1.0,2623.3664307955564,0.26196308343357666,1.3264889779681452,0.937001901564785,0.28788755,0.6600923063307269
0.0275,1.7810937500000001,1.0,2634.3261820118873,0.26610288820976663,1.3260798074061422,0.9387581664496021,0.2878589375,0.6609437474552717
0.028,1.7804,1.0,2644.49815978979,0.27021947063901086,1.3256724768134323,0.9404322721942302,0.2878298,0.6617902992544784
0.0285,1.77969375,1.0,2653.923971286145,0.27431296129372384,1.3252665594959503,0.9420292533633643,0.2878001375,0.6626328612042967
0.029,1.778975,1.0,2662.6458978962146,0.27838349074632013,1.3248616287596313,0.94355376342421,0.28776995,0.6634723283151769
0.029500000000000002,1.7782437500000001,1.0,2670.6974170957506,0.28243118495044595,1.3244573444114196,0.9450101186864841,0.2877392375,0.6643094121731169
0.03,1.7775,1.0,2678.12500255338,0.2864561781839913,1.3240532515553511,0.946402305227274,0.287708,0.6651450578966975
0.0305,1.77674375,1.0,2684.9593014703823,0.2904585970301241,1.323649045050682,0.9477340367046893,0.2876762375,0.6659798968041508
0.031,1.775975,1.0,2691.2274277465367,0.2944385660498203,1.323244455586601,0.9490087645578714,0.28764395,0.666814483203195
0.0315,1.7751937500000001,1.0,2696.956823033898,0.2983962098040559,1.3228392138522973,0.9502296961669606,0.2876111375,0.6676493686199957
0.032,1.7744,1.0,2702.175226120207,0.3023316528538067,1.3224330505369593,0.9513998151276081,0.2875778,0.6684851017902764
0.0325,1.77359375,1.0,2706.9106439201037,0.3062450197600487,1.322025696329776,0.9525218996062993,0.2875439375,0.6693222286457999
0.033,1.772775,1.0,2711.1913240746335,0.3101364350837578,1.3216168819199365,0.9535985389787472,0.28750955,0.6701612922962297
0.0335,1.7719437500000002,1.0,2715.044885634238,0.3140060223872567,1.3212063456843315,0.9546321495363265,0.2874746375,0.6710028172580286
0.034,1.7711000000000001,1.0,2718.4921871204047,0.3178538977105738,1.320793889292548,0.9556249926642543,0.2874392,0.6718471957670935
0.0345,1.7702437500000001,1.0,2721.566906719093,0.32168019713626356,1.3203791990920548,0.9565791743905656,0.2874032375,0.6726950535367777
0.035,1.7693750000000001,1.0,2724.2859096664806,0.3254850383922206,1.3199621158575736,0.9574966767133967,0.28736675,0.6735466977549256
0.035500000000000004,1.76849375,1.0,2726.6661688413187,0.3292685392063396,1.3195424803638263,0.958379355180927,0.2873297375,0.6744024338103753
0.036000000000000004,1.7676,1.0,2728.7247535645893,0.3330308173065151,1.3191201333855338,0.9592289484092845,0.2872922,0.6752625652678543
0.0365,1.76669375,1.0,2730.4788189620594,0.3367719904206419,1.3186949156974184,0.9600470867802418,0.2872541375,0.6761273938412481
0.037,1.765775,1.0,2731.94559588858,0.34049217627661454,1.3182666680742015,0.960835300397799,0.28721555,0.6769972193652618
0.0375,1.76484375,1.0,2733.142381414757,0.3441914926023278,1.3178352312906048,0.9615950263743613,0.2871764375,0.6778723397654585
0.038,1.7639,1.0,2734.0865298751714,0.3478700571256762,1.31740044612135,0.962327615509797,0.28713679999999997,0.6787530510266837
0.0385,1.76294375,1.0,2734.7954444796874,0.35152798757455445,1.3169621533411586,0.9630343384200725,0.28709663750000003,0.679639647159872
0.039,1.761975,1.0,2735.2881790390447,0.355165401002315,1.3165201791100056,0.9637163896785936,0.28705595,0.6805324496689094
0.0395,1.7609987881406988,1.0,2735.8218664405745,0.3587824111372899,1.316074463592971,0.9643749043445682,0.28701494910190933,0.6814315480370395
0.04,1.7600225110421714,1.0,2736.7254976794134,0.3623791356530629,1.315625360764449,0.9650109901380975,0.2869739454637712,0.6823361978390032
0.0405,1.7590462339436441,1.0,2737.9764352965476,0.36595568639045456,1.3151731071969064,0.9656256801086335,0.28693294182563306,0.6832458944510439
0.041,1.7580699568451168,1.0,2739.5488426592115,0.3695121751902855,1.3147179394628103,0.9662199491111131,0.2868919381874949,0.6841601357789632
0.0415,1.7570936797465897,1.0,2741.4169128662265,0.37304871389337635,1.3142600941346274,0.9667947176965768,0.2868509345493568,0.6850784223038748
0.042,1.7561174026480624,1.0,2743.5548540832096,0.3765654143405478,1.313799807784825,0.9673508557043664,0.28680993091121865,0.6860002571243843
0.0425,1.755141125549535,1.0,2745.93687611857,0.38006238837262046,1.3133373169858695,0.9678891855815973,0.28676892727308045,0.6869251459952064
0.043000000000000003,1.7541648484510077,1.0,2748.5393582116553,0.38353974673604674,1.3128728385638595,0.9684104836731473,0.2867279236349423,0.6878526367633708
0.043500000000000004,1.7531885713524806,1.0,2751.342005907192,0.3869975997292066,1.3124065590759282,0.9689154824634083,0.2866869199968042,0.6887823400712327
0.044,1.7522122942539533,1.0,2754.3221037576045,0.3904360594916753,1.3119386868151766,0.9694048778390539,0.28664591635866604,0.6897138254720128
0.0445,1.751236017155426,1.0,2757.466444711292,0.3938552330077737,1.311469343802475,0.9698793219198176,0.2866049127205279,0.6906468363241571
0.045,1.7502597400568987,1.0,2760.7618061529897,0.3972552272618224,1.3109986520586934,0.970339433243316,0.2865639090823897,0.6915811174033029
0.0455,1.7492834629583716,1.0,2764.1949460897467,0.40063614923814234,1.3105267336047022,0.9707857988249987,0.28652290544425163,0.6925164149132472
0.046,1.7483071858598442,1.0,2767.75259966671,0.4039981059210542,1.3100537104613716,0.9712189760726294,0.28648190180611344,0.6934524764959691
0.0465,1.747330908761317,1.0,2771.421476014382,0.40734120429487874,1.309579704649572,0.971639494566869,0.2864408981679753,0.6943890512407007
0.047,1.7463546316627898,1.0,2775.18989836693,0.41066554987944914,1.309104823379885,0.9720478564528934,0.28639989452983716,0.6953259188880425
0.0475,1.7453783545642625,1.0,2779.0468185834898,0.41397124900126425,1.3086291679589381,0.9724445390062592,0.286358890891699,0.6962628720821862
0.048,1.7444020774657352,1.0,2782.9814971675482,0.41725840803020886,1.3081528366731077,0.9728299961899554,0.2863178872535609,0.6971997106196335
0.0485,1.7434258003672078,1.0,2786.987275658554,0.4205271293049892,1.3076758908506079,0.9732046571392086,0.2862768836154227,0.698136308001546
0.049,1.7424495232686805,1.0,2791.057478678147,0.42377751516431156,1.307198391819654,0.9735689306511448,0.2862358799772846,0.6990725384675331
0.0495,1.7414732461701534,1.0,2795.1854131355117,0.4270096679468822,1.30672040090846,0.9739232063362107,0.2861948763391464,0.7000082769979385
0.05,1.740496969071626,1.0,2799.3643675176827,0.4302236899914074,1.3062419794452413,0.9742678556943527,0.2861538727010083,0.7009433993158813
0.0505,1.7395206919730988,1.0,2803.5876112617807,0.43341968363659356,1.3057631887582122,0.9746032331215083,0.28611286906287015,0.7018777818890622
0.051000000000000004,1.7385444148745715,1.0,2807.8523670273285,0.43659774268972407,1.3052840545715845,0.9749296735747248,0.286071865424732,0.7028113712510645
0.051500000000000004,1.7375681377760444,1.0,2812.150637544113,0.439757974276497,1.3048046492835679,0.9752475013849643,0.28603086178659387,0.7037440235176058
0.052000000000000005,1.736591860677517,1.0,2816.473725150376,0.44290048817646627,1.304325051343623,0.9755570270178802,0.2859898581484557,0.7046755839435624
0.0525,1.7356155835789897,1.0,2820.819170431156,0.44602538051298746,1.3038452831854572,0.9758585421777894,0.2859488545103176,0.7056060072893792
0.053,1.7346393064804624,1.0,2825.184506448525,0.4491327474094162,1.3033653672427776,0.9761523257798946,0.2859078508721794,0.70653524858946
0.0535,1.7336630293819353,1.0,2829.5672586635324,0.4522226849891082,1.3028853259492916,0.9764386446214689,0.28586684723404127,0.7074632631523959
0.054,1.732686752283408,1.0,2833.964944867645,0.455295289375419,1.3024051817387063,0.9767177540122958,0.28582584359590313,0.7083900065611608
0.0545,1.7317104751848806,1.0,2838.375075126079,0.45835065669170433,1.301924957044729,0.9769898983671611,0.285784839957765,0.7093154346732733
0.055,1.7307341980863535,1.0,2842.7951517323895,0.4613888830613197,1.3014446743010673,0.9772553117629847,0.28574383631962685,0.7102395036209295
0.0555,1.7297579209878262,1.0,2847.222669173682,0.4644100646076208,1.3009643559414281,0.9775142184629769,0.2857028326814887,0.7111621698111013
0.056,1.728781643889299,1.0,2851.655114107722,0.4674142974539633,1.300484024399519,0.9777668334100322,0.2856618290433506,0.7120833899256035
0.0565,1.7278053667907716,1.0,2856.0899653504634,0.4704016777237027,1.3000037021090471,0.9780133626914046,0.2856208254052124,0.7130031209211292
0.057,1.7268290896922442,1.0,2860.5246938754053,0.4733723015401947,1.2995234115037197,0.9782540039765557,0.28557982176707425,0.7139213200292518
0.0575,1.7258528125937171,1.0,2864.9573152661965,0.47632626113944065,1.2990431701158944,0.9784889463109545,0.2855388181289361,0.7148379541040696
0.058,1.7248765354951898,1.0,2869.38874423267,0.4792636344343038,1.2985629697222287,0.9787183684783728,0.285497814490798,0.7157530392558786
0.0585,1.7239002583966625,1.0,2873.8138554689644,0.48218454511736075,1.2980828556300725,0.978942449045408,0.28545681085265984,0.7166664897302977
0.059000000000000004,1.7229239812981354,1.0,2878.2321227334933,0.4850890816215702,1.2976028322982796,0.979161354275361,0.2854158072145217,0.7175782978572771
0.059500000000000004,1.721947704199608,1.0,2882.643018290667,0.4879773323798912,1.2971229041857035,0.9793752439376271,0.28537480357638356,0.7184884560212157
0.06,1.7209714271010808,1.0,2887.0460129198145,0.49084938582528254,1.2966430757511986,0.9795842716122727,0.28533379993824537,0.7193969566609331
0.0605,1.7199951500025534,1.0,2891.4405759252895,0.49370533039070313,1.2961633514536184,0.9797885849780475,0.28529279630010723,0.7203037922696445
0.061,1.719018872904026,1.0,2895.826175146075,0.4965452545091119,1.2956837357518172,0.9799883260848534,0.2852517926619691,0.7212089553949285
0.0615,1.718042595805499,1.0,2900.202276966564,0.4993692466134677,1.2952042331046483,0.9801836316116216,0.28521078902383096,0.7221124386387006
0.062,1.7170663187069717,1.0,2904.5683463273867,0.5021773951367294,1.294724847970966,0.9803746331104857,0.2851697853856928,0.7230142346571777
0.0625,1.7160900416084444,1.0,2908.923846737003,0.5049697885118559,1.2942455848096241,0.9805614572380759,0.2851287817475546,0.7239143361608491
0.063,1.7151137645099173,1.0,2913.268240283413,0.5077465151718061,1.2937664480794764,0.9807442259747061,0.28508777810941655,0.7248127359144398
0.0635,1.71413748741139,1.0,2917.600987646123,0.510507663549539,1.293287442239377,0.9809230568321732,0.28504677447127835,0.7257094267368753
0.064,1.7131612103128626,1.0,2921.92154810965,0.5132533220780132,1.2928085717481792,0.9810980630508381,0.2850057708331402,0.726604401501248
0.0645,1.7121849332143353,1.0,2926.229379575864,0.5159835791901879,1.2923298410647377,0.9812693537866204,0.2849647671950021,0.7274976531347743
0.065,1.711208656115808,1.0,2930.5239385779996,0.5186985233190218,1.2918512546479057,0.9814370342884885,0.28492376355686394,0.7283891746187605
0.0655,1.7102323790172809,1.0,2934.805216407989,0.5213982222085637,1.2913728122570085,0.9816012044106538,0.2848827599187258,0.7292789677214352
0.066,1.7092561019187535,1.0,2939.0735996339276,0.5240827462289186,1.2908945101908385,0.9817619605261015,0.28484175628058767,0.7301670406276537
0.0665,1.7082798248202262,1.0,2943.3276949692877,0.5267522367130958,1.290416360339565,0.9819194011688185,0.28480075264244953,0.7310533725992343
0.067,1.7073035477216991,1.0,2947.567540254359,0.5294067729749489,1.289938362042318,0.9820736166797812,0.28475974900431134,0.7319379662506944
0.0675,1.7063272706231718,1.0,2951.7931737002923,0.5320464343283317,1.289460514638226,0.9822246942973692,0.2847187453661732,0.7328208241880527
0.068,1.7053509935246445,1.0,2956.0046338863726,0.5346713000870974,1.2889828174664193,0.9823727182857842,0.28467774172803506,0.7337019490088335
0.0685,1.7043747164261172,1.0,2960.20195975829,0.5372814495650999,1.2885052698660266,0.9825177700572933,0.2846367380898969,0.7345813433020763
0.069,1.7033984393275898,1.0,2964.385190625706,0.5398769620761927,1.2880278711761775,0.9826599282886359,0.2845957344517588,0.7354590096483398
0.0695,1.7024221622290627,1.0,2968.5543661602005,0.5424579169342293,1.2875506207360012,0.9827992690319075,0.28455473081362065,0.7363349506197079
0.07,1.7014458851305354,1.0,2972.7095263929605,0.5450243934530633,1.2870735178846273,0.9829358658202213,0.2845137271754825,0.7372091687797977
0.07050000000000001,1.700469608032008,1.0,2976.850711712646,0.5475764709465484,1.2865965619611848,0.9830697897684267,0.2844727235373443,0.7380816666837653
0.07100000000000001,1.6994933309334808,1.0,2980.977962863472,0.550114228728538,1.2861197523048034,0.9832011096691473,0.2844317198992062,0.73895244687831
0.07150000000000001,1.6985170538349537,1.0,2985.0913209426494,0.5526377461128859,1.285643088254612,0.9833298920843841,0.28439071626106804,0.7398215119016837
