Time [s],Phi [rad],STIM [ ],Fsee [N],Gamma [ ],Lcerel [ ],q [ ],Lmtc [m],fisomrel [ ]
0.0,1.8,1.0,17.97037839045736,5.848981417328513e-05,1.3793393854632288,0.0050008991509573955,0.288653,0.5411404038149872
0.0005,1.79999375,1.0,18.295851428731353,0.005667371041380618,1.379300265896762,0.013075679174719041,0.2886527375,0.5412350391921101
0.001,1.799975,1.0,21.6735326337414,0.011244790879587872,1.3789326728310016,0.03586169759918672,0.28865195,0.5421238184347994
0.0015,1.79994375,1.0,31.20123328865874,0.01679092580321559,1.3780349699326169,0.07094791075039943,0.2886506375,0.5442906935843287
0.002,1.7999,1.0,53.86766205220306,0.022305951294958125,1.3763496491338298,0.11512768105571958,0.2886488,0.5483448392756479
0.0025,1.79984375,1.0,97.59897288886425,0.027790041853681002,1.3739120640201632,0.16502044966810595,0.28864643749999996,0.5541765573347621
0.003,1.7997750000000001,1.0,161.58319687033352,0.03324337100168877,1.371190970954907,0.21774005628130372,0.28864354999999997,0.5606417827855656
0.0035,1.79969375,1.0,238.38976468514466,0.03866611128467483,1.368562990368224,0.27106997908132463,0.2886401375,0.5668409506722975
0.004,1.7996,1.0,322.2184830964885,0.04405843428240576,1.3661361940485808,0.32335836684353264,0.2886362,0.5725264266824618
0.0045000000000000005,1.7994937500000001,1.0,410.0462649057718,0.04942051061393433,1.3639045481551655,0.3734546023585028,0.2886317375,0.5777215555866864
0.005,1.799375,1.0,500.2079378877181,0.05475250992893708,1.3618414674044492,0.4206404803733119,0.28862675,0.5824960218960298
0.0055,1.79924375,1.0,591.5919251848013,0.06005460095252953,1.3599231808220666,0.4645375671321635,0.2886212375,0.5869110456215749
0.006,1.7991000000000001,1.0,683.320654840376,0.06532695143482989,1.3581318308738728,0.5050143502478903,0.2886152,0.5910127286828054
0.006500000000000001,1.79894375,1.0,774.6818138026506,0.07056972820452576,1.3564535911345363,0.5421064716490718,0.2886086375,0.5948368538497857
0.007,1.798775,1.0,865.0763741049635,0.07578309713203836,1.3548776277911736,0.5759553824315896,0.28860155,0.598411573001624
0.0075,1.79859375,1.0,954.0208619772008,0.08096722314486961,1.3533948206217175,0.6067633012606903,0.2885939375,0.6017605253754597
0.008,1.7984,1.0,1041.1230851650967,0.08612227046565203,1.3519973907676688,0.634762262399365,0.2885858,0.6049038166222994
0.0085,1.79819375,1.0,1126.058089654716,0.09124840186488857,1.3506787128851552,0.6601935793955426,0.2885771375,0.607858546968147
0.009000000000000001,1.797975,1.0,1208.5959616469904,0.09634577951909247,1.349432529398083,0.6832944669525127,0.28856795,0.6106406485920215
0.0095,1.79774375,1.0,1288.5763778639978,0.10141456553314725,1.3482530715783871,0.7042904648805715,0.2885582375,0.6132646624241671
0.01,1.7975,1.0,1365.8433288132148,0.1064549194413312,1.3471356943351402,0.7233916391459072,0.288548,0.6157423779287631
0.0105,1.79724375,1.0,1440.3097945815616,0.11146700063924085,1.3460758083604807,0.7407901942135995,0.2885372375,0.6180852514911985
0.011,1.796975,1.0,1511.9336570492976,0.11645096783906957,1.3450690853593614,0.7566602784707842,0.28852595000000003,0.620303974264202
0.0115,1.79669375,1.0,1580.7140929294258,0.12140697965086224,1.344111398462867,0.7711585328751777,0.2885141375,0.6224086270661033
0.012,1.7964,1.0,1646.6372064815537,0.126335192055035,1.3431993744663804,0.7844254041452058,0.28850180000000003,0.6244074916003993
0.0125,1.79609375,1.0,1709.7215255175918,0.13123576066872336,1.3423297457602437,0.7965861514241234,0.2884889375,0.6263084986215783
0.013000000000000001,1.7957750000000001,1.0,1770.0135308213753,0.13610884063879247,1.341499349829062,0.807752265621634,0.28847555,0.6281192412829336
0.0135,1.79544375,1.0,1827.5797352500197,0.14095458709594283,1.3407051715475065,0.8180228937803851,0.2884616375,0.6298468943902558
0.014,1.7951000000000001,1.0,1882.4757201741677,0.14577315311979744,1.3399446380173892,0.8274862786314978,0.2884472,0.6314975863623287
0.0145,1.79474375,1.0,1934.7566897989548,0.15056469038151055,1.339215445377401,0.836220912115979,0.2884322375,0.6330767908718479
0.015,1.794375,1.0,1984.498948559665,0.15532935055223637,1.338515289766233,0.8442965628404754,0.28841675,0.6345899189875108
0.0155,1.79399375,1.0,2031.7815817756818,0.1600672842925705,1.3378420410388956,0.85177535349428,0.2884007375,0.6360419493197487
0.016,1.7936,1.0,2076.707331172576,0.16477864309344226,1.3371934979305962,0.8587125850809914,0.2883842,0.6374379622236258
0.0165,1.7931937500000001,1.0,2119.34846696815,0.16946357515952004,1.3365679346634753,0.8651577081588645,0.2883671375,0.6387819686108501
0.017,1.792775,1.0,2159.77854308918,0.17412222793437993,1.3359637394811748,0.8711549043062919,0.28834955,0.640077696919086
0.0175,1.7923437500000001,1.0,2198.082099151731,0.17875474886159798,1.335379300627336,0.876743675560669,0.2883314375,0.6413288415520376
0.018000000000000002,1.7919,1.0,2234.3457677254823,0.18336128450870717,1.33481308627715,0.8819594155222238,0.2883128,0.6425388943162302
0.0185,1.79144375,1.0,2268.6628591545705,0.18794198203809626,1.334263587027711,0.8868338744109477,0.2882936375,0.6437112703678821
0.019,1.790975,1.0,2301.1116799072806,0.19249698628084305,1.333729521975845,0.8913956298848261,0.28827395,0.6448488716893306
0.0195,1.79049375,1.0,2331.7614962034077,0.19702644020371268,1.3332097654158384,0.8956704305133864,0.2882537375,0.6459542481872512
0.02,1.79,1.0,2360.6873441096036,0.20153048677347027,1.3327031916419787,0.8996814800855519,0.288233,0.6470299307118648
0.0205,1.78949375,1.0,2387.9695455722062,0.20600926895688096,1.3322086749485522,0.9034497233690375,0.2882117375,0.6480784320437729
0.021,1.788975,1.0,2413.6778424900185,0.21046292753381238,1.3317252385835308,0.9069941280561475,0.28818995000000003,0.6491019326744247
0.021500000000000002,1.78844375,1.0,2437.9031947364633,0.21489160671364435,1.331251741094462,0.9103318371332445,0.2881676375,0.6501029464983659
0.022,1.7879,1.0,2460.705614710469,0.21929544535516812,1.3307873761777251,0.9134784652640627,0.2881448,0.6510832645454597
0.0225,1.78734375,1.0,2482.1429844572745,0.22367458151276348,1.3303313871118947,0.9164482050119721,0.28812143749999997,0.65204456214519
0.023,1.786775,1.0,2502.2759162277493,0.22802915324081005,1.329883017175545,0.9192539673680102,0.28809755,0.652988504397829
0.0235,1.78619375,1.0,2521.1675235867774,0.23235929859368762,1.3294415096472503,0.9219075152105173,0.28807313749999996,0.6539167465603977
0.024,1.7856,1.0,2538.8784839261193,0.23666515474629277,1.3290061523022072,0.924419588931734,0.2880482,0.6548308410309212
0.0245,1.78499375,1.0,2555.466970150568,0.24094685822799822,1.3285762754186028,0.9268000095826231,0.2880227375,0.6557322424491023
0.025,1.784375,1.0,2571.0030862168733,0.24520454727854413,1.3281511142451645,0.929057747955416,0.28799675,0.6566225963637021
0.025500000000000002,1.78374375,1.0,2585.5298032871897,0.24943835464304046,1.3277301736692968,0.9312010668275297,0.2879702375,0.6575029759779738
0.026000000000000002,1.7831000000000001,1.0,2599.0913586895535,0.25364841306659713,1.3273129585784045,0.9332375468851993,0.2879432,0.658374448809476
0.0265,1.78244375,1.0,2611.733150335054,0.2578348552943242,1.326898973859892,0.9351741522362085,0.2879156375,0.6592380768155283
0.027,1.781775,1.0,2623.501636570121,0.26199781407133166,1.326487724401164,0.9370172888319521,0.28788755,0.6600949165030282
0.0275,1.7810937500000001,1.0,2634.444241463792,0.26613742214272945,1.326078715089625,0.9387728566423029,0.2878589375,0.6609460190226377
0.028,1.7804,1.0,2644.603879651758,0.2702538081751578,1.3256715005478235,0.9404463019782695,0.2878298,0.6617923269481156
0.0285,1.77969375,1.0,2654.0287161172,0.2743471079584208,1.3252655939533162,0.9420426500190192,0.2878001375,0.6626348641269019
0.029,1.778975,1.0,2662.7516328088172,0.27841744884180575,1.3248606556880922,0.9435665630812732,0.28776995,0.6634743443428024
0.029500000000000002,1.7782437500000001,1.0,2670.805914882955,0.2824649580791802,1.3244563474198061,0.9450223555121016,0.2877392375,0.6643114751881316
0.03,1.7775,1.0,2678.225341321045,0.28648976292441186,1.3240523308161136,0.9464140239845911,0.287708,0.6651469607546048
0.0305,1.77674375,1.0,2685.044139126647,0.29049199063136844,1.3236482675446695,0.9477452749221038,0.2876762375,0.6659815016432846
0.031,1.775975,1.0,2691.296940060286,0.29447176845391754,1.323243819273129,0.9490195492308389,0.28764395,0.6668157949672215
0.0315,1.7751937500000001,1.0,2697.0119087709586,0.29842921917184145,1.322838710134462,0.9502400510231791,0.2876111375,0.667650405735704
0.032,1.7744,1.0,2702.2173245061435,0.3023644680060597,1.3224326659501557,0.951409761882839,0.2875778,0.6684858926284288
0.0325,1.77359375,1.0,2706.9567372710508,0.3062776514435819,1.322025275615885,0.9525314450704477,0.2875439375,0.6693230926802083
0.033,1.772775,1.0,2711.250128910333,0.3101688897546732,1.3216163456073602,0.9536076969795817,0.28750955,0.670162392341094
0.0335,1.7719437500000002,1.0,2715.1176642156947,0.314038303209599,1.3212056824002916,0.9546409397941519,0.2874746375,0.6710041760005199
0.034,1.7711000000000001,1.0,2718.579673725394,0.31788601207862455,1.320793092470389,0.9556334352516674,0.2874392,0.671848825967106
0.0345,1.7702437500000001,1.0,2721.6566373543924,0.3217121366320151,1.3203783822933632,0.9565872971643898,0.2874032375,0.6726967224460703
0.035,1.7693750000000001,1.0,2724.3691688545423,0.32551679714003595,1.3199613583449246,0.957504502823515,0.28736675,0.6735482435142564
0.035500000000000004,1.76849375,1.0,2726.7380011056844,0.3293001138729524,1.3195418271007828,0.9583869033977196,0.2873297375,0.6744037650927723
0.036000000000000004,1.7676,1.0,2728.783972236226,0.33306220710102963,1.3191195950366488,0.9592362334251949,0.2872922,0.6752636609172362
0.0365,1.76669375,1.0,2730.528012575191,0.336803197094533,1.3186944686282323,0.9600541194875735,0.2872541375,0.6761283025056399
0.037,1.765775,1.0,2731.991132433481,0.34052320412372783,1.318266254351244,0.9608420881446658,0.28721555,0.6769980591238178
0.0375,1.76484375,1.0,2733.181378425935,0.3442223399841104,1.3178348770600463,0.9616015829734307,0.2871764375,0.6778730577940857
0.038,1.7639,1.0,2734.124423270969,0.34790073049966025,1.3174001019749175,0.9623339484002184,0.28713679999999997,0.6787537476604335
0.0385,1.76294375,1.0,2734.8384401319267,0.3515584937782758,1.3169617629070158,0.963040453965512,0.28709663750000003,0.6796404363994792
0.039,1.761975,1.0,2735.3344866478756,0.3551957426721794,1.3165197586387112,0.9637222997238704,0.28705595,0.6805332984416199
0.0395,1.7609937500000001,1.0,2735.623651488179,0.3588125900335936,1.3160739879523726,0.9643806161171796,0.2870147375,0.6814325068236078
0.04,1.76,1.0,2735.717050022256,0.36240914871474067,1.3156243496303697,0.9650164687536027,0.286973,0.6823382331645604
0.0405,1.7589937500000001,1.0,2735.6258202173035,0.36598553156784314,1.315170742455072,0.9656308628096085,0.2869307375,0.6832506476413223
0.041,1.757975,1.0,2735.3611187627093,0.3695418514451233,1.314713065208849,0.9662247470884633,0.28688795,0.684169918963172
0.0415,1.75694375,1.0,2734.9341174215783,0.3730782211988037,1.3142512166740699,0.9667990177653083,0.2868446375,0.6850962143458763
0.042,1.7559,1.0,2734.355999609868,0.3765947536811066,1.313785095633104,0.9673545218460322,0.28680079999999997,0.6860296994850885
0.0425,1.75484375,1.0,2733.637957202309,0.3800915617442546,1.3133146008683214,0.9678920603645246,0.2867564375,0.6869705385290958
0.043000000000000003,1.753775,1.0,2732.7854613757636,0.38356875164015086,1.3128396831796652,0.9684123945230257,0.28671155,0.6879187902680062
0.043500000000000004,1.75269375,1.0,2731.811187598165,0.38702643926972813,1.3123602279725142,0.9689162413511344,0.28666613750000003,0.6888746427964254
0.044,1.7516,1.0,2730.726821070988,0.390464737653665,1.3118761296491601,0.9694042804395656,0.2866202,0.6898382645250647
0.0445,1.75049375,1.0,2729.5384271981097,0.3938837528010287,1.311387333674669,0.96987715895259,0.2865737375,0.6908097207492995
0.045,1.7493750000000001,1.0,2728.2520723667203,0.39728359072088615,1.3108937855141072,0.9703354907430187,0.28652675,0.6917890756655241
0.0455,1.74824375,1.0,2726.873822834668,0.4006643574223043,1.3103954306325407,0.9707798583875114,0.2864792375,0.6927763923547181
0.046,1.7471,1.0,2725.4097436840098,0.4040261589143502,1.3098922144950356,0.9712108150785066,0.2864312,0.6937717327658255
0.0465,1.7459437500000001,1.0,2723.8658978398453,0.40736910120609077,1.3093840825666585,0.9716288863841609,0.28638263750000004,0.6947751576989383
0.047,1.744775,1.0,2722.2483451555454,0.41069329030659313,1.3088709803124754,0.9720345718866736,0.28633355,0.6957867267882987
0.0475,1.74359375,1.0,2720.563141564185,0.41399883222492423,1.3083528531975528,0.9724283467084778,0.28628393750000003,0.6968064984851035
0.048,1.7424,1.0,2718.816338294933,0.41728583297015104,1.3078296466869563,0.9728106629349527,0.2862338,0.6978345300401264
0.0485,1.74119375,1.0,2717.0118385664796,0.42055439023053764,1.3073013257657895,0.9731819512726015,0.2861831375,0.6988708392301917
0.049,1.739975,1.0,2715.15507676393,0.42380461197486374,1.306767841436043,0.9735426222555655,0.28613195,0.6999154702189756
0.0495,1.73874375,1.0,2713.2526298098155,0.4270366114826398,1.306229134231476,0.973893066983171,0.2860802375,0.7009684864408183
0.05,1.7375,1.0,2711.3075971369935,0.4302504876231861,1.305685176329271,0.9742336587175415,0.286028,0.7020298883053014
0.0505,1.73624375,1.0,2709.3230748873857,0.43344633926582266,1.3051359399066105,0.974564753481804,0.2859752375,0.7030996753102978
0.051000000000000004,1.734975,1.0,2707.3021556771914,0.43662426527986986,1.3045813971406774,0.9748866910069681,0.28592195,0.7041778460326305
0.051500000000000004,1.73369375,1.0,2705.247928379498,0.4397843645346478,1.3040215202086545,0.9751997956186798,0.2858681375,0.7052643981186821
0.052000000000000005,1.7324,1.0,2703.16347792349,0.4429267358994768,1.3034562812877244,0.9755043770681686,0.2858138,0.7063593282749538
0.0525,1.73109375,1.0,2701.0518851116813,0.4460514782436769,1.3028856525550696,0.9758007313113547,0.28575893750000003,0.7074626322585768
0.053,1.729775,1.0,2698.916226453287,0.4491586904365685,1.3023096061878732,0.9760891412397705,0.28570355000000003,0.7085743048677712
0.0535,1.72844375,1.0,2696.759574015815,0.4522484713474717,1.3017281143633173,0.9763698773666677,0.2856476375,0.7096943399322606
0.054,1.7271,1.0,2694.584995292861,0.4553209198457068,1.301141149258585,0.9766431984714163,0.2855912,0.710822730303631
0.0545,1.7257437500000001,1.0,2692.3955530897338,0.4583761348005938,1.300548683050859,0.9769093522050627,0.2855342375,0.7119594678456451
0.055,1.724375,1.0,2690.193587331125,0.4614142072567694,1.2999506944920427,0.9771685752994413,0.28547675,0.7131045308473893
0.0555,1.72299375,1.0,2687.979732527647,0.4644352142922392,1.2993471779211163,0.9774210940994975,0.2854187375,0.7142578669345139
0.056,1.7216,1.0,2685.759447232465,0.4674392941923246,1.2987380834642308,0.9776671286197464,0.2853602,0.7154195072962954
0.0565,1.72019375,1.0,2683.5337390226236,0.4704265373150909,1.2981234019682266,0.9779068876080471,0.28530113749999997,0.7165894043331988
0.057,1.718775,1.0,2681.3036138445905,0.47339703401860334,1.2975031242799435,0.9781405712271667,0.28524155,0.7177675097055882
0.0575,1.71734375,1.0,2679.0700760025097,0.4763508746609274,1.2968772412462215,0.9783683714750903,0.2851814375,0.7189537743304617
0.058,1.7159,1.0,2676.834128150175,0.47928814960012844,1.2962457437139008,0.9785904725814892,0.2851208,0.7201481483781818
0.0585,1.71444375,1.0,2674.596771283318,0.4822089491942717,1.2956086225298211,0.9788070513818721,0.2850596375,0.721350581269202
0.059000000000000004,1.7129750000000001,1.0,2672.3590047343864,0.48511336380142267,1.2949658685408227,0.9790182776708454,0.28499795,0.7225610216707847
0.059500000000000004,1.71149375,1.0,2670.121826169297,0.4880014837796466,1.2943174725937454,0.9792243145358032,0.2849357375,0.7237794174937179
0.06,1.71,1.0,2667.886231585599,0.4908733994870088,1.2936634255354296,0.9794253186722746,0.284873,0.7250057158890217
0.0605,1.7084937500000001,1.0,2665.6532153130142,0.49372920128157477,1.293003718212715,0.9796214406820706,0.2848097375,0.7262398632446554
0.061,1.7069750000000001,1.0,2663.423770015375,0.49656897952140977,1.2923383414724416,0.979812825355294,0.28474595,0.7274818051822134
0.0615,1.7054437500000001,1.0,2661.1988866945253,0.4993928245645791,1.2916672861614495,0.9799996119372029,0.2846816375,0.7287314865536196
0.062,1.7039,1.0,2658.979554696718,0.5022008267691482,1.290990543126579,0.9801819343808486,0.2846168,0.7299888514378146
0.0625,1.70234375,1.0,2656.7667617195507,0.5049930764931825,1.2903081032146695,0.9803599215863467,0.2845514375,0.7312538431374388
0.063,1.7007750000000001,1.0,2654.5614938221115,0.5077696640947471,1.2896199572725617,0.9805336976275876,0.28448555,0.7325264041755086
0.0635,1.69919375,1.0,2652.364735436244,0.5105306799319075,1.2889260961470952,0.980703381967127,0.28441913750000003,0.7338064762920903
0.064,1.6976,1.0,2650.1681282256422,0.5132762136389357,1.2882265968540625,0.9808690939765677,0.2843522,0.735093842046957
0.0645,1.69599375,1.0,2647.9873872180187,0.5160063490626645,1.2875213143763786,0.9810309370931228,0.2842847375,0.7363886918982132
0.065,1.694375487367407,1.0,2645.853137562322,0.5187211712715989,1.2868101859070489,0.9811890151545094,0.2842167704694311,0.737691062691212
0.0655,1.6927539779526266,1.0,2644.153645830596,0.5214207653634655,1.286093583875476,0.9813434498033279,0.2841486670740103,0.7390001953612437
0.066,1.691132468537846,1.0,2643.0069119306263,0.5241052164359911,1.2853718807110623,0.98149435843784,0.2840805636785895,0.7403153370517577
0.0665,1.6895109591230655,1.0,2642.3722625570217,0.5267746095869026,1.2846454488432109,0.9816418544012371,0.28401246028316873,0.7416357412399459
0.067,1.687889449708285,1.0,2642.21164013667,0.5294290292842664,1.2839146381636972,0.9817860460268019,0.283944356887748,0.7429607086619161
0.0675,1.6862679402935044,1.0,2642.4802396019827,0.5320685604292581,1.2831798621841004,0.9819270410657257,0.28387625349232715,0.7442894312927102
0.068,1.684646430878724,1.0,2643.1432694089312,0.5346932863427725,1.2824414428744846,0.9820649391932884,0.2838081500969064,0.7456212734278675
0.0685,1.6830249214639434,1.0,2644.1713653087795,0.537303289402176,1.2816996527871785,0.9821998343629491,0.2837400467014856,0.7469556939399972
0.069,1.6814034120491628,1.0,2645.5352199141917,0.5398986519848352,1.2809547644745107,0.9823318174208997,0.2836719433060648,0.7482921566296945
0.0695,1.6797819026343823,1.0,2647.205563153284,0.5424794564681167,1.2802070504888101,0.982460976237521,0.2836038399106441,0.7496301302817647
0.07,1.6781603932196019,1.0,2649.156411132633,0.5450457843875995,1.2794567532418522,0.9825873943784189,0.2835357365152233,0.750969142434702
0.07050000000000001,1.6765388838048212,1.0,2651.360898840849,0.5475977180591984,1.2787041233508332,0.9827111531436835,0.2834676331198025,0.7523087105460573
0.07100000000000001,1.6749173743900407,1.0,2653.7994412420617,0.550135337653621,1.2779493442656824,0.9828323280260716,0.2833995297243817,0.753648475836343
0.07150000000000001,1.6732958649752603,1.0,2656.453864704835,0.5526587229148365,1.277192586394829,0.9829509914946979,0.2833314263289609,0.7549881060195959
0.07200000000000001,1.6716743555604796,1.0,2659.3059862308432,0.5551679535868144,1.2764340201467026,0.9830672137287372,0.2832633229335402,0.7563272720201927
0.0725,1.6700528461456992,1.0,2662.337606300128,0.5576631094135238,1.2756738159297323,0.9831810627092611,0.2831952195381194,0.7576656479934314
0.073,1.6684313367309187,1.0,2665.5409597707226,0.5601442645737184,1.2749120479647138,0.9832925996748423,0.2831271161426986,0.7590030799867566
0.0735,1.666809827316138,1.0,2668.8854199390794,0.5626115068268178,1.274149000597485,0.9834018940910428,0.2830590127472778,0.760339048059312
0.074,1.6651883179013576,1.0,2672.3615181787914,0.5650649124279031,1.2733847632135114,0.9835090040496061,0.282990909351857,0.7616733776871567
