Time [s],Phi [rad],STIM [ ],Fsee [N],Gamma [ ],Lcerel [ ],q [ ],Lmtc [m],fisomrel [ ]
0.0,1.8,1.0,18.256477003612126,0.0005490310134995079,1.3793074622796326,0.005077825642581786,0.288653,0.541217630927886
0.0005,1.79999375,1.0,18.734262972649017,0.006155160692542554,1.379251880485151,0.014504492966242531,0.2886527375,0.5413520763663162
0.001,1.799975,1.0,22.476029603646552,0.011729844416528915,1.3788515579538785,0.03847260665860953,0.28865195,0.5423198247318848
0.0015,1.79994375,1.0,32.81005295096355,0.017273258573301455,1.3778999133474368,0.07448593600765425,0.2886506375,0.5446162483801014
0.002,1.7999,1.0,57.072980719821146,0.02278557855936654,1.376145252574715,0.11929467827300361,0.2886488,0.5488352964461218
0.0025,1.79984375,1.0,102.77437586456625,0.02826697878788256,1.3736665010972364,0.16953896064247634,0.28864643749999996,0.5547619450183323
0.003,1.7997750000000001,1.0,168.17066723788733,0.03371763269716243,1.3709473314144145,0.2223920905748142,0.28864354999999997,0.561218358789938
0.0035,1.79969375,1.0,245.75324840950645,0.03913771274743981,1.368338234297149,0.27569026184876017,0.2886401375,0.5673690853152378
0.004,1.7996,1.0,330.0075255682523,0.04452739043412555,1.365931363308601,0.32782728550865464,0.2886362,0.5730045833772598
0.0045000000000000005,1.7994937500000001,1.0,418.0838081913338,0.04988683629024513,1.363716970312544,0.3776934323972553,0.2886317375,0.5781567777635969
0.005,1.799375,1.0,508.3831027720226,0.05521621987236459,1.3616685873421872,0.4246040279557188,0.28862675,0.5828948754142433
0.0055,1.79924375,1.0,599.8311947265358,0.060515709879828405,1.3597628708010163,0.4682056197735128,0.2886212375,0.5872789438552655
0.006,1.7991000000000001,1.0,691.549988590472,0.0657854738923088,1.3579827787813636,0.5083844023789211,0.2886152,0.5913530934182821
0.006500000000000001,1.79894375,1.0,782.8498104093928,0.0710256787071976,1.356314595557492,0.5451872939348547,0.2886086375,0.5951527710226432
0.007,1.798775,1.0,873.1427197843707,0.07623649013242344,1.3547476922030768,0.57876261581889,0.28860155,0.5987055959074972
0.0075,1.79859375,1.0,961.9371113756085,0.08141807288828329,1.3532733615992771,0.6093164207008206,0.2885939375,0.6020342218888597
0.008,1.7984,1.0,1048.8725061183638,0.08657059134007729,1.3518835495087087,0.6370820068663493,0.2885858,0.6051593354118372
0.0085,1.79819375,1.0,1133.6232430492712,0.0916942080894471,1.350571832718131,0.662300864845588,0.2885771375,0.6080975449765649
0.009000000000000001,1.797975,1.0,1215.9519121144008,0.09678908520811785,1.3493322004428365,0.6852095546814968,0.28856795,0.6108642019571617
0.0095,1.79774375,1.0,1295.6997002569626,0.10185538440154514,1.348158965877188,0.7060323762342721,0.2885582375,0.6134736431100991
0.01,1.7975,1.0,1372.7322057765484,0.10689326565500866,1.3470472869011083,0.7249777756065907,0.288548,0.6159380760669
0.0105,1.79724375,1.0,1446.9620534257367,0.11190288816110111,1.3459926649250133,0.7422364204885447,0.2885372375,0.6182687366648196
0.011,1.796975,1.0,1518.3493037896733,0.11688441045376566,1.3449908142534617,0.7579809157801669,0.28852595000000003,0.6204762056145839
0.0115,1.79669375,1.0,1586.891608983577,0.12183799100070446,1.344037684305225,0.7723664510115379,0.2885141375,0.6225703819448287
0.012,1.7964,1.0,1652.575181798098,0.1267637856717333,1.343129946282899,0.7855321105903502,0.28850180000000003,0.6245594386603792
0.0125,1.79609375,1.0,1715.4238831722475,0.13166195018558735,1.3422643096504197,0.7976018830937326,0.2884889375,0.6264513467459236
0.013000000000000001,1.7957750000000001,1.0,1775.4796497992284,0.13653263946968403,1.3414376983843332,0.8086861585995239,0.28847555,0.6282535016645698
0.0135,1.79544375,1.0,1832.8202134710816,0.14137600898237052,1.3406470001982318,0.818883028212757,0.2884616375,0.6299732820661539
0.014,1.7951000000000001,1.0,1887.4944128952952,0.14619221119030001,1.3398897441127782,0.8282798691888859,0.2884472,0.6316165875221627
0.0145,1.79474375,1.0,1939.5590139414692,0.15098139780401515,1.3391636302672005,0.8369543714374281,0.2884322375,0.6331888772448141
0.015,1.794375,1.0,1989.0916995486273,0.15574372053405844,1.3384663588007273,0.844975594876239,0.28841675,0.6346955483424023
0.0155,1.79399375,1.0,2036.171111726016,0.16047933008330068,1.3377958207656306,0.852405042377664,0.2884007375,0.6361415289326338
0.016,1.7936,1.0,2080.901251975289,0.16518837766198702,1.3371498160974122,0.8592974615660482,0.2883842,0.6375318925557434
0.0165,1.7931937500000001,1.0,2123.3533996150804,0.16987101132803845,1.3365266416684898,0.8657018215282248,0.2883671375,0.6388705977274487
0.017,1.792775,1.0,2163.6019228748723,0.17452737859327552,1.335924687944315,0.8716618733917604,0.28834955,0.640161364890034
0.0175,1.7923437500000001,1.0,2201.732081347969,0.17915762696951892,1.3353423453903397,0.8772167394678696,0.2883314375,0.641407880701869
0.018000000000000002,1.7919,1.0,2237.826514116382,0.18376190282462226,1.3347781307764348,0.8824014903347736,0.2883128,0.6426135304650393
0.0185,1.79144375,1.0,2271.983627750739,0.18834035355435935,1.3342304905198041,0.8872475665504157,0.2882936375,0.6437818214505457
0.019,1.790975,1.0,2304.2763841082306,0.19289312314080842,1.3336982033708322,0.8917832970492628,0.28827395,0.6449155263618581
0.0195,1.79049375,1.0,2334.776232631138,0.19742035477216197,1.3331801270430332,0.8960341920825888,0.2882537375,0.6460172287741972
0.02,1.79,1.0,2363.560395250504,0.20192219163661246,1.3326751192499202,0.9000232440760331,0.288233,0.6470894930868984
0.0205,1.78949375,1.0,2390.706944990615,0.20639877622094965,1.332182080759658,0.9037712193128921,0.2882117375,0.6481347743054338
0.021,1.788975,1.0,2416.294106575737,0.21085025093579207,1.3316999565695522,0.9072969050681355,0.28818995000000003,0.6491554171293278
0.021500000000000002,1.78844375,1.0,2440.399700467298,0.21527675803947277,1.331227736157142,0.9106173258527813,0.2881676375,0.6501536568884396
0.022,1.7879,1.0,2463.0817027981984,0.21967843599669862,1.3307646348779607,0.913747968556418,0.2881448,0.6511312382463308
0.0225,1.78734375,1.0,2484.401106122631,0.22405542327217653,1.3303098680875411,0.9167029020421452,0.28812143749999997,0.6520898949106861
0.023,1.786775,1.0,2504.4216693904536,0.22840785833061342,1.329862651141416,0.9194949266124778,0.28809755,0.6530313500700143
0.0235,1.78619375,1.0,2523.209681571595,0.23273587963671616,1.3294221993951185,0.9221357059545507,0.28807313749999996,0.6539573167910804
0.024,1.7856,1.0,2540.820740908814,0.23703962237809126,1.3289878506593429,0.9246359043066021,0.2880482,0.6548692414494448
0.0245,1.78499375,1.0,2557.3289867434637,0.24131922747460738,1.3285587867519715,0.9270052424102817,0.2880227375,0.6557688891839047
0.025,1.784375,1.0,2572.7802438934996,0.2455748284401294,1.3281344729543207,0.9292526615112123,0.28799675,0.6566574223819839
0.025500000000000002,1.78374375,1.0,2587.22060162787,0.24980655848282798,1.3277143854397162,0.9313863564623149,0.2879702375,0.657535974412848
0.026000000000000002,1.7831000000000001,1.0,2600.6974480964336,0.2540145508108739,1.3272980003814823,0.933413846615784,0.2879432,0.658405672660342
0.0265,1.78244375,1.0,2613.259358724339,0.25819893863243765,1.3268847939529438,0.9353420406212616,0.2879156375,0.6592676386554257
0.027,1.781775,1.0,2624.9559906906334,0.2623598551556901,1.3264742423274258,0.9371772942178392,0.28788755,0.6601229881911137
0.0275,1.7810937500000001,1.0,2635.827350008903,0.26649742982842733,1.3260659200349494,0.9389254751050287,0.2878589375,0.6609726268869962
0.028,1.7804,1.0,2645.927606125587,0.2706117986837859,1.3256592783029042,0.9405919791640575,0.2878298,0.6618177119108151
0.0285,1.77969375,1.0,2655.2955970255366,0.2747030917763029,1.3252539172957747,0.9421818077999289,0.2878001375,0.6626590857262544
0.029,1.778975,1.0,2663.9638461040227,0.2787714364961761,1.3248495011479275,0.9436995922222199,0.28776995,0.6634974540942048
0.029500000000000002,1.7782437500000001,1.0,2671.9654134375305,0.28281696023360303,1.3244456939937295,0.94514961825925,0.2877392375,0.6643335192886711
0.03,1.7775,1.0,2679.3338479608333,0.2868397903787815,1.3240421599675471,0.9465358565340966,0.287708,0.6651679801134138
0.0305,1.77674375,1.0,2686.103142145004,0.29084005432190907,1.3236385632037468,0.9478619896457582,0.2876762375,0.6660015319113979
0.031,1.775975,1.0,2692.307689176537,0.29481787945318344,1.3232345678366957,0.9491314366852286,0.28764395,0.6668348665670427
0.0315,1.7751937500000001,1.0,2697.9775184050327,0.29877339144987713,1.3228298811923602,0.9503473802208349,0.2876111375,0.6676685835756588
0.032,1.7744,1.0,2703.1405661651997,0.30270671605663135,1.3224242324949367,0.9515127837673228,0.2875778,0.6685032343751627
0.0325,1.77359375,1.0,2707.8340913345687,0.3066179812477302,1.3220172683098586,0.9526303978236136,0.2875439375,0.6693395373413793
0.033,1.772775,1.0,2712.07978268229,0.31050730853952535,1.321608779608752,0.9537028013415104,0.28750955,0.6701779109648254
0.0335,1.7719437500000002,1.0,2715.8995176322665,0.3143748194483686,1.3211985573632425,0.9547324004327111,0.2874746375,0.6710187715171294
0.034,1.7711000000000001,1.0,2719.315343650102,0.3182206354906117,1.3207863925449566,0.9557214420094957,0.2874392,0.6718625330293145
0.0345,1.7702437500000001,1.0,2722.349460599511,0.32204487818260646,1.3203720761255193,0.9566720261954459,0.2874032375,0.6727096072672973
0.035,1.7693750000000001,1.0,2725.024204066773,0.32584766904070456,1.3199553990765573,0.9575861176300434,0.28736675,0.6735604037045948
0.035500000000000004,1.76849375,1.0,2727.3620296546464,0.32962912958125784,1.3195361523696962,0.9584655557772898,0.2873297375,0.6744153294922521
0.036000000000000004,1.7676,1.0,2729.3785266601394,0.3333893735610196,1.3191141903469978,0.9593120690763937,0.2872922,0.675274660456569
0.0365,1.76669375,1.0,2731.102238354209,0.33712853104096585,1.3186892503898555,0.9601272703525292,0.2872541375,0.6761389084373468
0.037,1.765775,1.0,2732.547993337421,0.3408467185871564,1.31826119526207,0.9609126828361169,0.28721555,0.6770083277753781
0.0375,1.76484375,1.0,2733.7294508577847,0.3445440514253365,1.3178298988944528,0.9616697380805916,0.2871764375,0.6778831484972638
0.038,1.7639,1.0,2734.66032197868,0.3482206447812514,1.3173952352178147,0.9623997817472755,0.28713679999999997,0.6787635990466458
0.0385,1.76294375,1.0,2735.3543630361637,0.3518766138806465,1.3169570781629674,0.9631040796981718,0.28709663750000003,0.6796499062576359
0.039,1.761975,1.0,2735.8253694477444,0.3555120739492671,1.316515301660722,0.9637838235927573,0.28705595,0.6805422953272389
0.0395,1.7609937500000001,1.0,2736.0871698746537,0.35912714021285846,1.31606977964189,0.9644401360340684,0.2870147375,0.6814409897867572
0.04,1.76,1.0,2736.153620735317,0.36272192789716595,1.3156203860372826,0.9650740753048153,0.286973,0.6823462114721834
0.0405,1.7589937500000001,1.0,2736.038601072187,0.3662965522279349,1.315166994777711,0.9656866397302013,0.2869307375,0.6832581804935789
0.041,1.757975,1.0,2735.748589797295,0.3698511133296958,1.314709547143464,0.9662787748783926,0.28688795,0.6841769800279204
0.0415,1.75694375,1.0,2735.302602889156,0.3733857419598681,1.3142478707222687,0.9668513695496177,0.2868446375,0.6851029201100776
0.042,1.7559,1.0,2734.7116057094845,0.3769005532397207,1.3137818662844793,0.9674052672586978,0.28680079999999997,0.6860361619611899
0.0425,1.75484375,1.0,2733.9830268121937,0.3803956547623858,1.3133114667896912,0.9679412671950153,0.2867564375,0.6869768009505491
0.043000000000000003,1.753775,1.0,2733.1243015932355,0.3838711541209955,1.3128366051974998,0.9684601256905291,0.28671155,0.6879249312771163
0.043500000000000004,1.75269375,1.0,2732.1428704827804,0.387327158908682,1.3123572144675006,0.9689625589453111,0.28666613750000003,0.6888806459505862
0.044,1.7516,1.0,2731.0461772359586,0.3907637767185776,1.3118732275592893,0.9694492455534668,0.2866202,0.6898440367721677
0.0445,1.75049375,1.0,2729.8416673244997,0.3941811151438145,1.3113845774324608,0.9699208288459036,0.2865737375,0.690815194315076
0.045,1.7493750000000001,1.0,2728.5367864269006,0.3975792817775249,1.3108911970466113,0.9703779190648987,0.28652675,0.6917942079047357
0.0455,1.74824375,1.0,2727.138979018769,0.40095838421284097,1.3103930193613358,0.9708210953840699,0.2864792375,0.6927811655987035
0.046,1.7471,1.0,2725.6556870629142,0.404318530042895,1.3098899773362298,0.9712509077861389,0.2864312,0.6937761541662978
0.0465,1.7459437500000001,1.0,2724.0943487987865,0.4076598268608191,1.309382003930889,0.9716678788097632,0.28638263750000004,0.6947792590679445
0.047,1.744775,1.0,2722.462397631568,0.41098238225974554,1.308869032104909,0.972072505175738,0.28633355,0.6957905644342369
0.0475,1.74359375,1.0,2720.765487578171,0.41428629724089827,1.308351010964578,0.9724652596063419,0.28628393750000003,0.6968101212918454
0.048,1.7424,1.0,2719.004431358554,0.41757166106529825,1.3078279336658594,0.9728465935696988,0.2862338,0.6978378930325488
0.0485,1.74119375,1.0,2717.192432694537,0.42083861289649016,1.307299680492597,0.9732169352386312,0.2861831375,0.6988740636771296
0.049,1.739975,1.0,2715.3324357461383,0.42408725149910603,1.3067662250832643,0.9735766938359849,0.28613195,0.6999186324877679
0.0495,1.73874375,1.0,2713.427382069562,0.4273176756377779,1.3062275410763347,0.9739262593442022,0.2860802375,0.7009715978518551
0.05,1.7375,1.0,2711.480210365826,0.4305299840771378,1.3056836021102818,0.9742660035809684,0.286028,0.7020329572732237
0.0505,1.73624375,1.0,2709.4938562449606,0.4337242755818177,1.3051343818235788,0.974596281205381,0.2859752375,0.7031027073633369
0.051000000000000004,1.734975,1.0,2707.4712520056823,0.43690064891644964,1.3045798538546995,0.9749174306597124,0.28592195,0.7041808438324295
0.051500000000000004,1.73369375,1.0,2705.4153264305082,0.44005920284566563,1.3040199918421171,0.9752297750514161,0.2858681375,0.7052673614806092
0.052000000000000005,1.7324,1.0,2703.329004596015,0.4432000361340977,1.3034547694243053,0.9755336229796697,0.2858138,0.7063622541889085
0.0525,1.73109375,1.0,2701.2152076989637,0.44632324754637787,1.3028841602397374,0.9758292693103879,0.28575893750000003,0.7074655149102969
0.053,1.729775,1.0,2699.07685289731,0.44942893584713817,1.3023081379268868,0.9761169959033417,0.28570355000000003,0.7085771356606454
0.0535,1.72844375,1.0,2696.9168531670775,0.4525171998010106,1.3017266761242272,0.9763970722947288,0.2856476375,0.7096971075096483
0.054,1.7271,1.0,2694.7381171744473,0.4555881381726271,1.301139748470232,0.9766697563382796,0.2855912,0.7108254205717008
0.0545,1.7257437500000001,1.0,2692.5435491631815,0.4586418497266198,1.3005473286033746,0.9769352948077511,0.2855342375,0.711962063996732
0.055,1.724375,1.0,2690.3360488573353,0.4616784332276207,1.2999493901621286,0.9771939239634355,0.28547675,0.7131070259609922
0.0555,1.72299375,1.0,2688.118511380017,0.46469798744026175,1.2993459067849673,0.9774458700851177,0.2854187375,0.7142602936577986
0.056,1.7216,1.0,2685.884897234069,0.46770057729934644,1.298736933936581,0.9776913516209614,0.2853602,0.7154216973921264
0.0565,1.72019375,1.0,2683.646285783216,0.47068633560726764,1.298122370247171,0.9779305751410237,0.28530113749999997,0.7165913659381656
0.057,1.718775,1.0,2681.4057352714844,0.4736553612225428,1.2975021877382409,0.9781637397804243,0.28524155,0.7177692866420934
0.0575,1.71734375,1.0,2679.163968558257,0.47660774379213444,1.2968763798108571,0.978391036937063,0.2851814375,0.7189554053265297
0.058,1.7159,1.0,2676.921707303026,0.47954357296300504,1.2962449398660858,0.9786126502721766,0.2851208,0.7201496671037603
0.0585,1.71444375,1.0,2674.679671962762,0.482462938382117,1.295607861304993,0.9788287560826636,0.2850596375,0.7213520163733673
0.059000000000000004,1.7129750000000001,1.0,2672.438581790208,0.48536592969643294,1.294965137528645,0.9790395236526398,0.28499795,0.7225623968198581
0.059500000000000004,1.71149375,1.0,2670.1991548338974,0.48825263655291534,1.294316761938108,0.979245115585535,0.2849357375,0.7237807514102905
0.06,1.71,1.0,2667.962107938123,0.4911231485985266,1.2936627279344481,0.9794456881179522,0.284873,0.7250070223918951
0.0605,1.7084937500000001,1.0,2665.728156744911,0.4939775554802294,1.2930030289187318,0.9796413914164229,0.2848097375,0.7262411512896966
0.061,1.7069750000000001,1.0,2663.498015696023,0.49681594684498614,1.2923376582920247,0.9798323698581173,0.28474595,0.7274830789041307
0.0615,1.7054437500000001,1.0,2661.2723980364385,0.49963841233975936,1.2916666094553937,0.980018762296486,0.2846816375,0.7287327453086571
0.062,1.7039,1.0,2659.0520158190984,0.5024450416115115,1.2909898758099043,0.9802007023127618,0.2846168,0.7299900898473739
0.0625,1.70234375,1.0,2656.8375799094442,0.5052359243072051,1.2903074507566232,0.9803783184541592,0.2845514375,0.7312550511326237
0.063,1.7007750000000001,1.0,2654.6297999924795,0.5080111500738026,1.2896193276966164,0.9805517344595855,0.28448555,0.7325275670426019
0.0635,1.69919375,1.0,2652.4293845796938,0.5107708085582666,1.28892550003095,0.9807210694735928,0.28441913750000003,0.7338075747189587
0.064,1.6976,1.0,2650.237041017019,0.5135149894075596,1.2882259611606905,0.9808864382492722,0.2843522,0.7350950105644009
0.0645,1.69599375,1.0,2648.0534810513577,0.5162437821221253,1.2875207044356234,0.9810479513276497,0.2842847375,0.7363898103343205
0.065,1.694375,1.0,2645.881658776718,0.5189572352376302,1.2868097024932135,0.9812057113014365,0.28421675,0.7376919469252372
0.0655,1.69274375,1.0,2643.7205403577964,0.5216554864603942,1.2860929647586476,0.9813598251547359,0.2841482375,0.7390013249859924
0.066,1.6911,1.0,2641.5702604146545,0.5243386167146292,1.2853704898769303,0.9815103915438408,0.2840792,0.7403178683271712
0.0665,1.6894437500000001,1.0,2639.430953384254,0.5270067069245475,1.2846422764930658,0.9816575056275988,0.2840096375,0.7416415001047356
0.067,1.687775,1.0,2637.302753523176,0.5296598380143611,1.2839083232520592,0.9818012592145898,0.28393955,0.7429721428195291
0.0675,1.68609375,1.0,2635.185794911028,0.5322980909082821,1.2831686287989144,0.9819417409030988,0.2838689375,0.7443097183167815
0.068,1.6844000000000001,1.0,2633.080211452663,0.5349215465305223,1.2824231917786362,0.9820790362142844,0.2837978,0.7456541477856113
0.0685,1.68269375,1.0,2630.986136881343,0.5375302858052939,1.2816720108362294,0.9822132277189174,0.2837261375,0.7470053517585302
0.069,1.680975,1.0,2628.9037047618153,0.5401243896568091,1.2809150846166981,0.9823443951580471,0.28365395,0.7483632501109482
0.0695,1.67924375,1.0,2626.8330484930107,0.5427039390092798,1.280152411765047,0.9824726155579157,0.28358123749999997,0.7497277620606748
0.07,1.6775,1.0,2624.774301311358,0.545269014786918,1.2793839909262807,0.9825979633394449,0.283508,0.7510988061674231
0.07050000000000001,1.67574375,1.0,2622.7275962937606,0.5478196979139359,1.2786098207454037,0.9827205104225729,0.2834342375,0.752476300332315
0.07100000000000001,1.673975,1.0,2620.6930663604776,0.5503560693145455,1.2778298998674207,0.9828403263257255,0.28335995,0.753860161797382
0.07150000000000001,1.67219375,1.0,2618.6708442785657,0.5528782099129589,1.277044226937336,0.9829574782606761,0.2832851375,0.7552503071450696
0.07200000000000001,1.6704,1.0,2616.6610626650677,0.555386200633388,1.2762528006001543,0.9830720312230378,0.2832098,0.7566466522977404
0.0725,1.66859375,1.0,2614.663853990053,0.5578801224000448,1.27545561950088,0.9831840480786138,0.2831339375,0.7580491125171762
0.073,1.6667750000000001,1.0,2612.67935058005,0.5603600561371416,1.2746526822845177,0.9832935896458256,0.28305755,0.759457602404081
0.0735,1.66494375,1.0,2610.707684621264,0.5628260827688903,1.2738439875960719,0.9834007147744168,0.2829806375,0.7608720358975843
0.074,1.6631,1.0,2608.7470342604884,0.5652782817664517,1.2730295522471688,0.9835054811417727,0.2829032,0.7622922946419339
0.0745,1.6612437500000001,1.0,2606.7981520894955,0.5677167270050626,1.2722093691302059,0.9836079432195539,0.2828252375,0.7637183015233907
0.075,1.659375,1.0,2604.8619398395667,0.5701414946172093,1.2713834297398987,0.9837081538139758,0.28274675,0.7651499810669945
0.0755,1.65749375,1.0,2602.937340650223,0.5725526609650825,1.2705517437895768,0.9838061648671841,0.2826677375,0.7665872255498061
