Time [s],Phi [rad],STIM [ ],Fsee [N],Gamma [ ],Lcerel [ ],q [ ],Lmtc [m],fisomrel [ ]
0.0,1.8,1.0,17.975579441546632,9.16521897542029e-05,1.3793388028659301,0.005002199972882502,0.288653,0.541141813266081
0.0005,1.79999375,1.0,18.31193950483441,0.00570034740226784,1.3792984801505517,0.013168749889774432,0.2886527375,0.5412393589141631
0.001,1.799975,1.0,21.714242309188453,0.011277582269166047,1.3789285221785081,0.036035323165575686,0.28865195,0.5421338491059052
0.0015,1.79994375,1.0,31.29485232320214,0.016823533259037526,1.3780270167629483,0.07118504574549837,0.2886506375,0.5443098679761023
0.002,1.7999,1.0,54.066733551505266,0.022338375848708708,1.376336780521557,0.11540818506872524,0.2886488,0.5483757258503491
0.0025,1.79984375,1.0,97.93140437112618,0.027822284531343125,1.3738960979674144,0.16532540443822405,0.28864643749999996,0.5542146298620589
0.003,1.7997750000000001,1.0,162.01433831033287,0.03327543282341767,1.3711748748928525,0.21805453262756372,0.28864354999999997,0.5606798859957758
0.0035,1.79969375,1.0,238.87611846185237,0.038697993264915444,1.3685480392205955,0.2713826722666358,0.2886401375,0.5668760930696887
0.004,1.7996,1.0,322.73543921402927,0.044090137429935276,1.3661225233173313,0.3236610771643889,0.2886362,0.5725583479583871
0.0045000000000000005,1.7994937500000001,1.0,410.58125353059313,0.049452035931927846,1.3638920059497661,0.37374191086586483,0.2886317375,0.5777506632839776
0.005,1.799375,1.0,500.7535781420294,0.05478385841522617,1.3618298849632404,0.4209092497021711,0.28862675,0.5825227498325517
0.0055,1.79924375,1.0,592.142075111652,0.06008577359807585,1.3599124420064381,0.4647863883511834,0.2886212375,0.5869356954367421
0.006,1.7991000000000001,1.0,683.870982719978,0.06535794922639324,1.3581218352661772,0.5052430065658857,0.2886152,0.5910355583724012
0.006500000000000001,1.79894375,1.0,775.2261559814192,0.07060055211957515,1.3564443052898785,0.5423155613265978,0.2886086375,0.5948579630944386
0.007,1.798775,1.0,865.6000662466311,0.07581374789912615,1.3548691736305067,0.5761460652081679,0.28860155,0.5984307066543408
0.0075,1.79859375,1.0,954.55114023843,0.08099770232360455,1.3533866688514986,0.6069365826328866,0.2885939375,0.6017788975702847
0.008,1.7984,1.0,1041.6458011177178,0.08615257870951414,1.3519896986203517,0.634919677123212,0.2885858,0.604921084391435
0.0085,1.79819375,1.0,1126.5655880790196,0.09127854000716315,1.3506715317557234,0.6603365992162197,0.2885771375,0.6078746071941794
0.009000000000000001,1.797975,1.0,1209.095424733902,0.09637574880197841,1.349425707498167,0.6834243945542117,0.28856795,0.6106558512098388
0.0095,1.79774375,1.0,1289.0525882819302,0.1014443664733308,1.3482467722961367,0.7044086915745804,0.2885582375,0.6132786530144221
0.01,1.7975,1.0,1366.297830097609,0.10648455305099681,1.3471298546971493,0.7234993272969419,0.288548,0.6157553060520919
0.0105,1.79724375,1.0,1440.747058067664,0.11149646788126416,1.346070337323179,0.7408883868684206,0.2885372375,0.6180973266103988
0.011,1.796975,1.0,1512.3717737627019,0.11648027052863001,1.3450637350440957,0.7567498443158173,0.28852595000000003,0.6203157485887058
0.0115,1.79669375,1.0,1581.1322436929356,0.12143611782987421,1.3441064042748174,0.7712404688573885,0.2885141375,0.6224195871717344
0.012,1.7964,1.0,1647.0299426889517,0.12636416635742184,1.3431947786415792,0.7845005158284509,0.28850180000000003,0.6244175507434868
0.0125,1.79609375,1.0,1710.0948694407055,0.13126457209001036,1.342325458201649,0.79665510082367,0.2884889375,0.6263178592698694
0.013000000000000001,1.7957750000000001,1.0,1770.3853167142784,0.1361374911779326,1.3414951535033701,0.8078155924410823,0.28847555,0.628128380528411
0.0135,1.79544375,1.0,1827.943022740737,0.14098307728864287,1.3407011362266297,0.8180811863303569,0.2884616375,0.6298556625442715
0.014,1.7951000000000001,1.0,1882.8156276391946,0.14580148303413376,1.3399409178388264,0.8275400900193038,0.2884472,0.6315056517184192
0.0145,1.79474375,1.0,1935.0749207851943,0.15059286102639785,1.3392120098073585,0.836270669225464,0.2884322375,0.6330842232221061
0.015,1.794375,1.0,1984.7946221432433,0.15535736285052457,1.338512137968848,0.8443426552439676,0.28841675,0.6345967233665804
0.0155,1.79399375,1.0,2032.0789070040607,0.16009514064393496,1.3378389087288582,0.8518180432444793,0.2884007375,0.6360486981788718
0.016,1.7936,1.0,2076.995055769614,0.16480634330886376,1.3371904997231487,0.8587522223532823,0.2883842,0.6374444097463432
0.0165,1.7931937500000001,1.0,2119.6164082243063,0.1694911193160846,1.3365651708288318,0.8651946013895792,0.2883671375,0.6387879010999977
0.017,1.792775,1.0,2160.0288399097617,0.174149617136371,1.3359611819230186,0.8711892926156649,0.28834955,0.6400831767885472
0.0175,1.7923437500000001,1.0,2198.3136776652095,0.17878198404459816,1.3353769550365504,0.8767757822285713,0.2883314375,0.6413338585153433
0.018000000000000002,1.7919,1.0,2234.5753748212715,0.18338836825748858,1.3348107796025375,0.8819893937342622,0.2883128,0.6425438197128224
0.0185,1.79144375,1.0,2268.8859852556593,0.1879689144732079,1.3342613624780977,0.8868619159300236,0.2882936375,0.6437160126093298
0.019,1.790975,1.0,2301.3186184758724,0.19252376689417813,1.3337274734086835,0.8914219193881664,0.28827395,0.6448532317992872
0.0195,1.79049375,1.0,2331.9530000910167,0.19705306972282108,1.3332078821397477,0.8956951098780371,0.2882537375,0.6459582502549235
0.02,1.79,1.0,2360.867539621668,0.2015569661257188,1.332701430461654,0.899704669753036,0.288233,0.6470336676300039
0.0205,1.78949375,1.0,2388.148217724216,0.2060356002428609,1.332206938660683,0.9034715207836402,0.2882117375,0.6480821106686774
0.021,1.788975,1.0,2413.8667021393603,0.21048911370033896,1.3317234130979367,0.9070146183093062,0.28818995000000003,0.6491057946513253
0.021500000000000002,1.78844375,1.0,2438.0854152157603,0.21491764616627265,1.3312499885533309,0.9103511530856674,0.2881676375,0.6501066488629406
0.022,1.7879,1.0,2460.870282303962,0.21932133730878173,1.3307857998067816,0.9134967159544425,0.2881448,0.6510865900707521
0.0225,1.78734375,1.0,2482.290437992634,0.22370032679598598,1.3303299816382042,0.9164654688724005,0.28812143749999997,0.6520475230577287
0.023,1.786775,1.0,2502.410201496103,0.22805475236765585,1.3298817423747518,0.9192703087631194,0.28809755,0.6529911863769067
0.0235,1.78619375,1.0,2521.2998449726474,0.23238475460888985,1.3294402582048406,0.9219229816923448,0.28807313749999996,0.6539193758734949
0.024,1.7856,1.0,2539.0167857641454,0.23669047062831342,1.3290048488699697,0.9244342296856417,0.2880482,0.6548335759567869
0.0245,1.78499375,1.0,2555.611251600649,0.24097203499797126,1.3285749200525288,0.9268138818926863,0.2880227375,0.6557350826290635
0.025,1.784375,1.0,2571.1351466070773,0.24522958228990802,1.328149877434907,0.9290709318881295,0.28799675,0.6566251847559169
0.025500000000000002,1.78374375,1.0,2585.641908616695,0.24946324707616835,1.3277291266994937,0.9312136201151655,0.2879702375,0.6575051642627143
0.026000000000000002,1.7831000000000001,1.0,2599.1863743159342,0.25367316392879696,1.3273120735286785,0.9332495071893899,0.2879432,0.6583762963085362
0.0265,1.78244375,1.0,2611.8142080176667,0.2578594645113942,1.3268982206538569,0.9351855533042693,0.2879156375,0.6592396471088722
0.027,1.781775,1.0,2623.577974259898,0.2620222846914703,1.3264870166467901,0.9370281543762272,0.28788755,0.6600963901820107
0.0275,1.7810937500000001,1.0,2634.5261045759557,0.26616175787868346,1.3260779576853539,0.9387832074158251,0.2878589375,0.6609475941063412
0.028,1.7804,1.0,2644.6937974881025,0.27027801281033526,1.3256706702207106,0.940456167691239,0.2878298,0.6617940515242129
0.0285,1.77969375,1.0,2654.116941333991,0.2743711782237275,1.3252647807040234,0.9420520715835717,0.2878001375,0.6626365511274348
0.029,1.778975,1.0,2662.8320543878126,0.27844138285616166,1.3248599155864553,0.9435755742034928,0.28776995,0.6634758776950291
0.029500000000000002,1.7782437500000001,1.0,2670.876228075034,0.28248875544493957,1.324455701319169,0.9450309831783363,0.2877392375,0.6643128121220863
0.03,1.7775,1.0,2678.2870732810793,0.2865134247273628,1.3240517643533272,0.9464222890412104,0.287708,0.6651481314397185
0.0305,1.77674375,1.0,2685.1020559032995,0.29051551902714384,1.323647736765703,0.9477531931958008,0.2876762375,0.6659825972144078
0.031,1.775975,1.0,2691.3506129300667,0.29449516178190427,1.3232433279590374,0.9490271402365198,0.28764395,0.6668168078123922
0.0315,1.7751937500000001,1.0,2697.0731946504666,0.2984524865978399,1.3228381497270099,0.9502473223262484,0.2876111375,0.6676515595690076
0.032,1.7744,1.0,2702.29315694143,0.3023876160662375,1.3224319731959082,0.9514167251193436,0.2875778,0.6684873171587791
0.0325,1.77359375,1.0,2707.034100978138,0.3063006727783835,1.3220245694920203,0.9525381286900101,0.2875439375,0.6693245428682366
0.033,1.772775,1.0,2711.319850233981,0.31019177932556463,1.3216157097416341,0.9536141241818425,0.28750955,0.6701636965796713
0.0335,1.7719437500000002,1.0,2715.1744286425173,0.3140610582990674,1.321205165071038,0.9546471289188336,0.2874746375,0.6710052357515539
0.034,1.7711000000000001,1.0,2718.6220399204935,0.3179086322901784,1.3207927066065195,0.955639400136373,0.2874392,0.6718496153956107
0.0345,1.7702437500000001,1.0,2721.6870480525977,0.32173462389018426,1.3203781054743673,0.9565930474728643,0.2874032375,0.6726972880505586
0.035,1.7693750000000001,1.0,2724.3909369717976,0.3255391527829171,1.319961160295128,0.9575100465832947,0.28736675,0.6735486476485824
0.035500000000000004,1.76849375,1.0,2726.751424581611,0.32932233526795485,1.3195417050248288,0.9583922500484438,0.2873297375,0.6744040138706164
0.036000000000000004,1.7676,1.0,2728.8025676551183,0.3330843056070208,1.3191194259894314,0.9592413826696434,0.2872922,0.6752640049622953
0.0365,1.76669375,1.0,2730.5583063922545,0.33682517930838723,1.318694193321486,0.9600590762964119,0.2872541375,0.6761288620636714
0.037,1.765775,1.0,2732.0326491455485,0.34054507188032673,1.318265877153543,0.9608468624175818,0.28721555,0.6769988247438965
0.0375,1.76484375,1.0,2733.239664857415,0.3442440988311116,1.3178343476181527,0.9616061794526539,0.2871764375,0.6778741309762223
0.038,1.7639,1.0,2734.1934758710536,0.34792237566901424,1.3173994748478657,0.9623383794358246,0.28713679999999997,0.6787550171119231
0.0385,1.76294375,1.0,2734.9082511157067,0.35158001790230703,1.316961128975232,0.9630447341493872,0.28709663750000003,0.6796417178531451
0.039,1.761975,1.0,2735.3981996648677,0.3552171410392624,1.3165191801328022,0.9637264407573645,0.28705595,0.6805344662246771
0.0395,1.7609937500000001,1.0,2735.6775646700057,0.3588338605881527,1.3160734984531268,0.9643846269850568,0.2870147375,0.6814334935446469
0.04,1.76,1.0,2735.7606176667036,0.3624302920572503,1.3156239540687558,0.9650203558855833,0.286973,0.6823390293941454
0.0405,1.7589937500000001,1.0,2735.661653255664,0.3660065509548277,1.3151704171122398,0.9656346302303931,0.2869307375,0.6832513015857679
0.041,1.757975,1.0,2735.391080443329,0.3695627462317027,1.3147127931611706,0.9662283984753296,0.28688795,0.6841704649894587
0.0415,1.75694375,1.0,2734.9607141170677,0.37309899426539006,1.3142509751610387,0.9668025566937393,0.2868446375,0.6850966983747967
0.042,1.7559,1.0,2734.383826435026,0.3766154137860225,1.313784842923118,0.9673579510644346,0.28680079999999997,0.6860302052031702
0.0425,1.75484375,1.0,2733.668144501673,0.38011211292506786,1.3133143266856884,0.9678953842496604,0.2867564375,0.6869710863950693
0.043000000000000003,1.753775,1.0,2732.8214023800547,0.3835891998139939,1.3128393566870298,0.9684156158282179,0.28671155,0.6879194416697876
0.043500000000000004,1.75269375,1.0,2731.851339195704,0.3870467825842686,1.3123598631654225,0.9689193650378365,0.28666613750000003,0.6888753695257606
0.044,1.7516,1.0,2730.76569734707,0.3904849693673597,1.3118757763591462,0.9694073133165118,0.2866202,0.6898389672205989
0.0445,1.75049375,1.0,2729.572220825259,0.3939038682947351,1.311387026506481,0.9698801066594086,0.2865737375,0.6908103307508038
0.045,1.7493750000000001,1.0,2728.2786536408344,0.39730358749786265,1.310893543845707,0.9703383578063963,0.28652675,0.6917895548311781
0.0455,1.74824375,1.0,2726.8927383583064,0.4006842351082102,1.310395258615104,0.9707826482739293,0.2864792375,0.6927767328739245
0.046,1.7471,1.0,2725.4222147395876,0.40404591925724553,1.309892101052952,0.9712135302437527,0.2864312,0.6937719569674329
0.0465,1.7459437500000001,1.0,2723.8748184942942,0.4073887480764366,1.309384001397531,0.9716315283198034,0.28638263750000004,0.6947753178547592
0.047,1.744775,1.0,2722.2521013824417,0.4107128120421649,1.3088709461243588,0.9720371429114764,0.28633355,0.6957867941334293
0.0475,1.74359375,1.0,2720.5650101176743,0.41401823626823436,1.308352836185237,0.9724308483453857,0.28628393750000003,0.696806531940435
0.048,1.7424,1.0,2718.8198462135947,0.4173051300648646,1.3078296147387252,0.9728130968549471,0.2862338,0.6978345927608676
0.0485,1.74119375,1.0,2717.020056712842,0.4205735936963469,1.3073012508945272,0.9731843196333771,0.2861831375,0.6988709859651111
0.049,1.739975,1.0,2715.1690859186147,0.42382372742697255,1.3067677137623475,0.9735449273854123,0.28613195,0.6999157200032604
0.0495,1.73874375,1.0,2713.2703750616724,0.42705563152103276,1.30622897245189,0.9738953114846682,0.2860802375,0.7009688023949603
0.05,1.7375,1.0,2711.3273619873685,0.4302694062428189,1.305684996072859,0.9742358450554826,0.286028,0.7020302397191844
0.0505,1.73624375,1.0,2709.343480864276,0.4334651518566221,1.3051357537349584,0.9745668839847952,0.2859752375,0.7031000376039505
0.051000000000000004,1.734975,1.0,2707.3221619138985,0.4366429686267337,1.304581214547892,0.9748887678691844,0.28592195,0.7041782007159787
0.051500000000000004,1.73369375,1.0,2705.2668311615043,0.4398029568174449,1.3040213476213647,0.9752018209017481,0.2858681375,0.7052647327502849
0.052000000000000005,1.7324,1.0,2703.1809102081847,0.44294521669304704,1.30345612206508,0.9755063527031491,0.2858138,0.7063596364197171
0.0525,1.73109375,1.0,2701.067816024102,0.44606984851783127,1.3028855069887422,0.9758026591007954,0.28575893750000003,0.707462913444428
0.053,1.729775,1.0,2698.9309607626915,0.44917695255608897,1.3023094715020553,0.976091022859819,0.28570355000000003,0.7085745645412882
0.0535,1.72844375,1.0,2696.77375159616,0.45226662907211135,1.3017279847147236,0.9763717143692162,0.2856476375,0.7096945894132383
0.054,1.7271,1.0,2694.5993131209816,0.45533897303436605,1.3011410182746594,0.9766449919129849,0.2855912,0.7108229818638432
0.0545,1.7257437500000001,1.0,2692.4099287173844,0.458394061649114,1.3005485514847044,0.9769111014016657,0.2855342375,0.7119597200269324
0.055,1.724375,1.0,2690.209711057869,0.46143203028799756,1.29995054686688,0.9771702829168476,0.28547675,0.7131048132470015
0.0555,1.72299375,1.0,2687.9999188418496,0.46445297058549373,1.2993469930238049,0.9774227636992698,0.2854187375,0.7142582199222134
0.056,1.7216,1.0,2685.78180878942,0.46745697417607956,1.2987378785580979,0.9776687614837126,0.2853602,0.7154198976868852
0.0565,1.72019375,1.0,2683.556635619071,0.4704441326942321,1.2981231920723768,0.977908484972353,0.28530113749999997,0.7165898034074514
0.057,1.718775,1.0,2681.325652027313,0.4734145377744282,1.2975029221692609,0.9781421342808154,0.28524155,0.7177678931784142
0.0575,1.71734375,1.0,2679.0901086716317,0.47636828105114504,1.296877057451368,0.9783699013586993,0.2851814375,0.7189541223182947
0.058,1.7159,1.0,2676.851254156457,0.47930545415885956,1.296245586521317,0.9785919703862372,0.2851208,0.7201484453655642
0.0585,1.71444375,1.0,2674.610335022174,0.4822261487320488,1.2956084979817262,0.9788085181486196,0.2850596375,0.7213508160745785
0.059000000000000004,1.7129750000000001,1.0,2672.3685957360367,0.48513045640518976,1.2949657804352144,0.9790197143894064,0.28499795,0.7225611874114952
0.059500000000000004,1.71149375,1.0,2670.1272786873933,0.48801846881275945,1.2943174224843996,0.9792257221443539,0.2849357375,0.7237795115501895
0.06,1.71,1.0,2667.887624184429,0.4908902775892349,1.2936634127319004,0.9794266980568813,0.284873,0.7250057398681553
0.0605,1.7084937500000001,1.0,2665.6508704547896,0.4937459743690932,1.2930037397803358,0.9796227926763246,0.2848097375,0.7262398229424021
0.061,1.7069750000000001,1.0,2663.4182536485728,0.4965856507868112,1.2923383922323237,0.97981415074004,0.28474595,0.7274817105453446
0.0615,1.7054437500000001,1.0,2661.191007844099,0.49940939847686605,1.2916673586904828,0.9800009114403504,0.2846816375,0.7287313516406801
0.062,1.7039,1.0,2658.9703650574706,0.5022173090737347,1.2909906277574317,0.980183208677255,0.2846168,0.7299886943792597
0.0625,1.70234375,1.0,2656.7567363603303,0.5050094621784281,1.2903081955804314,0.9803611707759243,0.2845514375,0.7312536721263838
0.063,1.7007750000000001,1.0,2654.548286878537,0.507785911144366,1.289620079001503,0.980534920375107,0.28448555,0.732526179334066
0.0635,1.69919375,1.0,2652.3499502263594,0.5105468117721894,1.2889262324794246,0.9807045799880504,0.28441913750000003,0.7338062250805022
0.064,1.6976,1.0,2650.161843068682,0.5132922461055549,1.2882266548325725,0.9808702643883529,0.2843522,0.735093735472019
0.0645,1.69599375,1.0,2647.9840819079086,0.5160222961881187,1.2875213448793232,0.9810320841595993,0.2842847375,0.7363886359655143
0.065,1.694375,1.0,2645.816783085873,0.5187370440635373,1.2868103014380536,0.9811901458771587,0.28421675,0.7376908513680256
0.0655,1.69274375,1.0,2643.6600627860403,0.521436571775467,1.2860935233271404,0.9813445522808174,0.2841482375,0.7390003058362977
0.066,1.6911,1.0,2641.5140370361623,0.5241209613675641,1.28537100936496,0.9814954024387673,0.2840792,0.7403169228763519
0.0665,1.6894437500000001,1.0,2639.3788217104725,0.526790294883485,1.2846427583698892,0.9816427919034472,0.2840096375,0.7416406253430514
0.067,1.687775,1.0,2637.254532531918,0.5294446543668861,1.2839087691603046,0.981786812859688,0.28393955,0.7429713354396712
0.0675,1.68609375,1.0,2635.141285074937,0.5320841218614238,1.2831690405545828,0.9819275542656002,0.2838689375,0.744308974717465
0.068,1.6844000000000001,1.0,2633.0391947676544,0.5347087794107545,1.2824235713711005,0.9820651019866038,0.2837978,0.7456534640752324
0.0685,1.68269375,1.0,2630.9483768943646,0.5373187090585344,1.2816723604282345,0.9821995389229791,0.2837261375,0.7470047237588864
0.069,1.680975,1.0,2628.868946598241,0.5399139928484199,1.280915406544361,0.9823309451312957,0.28365395,0.7483626733610215
0.0695,1.67924375,1.0,2626.80101888356,0.5424947128240674,1.2801527085378572,0.9824593979400529,0.28358123749999997,0.7497272318204797
0.07,1.6775,1.0,2624.744708618666,0.5450609510291333,1.2793842652270995,0.9825849720598423,0.283508,0.7510983174219188
0.07050000000000001,1.67574375,1.0,2622.7001305383187,0.5476127895072739,1.2786100754304643,0.982707739688331,0.2834342375,0.7524758477953795
0.07100000000000001,1.673975,1.0,2620.6673992462706,0.5501503103021456,1.2778301379663288,0.9828277706103392,0.28335995,0.7538597399158504
0.07150000000000001,1.67219375,1.0,2618.646629218289,0.5526735954574047,1.277044451653069,0.9829451322932728,0.2832851375,0.755249910102839
0.07200000000000001,1.6704,1.0,2616.6379348044743,0.5551827270167077,1.276253015309062,0.9830598899781583,0.2832098,0.7566462740199333
0.0725,1.66859375,1.0,2614.641430232212,0.5576777870237107,1.2754558277526844,0.9831721067665056,0.2831339375,0.7580487466743733
0.073,1.6667750000000001,1.0,2612.6572296088434,0.5601588575220704,1.2746528878023127,0.9832818437032202,0.28305755,0.7594572424166144
0.0735,1.66494375,1.0,2610.68347840462,0.5626259760395422,1.2738442125720646,0.9833891580964049,0.2829806375,0.7608716429872
0.074,1.6631,1.0,2608.721319291585,0.5650792569302674,1.2730297913355477,0.9834941086051853,0.2829032,0.7622918783267452
0.0745,1.6612437500000001,1.0,2606.7715200850507,0.567518798067751,1.2722096168374113,0.9835967512081418,0.2828252375,0.7637178714962682
0.075,1.659375,1.0,2604.8338145314733,0.5699446720279301,1.271383691433729,0.9836971390949136,0.28274675,0.7651495281371253
