Time [s],Phi [rad],STIM [ ],Fsee [N],Gamma [ ],Lcerel [ ],q [ ],Lmtc [m],fisomrel [ ]
0.0,1.8,1.0,17.96565366286747,1.0626357377317844e-05,1.3793399147780927,0.005000030080629084,0.288653,0.5411391232657824
0.0005,1.79999375,1.0,18.275335657631693,0.0056197760607113335,1.3793025442481672,0.012942256540921356,0.2886527375,0.5412295278280203
0.001,1.799975,1.0,21.617503579304813,0.0111974628691278,1.3789383917871894,0.03561185215618601,0.28865195,0.5421099975438093
0.0015,1.79994375,1.0,31.069266650295408,0.016743863265453997,1.3780462011180399,0.07060619304069929,0.2886506375,0.544263615498146
0.002,1.7999,1.0,53.58410373806484,0.022259152740861387,1.376368020369194,0.11472315298750346,0.2886488,0.5483007437607591
0.0025,1.79984375,1.0,97.12282626135122,0.027743505802440577,1.3739349798783673,0.16458045594750081,0.28864643749999996,0.5541219095132814
0.003,1.7997750000000001,1.0,160.96390437208126,0.03319709598090688,1.371214128996183,0.2172861894880451,0.28864354999999997,0.560586959290833
0.0035,1.79969375,1.0,237.69019847766856,0.03862009583019968,1.368584522714928,0.27061858974973807,0.2886401375,0.5667903367825533
0.004,1.7996,1.0,321.4743499146513,0.04401267693826283,1.3661558916698238,0.3229213196238707,0.2886362,0.5724804304702689
0.0045000000000000005,1.7994937500000001,1.0,409.2758183603505,0.04937500993222939,1.3639226247908676,0.37303974407037,0.2886317375,0.5776796019302469
0.005,1.799375,1.0,499.42190471964375,0.05470726446952104,1.3618581638365341,0.42025235904596075,0.28862675,0.5824574912782272
0.0055,1.79924375,1.0,590.7990235923947,0.06000960928523376,1.3599386668893594,0.4641782330416317,0.2886212375,0.5868754976974196
0.006,1.7991000000000001,1.0,682.5268443371028,0.06528221213547973,1.3581462559505146,0.5046841294778148,0.2886152,0.5909797810861878
0.006500000000000001,1.79894375,1.0,773.8745122734881,0.07052523963321057,1.3564673687691324,0.5418047387468713,0.2886086375,0.594805532534475
0.007,1.798775,1.0,864.3025592777432,0.07573885840300489,1.3548901244626168,0.5756801736290253,0.28860155,0.5983832894097844
0.0075,1.79859375,1.0,953.2661338659224,0.080923232685253,1.3534064266837365,0.6065129418215744,0.2885939375,0.6017343672788036
0.008,1.7984,1.0,1040.3685557426247,0.08607852649033051,1.3520084976258604,0.6345349172379227,0.2885858,0.6048788826504612
0.0085,1.79819375,1.0,1125.3282496253296,0.09120490332739484,1.3506890429975698,0.6599870012467598,0.2885771375,0.6078354436270685
0.009000000000000001,1.797975,1.0,1207.894196758785,0.09630252524165264,1.3494421168125006,0.6831066756742095,0.28856795,0.610619282517853
0.0095,1.79774375,1.0,1287.8796607510687,0.10137155334182367,1.3482622898073187,0.7041197833716154,0.2885582375,0.6132441884507756
0.01,1.7975,1.0,1365.1682425064191,0.10641214841281532,1.3471443699428913,0.7232362382243532,0.288548,0.6157231709724267
0.0105,1.79724375,1.0,1439.676004898374,0.11142447004569996,1.3460837398064638,0.740648398886191,0.2885372375,0.6180677456682777
0.011,1.796975,1.0,1511.3329720474517,0.11640867616341163,1.3450764222313434,0.7565307462738619,0.28852595000000003,0.6202878278699477
0.0115,1.79669375,1.0,1580.123080557181,0.12136492459923942,1.3441184583521153,0.7710401348914913,0.2885141375,0.6223931333589396
0.012,1.7964,1.0,1646.0651461297539,0.12629337249421954,1.3432060697347448,0.7843169556535549,0.28850180000000003,0.6243928370447369
0.0125,1.79609375,1.0,1709.1876308142007,0.13119417621482482,1.3423358779305656,0.7964865527592984,0.2884889375,0.6262951105915462
0.013000000000000001,1.7957750000000001,1.0,1769.511660855698,0.13606748999732415,1.34150501510515,0.8076606570309534,0.28847555,0.6281069026085182
0.0135,1.79544375,1.0,1827.089877063002,0.14091346807798635,1.3407106134240703,0.8179385666192385,0.2884616375,0.6298350698348014
0.014,1.7951000000000001,1.0,1881.9816490064661,0.14573226356064206,1.3399500460673597,0.8274085828166826,0.2884472,0.6314858615395409
0.0145,1.79474375,1.0,1934.2875730863273,0.1505240306241652,1.3392205104005301,0.8361490955850374,0.2884322375,0.6330658333023081
0.015,1.794375,1.0,1984.0633818586803,0.15528891971964248,1.3385199332127131,0.8442300343552505,0.28841675,0.6345798941889677
0.0155,1.79399375,1.0,2031.3768772023711,0.1600270809752256,1.3378463049545843,0.851713626012141,0.2884007375,0.6360327622083355
0.016,1.7936,1.0,2076.31216353418,0.16473866451906638,1.3371976160768193,0.8586552835083144,0.2883842,0.6374291062248405
0.0165,1.7931937500000001,1.0,2118.9535410344,0.16942381942585172,1.3365720086733757,0.8651044585428,0.2883671375,0.6387732237805139
0.017,1.792775,1.0,2159.4023240131114,0.1740826954451461,1.335967584004441,0.8711052910172523,0.28834955,0.6400694594968717
0.0175,1.7923437500000001,1.0,2197.7332874933636,0.17871543915138816,1.3353828338714633,0.8766973549658729,0.2883314375,0.6413212842613089
0.018000000000000002,1.7919,1.0,2234.0206610551236,0.18332219631266766,1.3348163525605692,0.8819161132158453,0.2883128,0.6425319198279229
0.0185,1.79144375,1.0,2268.3471953400795,0.18790311269707421,1.334266734357886,0.8867933698847801,0.2882936375,0.6437045609110793
0.019,1.790975,1.0,2300.796437607079,0.19245833319523878,1.3337326428617535,0.8913577108640139,0.28827395,0.6448422292363178
0.0195,1.79049375,1.0,2331.4577884986643,0.19698800330168292,1.3332127522785877,0.8956348591886608,0.2882537375,0.6459479008894405
0.02,1.79,1.0,2360.409202491297,0.2014922666015222,1.332705910251993,0.8996480361664951,0.288233,0.6470241622557169
0.0205,1.78949375,1.0,2387.715820930095,0.20597126430454957,1.3322111406879322,0.9034182405983927,0.2882117375,0.6480732079171649
0.021,1.788975,1.0,2413.447255814887,0.21042513762055795,1.3317274674923687,0.9069644565199906,0.28818995000000003,0.649097217191006
0.021500000000000002,1.78844375,1.0,2437.6772169265296,0.21485402775934032,1.3312539145712656,0.9103038741453073,0.2881676375,0.6500983548508057
0.022,1.7879,1.0,2460.4751324502586,0.2192580743012442,1.3307895826842806,0.9134520989106071,0.2881448,0.6510786096542076
0.0225,1.78734375,1.0,2481.916916411619,0.2236374189272446,1.33033354199169,0.9164233012210836,0.28812143749999997,0.6520400224337513
0.023,1.786775,1.0,2502.0658401031114,0.22799220046630042,1.3298850115449021,0.9192303997672053,0.28809755,0.652984308539604
0.0235,1.78619375,1.0,2520.9756305947776,0.23232255509528163,1.329443324552281,0.9218851843592728,0.28807313749999996,0.6539129333799122
0.024,1.7856,1.0,2538.7021498899226,0.2366286189910582,1.3290078142221904,0.9243984117848435,0.2880482,0.6548273538926552
0.0245,1.78499375,1.0,2555.3032152246246,0.24091052833050014,1.3285778137629944,0.9267799105506684,0.2880227375,0.6557290188224839
0.025,1.784375,1.0,2570.838429225476,0.2451684192904774,1.3281526563830566,0.9290386737354398,0.28799675,0.6566193689692079
0.025500000000000002,1.78374375,1.0,2585.35676467259,0.24940242485542252,1.3277317897494614,0.9311829590975669,0.2879702375,0.6574995981747922
0.026000000000000002,1.7831000000000001,1.0,2598.921453070916,0.25361268347138155,1.327314541252318,0.9332203258151058,0.2879432,0.6583711450407674
0.0265,1.78244375,1.0,2611.5783732948244,0.2577993280174223,1.3269004121150798,0.9351577438080564,0.2879156375,0.659235078313109
0.027,1.781775,1.0,2623.366665013989,0.26196248906255143,1.3264889757965497,0.9370016345085928,0.28788755,0.6600923108524235
0.0275,1.7810937500000001,1.0,2634.3263604108975,0.26610229717577577,1.32607980575553,0.938757911905142,0.2878589375,0.6609437508878693
0.028,1.7804,1.0,2644.4983073453227,0.270218882926102,1.3256724754508231,0.9404320293525401,0.2878298,0.6617903020846079
0.0285,1.77969375,1.0,2653.924096552081,0.27431237688253696,1.3252665583412317,0.9420290214973845,0.2878001375,0.6626328635996496
0.029,1.778975,1.0,2662.6459928729296,0.2783829096140873,1.324861627885558,0.9435535418814187,0.28776995,0.6634723301261009
0.029500000000000002,1.7782437500000001,1.0,2670.6740940327572,0.28243060709933954,1.324457558730861,0.9450099363260469,0.2877392375,0.6643089686939093
0.03,1.7775,1.0,2678.100641284895,0.28645560357463684,1.3240534751044082,0.9464021325110346,0.287708,0.6651445958952702
0.0305,1.77674375,1.0,2684.9556391901738,0.29045802563657463,1.323649078614414,0.947733847026901,0.2876762375,0.6659798275256407
0.031,1.775975,1.0,2691.2527401916823,0.29443799784970204,1.3232442238763455,0.9490085489702147,0.28764395,0.6668149608755708
0.0315,1.7751937500000001,1.0,2697.005853441105,0.2983956447785682,1.3228387655056695,0.950229461814454,0.2876111375,0.6676502917307888
0.032,1.7744,1.0,2702.229128313504,0.3023310909877224,1.3224325581178529,0.9513995838352213,0.2875778,0.668486114367275
0.0325,1.7735969156775828,1.0,2707.0935741790236,0.30624446104171366,1.3220254563283622,0.952521706601231,0.2875440704584585,0.669322721544994
0.033,1.7727933118531416,1.0,2712.0506916852855,0.31013587950509114,1.3216173147526646,0.9535984317349298,0.2875103190978319,0.6701604045002725
0.0335,1.7719897080287004,1.0,2717.1432123773884,0.3140054703740426,1.321207980913767,0.9546321851548166,0.2874765677372054,0.6709994674658839
0.034,1.771186104204259,1.0,2722.354227024386,0.31785335370417506,1.320797612061728,0.955625265641678,0.28744281637657887,0.6718395793861387
0.0345,1.7703825003798177,1.0,2727.638082867585,0.3216796576661196,1.320386626273027,0.9565798517782523,0.2874090650159523,0.6726798778870782
0.035,1.7695788965553765,1.0,2732.9853279682698,0.32548450089065045,1.3199751111991043,0.9574979423745137,0.2873753136553258,0.6735201792510233
0.035500000000000004,1.768775292730935,1.0,2738.3864746967556,0.3292680020085417,1.3195631544914006,0.9583814083988886,0.28734156229469926,0.6743603006744427
0.036000000000000004,1.7679716889064938,1.0,2743.8319987893924,0.33303027965056764,1.3191508438013566,0.9592320026281017,0.28730781093407276,0.6752000602706699
0.0365,1.7671680850820526,1.0,2749.31233857502,0.33677145244750234,1.3187382667804133,0.9600513684640732,0.2872740595734462,0.676039277072124
0.037,1.7663644812576114,1.0,2754.817894372845,0.34049163903012025,1.318325511080011,0.9608410479982777,0.28724030821281965,0.6768777710320466
0.0375,1.76556087743317,1.0,2760.339028059438,0.34419095802919536,1.3179126643515906,0.961602489395436,0.28720655685219315,0.6777153630257426
0.038,1.7647572736087287,1.0,2765.869340790637,0.3478695235235359,1.3174997846474943,0.962337049872614,0.2871728054915666,0.6785519347856976
0.0385,1.7639536697842875,1.0,2771.4008149233555,0.35152745511343886,1.3170869443908546,0.9630460084752702,0.2871390541309401,0.6793873395946144
0.039,1.763150065959846,1.0,2776.9244602767963,0.3551648743708702,1.3166742244801184,0.9637305702340524,0.28710530277031354,0.6802214143811084
0.0395,1.7623464621354048,1.0,2782.437446489173,0.35878189352067946,1.3162616500373912,0.9643918632692582,0.287071551409687,0.6810541094248301
0.04,1.7615428583109636,1.0,2787.936932261456,0.3623786247877165,1.3158492461847786,0.9650309510196317,0.2870378000490605,0.6818853752694742
0.0405,1.7607392544865221,1.0,2793.4200654448628,0.36595518039683084,1.315437038044386,0.9656488366398387,0.28700404868843393,0.6827151627225272
0.041,1.759935650662081,1.0,2798.883983143536,0.3695116725728723,1.3150250507383188,0.9662464670545059,0.2869702973278074,0.6835434228549735
0.0415,1.7591320468376397,1.0,2804.3258118300514,0.37304821354069057,1.3146133093886827,0.9668247366989597,0.2869365459671809,0.6843701070009599
0.042,1.7583284430131982,1.0,2809.742667475586,0.37656491552513527,1.3142018391175831,0.967384490973877,0.2869027946065543,0.6851951667574248
0.0425,1.757524839188757,1.0,2815.1316556939114,0.3800618907510561,1.3137906650471254,0.9679265294384507,0.28686904324592777,0.6860185539836823
0.043000000000000003,1.7567212353643158,1.0,2820.4898718995096,0.3835392514433028,1.3133798122994151,0.9684516087643319,0.28683529188530127,0.6868402208009673
0.043500000000000004,1.7559176315398746,1.0,2825.818266056961,0.3869970909447129,1.3129692714728474,0.9689604397870478,0.2868015405246747,0.6876601885004948
0.044,1.7551140277154331,1.0,2831.1120538908904,0.39043554112742496,1.3125590843852915,0.9694537060262353,0.2867677891640482,0.6884783761741973
0.0445,1.754310423890992,1.0,2836.3695618040488,0.3938547152163468,1.3121492649680626,0.9699320504359699,0.28673403780342166,0.6892947588644714
0.045,1.7535068200665507,1.0,2841.5907205444028,0.3972547174921405,1.311739812816289,0.9703960805333012,0.2867002864427951,0.6901093402591363
0.0455,1.7527032162421092,1.0,2846.7754619249085,0.40063565223546793,1.311330727525098,0.9708463729879833,0.2866665350821686,0.6909221240392001
0.046,1.751899612417668,1.0,2851.9237188197803,0.40399762372699133,1.3109220086896185,0.9712834754875657,0.28663278372154205,0.6917331138788674
0.0465,1.7510960085932268,1.0,2857.0354251619706,0.40734073624737266,1.310513655904978,0.9717079084724455,0.28659903236091555,0.6925423134455515
0.047,1.7502924047687853,1.0,2862.1105159391445,0.410665094077274,1.3101056687663044,0.9721201667511022,0.286565281000289,0.6933497263998823
0.0475,1.7494888009443441,1.0,2867.1489271909986,0.41397080149735727,1.3096980468687258,0.9725207210048558,0.28653152963966244,0.6941553563957159
0.048,1.748685197119903,1.0,2872.150596005546,0.4172579627882846,1.3092907898073707,0.9729100191906677,0.2864977782790359,0.694959207080143
0.0485,1.7478815932954617,1.0,2877.1154605161737,0.420526682230718,1.3088838971773664,0.9732884878497874,0.2864640269184094,0.6957612820935017
0.049,1.7470779894710202,1.0,2882.0434598979346,0.42377706410531957,1.3084773685738413,0.9736565333293764,0.28643027555778283,0.6965615850693828
0.0495,1.746274385646579,1.0,2886.9345343648806,0.42700921269275127,1.3080712035919233,0.9740145429236466,0.28639652419715633,0.6973601196346421
0.05,1.7454707818221378,1.0,2891.7886251660566,0.43022323227367515,1.3076654018267404,0.9743628859405,0.2863627728365298,0.6981568894094081
0.0505,1.7446671779976963,1.0,2896.605711984955,0.43341922350896606,1.3072599625434038,0.9747019142672554,0.2863290214759032,0.6989518986537822
0.051000000000000004,1.743863574173255,1.0,2901.3866781695933,0.43659725032626445,1.3068548770502357,0.9750319591730793,0.2862952701152767,0.6997451671890457
0.051500000000000004,1.7430599703488139,1.0,2906.1316867363666,0.4397574727946456,1.306450143037093,0.9753533480013477,0.28626151875465017,0.7005367022721469
0.052000000000000005,1.7422563665243724,1.0,2910.841268937465,0.44289998565201816,1.306045754967453,0.9756663860691935,0.28622776739402367,0.7013265174311281
0.0525,1.7414527626999312,1.0,2915.5159588654974,0.4460248836362909,1.305641707304793,0.9759713651982783,0.2861940160333971,0.7021146261346022
0.053,1.74064915887549,1.0,2920.156293412042,0.44913226148537244,1.3052379945125911,0.9762685644280038,0.28616026467277056,0.7029010417918731
0.0535,1.7398455550510485,1.0,2924.7628122258275,0.45222221393717155,1.3048346110543247,0.9765582506851073,0.286126513312144,0.7036857777530566
0.054,1.7390419512266073,1.0,2929.3360576721716,0.45529483572959684,1.3044315513934714,0.9768406794126676,0.2860927619515175,0.7044688473091969
0.0545,1.738238347402166,1.0,2933.8765747926195,0.4583502216005571,1.3040288099935087,0.9771160951613009,0.286059010590891,0.7052502636923821
0.055,1.7374347435777249,1.0,2938.3849112657776,0.461388466287961,1.303626381317914,0.9773847321451206,0.28602525923026445,0.7060300400758566
0.0555,1.7366311397532834,1.0,2942.861617368549,0.46440966452971716,1.303224259830165,0.9776468147648385,0.2859915078696379,0.7068081895741344
0.056,1.7358275359288422,1.0,2947.3072459380887,0.4674139110637343,1.3028224399937396,0.9779025581002089,0.28595775650901134,0.7075847252431058
0.0565,1.735023932104401,1.0,2951.7223523343973,0.47040130062792124,1.3024209162721148,0.9781521683738459,0.28592400514838484,0.7083596600801485
0.057,1.7342203282799595,1.0,2956.107494403431,0.4733719279601865,1.3020196831287685,0.9783958433883035,0.2858902537877583,0.7091330070242292
0.0575,1.7334167244555183,1.0,2960.4632324416016,0.4763258877984389,1.3016187350271782,0.9786337729381611,0.2858565024271318,0.7099047789560105
0.058,1.732613120631077,1.0,2964.7901291598687,0.47926327488058706,1.3012180664308215,0.9788661391987383,0.28582275106650523,0.7106749886979502
0.0585,1.7318095168066356,1.0,2969.088749649532,0.48218418394453966,1.3008176718031759,0.9790931170929362,0.2857889997058787,0.7114436490144029
0.059000000000000004,1.7310059129821944,1.0,2973.359661348126,0.4850887097282055,1.300417545607719,0.9793148746376034,0.2857552483452522,0.712210772611716
0.059500000000000004,1.7302023091577532,1.0,2977.6034340058877,0.48797694696949323,1.3000176823079284,0.9795315732707236,0.2857214969846256,0.7129763721383258
0.06,1.729398705333312,1.0,2981.8199875176283,0.4908489562061131,1.2996180820386098,0.9797433657081154,0.2856877456239991,0.7137404493479109
0.0605,1.7285951015088705,1.0,2986.0098677916126,0.49370482311240066,1.2992187394978514,0.9799504005559089,0.28565399426337257,0.7145030163689954
0.061,1.7277914976844293,1.0,2990.1748372291836,0.49654470045274535,1.2988196388380109,0.9801528254419929,0.285620242902746,0.7152641053721962
0.0615,1.726987893859988,1.0,2994.3152852221147,0.49936867223330933,1.2984207761746045,0.9803507776245196,0.2855864915421195,0.7160237255974062
0.062,1.7261842900355466,1.0,2998.4316027811565,0.502176822460255,1.2980221476231484,0.9805443892201523,0.28555274018149296,0.7167818862438978
0.0625,1.7253806862111054,1.0,3002.5241825161183,0.5049692351397443,1.2976237492991587,0.980733787435403,0.2855189888208664,0.7175385964703812
0.063,1.7245770823866642,1.0,3006.5934186156346,0.5077459942779399,1.297225577318152,0.9809190947858918,0.2854852374602399,0.7182938653950613
0.0635,1.7237734785622227,1.0,3010.639706827327,0.5105071838810038,1.2968276277956445,0.9811004293042394,0.28545148609961335,0.7190477020956962
0.064,1.7229698747377815,1.0,3014.6634444389297,0.5132528879550984,1.2964298968471526,0.9812779047372687,0.2854177347389868,0.7198001156096507
0.0645,1.7221662709133403,1.0,3018.6650302590892,0.5159831905063859,1.2960323805881921,0.9814516307331337,0.2853839833783603,0.7205511149339534
0.065,1.7213626670888988,1.0,3022.6448645983282,0.5186981755410285,1.2956350751342798,0.9816217130189622,0.28535023201773374,0.7213007090253468
0.0655,1.7205590632644576,1.0,3026.6033492515153,0.5213979270651886,1.2952379766009317,0.9817882535695583,0.28531648065710724,0.7220489068003435
0.066,1.7197554594400164,1.0,3030.5408874790837,0.5240825290850284,1.294841081103664,0.9819513507676784,0.2852827292964807,0.7227957171352765
0.0665,1.718951855615575,1.0,3034.457883989825,0.5267520656067101,1.2944443847579932,0.9821110995563505,0.28524897793585413,0.7235411488663486
0.067,1.7181482517911337,1.0,3038.3547449236066,0.5294066206363961,1.2940478836794354,0.9822675915836971,0.28521522657522763,0.7242852107896851
0.0675,1.7173446479666925,1.0,3042.23187783404,0.5320462781802485,1.293651573983507,0.9824209153406706,0.2851814752146011,0.7250279116613805
0.068,1.7165410441422513,1.0,3046.0896916722136,0.5346711222444298,1.2932554517857242,0.9825711562921019,0.2851477238539746,0.7257692601975472
0.0685,1.7157374403178098,1.0,3049.928596769956,0.537281236835102,1.2928595132016034,0.9827183970014277,0.285113972493348,0.7265092650743619
0.069,1.7149338364933686,1.0,3053.7490048243812,0.5398767059584275,1.2924637543466608,0.9828627172494449,0.28508022113272147,0.7272479349281123
0.0695,1.7141302326689274,1.0,3057.5513288818574,0.5424576136205687,1.2920681713364126,0.9830041941474158,0.2850464697720949,0.7279852783552421
0.07,1.713326628844486,1.0,3061.3359833228346,0.5450240438276875,1.2916727602863751,0.9831429022448311,0.2850127184114684,0.7287213039123941
0.07050000000000001,1.7125230250200447,1.0,3065.103383846625,0.5475760805859465,1.2912775173120645,0.9832789136321165,0.28497896705084186,0.7294560201164539
0.07100000000000001,1.7117194211956035,1.0,3068.853947457314,0.5501138079015078,1.2908824385289972,0.9834122980385519,0.28494521569021536,0.7301894354445924
