Time [s],Phi [rad],STIM [ ],Fsee [N],Gamma [ ],Lcerel [ ],q [ ],Lmtc [m],fisomrel [ ]
0.0,1.8,1.0,18.08055480141035,0.00034064478182530163,1.3793270619865283,0.005030075353438592,0.288653,0.5411702169791726
0.0005,1.79999375,1.0,18.495856412121913,0.0059479433428312155,1.3792781211956455,0.013883897797698021,0.2886527375,0.5412886058109095
0.001,1.799975,1.0,22.08283431963026,0.011523789392295095,1.3788911171856042,0.03735234689110589,0.28865195,0.5422242388961886
0.0015,1.79994375,1.0,32.06859107009852,0.017068359354941973,1.3779617359683887,0.0729750530269814,0.2886506375,0.5444672389788332
0.002,1.7999,1.0,55.643396867396284,0.02258182866363178,1.3762356856357514,0.11751988570528135,0.2886488,0.5486183318054721
0.0025,1.79984375,1.0,100.50668523051334,0.02806437176860584,1.3737733191062156,0.16761752711074931,0.28864643749999996,0.55450735307501
0.003,1.7997750000000001,1.0,165.317307260258,0.03351616214264366,1.371052267008733,0.2204158196510071,0.28864354999999997,0.5609700738127548
0.0035,1.79969375,1.0,242.58173887451355,0.03893737228289871,1.368434619810922,0.27372886750900033,0.2886401375,0.5671426368774914
0.004,1.7996,1.0,326.6624954804377,0.044328173720847935,1.3660190291121863,0.325931152532206,0.2886362,0.5727999691574379
0.0045000000000000005,1.7994937500000001,1.0,414.6375929398519,0.04968873702779093,1.3637971742782553,0.37589563740325765,0.2886317375,0.5779707142447601
0.005,1.799375,1.0,504.8841648012087,0.05501923180623895,1.3617424078893425,0.42292344026561135,0.28862675,0.5827245865255757
0.0055,1.79924375,1.0,596.3038957410773,0.060319826728548354,1.3598313651915737,0.4666506916952889,0.2886212375,0.5871217749501542
0.006,1.7991000000000001,1.0,688.0317836960539,0.06559068950415155,1.35804639240478,0.5069559734777952,0.2886152,0.5912078472127622
0.006500000000000001,1.79894375,1.0,779.356582604823,0.07083198688822277,1.3563739509730983,0.5438816131844961,0.2886086375,0.5950178796805604
0.007,1.798775,1.0,869.6933901838436,0.07604388479025,1.354803181472783,0.5775729632830241,0.28860155,0.5985800459719114
0.0075,1.79859375,1.0,958.55245923003,0.0812265479491279,1.3533252309258006,0.6082344948466334,0.2885939375,0.6019173507373397
0.008,1.7984,1.0,1045.5598723456912,0.08638014063796629,1.3519321614276825,0.6360989875878079,0.2885858,0.6050502351812489
0.0085,1.79819375,1.0,1130.3954745239605,0.09150482567407343,1.3506173907403531,0.6614078274381097,0.2885771375,0.6079956801990642
0.009000000000000001,1.797975,1.0,1212.8153977996494,0.09660076508244227,1.349374942634355,0.6843979417750943,0.28856795,0.6107689714899269
0.0095,1.79774375,1.0,1292.6602024955037,0.1016681206260784,1.3481990887431479,0.7052941532260348,0.2885582375,0.613384549102173
0.01,1.7975,1.0,1369.7931927787233,0.10670705227411395,1.347084977116196,0.724305546405466,0.288548,0.6158546513400822
0.0105,1.79724375,1.0,1444.1253642262352,0.11171771928594572,1.3460280959381898,0.7416234569168508,0.2885372375,0.618190551088619
0.011,1.796975,1.0,1515.6168162902793,0.11670028027343245,1.3450241304365718,0.7574211402678112,0.28852595000000003,0.620402899925024
0.0115,1.79669375,1.0,1584.2631594003437,0.12165489361938076,1.344069031114766,0.7718544178010167,0.2885141375,0.6225016002160273
0.012,1.7964,1.0,1650.0495426842251,0.12658171527077627,1.3431594613713091,0.7850629557646511,0.28850180000000003,0.6244948471663042
0.0125,1.79609375,1.0,1712.9998302321767,0.13148090106525712,1.3422921130088334,0.7971712688204292,0.2884889375,0.6263906548850382
0.013000000000000001,1.7957750000000001,1.0,1773.153124083081,0.1363526059203459,1.341463927263174,0.8082902352138356,0.28847555,0.6281963851339597
0.0135,1.79544375,1.0,1830.591939851432,0.14119698537657288,1.3406717247270443,0.8185183494093589,0.2884616375,0.6299195662356536
0.014,1.7951000000000001,1.0,1885.3594215077549,0.14601419169982166,1.3399130874815284,0.8279433929426826,0.2884472,0.6315659852001749
0.0145,1.79474375,1.0,1937.5137287618272,0.15080437677274314,1.3391856902052106,0.8366433856837582,0.2884322375,0.633141159311272
0.015,1.794375,1.0,1987.1341458010584,0.15556769247798816,1.3384872075766754,0.8446876793593957,0.28841675,0.6346505430706144
0.0155,1.79399375,1.0,2034.302223912105,0.16030428946803732,1.3378154934290873,0.8521380304287189,0.2884007375,0.636099146681321
0.016,1.7936,1.0,2079.1187862591128,0.1650143189807876,1.3371683760071587,0.8590494313414277,0.2883842,0.6374919841221152
0.0165,1.7931937500000001,1.0,2121.650359102598,0.16969792888435026,1.3365441961628395,0.8654710713779662,0.2883671375,0.6388329210111869
0.017,1.792775,1.0,2161.973434305989,0.17435526689228265,1.335941316906924,0.8714468749984402,0.28834955,0.6401257385039592
0.0175,1.7923437500000001,1.0,2200.175541694442,0.17898648071814205,1.335358101250206,0.8770161175883153,0.2883314375,0.6413741834370426
0.018000000000000002,1.7919,1.0,2236.3366335613177,0.18359171640696087,1.3347930896167388,0.8822140184071291,0.2883128,0.642581591660964
0.0185,1.79144375,1.0,2270.56350143614,0.18817112198767688,1.3342446412755637,0.8870721211998676,0.2882936375,0.6437516574571739
0.019,1.790975,1.0,2302.9230712838466,0.19272484092346334,1.333711593416889,0.8916188825148942,0.28827395,0.6448870293978346
0.0195,1.79049375,1.0,2333.4865403732433,0.1972530164774542,1.3331928038776848,0.8958799117156191,0.2882537375,0.6459902915947917
0.02,1.79,1.0,2362.3308981471923,0.2017557919127833,1.3326871304949208,0.8998782891455851,0.288233,0.6470640089383148
0.0205,1.78949375,1.0,2389.535137691539,0.20623330994790726,1.3321934631541301,0.903634856818166,0.2882117375,0.6481106601966378
0.021,1.788975,1.0,2415.175966255605,0.21068571264859645,1.3317107599343287,0.9071684742713333,0.28818995000000003,0.6491325629585145
0.021500000000000002,1.78844375,1.0,2439.333125148901,0.2151131426318871,1.3312379902178861,0.9104962238299914,0.2881676375,0.6501319956518354
0.022,1.7879,1.0,2462.064669827642,0.21951573835479002,1.3307743674547616,0.9136336475916235,0.2881448,0.651110707381704
0.0225,1.78734375,1.0,2483.431685181017,0.223893638274316,1.3303191050949137,0.9165948637771463,0.28812143749999997,0.6520704362541307
0.023,1.786775,1.0,2503.498034429719,0.22824698084747586,1.3298714165883012,0.9193927168859597,0.28809755,0.6530129098151385
0.0235,1.78619375,1.0,2522.3301217411777,0.23257590453128035,1.3294305153848829,0.9220389102427152,0.28807313749999996,0.653939845450416
0.024,1.7856,1.0,2539.984072459127,0.23688054456025504,1.3289957336228138,0.9245441430518544,0.2880482,0.6548527017155185
0.0245,1.78499375,1.0,2556.532134808871,0.2411610418674729,1.3285662702654253,0.9269181715398145,0.2880227375,0.6557532080480469
0.025,1.784375,1.0,2572.020991699337,0.24541753015381942,1.328141581882593,0.9291699645375324,0.28799675,0.6566425454068543
0.025500000000000002,1.78374375,1.0,2586.496924808311,0.24965014260099777,1.327721142311562,0.9313077427583618,0.2879702375,0.6575218523023116
0.026000000000000002,1.7831000000000001,1.0,2600.007522256361,0.25385901239071107,1.3273044253895772,0.9333390489227826,0.2879432,0.6583922612257613
0.0265,1.78244375,1.0,2612.6015662544073,0.25804427270466246,1.3268909049538833,0.9352708128275651,0.2879156375,0.6592548987832629
0.027,1.781775,1.0,2624.328926889768,0.2622060567245551,1.3264800548417255,0.9371094093763388,0.28788755,0.6601108858116834
0.0275,1.7810937500000001,1.0,2635.2299845813723,0.2663444941417576,1.3260714458149567,0.9388607235723125,0.2878589375,0.6609611359188257
0.028,1.7804,1.0,2645.3564078548334,0.2704597203424541,1.3256645519215826,0.9405301705552852,0.2878298,0.6618067589978152
0.0285,1.77969375,1.0,2654.749784293681,0.2745518663639917,1.3252589476309347,0.9421227629246797,0.2878001375,0.6626486511033702
0.029,1.778975,1.0,2663.44240197148,0.27862105949360705,1.3248542990596552,0.94364314556747,0.28776995,0.6634875139746814
0.029500000000000002,1.7782437500000001,1.0,2671.467085836131,0.2826674270185368,1.3244502723243865,0.9450956167876103,0.2877392375,0.6643240458821156
0.03,1.7775,1.0,2678.8571500811713,0.2866910962260175,1.324046533541771,0.9464841586018039,0.287708,0.6651589416440111
0.0305,1.77674375,1.0,2685.64635298923,0.2906921944032859,1.3236427488284512,0.9478124640272046,0.2876762375,0.665992892636365
0.031,1.775975,1.0,2691.868854246732,0.29467084883757866,1.3232385843010694,0.9490839616924034,0.28764395,0.6668265867954095
0.0315,1.7751937500000001,1.0,2697.558821787971,0.29862718653879244,1.3228337093033167,0.9503018383784799,0.2876111375,0.6676607019689466
0.032,1.7744,1.0,2702.743858841422,0.3025613297960357,1.3224278560863028,0.9514690650175529,0.2875778,0.6684957832257349
0.0325,1.77359375,1.0,2707.459051611063,0.30647340985749627,1.3220206910084844,0.9525884029498217,0.2875439375,0.6693325081709764
0.033,1.772775,1.0,2711.725873876276,0.3103635480430464,1.3216120069261947,0.9536624379682648,0.28750955,0.6701712914569684
0.0335,1.7719437500000002,1.0,2715.565988053902,0.31423186567255823,1.3212015966957678,0.9546935824851114,0.2874746375,0.6710125455359992
0.034,1.7711000000000001,1.0,2719.00122672353,0.318078484065904,1.3207892531735361,0.9556840892213108,0.2874392,0.6718566806389188
0.0345,1.7702437500000001,1.0,2722.053575104438,0.32190352454295595,1.3203747692158339,0.9566360636611411,0.2874032375,0.6727041047509605
0.035,1.7693750000000001,1.0,2724.745154483774,0.3257071084235862,1.3199579376789938,0.9575514753963218,0.28736675,0.6735552235848377
0.035500000000000004,1.76849375,1.0,2727.098206596182,0.32948935702766696,1.3195385514193498,0.958432168470269,0.2873297375,0.6744104405510954
0.036000000000000004,1.7676,1.0,2729.125826612027,0.3332503832228994,1.3191164873992276,0.9592798775467241,0.2872922,0.6752699855547788
0.0365,1.76669375,1.0,2730.854710996063,0.3369903138959015,1.3186914997108987,0.9600962200989108,0.2872541375,0.6761343367730174
0.037,1.765775,1.0,2732.309520263645,0.3407092745646195,1.3182633617301969,0.9608827158000317,0.28721555,0.6770039304215365
0.0375,1.76484375,1.0,2733.502839878672,0.34440737944376837,1.3178319571512578,0.9616408003910037,0.2871764375,0.6778789764457942
0.038,1.7639,1.0,2734.44730537386,0.34808474274806295,1.3173971696682174,0.9623718234328461,0.28713679999999997,0.6787596833118776
0.0385,1.76294375,1.0,2735.1555963673813,0.3517414786922181,1.316958882975212,0.9630770544223048,0.28709663750000003,0.679646257981843
0.039,1.761975,1.0,2735.6404308788005,0.35537770149094877,1.316516980766377,0.9637576884094748,0.28705595,0.6805389058881917
0.0395,1.7609937500000001,1.0,2735.914559945842,0.3589935253589698,1.316071346735849,0.9644148511629129,0.2870147375,0.6814378309074833
0.04,1.76,1.0,2735.990762540191,0.3625890645109961,1.3156218645777633,0.9650496039231473,0.286973,0.6823432353330869
0.0405,1.7589937500000001,1.0,2735.881840783726,0.3661644331617426,1.3151684179862562,0.9656629477814097,0.2869307375,0.6832553198470681
0.041,1.757975,1.0,2735.600615464347,0.36971974552592407,1.3147108906554636,0.9662558277167828,0.28688795,0.6841742834912143
0.0415,1.75694375,1.0,2735.159921851978,0.37325511581825555,1.3142491662795217,0.9668291363216974,0.2868446375,0.6851003236371987
0.042,1.7559,1.0,2734.569537250749,0.3767706532900332,1.313783156418776,0.9673837187513106,0.28680079999999997,0.6860335801909117
0.0425,1.75484375,1.0,2733.8384304417887,0.3802664680926766,1.3133127800554023,0.9679203750915634,0.2867564375,0.686974176830214
0.043000000000000003,1.753775,1.0,2732.9822611398986,0.383742682407024,1.3128378954519881,0.9684398594679191,0.28671155,0.6879223570445502
0.043500000000000004,1.75269375,1.0,2732.0074104219834,0.38719940286524684,1.3123584451678514,0.9689428902572623,0.28666613750000003,0.6888781942994975
0.044,1.7516,1.0,2730.920262885985,0.3906367360995163,1.31187437176231,0.969430148102892,0.2866202,0.689841760962578
0.0445,1.75049375,1.0,2729.7272053135157,0.3940547887420037,1.3113856177946819,0.9699022782661869,0.2865737375,0.6908131282864296
0.045,1.7493750000000001,1.0,2728.434625404523,0.3974536674248805,1.3108921258242847,0.9703598928093946,0.28652675,0.6917923663917638
0.0455,1.74824375,1.0,2727.0489105852735,0.40083347878031783,1.3103938384104366,0.9708035726232027,0.2864792375,0.6927795442501141
0.046,1.7471,1.0,2725.5764468898474,0.40419432944048705,1.3098906981124552,0.9712338693115304,0.2864312,0.693774729666375
0.0465,1.7459437500000001,1.0,2724.0236179144335,0.4075363260375595,1.3093826474896584,0.9716513069448736,0.28638263750000004,0.6947779892611281
0.047,1.744775,1.0,2722.396803844835,0.4108595752037065,1.3088696291013644,0.972056383692534,0.28633355,0.6957893884527602
0.0475,1.74359375,1.0,2720.702380557561,0.41416418357109924,1.3083515855068906,0.9724495733431731,0.28628393750000003,0.6968089914393711
0.048,1.7424,1.0,2718.9463122878296,0.41745025517711687,1.3078284629676982,0.9728313266561099,0.2862338,0.6978368539124505
0.0485,1.74119375,1.0,2717.132271985641,0.4207178754974398,1.307300228570798,0.9732020719213236,0.2861831375,0.6988729895418856
0.049,1.739975,1.0,2715.270434609025,0.4239671814991843,1.3067667901217221,0.9735622193032855,0.28613195,0.699917527035763
0.0495,1.73874375,1.0,2713.3637642731755,0.42719827168831487,1.306228121051562,0.973912159422445,0.2860802375,0.7009704651697382
0.05,1.7375,1.0,2711.4152221913982,0.43041124457079616,1.305684194791409,0.9742522646999734,0.286028,0.7020318018326782
0.0505,1.73624375,1.0,2709.4277664389683,0.4336061986525927,1.3051349847723548,0.9745828903660836,0.2859752375,0.7031015340177769
0.051000000000000004,1.734975,1.0,2707.404351732612,0.436783232439669,1.3045804644254906,0.9749043754037889,0.28592195,0.7041796578136239
0.051500000000000004,1.73369375,1.0,2705.3479292250463,0.43994244443798963,1.3040206071819078,0.9752170434327693,0.2858681375,0.7052661683952299
0.052000000000000005,1.7324,1.0,2703.2614463157256,0.4430839331535192,1.303455386472698,0.9755212035376395,0.2858138,0.7063610600150045
0.0525,1.73109375,1.0,2701.1478464772435,0.4462077970922222,1.3028847757289528,0.9758171510445722,0.28575893750000003,0.7074643259936926
0.053,1.729775,1.0,2699.010069097116,0.4493141347600632,1.302308748381763,0.976105168249914,0.28570355000000003,0.7085759587112624
0.0535,1.72844375,1.0,2696.8510493350627,0.4524030446630068,1.3017272778622209,0.9763855251041529,0.2856476375,0.7096959495977493
0.054,1.7271,1.0,2694.673717996714,0.4554746253070175,1.3011403376014172,0.9766584798543261,0.2855912,0.7108242891240576
0.0545,1.7257437500000001,1.0,2692.481001421995,0.4585289751980599,1.3005479010304437,0.9769242796477278,0.2855342375,0.7119609667927125
0.055,1.724375,1.0,2690.275821389746,0.4615661928420985,1.2999499415803917,0.977183161099554,0.28547675,0.7131059711285702
0.0555,1.72299375,1.0,2688.0610950379937,0.4645863767450979,1.299346432682353,0.9774353508269183,0.2854187375,0.7142592896694819
0.056,1.7216,1.0,2685.8364447674176,0.4675896231104366,1.2987373779146616,0.9776810675029254,0.2853602,0.7154208515200021
0.0565,1.72019375,1.0,2683.605213100955,0.47057602461485165,1.298122746759731,0.9779205184228321,0.28530113749999997,0.7165906500779124
0.057,1.718775,1.0,2681.3697891304273,0.473545674929434,1.2975025173933725,0.9781539029405567,0.28524155,0.7177686611754021
0.0575,1.71734375,1.0,2679.1312924299014,0.4764986675143199,1.2968766796025875,0.9783814129133941,0.2851814375,0.7189548377172916
0.058,1.7159,1.0,2676.8908407247513,0.47943509582964566,1.2962452231743764,0.9786032324316841,0.2851208,0.7201491318442728
0.0585,1.71444375,1.0,2674.6504515299257,0.4823550528885925,1.2956081296165134,0.9788195376933345,0.2850596375,0.7213515105377124
0.059000000000000004,1.7129750000000001,1.0,2672.408568289125,0.48525863180371,1.294965413237929,0.9790304996968269,0.28499795,0.7225618781676589
0.059500000000000004,1.71149375,1.0,2670.165171451495,0.488145924315947,1.2943170742464143,0.9792362818011985,0.2849357375,0.7237801652009906
0.06,1.71,1.0,2667.922850412446,0.49101702115332035,1.2936630888636909,0.9794370395813219,0.284873,0.7250063464254974
0.0605,1.7084937500000001,1.0,2665.6841902221836,0.4938720130438469,1.2930034333114793,0.9796329225616067,0.2848097375,0.7262403956239972
0.061,1.7069750000000001,1.0,2663.447076306468,0.49671099053732093,1.2923381270158207,0.9798240767831606,0.28474595,0.7274822050155672
0.0615,1.7054437500000001,1.0,2661.217389203559,0.4995340437188836,1.2916671158363775,0.9800106387802104,0.2846816375,0.7287318033791108
0.062,1.7039,1.0,2659.01589424972,0.5023412624253193,1.290990208463366,0.9801927326886649,0.2846168,0.7299894725078023
0.0625,1.702344591828222,1.0,2656.854115802504,0.5051327347323935,1.2903076785908305,0.9803705019378856,0.28455147285678534,0.7312546293086832
0.063,1.7007866793880912,1.0,2655.1508619614283,0.5079085487158717,1.289619799912815,0.9805440846562001,0.2844860405342998,0.7325266948292763
0.0635,1.6992287669479604,1.0,2653.998690648349,0.5106687924515192,1.288926846123364,0.9807136139139648,0.28442060821181436,0.7338050943533352
0.064,1.6976708545078296,1.0,2653.3627265443993,0.5134135531948297,1.288229135435995,0.9808792201504195,0.28435517588932885,0.7350891756563103
0.0645,1.6961129420676988,1.0,2653.1899405688046,0.5161429187422933,1.2875271550350385,0.9810410376629032,0.28428974356684333,0.7363779818796459
0.065,1.694555029627568,1.0,2653.4461392260273,0.5188569747388658,1.2868212197311106,0.9811991872652244,0.2842243112443579,0.7376708798212945
0.0655,1.6929971171874372,1.0,2654.0981331520616,0.5215558066855944,1.2861116360300349,0.9813537851040398,0.28415887892187236,0.7389672567864058
0.066,1.6914392047473061,1.0,2655.112810348262,0.5242395000835264,1.285398710437635,0.9815049432814982,0.28409344659938685,0.7402665053588489
0.0665,1.6898812923071753,1.0,2656.466136268225,0.5269081376831443,1.284682666316498,0.9816527657904293,0.2840280142769014,0.7415681744226066
0.067,1.6883233798670445,1.0,2658.117559294559,0.529561807985886,1.2839638795631863,0.9817973608271415,0.28396258195441587,0.7428715405083681
0.0675,1.6867654674269137,1.0,2660.0403722009464,0.5322005956203568,1.2832425986400942,0.9819388265569332,0.28389714963193036,0.7441761170778269
0.068,1.6852075549867829,1.0,2662.2165967848596,0.5348245825195231,1.2825189917179005,0.9820772538327415,0.2838317173094449,0.7454815667050411
0.0685,1.6836496425466518,1.0,2664.628262747993,0.5374338506163522,1.2817932269672847,0.982212730460881,0.2837662849869594,0.7467875549597078
0.069,1.682091730106521,1.0,2667.257399337843,0.5400284818438105,1.2810654725589252,0.9823453413285954,0.28370085266447387,0.748093750431212
0.0695,1.6805338176663902,1.0,2670.086027614874,0.5426085581348651,1.2803358966635012,0.9824751685254683,0.2836354203419884,0.7493998247508634
0.07,1.6789759052262594,1.0,2673.0961533477334,0.5451741614224828,1.2796046674516914,0.9826022914590304,0.2835699880195029,0.7507054526123376
0.07050000000000001,1.6774179927861286,1.0,2676.2697605351095,0.5477253736396304,1.278871953094175,0.9827267869648737,0.2835045556970174,0.752010311790307
0.07100000000000001,1.6758600803459978,1.0,2679.593957116044,0.5502622736793636,1.2781378745018221,0.9828487270592313,0.2834391233745319,0.7533141669885479
0.07150000000000001,1.674302167905867,1.0,2683.05218769009,0.5527849445983783,1.2774025859914495,0.9829681832280547,0.2833736910520464,0.7546167260371699
0.07200000000000001,1.672744255465736,1.0,2686.6295014205425,0.5552934684988886,1.276666226878703,0.9830852239603644,0.2833082587295609,0.7559177260991774
0.0725,1.671186343025605,1.0,2690.317822214506,0.5577879229861334,1.275928873242338,0.9831999124836994,0.28324282640707543,0.7572170182117787
0.073,1.6696284305854743,1.0,2694.1090581139315,0.5602683856653522,1.27519060116111,0.9833123100407944,0.2831773940845899,0.7585144548232999
0.0735,1.6680705181453435,1.0,2697.9950996829543,0.5627349341417838,1.2744514867137744,0.9834224759667533,0.2831119617621044,0.7598098897978282
0.074,1.6665126057052126,1.0,2701.9678185222583,0.5651876460206673,1.2737116059790863,0.9835304677627621,0.28304652943961894,0.7611031784194816
