Time [s],Phi [rad],STIM [ ],Fsee [N],Gamma [ ],Lcerel [ ],q [ ],Lmtc [m],fisomrel [ ]
0.0,1.8,1.0,17.969599919806054,5.2637997331420247e-05,1.379339472671106,0.0050007288401362196,0.288653,0.5411401928367581
0.0005,1.79999375,1.0,18.293149503860203,0.005661552048601954,1.3793005658823354,0.013059309379554764,0.2886527375,0.5412343135246815
0.001,1.799975,1.0,21.666488773300877,0.011239004526757544,1.3789333914001376,0.035831103961786175,0.28865195,0.5421220818941012
0.0015,1.79994375,1.0,31.18487846420823,0.016785171907247324,1.3780363605392834,0.07090609809191703,0.2886506375,0.544287340912669
0.002,1.7999,1.0,53.83273450365486,0.022300229673801457,1.3763519094117125,0.11507820289926897,0.2886488,0.5483394141650452
0.0025,1.79984375,1.0,97.54050644945882,0.027784352326291423,1.3739148748623045,0.1649666466079897,0.28864643749999996,0.5541698544537859
0.003,1.7997750000000001,1.0,161.50727377609684,0.033237713388050094,1.3711938076601007,0.21768456533515998,0.28864354999999997,0.560635067457896
0.0035,1.79969375,1.0,238.3040664291029,0.03866048540577874,1.368565626424004,0.27101479709018383,0.2886401375,0.5668347545238569
0.004,1.7996,1.0,322.12736326769954,0.044052839960243895,1.3661386048184532,0.32330494248990993,0.2886362,0.5725207973902953
0.0045000000000000005,1.7994937500000001,1.0,409.9519478766376,0.04941494767148661,1.363906760159819,0.3734038933802489,0.2886317375,0.5777164219068369
0.005,1.799375,1.0,500.11172833810696,0.054746978190122406,1.3618435103234816,0.4205930415856378,0.28862675,0.5824913075152438
0.0055,1.79924375,1.0,591.4949028847268,0.06004910024250362,1.3599250751956669,0.46449364808210886,0.2886212375,0.5869066972110764
0.006,1.7991000000000001,1.0,683.2235527365117,0.06532148157946603,1.3581335949575155,0.5049739901381052,0.2886152,0.5910086994987443
0.006500000000000001,1.79894375,1.0,774.5851580749434,0.07056428902833695,1.3564552403099053,0.5420695713154361,0.2886086375,0.5948331047691572
0.007,1.798775,1.0,864.9834130058814,0.07577768847084701,1.35487912876483,0.5759217296117317,0.28860155,0.5984081759155458
0.0075,1.79859375,1.0,953.9268382736349,0.08096184479395688,1.3533962662495367,0.6067327187519957,0.2885939375,0.6017572672222149
0.008,1.7984,1.0,1041.0345180188851,0.08611692229929976,1.3519986942892555,0.634734444014292,0.2885858,0.6049008903656228
0.0085,1.79819375,1.0,1125.9757958016332,0.0912430837153812,1.3506798774999755,0.6601682746787954,0.2885771375,0.6078559423361038
0.009000000000000001,1.797975,1.0,1208.5156064138305,0.09634049126785611,1.3494336270589797,0.6832714737605475,0.28856795,0.6106382024247636
0.0095,1.79774375,1.0,1288.495545487428,0.10140930684677305,1.3482541409396651,0.7042695732172816,0.2885582375,0.61326228736727
0.01,1.7975,1.0,1365.7643773636064,0.10644969019591423,1.3471367088381032,0.7233726219631196,0.288548,0.6157401319421236
0.0105,1.79724375,1.0,1440.2337508101655,0.1114618007827767,1.3460767599043184,0.7407728547176475,0.2885372375,0.6180831513205637
0.011,1.796975,1.0,1511.8663947372338,0.11644579730021756,1.3450699068405685,0.7566444109497326,0.28852595000000003,0.6203021664318922
0.0115,1.79669375,1.0,1580.6540263327922,0.12140183809263774,1.3441121159231537,0.7711439955064995,0.2885141375,0.6224070525347258
0.012,1.7964,1.0,1646.5795172730368,0.12633007914423855,1.343200049595438,0.7844120860634703,0.28850180000000003,0.6244060138956918
0.0125,1.79609375,1.0,1709.6668450049583,0.13123067642458208,1.3423303737618264,0.7965739264891113,0.2884889375,0.6263071275513018
0.013000000000000001,1.7957750000000001,1.0,1769.9566619458842,0.1361037848106748,1.3414999917436035,0.8077410476614844,0.28847555,0.6281178432369859
0.0135,1.79544375,1.0,1827.5305327193523,0.14094956003329814,1.340705718109684,0.8180125411315785,0.2884616375,0.629845706783688
0.014,1.7951000000000001,1.0,1882.427386287111,0.14576815422664216,1.3399451670436084,0.8274767335121752,0.2884472,0.631496439425042
0.0145,1.79474375,1.0,1934.7063272207,0.15055971935211448,1.3392159891095112,0.8362121073080226,0.2884322375,0.6330756145805356
0.015,1.794375,1.0,1984.4478138657491,0.15532440737112257,1.338515834871527,0.8442884233190024,0.28841675,0.6345887421595444
0.0155,1.79399375,1.0,2031.7318237494862,0.16006236889319217,1.3378425652602064,0.8517678094200127,0.2884007375,0.6360408198290919
0.016,1.7936,1.0,2076.662303685932,0.16477375542635384,1.3371939671541349,0.8587055704919982,0.2883842,0.6374369531723731
0.0165,1.7931937500000001,1.0,2119.3052003681896,0.16945871480616254,1.3365683809781614,0.8651511839488293,0.2883671375,0.6387810106050357
0.017,1.792775,1.0,2159.73602109779,0.1741173946847644,1.3359641739898978,0.8711488296320228,0.28834955,0.6400767659288448
0.0175,1.7923437500000001,1.0,2198.0413430260505,0.17874994271430558,1.3353797134469554,0.8767380081745201,0.2883314375,0.6413279585721878
0.018000000000000002,1.7919,1.0,2234.3040929271806,0.18335650520332683,1.3348135049624559,0.8819541274690073,0.2883128,0.6425380003021541
0.0185,1.79144375,1.0,2268.6234972216616,0.18793722991657597,1.3342639794744262,0.886828925523877,0.2882936375,0.6437104337561237
0.019,1.790975,1.0,2301.0715447206376,0.19249226083880158,1.3337299193006786,0.8913909992308958,0.28827395,0.6448480260317683
0.0195,1.79049375,1.0,2331.7190522118062,0.19702174112153176,1.3332101828264742,0.8956660955190685,0.2882537375,0.6459533611630983
0.02,1.79,1.0,2360.642654397672,0.2015258139162946,1.3327036284370737,0.89967741677882,0.288233,0.6470290039056301
0.0205,1.78949375,1.0,2387.923985348507,0.2060046223531568,1.3322091177009334,0.9034459073047209,0.2882117375,0.6480774939935183
0.021,1.788975,1.0,2413.618365593295,0.21045830711585553,1.3317258134919945,0.9069905679444892,0.28818995000000003,0.64910071640011
0.021500000000000002,1.78844375,1.0,2437.854651333859,0.21488701251262576,1.3312522079811875,0.9103284623365666,0.2881676375,0.650101960164503
0.022,1.7879,1.0,2460.6736432859934,0.2192908768213186,1.3307876822478533,0.9134752502094641,0.2881448,0.651082618855527
0.0225,1.78734375,1.0,2482.118827490344,0.2236700383197852,1.330331617371333,0.9164451543908433,0.28812143749999997,0.6520440770562475
0.023,1.7867776730116605,1.0,2502.363337194275,0.2280246352858767,1.3298833944309683,0.9192511124980988,0.28809766226648975,0.6529877107101474
0.0235,1.7862108476854464,1.0,2521.8904425785113,0.23235480599744415,1.3294423945060998,0.921904910831903,0.28807385560278875,0.6539148874428804
0.024,1.7856440223592325,1.0,2540.78445791483,0.23666068785530725,1.329008073550755,0.924417315969112,0.28805004893908775,0.654826809752618
0.0245,1.7850771970330184,1.0,2559.0519975641914,0.24094241805596234,1.3285802951004397,0.9267982374255028,0.28802624227538676,0.6557238191062116
0.025,1.7845103717068045,1.0,2576.709249982439,0.24520013152280534,1.3281588377687148,0.9290567239279403,0.2880024356116858,0.6566064323797396
0.025500000000000002,1.7839435463805904,1.0,2593.7759131904145,0.2494339621597347,1.3277434530108998,0.9312010596301687,0.28797862894798476,0.6574752200525897
0.026000000000000002,1.7833767210543765,1.0,2610.272288673685,0.25364404387064887,1.3273338922823141,0.9332388438423683,0.2879548222842838,0.6583307492452499
0.0265,1.7828098957281624,1.0,2626.211359915154,0.25783050258983686,1.3269299801398935,0.9351770648244752,0.2879310156205828,0.6591734313958191
0.027,1.7822430704019485,1.0,2641.6161706023886,0.26199347323421407,1.3265314523170886,0.9370221401879992,0.2879072089568818,0.6600038604837146
0.0275,1.7816762450757344,1.0,2656.5230061115017,0.26613310441372695,1.3261379274575016,0.9387799680699074,0.2878834022931808,0.6608228707708081
0.028,1.7811094197495205,1.0,2670.9463463077504,0.2702495227674688,1.3257492304537286,0.9404560080798335,0.2878595956294798,0.6616308637079197
0.0285,1.7805425944233064,1.0,2684.9010360017733,0.2743428549345329,1.3253651861983657,0.9420553002571374,0.2878357889657789,0.6624282385526237
0.029,1.7799757690970925,1.0,2698.4022665454763,0.27841322755401277,1.324985619584009,0.9435825027808575,0.2878119823020779,0.6632153924221867
0.029500000000000002,1.7794089437708784,1.0,2711.4655581086577,0.28246076726500163,1.3246103555032551,0.9450419258390187,0.2877881756383769,0.6639927203445483
0.03,1.7788421184446646,1.0,2724.1067426345658,0.28648560070659285,1.3242392188486998,0.9464375620902239,0.2877643689746759,0.6647606153073501
0.0305,1.7782752931184507,1.0,2736.3419474759103,0.2904878545178798,1.3238720345129396,0.9477731140974641,0.28774056231097495,0.6655194683050041
0.031,1.7777084677922366,1.0,2748.1875797102484,0.29446765533795577,1.3235086273885703,0.9490520190680063,0.28771675564727395,0.6662696683838112
0.0315,1.7771416424660227,1.0,2759.6603111356367,0.2984251298059142,1.3231488223681884,0.9502774711931326,0.28769294898357295,0.667011602685118
0.032,1.7765748171398086,1.0,2770.777063945854,0.3023604045608483,1.3227924443443901,0.9514524418465751,0.28766914231987195,0.6677456564865236
0.0325,1.7760079918135947,1.0,2781.5549970856637,0.3062736062418515,1.3224393182097716,0.9525796978700055,0.287645335656171,0.6684722132411278
0.033,1.7754411664873806,1.0,2792.008029106948,0.31016485692896895,1.3220892999905152,0.9536618204892924,0.28762152899246995,0.6691915906620534
0.0335,1.7748743411611667,1.0,2802.146442231911,0.31403427628370256,1.321742280006077,0.9547012211363252,0.287597722328769,0.6699040346189131
0.034,1.7743075158349526,1.0,2811.992604396343,0.31788200047220144,1.3213980416863214,0.9557001440412793,0.287573915665068,0.6706100089292018
0.0345,1.7737406905087387,1.0,2821.5559800314018,0.32170814751720944,1.3210564858200964,0.9566606949003308,0.287550109001367,0.6713097350537317
0.035,1.7731738651825246,1.0,2830.8461579214054,0.3255128354414703,1.3207175131962499,0.9575848435482758,0.287526302337666,0.6720034334477465
0.035500000000000004,1.7726070398563107,1.0,2839.8728454122624,0.3292961822677277,1.32038102460363,0.9584744343065559,0.287502495673965,0.6726913235775772
0.036000000000000004,1.7720402145300966,1.0,2848.6458628383593,0.3330583060187255,1.3200469208310848,0.9593311954293636,0.2874786890102641,0.6733736239366752
0.0365,1.7714733892038828,1.0,2857.1751381676195,0.3367993247172073,1.3197151026674618,0.9601567477357777,0.2874548823465631,0.6740505520610152
0.037,1.7709065638776689,1.0,2865.470701865089,0.340519356385917,1.3193854709016093,0.9609526125064436,0.2874310756828621,0.6747223245438689
0.0375,1.7703397385514548,1.0,2873.542681974153,0.3442185190475983,1.3190579263223752,0.9617202187149797,0.2874072690191611,0.6753891570499548
0.038,1.7697729132252409,1.0,2881.4012994164505,0.347896930724995,1.3187323697186075,0.962460909656924,0.2873834623554601,0.6760512643289569
0.0385,1.7692060878990268,1.0,2889.0568635099908,0.35155470944085077,1.318408701879154,0.9631759490324915,0.28735965569175914,0.6767088602284186
0.039,1.768639262572813,1.0,2896.5187005961207,0.355191970877269,1.3180868330086781,0.9638665269454197,0.28733584902805814,0.6773621386049404
0.0395,1.7680724372465988,1.0,2903.789694909895,0.35880881858794866,1.3177667307421554,0.9645337675209747,0.28731204236435715,0.6780111761270488
0.04,1.767505611920385,1.0,2910.887473852197,0.3624053900461003,1.3174482332940023,0.9651787253548187,0.28728823570065615,0.6786563111559845
0.0405,1.7669387865941708,1.0,2917.81749605665,0.3659817950483842,1.3171312868088485,0.9658023997242967,0.28726442903695515,0.6792976623946552
0.041,1.766371961267957,1.0,2924.5852656498773,0.3695381433914608,1.3168158374313237,0.9664057340274343,0.2872406223732542,0.6799353480634218
0.0415,1.7658051359417428,1.0,2931.196330431554,0.3730745448719905,1.3165018313060577,0.9669896194914246,0.2872168157095532,0.6805694859053311
0.042,1.765238310615529,1.0,2937.656280119405,0.3765911092866337,1.3161892145776803,0.9675548985980081,0.2871930090458522,0.681200193191166
0.0425,1.7646714852893148,1.0,2943.9707446576285,0.3800879464320508,1.3158779333908215,0.9681023682500653,0.2871692023821512,0.6818275867243104
0.043000000000000003,1.764104659963101,1.0,2950.1453925902383,0.3835651661049022,1.3155679338901107,0.9686327827014095,0.2871453957184502,0.6824517828454295
0.043500000000000004,1.763537834636887,1.0,2956.185929498368,0.38702287810184827,1.3152591622201781,0.9691468562697194,0.28712158905474927,0.6830728974369624
0.044,1.762971009310673,1.0,2962.0980965020244,0.3904611922195494,1.3149515645256533,0.9696452658506852,0.2870977823910483,0.6836910459274339
0.0445,1.762404183984459,1.0,2967.887668826413,0.39388021825466607,1.314645086951166,0.9701286532497702,0.2870739757273473,0.6843063432955776
0.045,1.761837358658245,1.0,2973.560454431961,0.39728006600385857,1.3143396756413466,0.9705976273465005,0.2870501690636463,0.6849189040742762
0.0455,1.761270533332031,1.0,2979.1222927091208,0.40066084526378737,1.314035276740824,0.9710527661048366,0.2870263623999453,0.6855288423543178
0.046,1.760703708005817,1.0,2984.5730629483746,0.4040226428479201,1.3137318884649785,0.9714946191361259,0.28700255573624434,0.6861361676026733
0.0465,1.760136882679603,1.0,2989.923073547135,0.40736559171059356,1.313429418520498,0.9719237083991152,0.28697874907254334,0.686741070171883
0.047,1.759570057353389,1.0,2995.1771114196013,0.41068980101102454,1.3131278229069256,0.9723405303874045,0.28695494240884234,0.6873436432447992
0.0475,1.7590032320271751,1.0,3000.3380398671015,0.4139953719242496,1.3128270745007806,0.9727455575541127,0.28693113574514134,0.6879439459798566
0.048,1.758436406700961,1.0,3005.4087378362783,0.4172824056253055,1.3125271461785826,0.973139239570866,0.28690732908144034,0.6885420373133637
0.0485,1.7578695813747471,1.0,3010.3920994176915,0.4205510032892288,1.3122280108168507,0.9735220046374252,0.2868835224177394,0.6891379759609457
0.049,1.757302756048533,1.0,3015.2910333605623,0.42380126609105606,1.3119296412921049,0.9738942607043662,0.2868597157540384,0.6897318204189375
0.0495,1.7567359307223192,1.0,3020.10846260472,0.42703329520582395,1.3116320104808643,0.9742563966153347,0.2868359090903374,0.690323628965735
0.05,1.7561691053961053,1.0,3024.847323827449,0.4302471918085692,1.3113350912596486,0.9746087831748474,0.2868121024266364,0.6909134596630939
0.0505,1.7556022800698912,1.0,3029.5105670079583,0.4334430570743283,1.3110388565049773,0.9749517741471274,0.2867882957629354,0.6915013703573856
0.051000000000000004,1.7550354547436773,1.0,3034.101155007332,0.43662099217813793,1.3107432790933697,0.9752857071910043,0.28676448909923447,0.6920874186808039
0.051500000000000004,1.7544686294174632,1.0,3038.6220631650717,0.43978109829503476,1.3104483319013454,0.9756109047355033,0.28674068243553347,0.692671662052526
0.052000000000000005,1.7539018040912493,1.0,3043.076278912078,0.4429234766000553,1.3101539878054236,0.9759276748003862,0.28671687577183247,0.6932541576798251
0.0525,1.7533349787650352,1.0,3047.46680139982,0.4460482282682363,1.309860219682124,0.9762363117655455,0.28669306910813147,0.6938349625591385
0.053,1.7527681534388213,1.0,3051.7966411455586,0.44915545447461436,1.3095670004079663,0.9765370970928673,0.2866692624444305,0.6944141334770861
0.0535,1.7522013281126072,1.0,3056.0664630008846,0.4522452371873776,1.3092743231040613,0.9768302993104743,0.28664545578072953,0.6949916870807546
0.054,1.7516345027863933,1.0,3060.2786613324356,0.4553176785794684,1.3089821660809022,0.9771161765216142,0.28662164911702853,0.6955676691452607
0.0545,1.7510676774601792,1.0,3064.43844448062,0.45837290375988654,1.3086904835848419,0.9773949765814717,0.28659784245332753,0.6961421726535602
0.055,1.7505008521339653,1.0,3068.547168795985,0.4614110047133747,1.3083992630223114,0.9776669355903038,0.28657403578962654,0.6967152250232629
0.0555,1.7499340268077512,1.0,3072.606196009688,0.46443207342467585,1.308108491799742,0.9779322797609291,0.28655022912592554,0.6972868535742611
0.056,1.7493672014815373,1.0,3076.6168931065527,0.46743620187853274,1.307818157323565,0.9781912259142863,0.2865264224622246,0.6978570855290975
0.0565,1.7488003761553235,1.0,3080.5806322010812,0.47042348205968826,1.3075282470002112,0.9784439819462293,0.2865026157985236,0.6984259480133198
0.057,1.7482335508291094,1.0,3084.49879041741,0.47339400595288533,1.3072387482361119,0.9786907472674413,0.2864788091348226,0.6989934680558262
0.0575,1.7476667255028955,1.0,3088.372749772841,0.47634786554286673,1.306949648437698,0.9789317132182286,0.2864550024711216,0.6995596725892017
0.058,1.7470999001766814,1.0,3092.2038970641643,0.47928515281437534,1.306660935011401,0.9791670634598153,0.2864311958074206,0.7001245884500427
0.0585,1.7465330748504675,1.0,3095.99362375868,0.48220595975215397,1.3063725953636516,0.9793969743436486,0.28640738914371966,0.7006882423792737
0.059000000000000004,1.7459662495242534,1.0,3099.743325887305,0.48511037834094556,1.3060846169008813,0.9796216152601159,0.2863835824800186,0.7012506610224514
0.059500000000000004,1.7453994241980395,1.0,3103.4544039428765,0.48799850056549293,1.305796987029521,0.9798411489679741,0.28635977581631766,0.7018118709300606
0.06,1.7448325988718254,1.0,3107.128262780114,0.4908704184105389,1.3055096931560017,0.9800557319057001,0.28633596915261667,0.7023718985577987
0.0605,1.7442657735456115,1.0,3110.7663115208143,0.4937262238608263,1.305222722686755,0.9802655144858883,0.28631216248891567,0.7029307702668504
0.061,1.7436989482193974,1.0,3114.3699634613045,0.49656600890109814,1.3049360630282116,0.980470641373743,0.28628835582521467,0.7034885123241535
0.0615,1.7431321228931835,1.0,3117.9406359842133,0.49938986551609715,1.3046497015868028,0.9806712517506376,0.2862645491615137,0.7040451509026531
0.062,1.7425652975669694,1.0,3121.479750473166,0.5021978856905662,1.3043636257689597,0.9808674795636517,0.28624074249781273,0.7046007120815454
0.0625,1.7419984722407555,1.0,3124.9870351441714,0.5049901293604605,1.3040778373978636,0.9810594521293577,0.28621693583411173,0.7051551938885152
0.063,1.7414316469145414,1.0,3128.4634815667005,0.5077666893537799,1.3037923275710313,0.981247293951689,0.28619312917041073,0.705708615143416
0.0635,1.7408648215883276,1.0,3131.912326638782,0.5105277004065094,1.3035070683572687,0.98143112700978,0.2861693225067098,0.7062610314323221
0.064,1.7402979962621137,1.0,3135.3341538006644,0.513273244537818,1.3032220543945865,0.9816110661635019,0.2861455158430088,0.7068124544921124
0.0645,1.7397311709358996,1.0,3138.7295482793475,0.516003403766875,1.302937280320995,0.981787222133733,0.2861217091793078,0.7073628960195116
0.065,1.7391643456096857,1.0,3142.099097059141,0.5187182601128494,1.3026527407745052,0.9819597016816067,0.2860979025156068,0.707912367671174
0.0655,1.7385975202834716,1.0,3145.4433888538224,0.5214178955949104,1.3023684303931276,0.9821286077787514,0.2860740958519058,0.708460881063764
0.066,1.7380306949572577,1.0,3148.7630140788233,0.5241023922322269,1.3020843438148724,0.9822940397690276,0.28605028918820485,0.7090084477740369
0.0665,1.7374638696310436,1.0,3152.058564824272,0.5267718320439683,1.3018004756777504,0.9824560935222527,0.2860264825245038,0.7095550793389146
0.067,1.7368970443048297,1.0,3155.3306348293377,0.5294262970493036,1.301516820619772,0.9826148615803586,0.28600267586080286,0.7101007872555619
0.0675,1.7363302189786156,1.0,3158.5798194554536,0.5320658692674017,1.301233373278948,0.9827704332964071,0.28597886919710186,0.7106455829814603
0.068,1.7357633936524017,1.0,3161.8067156623615,0.5346906307174321,1.300950128293289,0.98292289496686,0.28595506253340086,0.7111894779344801
0.0685,1.7351965683261876,1.0,3165.0119219832077,0.5373006634185636,1.3006670803008054,0.9830723299574761,0.28593125586969986,0.7117324834929498
0.069,1.7346297429999737,1.0,3168.1960385009106,0.5398960493899656,1.3003842239395076,0.9832188188231825,0.28590744920599886,0.7122746109957263
0.0695,1.7340629176737599,1.0,3171.3596668250607,0.542476870650807,1.3001015538474066,0.9833624394222482,0.2858836425422979,0.7128158717422581
0.07,1.7334960923475458,1.0,3174.5034100693842,0.545043209220257,1.2998190646625127,0.9835032670250702,0.2858598358785969,0.7133562769926531
