Time [s],Phi [rad],STIM [ ],Fsee [N],Gamma [ ],Lcerel [ ],q [ ],Lmtc [m],fisomrel [ ]
0.0,1.8,1.0,17.96931018721338,6.318488933671471e-05,1.3793395051287713,0.005001048658393427,0.288653,0.5411401143133254
0.0005,1.79999375,1.0,18.296484132002465,0.0056720397808870835,1.3793001956530602,0.01308882824943567,0.2886527375,0.5412352091120863
0.001,1.799975,1.0,21.67774269465605,0.011249433431157049,1.3789322434035372,0.03588626475207884,0.28865195,0.5421248562154416
0.0015,1.79994375,1.0,31.21292967809136,0.016795542313743472,1.3780339756436455,0.07098148464442874,0.2886506375,0.5442930907495525
0.002,1.7999,1.0,53.89423940992447,0.022310541910507777,1.3763479297154766,0.11516740702921877,0.2886488,0.5483489661953913
0.0025,1.79984375,1.0,97.64446201675105,0.027794606719510402,1.3739098776596774,0.16506364342816826,0.28864643749999996,0.5541817710093274
0.003,1.7997750000000001,1.0,161.6427946602859,0.033247910262229355,1.3711887446769064,0.21778460010379613,0.28864354999999997,0.5606470530139744
0.0035,1.79969375,1.0,238.45734036936935,0.03867062508354963,1.3685609120920745,0.27111427076439704,0.2886401375,0.5668458357074557
0.004,1.7996,1.0,322.2905388149226,0.04406292276243607,1.3661342879018494,0.32340124469015735,0.2886362,0.5725308776231047
0.0045000000000000005,1.7994937500000001,1.0,410.1209998959351,0.049424973917149444,1.3639027955860974,0.3734952986505549,0.2886317375,0.5777256229739254
0.005,1.799375,1.0,500.2843006764703,0.05475694819663141,1.3618398460525127,0.4206785504256064,0.28862675,0.58249976342058
0.0055,1.79924375,1.0,591.6690092448671,0.06005901432494041,1.3599216758560475,0.4645728115689578,0.2886212375,0.586914500156168
0.006,1.7991000000000001,1.0,683.3978710224599,0.06533134005168384,1.358130428153322,0.5050467378681271,0.2886152,0.591015932495913
0.006500000000000001,1.79894375,1.0,774.7578471345894,0.07057409220514174,1.3564522938983214,0.5421360919311454,0.2886086375,0.5948398028527573
0.007,1.798775,1.0,865.147315479538,0.07578743656059887,1.3548764824078696,0.5759824172132592,0.28860155,0.5984141652864063
0.0075,1.79859375,1.0,954.0941492480732,0.08097153831080074,1.3533936938689037,0.6067878565314356,0.2885939375,0.6017630648395776
0.008,1.7984,1.0,1041.1991453517592,0.0861265614855675,1.3519962713663993,0.6347845360867193,0.2885858,0.6049063295413015
0.0085,1.79819375,1.0,1126.1331469530785,0.0912526687943903,1.3506776507184788,0.6602138063410589,0.2885771375,0.6078609224699254
0.009000000000000001,1.797975,1.0,1208.6689537003037,0.09635002260815123,1.3494315323506207,0.6833128490456631,0.28856795,0.6106428705328351
0.0095,1.79774375,1.0,1288.6425795516407,0.10141878467663157,1.3482521957968645,0.7043072156210746,0.2885582375,0.6132666075339999
0.01,1.7975,1.0,1365.9063937377555,0.10645911483321951,1.3471348839904282,0.7234068971016353,0.288548,0.615744171929056
0.0105,1.79724375,1.0,1440.3717110930024,0.11147117248569724,1.3460750336111091,0.7408040989058505,0.2885372375,0.6180869614511151
0.011,1.796975,1.0,1512.004505423423,0.11645511661419353,1.3450682201009874,0.7566729107227642,0.28852595000000003,0.6203058784321956
0.0115,1.79669375,1.0,1580.7863561746833,0.12141110509154261,1.344110535338826,0.7711700644009837,0.2885141375,0.6224105212653908
0.012,1.7964,1.0,1646.7047969253738,0.12633929407747957,1.3431985834795412,0.784435978510845,0.28850180000000003,0.624409222887871
0.0125,1.79609375,1.0,1709.7856952873765,0.1312398394804184,1.3423290087880628,0.796595859687379,0.2884889375,0.626310107596245
0.013000000000000001,1.7957750000000001,1.0,1770.0819006587838,0.1361128968593026,1.341498578109626,0.8077611610787879,0.28847555,0.6281209220315805
0.0135,1.79544375,1.0,1827.649763305458,0.1409586210074554,1.340704393659424,0.8180310688418582,0.2884616375,0.6298485846338144
0.014,1.7951000000000001,1.0,1882.5335849078751,0.14577716417751366,1.3399440046826534,0.827493859202439,0.2884472,0.6314989594397964
0.0145,1.79474375,1.0,1934.8016085708575,0.1505686786221143,1.3392149604245098,0.8362279582770493,0.2884322375,0.6330778400006322
0.015,1.794375,1.0,1984.5359166363387,0.1553333159816757,1.3385148956840724,0.8443031067720344,0.28841675,0.6345907697704132
0.0155,1.79399375,1.0,2031.8271760428047,0.16007122802332083,1.3378415606901386,0.8517813861524939,0.2884007375,0.6360429842807762
0.016,1.7936,1.0,2076.7587476340473,0.16478256512413303,1.337192962134893,0.8587181629407388,0.2883842,0.6374391144346192
0.0165,1.7931937500000001,1.0,2119.397071322418,0.1694674750860677,1.3365674332928554,0.8651628991146673,0.2883671375,0.6387830447916433
0.017,1.792775,1.0,2159.820824158074,0.17412610571108011,1.3359633074385462,0.8711597532872574,0.28834955,0.6400786226242121
0.0175,1.7923437500000001,1.0,2198.119890000593,0.17875860480112565,1.3353789178464848,0.8767482076002594,0.2883314375,0.6413296602809976
0.018000000000000002,1.7919,1.0,2234.3779454795067,0.1833651185849726,1.3348127630064446,0.8819636609164442,0.2883128,0.642539584591806
0.0185,1.79144375,1.0,2268.6940414327764,0.18794579503037093,1.3342632761362836,0.8868378461060176,0.2882936375,0.6437119331206589
0.019,1.790975,1.0,2301.139138853523,0.19250077799608892,1.333729250143519,0.8913993572540773,0.28827395,0.6448494502507798
0.0195,1.79049375,1.0,2331.7840041894187,0.19703021058152678,1.3332095440651366,0.8956739363938933,0.2882537375,0.6459547185711219
0.02,1.79,1.0,2360.7052186617684,0.20153423588608477,1.332703016938123,0.8996847815755926,0.288233,0.6470303014039254
0.0205,1.78949375,1.0,2387.9846876431375,0.2060129970091632,1.3322085277994644,0.9034528325292153,0.2882117375,0.6480787438052056
0.021,1.788975,1.0,2413.691698130049,0.21046663472056357,1.331725104654818,0.9069970568423432,0.28818995000000003,0.6491022160132336
0.021500000000000002,1.78844375,1.0,2437.916207480435,0.21489529322584824,1.3312516159396777,0.9103345984990463,0.2881676375,0.6501032108971694
0.022,1.7879,1.0,2460.7168939162802,0.219299111147159,1.3307872681996524,0.9134810734642306,0.2881448,0.6510834923374083
0.0225,1.78734375,1.0,2482.1523773892254,0.2236782266261436,1.3303312975806245,0.9164506716354637,0.28812143749999997,0.6520447507611635
0.023,1.786775,1.0,2502.284021594219,0.22803277780444964,1.3298829402284753,0.9192563016333318,0.28809755,0.6529886662825772
0.0235,1.78619375,1.0,2521.175702959122,0.2323629028237248,1.3294414322890864,0.9219097242271532,0.28807313749999996,0.6539169090922045
0.024,1.7856,1.0,2538.8868998386815,0.23666873841960584,1.3290060729850253,0.9244216810358953,0.2880482,0.6548310074584573
0.0245,1.78499375,1.0,2555.4806046740127,0.24095042231401173,1.3285761473355628,0.926801985001822,0.2880227375,0.6557325108485922
0.025,1.784375,1.0,2571.0183776678887,0.2452080915568818,1.3281509710316073,0.9290596201932857,0.28799675,0.6566228960810372
0.025500000000000002,1.78374375,1.0,2585.5443438248763,0.2494418790026097,1.3277300378715826,0.9312028464700481,0.2879702375,0.657503259810877
0.026000000000000002,1.7831000000000001,1.0,2599.1039111658274,0.253651917505589,1.3273128416539133,0.9332392418962393,0.2879432,0.658374692884057
0.0265,1.78244375,1.0,2611.7436625895116,0.2578383399202133,1.3268988761770235,0.9351757682216771,0.2879156375,0.659238280466196
0.027,1.781775,1.0,2623.511253415703,0.2620012791008762,1.326487635239338,0.937018829275943,0.28788755,0.6600951021550542
0.0275,1.7810937500000001,1.0,2634.453375084062,0.266140867136706,1.3260786305840329,0.9387743255072675,0.2878589375,0.660946194759062
0.028,1.7804,1.0,2644.610761906066,0.2702572341101944,1.3256714369946125,0.940447706491115,0.2878298,0.6617924589472708
0.0285,1.77969375,1.0,2654.034624789713,0.27435051498269,1.3252655394874708,0.9420439924624991,0.2878001375,0.6626349771107288
0.029,1.778975,1.0,2662.757317304435,0.27842083699717424,1.3248606033745953,0.9435678462138245,0.28776995,0.6634744527267025
0.029500000000000002,1.7782437500000001,1.0,2670.811731850353,0.28246832739662897,1.324456293967973,0.9450235823825399,0.2877392375,0.6643115857926287
0.03,1.7775,1.0,2678.231251875989,0.28649311342403583,1.3240522765795908,0.9464151979036404,0.287708,0.6651470728430625
0.0305,1.77674375,1.0,2685.049706579351,0.2904953223223765,1.3236482165214365,0.9477463994367642,0.2876762375,0.6659816069594814
0.031,1.775975,1.0,2691.3013280928435,0.29447508133463285,1.323243779105497,0.9490206281013185,0.28764395,0.6668158777729487
0.0315,1.7751937500000001,1.0,2697.0180171309344,0.2984325160030121,1.3228386542783988,0.9502410843527953,0.2876111375,0.6676505207388792
0.032,1.7744,1.0,2702.2254392480177,0.30236774893491725,1.3224325918188544,0.9514107518572751,0.2875778,0.6684860450668879
0.0325,1.77359375,1.0,2706.9652395981207,0.3062809145101687,1.322025198011871,0.9525323951848794,0.2875439375,0.6693232520580846
0.033,1.772775,1.0,2711.2577834325043,0.3101721335110093,1.3216162757969223,0.9536086102541146,0.28750955,0.6701625355309886
0.0335,1.7719437500000002,1.0,2715.123620857691,0.314041526719682,1.321205628113483,0.9546418188036874,0.2874746375,0.6710042872073434
0.034,1.7711000000000001,1.0,2718.583469279328,0.31788921491842953,1.3207930579010274,0.9556342821537979,0.2874392,0.6718488966916711
0.0345,1.7702437500000001,1.0,2721.6581967071324,0.32171531888949484,1.3203783680990295,0.9565881137254204,0.2874032375,0.6726967514483506
0.035,1.7693750000000001,1.0,2724.3688059203964,0.3255199594151208,1.3199613616469639,0.9575052904427342,0.28736675,0.6735482367762142
0.035500000000000004,1.76849375,1.0,2726.736419495289,0.32930325727755017,1.3195418414843048,0.9583876631300116,0.2873297375,0.6744037357806743
0.036000000000000004,1.7676,1.0,2728.782265692226,0.3330653332590259,1.3191196105505263,0.9592369660021016,0.2872922,0.6752636293433687
0.0365,1.76669375,1.0,2730.52753672638,0.3368063078393486,1.3186944729527041,0.9600548253869061,0.2872541375,0.676128293716193
0.037,1.765775,1.0,2731.989458723311,0.3405262915210866,1.3182662695577019,0.9608427690765747,0.28721555,0.6769980282583682
0.0375,1.76484375,1.0,2733.1904809088483,0.3442254165309004,1.3178347943777249,0.9616022321674454,0.2871764375,0.6778732253918027
0.038,1.7639,1.0,2734.143125938433,0.3479037966664592,1.3173999321188556,0.9623345683454311,0.28713679999999997,0.6787540914889855
0.0385,1.76294375,1.0,2734.8599604143096,0.3515615457254321,1.3169615674871766,0.9630410509460832,0.28709663750000003,0.6796408314288009
0.039,1.761975,1.0,2735.353589259994,0.35519877750548823,1.3165195851887699,0.9637228785950332,0.28705595,0.6805336485712024
0.0395,1.7609937500000001,1.0,2735.6366503908425,0.3588156058042967,1.3160738699297179,0.9643811803938795,0.2870147375,0.6814327447310324
0.04,1.76,1.0,2735.721809678055,0.3624121444195267,1.3156243064161033,0.9650170206926336,0.286973,0.6823383201510005
0.0405,1.7589937500000001,1.0,2735.6217562083852,0.36598850714884734,1.3151707793540084,0.9656314034857262,0.2869307375,0.6832505734738106
0.041,1.757975,1.0,2735.349197838111,0.3695448077899277,1.3147131734495154,0.9662252764649276,0.28688795,0.6841697017134414
0.0415,1.75694375,1.0,2734.9168570415227,0.3730811601404369,1.3142513734087071,0.9667995347592664,0.2868446375,0.6850959002255782
0.042,1.7559,1.0,2734.335156416981,0.3765976729410099,1.313785284921907,0.9673550253053691,0.28680079999999997,0.6860293206839212
0.0425,1.75484375,1.0,2733.605432610356,0.38009443767935874,1.3133148962816108,0.9678925531120873,0.2867564375,0.6869699482399345
0.043000000000000003,1.753775,1.0,2732.754518146772,0.3835716058363011,1.3128399642735964,0.9684128707578543,0.28671155,0.6879182294429047
0.043500000000000004,1.75269375,1.0,2731.7881037072652,0.38702928251549346,1.3123604377080254,0.9689166988406362,0.28666613750000003,0.6888742249835804
0.044,1.7516,1.0,2730.7118835724123,0.3904675728205921,1.31187626539506,0.9694047200969559,0.2866202,0.6898379945256063
0.0445,1.75049375,1.0,2729.531554459915,0.3938865818552535,1.3113873961448617,0.9698775817622087,0.2865737375,0.6908095966904433
0.045,1.7493750000000001,1.0,2728.252814418731,0.3972864147231341,1.3108937787675927,0.9703358977614559,0.28652675,0.6917890890421146
0.0455,1.74824375,1.0,2726.8813617820974,0.4006671765278902,1.3103953620734148,0.9707802507444034,0.2864792375,0.6927765280717912
0.046,1.7471,1.0,2725.4228941786478,0.40402897237317825,1.30989209487249,0.971211193977056,0.2864312,0.6937719691822057
0.0465,1.7459437500000001,1.0,2723.883107601237,0.40737190736265466,1.3093839259749798,0.9716292531014211,0.28638263750000004,0.6947754666719013
0.047,1.744775,1.0,2722.2676955340908,0.4106960865999758,1.3088708041910464,0.9720349277736389,0.28633355,0.6957870737193121
0.0475,1.74359375,1.0,2720.5823481384828,0.4140016151887981,1.3083526783308514,0.9724286931900112,0.28628393750000003,0.6968068423666788
0.048,1.7424,1.0,2718.83275149536,0.4172885982327779,1.3078294972045572,0.9728110015095792,0.2862338,0.6978348235037931
0.0485,1.74119375,1.0,2717.0245869075097,0.42055714083557166,1.3073012096223253,0.9731822831811642,0.2861831375,0.6988710668515806
0.049,1.739975,1.0,2715.1635302585482,0.42380734810083576,1.3067677643943176,0.9735429481821117,0.28613195,0.6999156209455115
0.0495,1.73874375,1.0,2713.255251430856,0.4270393251322266,1.3062291103306962,0.973893387175371,0.2860802375,0.7009685331188467
0.05,1.7375,1.0,2711.305413781318,0.43025317703340055,1.305685196241623,0.974233972590985,0.286028,0.7020298494857158
0.0505,1.73624375,1.0,2709.314630319253,0.43344898456504827,1.30513601694989,0.9745650599128182,0.2859752375,0.7030995253825142
0.051000000000000004,1.734975,1.0,2707.2907761523365,0.4366268749233343,1.3045815009995487,0.9748869892685098,0.28592195,0.7041776442884626
0.051500000000000004,1.73369375,1.0,2705.2373543626345,0.4397869513934495,1.3040216167524268,0.9752000852213678,0.2858681375,0.7052642109287006
0.052000000000000005,1.7324,1.0,2703.1565334678344,0.4429293100831527,1.303456344716994,0.9755046577409248,0.2858138,0.7063592055197734
0.0525,1.73109375,1.0,2701.0504791645476,0.4460540471002028,1.3028856654017213,0.9758010030011504,0.28575893750000003,0.7074626074431012
0.053,1.729775,1.0,2698.921354221424,0.44916125855235867,1.3023095593150784,0.9760894041110236,0.28570355000000003,0.7085743952382753
0.0535,1.72844375,1.0,2696.7713183802007,0.4522510405473792,1.3017280069655361,0.9763701318003444,0.2856476375,0.7096945465963183
0.054,1.7271,1.0,2694.6025282660294,0.45532348919302323,1.3011409888615646,0.9766434450638894,0.2855912,0.7108230383529306
0.0545,1.7257437500000001,1.0,2692.417137305337,0.4583787005970496,1.300548485511634,0.9769095917667705,0.2855342375,0.7119598464817063
0.055,1.724375,1.0,2690.217295652508,0.4614167708672173,1.299950477424215,0.9771688092136382,0.28547675,0.7131049460873262
0.0555,1.72299375,1.0,2688.0051501254093,0.464437796111285,1.2993469451077775,0.9774213246841779,0.2854187375,0.7142583113987285
0.056,1.7216,1.0,2685.782844148367,0.46744187243701174,1.298737869070792,0.9776673559371504,0.2853602,0.7154199157622523
0.0565,1.72019375,1.0,2683.5525177044365,0.4704290959521564,1.2981232298217291,0.977907111685074,0.28530113749999997,0.7165897316347591
0.057,1.718775,1.0,2681.3163072959096,0.47339956276447775,1.2975030078690588,0.9781407920414804,0.28524155,0.7177677305767307
0.0575,1.71734375,1.0,2679.076345912591,0.4763533689817347,1.2968771837212516,0.9783685889425385,0.2851814375,0.7189538832453388
0.058,1.7159,1.0,2676.8349557641077,0.4792906105154305,1.2962457361175603,0.9785906864279827,0.2851208,0.7201481627301174
0.0585,1.71444375,1.0,2674.595265599791,0.4822113784447046,1.2956086363556754,0.9788072603087458,0.2850596375,0.7213505552038842
0.059000000000000004,1.7129750000000001,1.0,2672.3565541670237,0.48511576341294954,1.294965891052441,0.9790184813066592,0.28499795,0.7225609793228299
0.059500000000000004,1.71149375,1.0,2670.117996407991,0.488003856879476,1.2943175077897773,0.9792245135218969,0.2849357375,0.7237793514298929
0.06,1.71,1.0,2667.8787686480837,0.49087575030359465,1.293663494149603,0.9794255146238233,0.284873,0.7250055873847132
0.0605,1.7084937500000001,1.0,2665.6427809099077,0.4937315330727199,1.2930038141867135,0.9796216336439586,0.2848097375,0.7262396839031819
0.061,1.7069750000000001,1.0,2663.4127488754984,0.4965712993188137,1.292338442885576,0.9798130148189543,0.28474595,0.7274816161072604
0.0615,1.7054437500000001,1.0,2661.1886014920683,0.499395137505914,1.2916673808422623,0.9799997977630198,0.2846816375,0.7287313104356337
0.062,1.7039,1.0,2658.970303658698,0.5022031359765332,1.2909906283228765,0.9801821167626453,0.2846168,0.7299886933299029
0.0625,1.70234375,1.0,2656.7578203363796,0.5049953830731834,1.2903081855935217,0.9803601010440876,0.2845514375,0.7312536906167009
0.063,1.7007750000000001,1.0,2654.5511165475286,0.5077719671383771,1.2896200529203021,0.9805338750004359,0.28448555,0.7325262275077851
0.0635,1.69919375,1.0,2652.3501573763297,0.5105329765146265,1.2889262305693214,0.9807035584068542,0.28441913750000003,0.7338062286001381
0.064,1.6976050562893203,1.0,2650.406135870943,0.5132784981668753,1.2882266848477488,0.9808692648024587,0.28435241236415143,0.7350936802987132
0.0645,1.6960162993864474,1.0,2649.031170308951,0.5160086205391133,1.2875218664046366,0.9810311280382725,0.28428568457423076,0.7363876796530431
0.065,1.6944275424835744,1.0,2648.177676459706,0.5187234304619709,1.2868122388069645,0.9811892777573542,0.28421895678431014,0.7376873076228851
0.0655,1.6928387855807017,1.0,2647.8098354863046,0.5214230126391008,1.2860981302926353,0.9813438322132099,0.28415222899438947,0.7389919000097522
0.066,1.6912500286778287,1.0,2647.8919787466266,0.5241074517741564,1.2853798690995524,0.9814949055362322,0.2840855012044688,0.740300798191079
0.0665,1.6896612717749557,1.0,2648.388556377487,0.5267768325707903,1.2846577834656183,0.9816426079161756,0.2840187734145481,0.7416133492105904
0.067,1.6880725148720828,1.0,2649.2641082677083,0.5294312397326556,1.2839322016287367,0.9817870457753827,0.2839520456246275,0.7429289058617935
0.0675,1.6864837579692098,1.0,2650.483261274059,0.5320707579574274,1.2832034516067776,0.9819283219222962,0.28388531783470683,0.744246827162014
0.068,1.6848950010663368,1.0,2652.0165998767093,0.5346954708790786,1.2824718068382923,0.9820665330420608,0.28381859004478616,0.7455665763441023
0.0685,1.683306244163464,1.0,2653.8386148985014,0.5373054615795675,1.2817375049835853,0.9822017708646593,0.2837518622548655,0.7468876858597713
0.069,1.6817174872605911,1.0,2655.9269601369406,0.5399008121527212,1.2810007546906306,0.9823341226528601,0.2836851344649448,0.748209744462041
0.0695,1.6801287303577181,1.0,2658.259296010513,0.5424816046923665,1.2802617646074022,0.9824636727998529,0.28361840667502414,0.7495323447039066
0.07,1.6785399734548452,1.0,2660.8221944240836,0.5450479174194967,1.2795206613021823,0.9825904988909702,0.28355167888510346,0.7508552292895111
0.07050000000000001,1.6769512165519722,1.0,2663.58229932499,0.547599837770522,1.2787777547489918,0.9827146850255265,0.28348495109518285,0.7521778171463999
0.07100000000000001,1.6753624596490992,1.0,2666.522627613627,0.5501374465411477,1.2780332039319013,0.9828363053016382,0.2834182233052622,0.7534998007377607
0.07150000000000001,1.6737737027462263,1.0,2669.6311837440453,0.5526608223630599,1.2772871218204027,0.9829554292260845,0.2833514955153415,0.7548209568640215
0.07200000000000001,1.6721849458433535,1.0,2672.895959929559,0.5551700438679449,1.276539621383988,0.9830721240963907,0.2832847677254208,0.7561410644285734
0.0725,1.6705961889404806,1.0,2676.304932448939,0.5576651896874889,1.2757908155921494,0.9831864550884835,0.2832180399355002,0.7574599044483963
0.073,1.6690074320376076,1.0,2679.84605823518,0.5601463384533782,1.2750408174143788,0.9832984853403454,0.28315131214557954,0.7587772600638722
0.0735,1.6674186751347346,1.0,2683.5072717478124,0.5626135687972991,1.2742897398201685,0.9834082760318755,0.28308458435565886,0.7600929165477815
0.074,1.6658299182318617,1.0,2687.2764821274736,0.5650669593509378,1.2735376957790105,0.98351588646115,0.2830178565657382,0.7614066613134869
