Time [s],Phi [rad],STIM [ ],Fsee [N],Gamma [ ],Lcerel [ ],q [ ],Lmtc [m],fisomrel [ ]
0.0,1.8,1.0,17.96905979547312,1.7566753431789774e-05,1.3793395331794378,0.00500008188001977,0.288653,0.5411400464515504
0.0005,1.79999375,1.0,18.280767051651537,0.005626677526633894,1.3793019409475877,0.012961530984642849,0.2886527375,0.5412309872238288
0.001,1.799975,1.0,21.627923849439238,0.011204325623283929,1.378937327616581,0.0356480065597518,0.28865195,0.5421125693201656
0.0015,1.79994375,1.0,31.09064880143693,0.01675068752498746,1.3780443797464006,0.07065567089857563,0.2886506375,0.5442680068308651
0.002,1.7999,1.0,53.627470443367514,0.022265938721689818,1.3763652075748691,0.11478174658134915,0.2886488,0.5483074953033344
0.0025,1.79984375,1.0,97.19408148701608,0.02775025371928579,1.3739315469573807,0.16464420498106383,0.28864643749999996,0.5541300962693245
0.003,1.7997750000000001,1.0,161.05577849940474,0.033203806047273486,1.3712106906120167,0.21735196396858644,0.28864354999999997,0.5605950994111913
0.0035,1.79969375,1.0,237.79351511858604,0.03862676825839602,1.3685813406808003,0.2706840171566036,0.2886401375,0.5667978166516066
0.004,1.7996,1.0,321.5839293564064,0.044019311939410756,1.3661529896104463,0.322984676945007,0.2886362,0.5724872072682794
0.0045000000000000005,1.7994937500000001,1.0,409.3890348057186,0.049381607716277795,1.3639199673793108,0.3730998909789513,0.2886317375,0.5776857695875044
0.005,1.799375,1.0,499.5372057557212,0.054713825245255074,1.3618557138610958,0.4203086342708962,0.28862675,0.5824631452362141
0.0055,1.79924375,1.0,590.9152145450827,0.06001613326013624,1.3599363969280496,0.4642303370649542,0.2886212375,0.5868807084389462
0.006,1.7991000000000001,1.0,682.6430407376895,0.06528869951601446,1.3581441439126416,0.5047320143294216,0.2886152,0.5909846051692635
0.006500000000000001,1.79894375,1.0,774.0078361136912,0.07053169084476868,1.356465092931802,0.5418483289959726,0.2886086375,0.5948107063811279
0.007,1.798775,1.0,864.412271852084,0.07574527313605815,1.354888352326394,0.5757201178464667,0.28860155,0.5983873003286266
0.0075,1.79859375,1.0,953.3682585278312,0.08092961135759576,1.3534048559618455,0.6065493254176032,0.2885939375,0.6017379074699849
0.008,1.7984,1.0,1040.478219405605,0.08608486949970776,1.3520068830997487,0.6345678916369499,0.2885858,0.60488250717602
0.0085,1.79819375,1.0,1125.4383584665347,0.09121121080844674,1.350687484309051,0.6600169307540624,0.2885771375,0.6078389296842763
0.009000000000000001,1.797975,1.0,1208.00096010659,0.09630879732998987,1.349440658046885,0.6831338769982692,0.28856795,0.6106225334941328
0.0095,1.79774375,1.0,1287.9879650006242,0.10137779040675604,1.3482608566756165,0.7041444894502362,0.2885582375,0.6132473715164724
0.01,1.7975,1.0,1365.2703338660444,0.1064183505323187,1.347143057818049,0.7232587517440547,0.288548,0.6157260759207102
0.0105,1.79724375,1.0,1439.7538851347656,0.1114306367333906,1.3460827650943068,0.7406690523730901,0.2885372375,0.618069897017471
0.011,1.796975,1.0,1511.4015613348001,0.11641480791832061,1.3450755843960274,0.7565496408118988,0.28852595000000003,0.620289671727488
0.0115,1.79669375,1.0,1580.2135834247338,0.12137102288724283,1.3441173771720216,0.7710572823626166,0.2885141375,0.622395506148752
0.012,1.7964,1.0,1646.163830720138,0.12629943717933317,1.3432049146690057,0.7843326065648026,0.28850180000000003,0.6243953652647976
0.0125,1.79609375,1.0,1709.2668366101282,0.1312002063337676,1.342334968133695,0.7965009910272296,0.2884889375,0.6262970969161419
0.013000000000000001,1.7957750000000001,1.0,1769.5742253119033,0.13607348588972204,1.3415043088128054,0.8076739908387754,0.28847555,0.6281084408873983
0.0135,1.79544375,1.0,1827.1495365312664,0.1409194301364531,1.340709950622917,0.8179508461127066,0.2884616375,0.6298365100335761
0.014,1.7951000000000001,1.0,1882.0587335348407,0.1457381933239538,1.3399492022616526,0.8274198311060702,0.2884472,0.6314876909491901
0.0145,1.79474375,1.0,1934.3549391292229,0.1505299268608689,1.339219783015911,0.8361595153372735,0.2884322375,0.6330674069216783
0.015,1.794375,1.0,1984.1116934735644,0.15529478210788733,1.3385194181518894,0.8442397377314,0.28841675,0.6345810061674308
0.0155,1.79399375,1.0,2031.411276492502,0.160032909603773,1.3378459425115417,0.8517226618862972,0.2884007375,0.6360335431393116
0.016,1.7936,1.0,2076.3493854478925,0.16474446061645742,1.337197228160719,0.8586636595371072,0.2883842,0.6374299404359951
0.0165,1.7931937500000001,1.0,2119.0118798016997,0.16942958472272696,1.3365714068335544,0.8651121792191474,0.2883671375,0.6387745156316392
0.017,1.792775,1.0,2159.4654691134933,0.17408842877160652,1.3359669387112552,0.8711124622908547,0.28834955,0.6400708421332517
0.0175,1.7923437500000001,1.0,2197.7875729755683,0.17872113961212102,1.3353822839750296,0.8767040630555933,0.2883314375,0.6413224604454485
0.018000000000000002,1.7919,1.0,2234.065425571029,0.18332786409329538,1.3348159028060849,0.8819223999843491,0.2883128,0.6425328801917931
0.0185,1.79144375,1.0,2268.3856929496314,0.18790874798220655,1.3342663505052437,0.8867992626082895,0.2882936375,0.6437053792088826
0.019,1.790975,1.0,2300.8410431265665,0.19246393776988072,1.3337322012559452,0.8913632129734876,0.28827395,0.6448431691481548
0.0195,1.79049375,1.0,2331.509065964506,0.19699357755725697,1.333212247968372,0.8956400015342932,0.2882537375,0.6459489725888528
0.02,1.79,1.0,2360.4563691184803,0.20149780936457637,1.332705449224972,0.8996528714714195,0.288233,0.6470251404847247
0.0205,1.78949375,1.0,2387.754621571234,0.20597677521207988,1.3322107636081937,0.9034228022557779,0.2882117375,0.6480740068331023
0.021,1.788975,1.0,2413.4801315753975,0.21043061712000857,1.331727149700485,0.9069687609204564,0.28818995000000003,0.6490978895140052
0.021500000000000002,1.78844375,1.0,2437.7049633736915,0.2148594755991708,1.3312536476977825,0.9103079390858897,0.2881676375,0.6500989186444942
0.022,1.7879,1.0,2460.507991890165,0.2192634929129535,1.3307892681003064,0.9134559237415741,0.2881448,0.6510792733088764
0.0225,1.78734375,1.0,2481.9552338622984,0.22364280865875977,1.3303331767429813,0.9164269031148559,0.28812143749999997,0.6520407919097266
0.023,1.786775,1.0,2502.10197919848,0.22799755983545983,1.3298846684504306,0.9192338079678163,0.28809755,0.652985030361446
0.0235,1.78619375,1.0,2521.005922770083,0.23232788344192384,1.3294430380472775,0.9218884188304252,0.28807313749999996,0.6539135353385845
0.024,1.7856,1.0,2538.726963103697,0.23663391647702212,1.329007580358145,0.9244014842051056,0.2880482,0.6548278446010166
0.0245,1.78499375,1.0,2555.3270120979337,0.2409157959396248,1.3285775902076562,0.9267828252004655,0.2880227375,0.6557294872874029
0.025,1.784375,1.0,2570.8585115789137,0.24517365552334794,1.3281524682939063,0.9290414448844999,0.28799675,0.6566197626040078
0.025500000000000002,1.78374375,1.0,2585.386505524179,0.24940763471346922,1.3277315119833313,0.9311855778496033,0.2879702375,0.657500178740815
0.026000000000000002,1.7831000000000001,1.0,2598.9555917203757,0.2536178662378836,1.327314223246027,0.933222809720264,0.2879432,0.6583718088675061
0.0265,1.78244375,1.0,2611.607910742018,0.25780448162661795,1.326900137637057,0.9351601138913246,0.2879156375,0.6592356505512538
0.027,1.781775,1.0,2623.3866274860343,0.261967612409699,1.3264887907114848,0.937003904725734,0.28788755,0.660092696236455
0.0275,1.7810937500000001,1.0,2634.3358424480975,0.26610739011715345,1.3260797180243737,0.9387600898180929,0.2878589375,0.6609439333327325
0.028,1.7804,1.0,2644.5005077817787,0.2702239462790081,1.3256724551307872,0.9404341167371343,0.2878298,0.6617903442891753
0.0285,1.77969375,1.0,2653.9227302061504,0.2743174110052796,1.3252665709363964,0.942031019129458,0.2878001375,0.6626328374721882
0.029,1.778975,1.0,2662.6388448255607,0.27838791294695664,1.3248616936692703,0.9435554574242401,0.28776995,0.6634721938339706
0.029500000000000002,1.7782437500000001,1.0,2670.700001757702,0.2824355871048105,1.3244573206605956,0.945011728482937,0.2877392375,0.6643094613193476
0.03,1.7775,1.0,2678.1343564192134,0.28646055893712086,1.324053165720687,0.9464038386103699,0.287708,0.6651452352882682
0.0305,1.77674375,1.0,2684.9704737800666,0.2904629539021674,1.323648942659858,0.9477355030372174,0.2876762375,0.6659801081478185
0.031,1.775975,1.0,2691.237292067769,0.2944428974582298,1.3232443652884234,0.9490101707294445,0.28764395,0.6668146693535852
0.0315,1.7751937500000001,1.0,2696.9640882874555,0.2984005150635877,1.322839147416697,0.9502310467920045,0.2876111375,0.6676495054058043
0.032,1.7744,1.0,2702.1804455582164,0.30233593217652077,1.3224330028549924,0.9514011127260922,0.2875778,0.6684851998402821
0.0325,1.77359375,1.0,2706.916222265175,0.3062492742553087,1.3220256454136246,0.952523144768725,0.2875439375,0.6693223332140898
0.033,1.772775,1.0,2711.1977881555777,0.31014066491320114,1.3216168229658627,0.9535997339765384,0.28750955,0.6701614132185745
0.0335,1.7719437500000002,1.0,2715.0496237235616,0.3140102272906805,1.3212063025024137,0.9546332996486486,0.2874746375,0.6710029057166069
0.034,1.7711000000000001,1.0,2718.505190107412,0.317858088583946,1.3207937708613993,0.9556260929238458,0.2874392,0.6718474380628956
0.0345,1.7702437500000001,1.0,2721.5828626256202,0.3216843681043471,1.320379053847882,0.95658023103044,0.2874032375,0.6726953503046429
0.035,1.7693750000000001,1.0,2724.301142247679,0.32548918516323333,1.319961977266924,0.9574976944248522,0.28736675,0.6735469805594401
0.035500000000000004,1.76849375,1.0,2726.6786425682926,0.3292726590719543,1.3195423669235877,0.9583803372110048,0.2873297375,0.674402664990023
0.036000000000000004,1.7676,1.0,2728.7340774540608,0.3330349091418595,1.3191200486229357,0.9592298966513769,0.2872922,0.6752627377770891
0.0365,1.76669375,1.0,2730.486249363455,0.3367760546842985,1.3186948481700302,0.9600480018582936,0.2872541375,0.676127531090183
0.037,1.765775,1.0,2731.9540383388144,0.34049621501062083,1.3182665913699338,0.9608361817445265,0.28721555,0.676997375056644
0.0375,1.76484375,1.0,2733.152984974694,0.34419550536760823,1.3178351349725894,0.9615958744637393,0.2871764375,0.6778725350030481
0.038,1.7639,1.0,2734.1002981080646,0.3478740439422316,1.317400321078487,0.962328431008117,0.28713679999999997,0.6787533041430911
0.0385,1.76294375,1.0,2734.8172866964974,0.35153195538536186,1.316961954996367,0.963035119999061,0.28709663750000003,0.6796400481022993
0.039,1.761975,1.0,2735.3151838235717,0.35516935237947045,1.3165199339071756,0.9637171417586091,0.28705595,0.680532944640935
0.0395,1.7609937500000001,1.0,2735.605253971179,0.3587863476070288,1.316074154991859,0.9643756269790797,0.2870147375,0.6814321701089995
0.04,1.76,1.0,2735.6987885993653,0.3623830537505083,1.315624515431363,0.9650116415032637,0.286973,0.68233789942193
0.0405,1.7589937500000001,1.0,2735.6071019611886,0.36595958349238034,1.3151709124066338,0.9656261907275807,0.2869307375,0.6832503060356186
0.041,1.757975,1.0,2735.3415271517347,0.3695160495151163,1.3147132430986173,0.9662202236616053,0.28688795,0.6841695619207611
0.0415,1.75694375,1.0,2734.9134123916956,0.3730525645011877,1.3142514046882596,0.9667946366740902,0.2868446375,0.6850958375365296
0.042,1.7559,1.0,2734.3341175452356,0.3765692411330658,1.3137852943565067,0.9673502769527009,0.28680079999999997,0.6860293018035729
0.0425,1.75484375,1.0,2733.6150108725487,0.38006619209322207,1.3133148092843048,0.967887945702065,0.2867564375,0.6869701220763385
0.043000000000000003,1.753775,1.0,2732.7622998121183,0.38354352204281017,1.3128398935833805,0.9684084036456163,0.28671155,0.6879183704806735
0.043500000000000004,1.75269375,1.0,2731.7836460991125,0.3870013411415555,1.3123604782090432,0.9689123709126809,0.28666613750000003,0.688874144301715
0.044,1.7516,1.0,2730.6975844148365,0.3904397758540817,1.3118763953403247,0.9694005244372362,0.2866202,0.6898377360635379
0.0445,1.75049375,1.0,2729.509622305274,0.3938589310556453,1.3113875954991077,0.9698735118865317,0.2865737375,0.6908092007949111
0.045,1.7493750000000001,1.0,2728.2252685182243,0.3972589116215027,1.3108940292072742,0.9703319475932249,0.28652675,0.6917885924849061
0.0455,1.74824375,1.0,2726.850032012146,0.4006398224269102,1.3103956469867064,0.9707764145919715,0.2864792375,0.6927759640679335
0.046,1.7471,1.0,2725.3894210194153,0.4040017683471242,1.3098923993592866,0.9712074665125711,0.2864312,0.6937713674086239
0.0465,1.7459437500000001,1.0,2723.848942163855,0.4073448542574012,1.3093842368468969,0.9716256293410577,0.28638263750000004,0.6947748532865536
0.047,1.744775,1.0,2722.234099632287,0.41066918503299743,1.3088711099714196,0.9720314030591143,0.28633355,0.6957864713808137
0.0475,1.74359375,1.0,2720.5503944009424,0.4139748655491694,1.308352969254737,0.9724252631712955,0.28628393750000003,0.6968062702544233
0.048,1.7424,1.0,2718.803323515111,0.4172620006811735,1.3078297652187314,0.9728076621287178,0.2862338,0.6978342973385865
0.0485,1.74119375,1.0,2716.9983794245354,0.42053069530426607,1.3073014483852847,0.9731790306571305,0.2861831375,0.6988705989167927
0.049,1.739975,1.0,2715.1410493715152,0.4237810542937035,1.3067679692762795,0.9735397789966233,0.28613195,0.6999152201087617
0.0495,1.73874375,1.0,2713.236814834497,0.42701318252474224,1.3062292784135978,0.9738902980595987,0.2860802375,0.7009682048542321
0.05,1.7375,1.0,2711.2877187833196,0.43022717584214065,1.3056853576215015,0.9742309615628905,0.286028,0.7020295348718582
0.0505,1.73624375,1.0,2709.296596844523,0.4334231365499536,1.3051361814771238,0.9745621262269946,0.2859752375,0.7030992052090553
0.051000000000000004,1.734975,1.0,2707.2726383827708,0.4366011814842358,1.3045816665401524,0.9748841302586693,0.28592195,0.704177322728391
0.051500000000000004,1.73369375,1.0,2705.2181913661025,0.4397614074596956,1.3040217917164998,0.9751972983096001,0.2858681375,0.7052638716884223
0.052000000000000005,1.7324,1.0,2703.135600823087,0.4429039112910411,1.303456535912079,0.9755019404485692,0.2858138,0.7063588354982175
0.0525,1.73109375,1.0,2701.0272087143044,0.4460287897929806,1.3028858780328036,0.9757983529407971,0.28575893750000003,0.7074621967101327
0.053,1.729775,1.0,2698.8953538137926,0.4491361397802225,1.3023097969845858,0.9760868189791108,0.28570355000000003,0.708573937012559
0.0535,1.72844375,1.0,2696.742371600188,0.4522260580674749,1.3017282716733392,0.9763676093703013,0.2856476375,0.7096940372226392
0.054,1.7271,1.0,2694.5705941581687,0.4552986414694462,1.301141281004976,0.9766409831797818,0.2855912,0.7108224772789606
0.0545,1.7257437500000001,1.0,2692.3823500888025,0.4583539868008446,1.3005488038854096,0.9769071883374046,0.2855342375,0.7119592362342143
0.055,1.724375,1.0,2690.1799644309804,0.46139219087637834,1.299950819220553,0.9771664622070904,0.28547675,0.7131042922478287
0.0555,1.72299375,1.0,2687.9657585918244,0.4644133505107558,1.299347305916319,0.9774190321227088,0.2854187375,0.7142576225785771
0.056,1.7216,1.0,2685.7420502872624,0.4674175625186851,1.2987382428786205,0.9776651158924791,0.2853602,0.7154192035771504
0.0565,1.72019375,1.0,2683.5111534925936,0.47040492371487463,1.2981236090133708,0.977904922273979,0.28530113749999997,0.7165890106787081
0.057,1.718775,1.0,2681.275378402889,0.4733755309140326,1.2975033832264822,0.9781386514217024,0.28524155,0.7177670183953982
0.0575,1.71734375,1.0,2679.038701154447,0.47632944963508206,1.2968775291041823,0.9783664916677557,0.2851814375,0.7189532293143985
0.058,1.7159,1.0,2676.8010093433613,0.4792668142075866,1.2962460476992639,0.9785886318755328,0.2851208,0.7201475740515481
0.0585,1.71444375,1.0,2674.563064477727,0.4821877143936335,1.2956089320416024,0.9788052489695281,0.2850596375,0.7213499977590028
0.059000000000000004,1.7129750000000001,1.0,2672.325675181369,0.48509223880541774,1.2949661747165946,0.9790165127100636,0.28499795,0.7225604457049088
0.059500000000000004,1.71149375,1.0,2670.089648727406,0.48798047605513445,1.2943177683096365,0.9792225861554966,0.2849357375,0.723778862427408
0.06,1.71,1.0,2667.8557910379254,0.4908525147549786,1.2936637054061244,0.9794236259771286,0.284873,0.7250051917319674
0.0605,1.7084937500000001,1.0,2665.6249066854352,0.49370844351714527,1.2930039785914549,0.9796197827569513,0.2848097375,0.7262393766887062
0.061,1.7069750000000001,1.0,2663.397798895335,0.49654835095382954,1.2923385804510241,0.9798112012692887,0.28474595,0.7274813596297197
0.0615,1.7054437500000001,1.0,2661.1752695492196,0.49937232567722645,1.2916675035702285,0.9799980207473207,0.2846816375,0.728731082146399
0.062,1.7039,1.0,2658.9581191906323,0.5021804562995311,1.290990740534464,0.9801803751354115,0.2846168,0.7299884850867482
0.0625,1.70234375,1.0,2656.747147030221,0.5049728314329384,1.2903082839291276,0.980358393328094,0.2845514375,0.7312535085526948
0.063,1.7007750000000001,1.0,2654.5431509536734,0.5077495396896435,1.2896201263396152,0.9805321993965189,0.28448555,0.7325260918974023
0.0635,1.69919375,1.0,2652.346927530409,0.5105106696818416,1.2889262603513232,0.9807019128031041,0.28441913750000003,0.7338061737225747
0.064,1.6976,1.0,2650.159272022658,0.5132563100217273,1.288226678549648,0.9808676486050892,0.2843522,0.7350936918757587
0.0645,1.69599375,1.0,2647.9809783973046,0.5159865493214962,1.2875213735199855,0.9810295176476431,0.2842847375,0.7363885834476434
0.065,1.694375,1.0,2645.81283933753,0.5187014761933431,1.2868103378477327,0.9811876267471294,0.28421675,0.7376907847693541
0.0655,1.69274375,1.0,2643.653082041216,0.5214011564394485,1.2860935878014383,0.9813420784429461,0.2841482375,0.7390001881980252
0.066,1.6911,1.0,2641.4997702805504,0.5240856643905576,1.2853711411866042,0.9814929722973305,0.2840792,0.7403166829650996
0.0665,1.6894437500000001,1.0,2639.35890816059,0.526755138863498,1.2846429424411638,0.9816404051657195,0.2840096375,0.7416402911939933
0.067,1.687775,1.0,2637.2304464595513,0.5294096591723034,1.2839089918901072,0.9817844691166815,0.28393955,0.7429709321554306
0.0675,1.68609375,1.0,2635.11433608846,0.5320493046310075,1.2831692898584253,0.9819252529999365,0.2838689375,0.7443085244932244
0.068,1.6844000000000001,1.0,2633.010528089898,0.5346741545536441,1.2824238366711083,0.9820628425798681,0.2837978,0.7456529862243979
0.0685,1.68269375,1.0,2630.918973637468,0.537284288254247,1.281672632653147,0.982197320662585,0.2837261375,0.7470042347393029
0.069,1.680975,1.0,2628.8396240350594,0.53987978504685,1.2809156781295312,0.982328767216899,0.28365395,0.7483621868017398
0.0695,1.67924375,1.0,2626.772430715866,0.5424607242454866,1.2801529734252521,0.9824572594895398,0.28358123749999997,0.7497267585490752
0.07,1.6775,1.0,2624.7173452420416,0.5450271851641908,1.2793845188653,0.9825828721149242,0.283508,0.7510978654923626
0.07050000000000001,1.67574375,1.0,2622.6743193035322,0.5475792471169961,1.278610314774665,0.9827056772197686,0.2834342375,0.7524754225164607
0.07100000000000001,1.673975,1.0,2620.643304717383,0.5501169894179366,1.2778303614783382,0.9828257445228229,0.28335995,0.7538593438801529
0.07150000000000001,1.67219375,1.0,2618.6242534272137,0.5526404913810459,1.2770446593013096,0.9829431414299805,0.2832851375,0.7552495432162669
0.07200000000000001,1.6704,1.0,2616.617117502406,0.5551498323203575,1.2762532085685698,0.9830579331250109,0.2832098,0.756645933531793
0.0725,1.66859375,1.0,2614.6218491371637,0.5576450915499055,1.2754560096051095,0.9831701826561429,0.2831339375,0.7580484272080033
0.073,1.6667750000000001,1.0,2612.6384006499966,0.5601263483837234,1.2746530627359187,0.983279951018712,0.28305755,0.7594569360005724
0.0735,1.66494375,1.0,2610.6667244828136,0.5625936821358453,1.2738443682859886,0.9833872972340796,0.2829806375,0.7608713710396935
0.074,1.6631,1.0,2608.706773200188,0.5650471721203045,1.273029926580309,0.983492278425008,0.2829032,0.7622916428302013
0.0745,1.6612437500000001,1.0,2606.758499488842,0.5674868976511351,1.2722097379438706,0.983594949887681,0.2828252375,0.7637176612516878
0.075,1.659375,1.0,2604.821856156659,0.5699129380423708,1.271383802701664,0.9836953651605311,0.28274675,0.7651493355586235
0.0755,1.65749375,1.0,2602.896796132109,0.5723253726080452,1.2705521211786797,0.9837935760900405,0.2826677375,0.7665865743804753
