Time [s],Phi [rad],STIM [ ],Fsee [N],Gamma [ ],Lcerel [ ],q [ ],Lmtc [m],fisomrel [ ]
0.0,1.8,1.0,18.99792935204087,0.001035987721128773,1.37922587577941,0.0052756040956913955,0.288653,0.5414149717453427
0.0005,1.79999375,1.0,19.608362102177274,0.0066393859580910295,1.379157071311602,0.016032347250104852,0.2886527375,0.541581362482171
0.001,1.799975,1.0,23.712783412338165,0.012211353562438075,1.3787293340465752,0.04115324476749743,0.28865195,0.5426150877954008
0.0015,1.79994375,1.0,34.90730743679831,0.01775206683228314,1.3777287323363683,0.0780605034436541,0.2886506375,0.5450287141822713
0.002,1.7999,1.0,60.82619350926006,0.023261701082717936,1.375913083047239,0.12346729602526972,0.2886488,0.5493920726846926
0.0025,1.79984375,1.0,108.4438901500475,0.028740430640379584,1.373404488834882,0.1740397854179023,0.28864643749999996,0.555386121549619
0.003,1.7997750000000001,1.0,175.15080962134272,0.034188428859133806,1.370694320873648,0.22700998729723332,0.28864354999999997,0.561816710688855
0.0035,1.79969375,1.0,253.4281478442547,0.0396058681151364,1.3681075283936768,0.28026529478288253,0.2886401375,0.5679108658797782
0.004,1.7996,1.0,338.0509999718478,0.04499291982038898,1.3657223631215976,0.33224436699441695,0.2886362,0.5734921974258749
0.0045000000000000005,1.7994937500000001,1.0,426.33212127579463,0.05034975442510967,1.3635263388918852,0.3818775136186277,0.2886317375,0.5785988550123158
0.005,1.799375,1.0,516.7352507631487,0.05567654140263721,1.3614933941782068,0.42851260883796,0.28862675,0.5832988710635192
0.0055,1.79924375,1.0,608.2119100783242,0.060973449369409974,1.359600934258131,0.4718204314146799,0.2886212375,0.5876504084205336
0.006,1.7991000000000001,1.0,699.8995414283876,0.06624064582612688,1.357832452879232,0.5117039661833118,0.2886152,0.591696223426123
0.006500000000000001,1.79894375,1.0,791.1166722199079,0.0714782974825058,1.356174653965072,0.5482210593478735,0.2886086375,0.595470713880297
0.007,1.798775,1.0,881.2860178075474,0.07668657008123414,1.3546171244265865,0.5815265290836935,0.28860155,0.599000940891004
0.0075,1.79859375,1.0,969.9216531119997,0.08186562823375496,1.3531513599751133,0.6118298783335868,0.2885939375,0.6023090463894387
0.008,1.7984,1.0,1056.671150804906,0.08701563625019897,1.3517694089144665,0.6393657435993129,0.2885858,0.605415443086629
0.0085,1.79819375,1.0,1141.2177271342812,0.09213675667286757,1.350464896274533,0.6643756006225775,0.2885771375,0.6083365959160743
0.009000000000000001,1.797975,1.0,1223.327000507034,0.09722915145918067,1.3492319146594631,0.6870952236283363,0.28856795,0.6110875949722113
0.0095,1.79774375,1.0,1302.8425399286118,0.1022929821801598,1.3480648617225404,0.7077476628765025,0.2885582375,0.6136825638841482
0.01,1.7975,1.0,1379.635088430442,0.10732840887482165,1.3469589219556568,0.7265398659744305,0.288548,0.6161336303423739
0.0105,1.79724375,1.0,1453.621190304383,0.11233559057898002,1.3459096267229982,0.7436609382703772,0.2885372375,0.6184519456006252
0.011,1.796975,1.0,1524.7582557295,0.11731468560275803,1.3449127897560105,0.7592819825495971,0.28852595000000003,0.6206478554296113
0.0115,1.79669375,1.0,1593.056743012184,0.12226585270134434,1.3439642608075275,0.7735566722124694,0.2885141375,0.6227314645635561
0.012,1.7964,1.0,1658.5025774543585,0.1271892475872059,1.3430607660886096,0.78662275914628,0.28850180000000003,0.6247108124065571
0.0125,1.79609375,1.0,1721.1134001701234,0.1320850256408445,1.3421991291944937,0.7986030420222652,0.2884889375,0.6265936096254152
0.013000000000000001,1.7957750000000001,1.0,1780.9391614118538,0.13695334197641687,1.341376216120739,0.8096067687348512,0.28847555,0.628387369474128
0.0135,1.79544375,1.0,1838.0455614715547,0.14179435120930386,1.340589079544815,0.8197310950839419,0.2884616375,0.6300991036186725
0.014,1.7951000000000001,1.0,1892.4953738877568,0.14660820683909678,1.3398351167009444,0.8290624573871871,0.2884472,0.6317349918904833
0.0145,1.79474375,1.0,1944.343710754781,0.15139506021700963,1.3391120691035938,0.8376777729939222,0.2884322375,0.6333003972840543
0.015,1.794375,1.0,1993.666212232265,0.15615506269425644,1.3384176782672295,0.845645418936112,0.28841675,0.6348006219267155
0.0155,1.79399375,1.0,2040.54562548163,0.1608883647178198,1.3377498081463057,0.8530262727875689,0.2884007375,0.6362406476311661
0.016,1.7936,1.0,2085.0795280034636,0.16559511762364296,1.337106340963662,0.8598745664428126,0.2883842,0.637625366333199
0.0165,1.7931937500000001,1.0,2127.346080327671,0.17027547011068864,1.3364855137429403,0.8662387706821225,0.2883671375,0.6389588617383595
0.017,1.792775,1.0,2167.4155859894186,0.17492956913081167,1.3358857700105464,0.8721622290859204,0.28834955,0.6402447369401222
0.0175,1.7923437500000001,1.0,2205.3689585526254,0.17955756163586692,1.3353055532928866,0.8776837041241167,0.2883314375,0.6414865622798189
0.018000000000000002,1.7919,1.0,2241.2968260774696,0.1841595945777092,1.3347433071163675,0.8828379153025598,0.2883128,0.6426878773622363
0.0185,1.79144375,1.0,2275.2788205351485,0.18873581300335565,1.334197672813648,0.8876560603461432,0.2882936375,0.6438517713199678
0.019,1.790975,1.0,2307.4148232382204,0.19328636425346019,1.3336671659231107,0.8921661422432878,0.28827395,0.6449815764822682
0.0195,1.79049375,1.0,2337.771725736734,0.19781139088429456,1.3331506968006597,0.8963934566941628,0.2882537375,0.6460797615473053
0.02,1.79,1.0,2366.4189429649387,0.20231103510180456,1.3326472054976621,0.9003608122767319,0.288233,0.6471487138858296
0.0205,1.78949375,1.0,2393.430923548691,0.20678543911193586,1.3321556320654848,0.9040888023908636,0.2882117375,0.6481908038494205
0.021,1.788975,1.0,2418.8867246079158,0.21123474512063423,1.3316749165554949,0.9075960506042484,0.28818995000000003,0.6492083856119437
0.021500000000000002,1.78844375,1.0,2442.8526129856664,0.21565909289465482,1.33120416234236,0.9108994591388871,0.2881676375,0.6502034529562998
0.022,1.7879,1.0,2465.415496564793,0.22005862583044206,1.330742309048317,0.9140143301877145,0.2881448,0.6511783322875879
0.0225,1.78734375,1.0,2486.6315337916476,0.22443348157453935,1.330288622574478,0.916954629511455,0.28812143749999997,0.6521346485900956
0.023,1.786775,1.0,2506.5568645945546,0.22878379733703869,1.329842393974814,0.9197330696190756,0.28809755,0.6530739640847052
0.0235,1.78619375,1.0,2525.2500038540275,0.23310971032803202,1.3294029143032957,0.922361235330375,0.28807313749999996,0.6539978317872948
0.024,1.7856,1.0,2542.7716410157855,0.23741135775761138,1.3289694746138936,0.9248496993826002,0.2880482,0.654907795829907
0.0245,1.78499375,1.0,2559.1783251204456,0.24168887558116633,1.328541423464102,0.9272081343038193,0.2880227375,0.6558052712633342
0.025,1.784375,1.0,2574.528521917019,0.24594240016313357,1.3281181076995672,0.9294453925650836,0.28799675,0.6566916690040028
0.025500000000000002,1.78374375,1.0,2588.885295737431,0.25017206830420646,1.3276988460038697,0.9315695828606605,0.2879702375,0.6575684513001663
0.026000000000000002,1.7831000000000001,1.0,2602.289961617777,0.25437801188011216,1.3272831731822932,0.9335881797631022,0.2879432,0.6584366216572994
0.0265,1.78244375,1.0,2614.784936759095,0.25856036276657757,1.326870624040121,0.935508051363396,0.2879156375,0.6592971783788966
0.027,1.781775,1.0,2626.413647685823,0.26271925283932984,1.3264607333826364,0.9373355166042472,0.28788755,0.6601511146660435
0.0275,1.7810937500000001,1.0,2637.220442202394,0.2668548139740961,1.3260530360151233,0.9390763964958981,0.2878589375,0.6609994187031911
0.028,1.7804,1.0,2647.250506147857,0.2709671780466033,1.3256470667428648,0.9407360599332778,0.2878298,0.6618430737301281
0.0285,1.77969375,1.0,2656.54239186963,0.27505647271118977,1.325242428487916,0.942319472843398,0.2878001375,0.6626829168089375
0.029,1.778975,1.0,2665.1463239232266,0.2791228331782824,1.3248386226725697,0.9438312148799847,0.28776995,0.6635199911358032
0.029500000000000002,1.7782437500000001,1.0,2673.0928972850083,0.28316638612188777,1.3244353369339386,0.9452755471339664,0.2877392375,0.6643549494533221
0.03,1.7775,1.0,2680.4124018559414,0.28718725782905496,1.3240322659627832,0.9466564184417628,0.287708,0.6651884267060718
0.0305,1.77674375,1.0,2687.1355459912934,0.29118557458683314,1.3236291044498647,0.9479774914814323,0.2876762375,0.666021054696998
0.031,1.775975,1.0,2693.293417867082,0.2951614626822713,1.3232255470859435,0.9492421671050734,0.28764395,0.6668534620886241
0.0315,1.7751937500000001,1.0,2698.9174489133406,0.29911504840241865,1.3228212885617805,0.9504536063167565,0.2876111375,0.6676862743983152
0.032,1.7744,1.0,2704.0393730412443,0.30304645802642294,1.322416023625419,0.9516147501538291,0.2875778,0.6685201138698127
0.0325,1.77359375,1.0,2708.6897178541512,0.3069558156979554,1.3220094605529051,0.9527283386671607,0.2875439375,0.6693555717934536
0.033,1.772775,1.0,2712.8951079696017,0.31084324612223707,1.3216013454056281,0.9537969307615901,0.28750955,0.6701931589071743
0.0335,1.7719437500000002,1.0,2716.677576210728,0.3147088711128023,1.3211914679266374,0.9548229182558109,0.2874746375,0.6710332937854969
0.034,1.7711000000000001,1.0,2720.059323682115,0.31855281248318557,1.3207796178589821,0.9558085348857718,0.2874392,0.6718763927495071
0.0345,1.7702437500000001,1.0,2723.062702159366,0.32237519204692117,1.320365584945711,0.9567558686156306,0.2874032375,0.6727228698418126
0.035,1.7693750000000001,1.0,2725.7143749254024,0.3261761182031747,1.3199491209319036,0.9576668654552525,0.28736675,0.6735732143332338
0.035500000000000004,1.7684937575778703,1.0,2728.037436974003,0.3299557273192692,1.3195300145690552,0.958543358417109,0.28732973781827054,0.6744278373389649
0.036000000000000004,1.7676066928326861,1.0,2730.3479853779168,0.33371414591025933,1.319108401489475,0.9593870985536924,0.2872924810989728,0.6752864416416839
0.0365,1.766719628087502,1.0,2732.917466576636,0.33745148897686333,1.3186844451100144,0.9601997278338238,0.2872552243796751,0.6761486748881449
0.037,1.7658325633423178,1.0,2735.7282455281056,0.34116787151979955,1.3182583088475253,0.9609827870845066,0.2872179676603773,0.6770141863823764
0.0375,1.7649454985971336,1.0,2738.7626834414955,0.34486340853978614,1.3178301561188588,0.9617377233535718,0.2871807109410796,0.6778826271092534
0.038,1.7640584338519494,1.0,2742.0031301746335,0.34853821503754145,1.3174001503408665,0.9624658966589174,0.2871434542217819,0.6787536497563627
0.0385,1.7631713691067654,1.0,2745.431917224231,0.3521924060137836,1.3169684549304,0.9631685861815485,0.2871061975024841,0.6796269087341679
0.039,1.7622843043615812,1.0,2749.0313513080896,0.35582609646923097,1.3165352333043103,0.9638469959537637,0.2870689407831864,0.6805020601944701
0.0395,1.761397239616397,1.0,2752.7837085388833,0.3594394014046017,1.316100648879449,0.9645022600886034,0.2870316840638887,0.6813787620471659
0.04,1.7605101748712129,1.0,2756.6712291907147,0.36303243582061406,1.3156648650726679,0.9651354475920396,0.2869944273445909,0.682256673975301
0.0405,1.7596231101260287,1.0,2760.676113057543,0.3666053147179863,1.315228045300818,0.9657475667952476,0.2869571706252932,0.6831354574484229
0.041,1.7587360453808445,1.0,2764.7805154033267,0.3701581530974367,1.314790352980751,0.9663395694406158,0.28691991390599547,0.684014775734229
0.0415,1.7578489806356603,1.0,2768.9704046467064,0.37369106095913324,1.3143519166840236,0.9669123506379762,0.2868826571866977,0.6848943637662012
0.042,1.7569619158904763,1.0,2773.253910365842,0.3772041271191807,1.3139126647889985,0.9674667361722058,0.28684540046740004,0.6857743586896361
0.0425,1.7560748511452922,1.0,2777.5916981656655,0.38069750620152326,1.313472953609354,0.9680035532532145,0.28680814374810226,0.6866540413119511
0.043000000000000003,1.755187786400108,1.0,2781.9796166141846,0.38417130367826996,1.3130328215978866,0.9685235507108756,0.28677088702880454,0.6875333310027606
0.043500000000000004,1.7543007216549238,1.0,2786.413502054141,0.3876256250215301,1.312592307207393,0.969027437744332,0.2867336303095068,0.6884121475598176
0.044,1.7534136569097396,1.0,2790.8891782609157,0.3910605757034128,1.3121514488906698,0.9695158864161906,0.28669637359020905,0.6892904112099987
0.0445,1.7525265921645554,1.0,2795.402456133354,0.39447626119602747,1.3117102851005131,0.9699895339659877,0.28665911687091133,0.6901680426101939
0.045,1.7516395274193712,1.0,2799.9491334160766,0.3978727869714832,1.31126885428972,0.9704489849576693,0.2866218601516136,0.691044962848103
0.0455,1.7507524626741873,1.0,2804.5249944561015,0.4012502585018893,1.3108271949110866,0.9708948132745038,0.28658460343231584,0.6919210934429382
0.046,1.749865397929003,1.0,2809.1258099915194,0.4046087812593549,1.3103853454174097,0.9713275639736418,0.2865473467130181,0.6927963563460309
0.0465,1.748978333183819,1.0,2813.747336972654,0.4079484607159893,1.3099433442614856,0.9717477550114529,0.2865100899937204,0.6936706739413463
0.047,1.7480912684386347,1.0,2818.385318416667,0.41126940234390164,1.3095012298961108,0.9721558788497927,0.28647283327442263,0.6945439690459017
0.0475,1.7472042036934505,1.0,2823.0354832947155,0.41457171161520123,1.309059040774082,0.9725524039524661,0.2864355765551249,0.6954161649100902
0.048,1.7463171389482663,1.0,2827.693546451497,0.4178554940019972,1.3086168153481958,0.9729377761803583,0.2863983198358272,0.6962871852179132
0.0485,1.7454300742030824,1.0,2832.3552085582,0.42112085497639884,1.3081745920712486,0.9733124200929707,0.2863610631165294,0.6971569540871158
0.049,1.7445430094578982,1.0,2837.016156097985,0.42436790001051533,1.3077324093960367,0.9736767401634555,0.2863238063972317,0.6980253960692284
0.0495,1.743655944712714,1.0,2841.6720613838015,0.4275967345764559,1.307290305775357,0.9740311219136346,0.286286549677934,0.6988924361495139
0.05,1.7427688799675298,1.0,2846.31993857547,0.43080746044670626,1.3068483075923676,0.9743759317434335,0.28624929295863627,0.6997580233663896
0.0505,1.7418818152223456,1.0,2850.96012203264,0.4340001785008817,1.3064064116151535,0.9747115171788194,0.2862120362393385,0.7006221649270572
0.051000000000000004,1.7409947504771615,1.0,2855.5910524841715,0.437174991298096,1.3059646314510305,0.9750382112302672,0.2861747795200408,0.7014848351436068
0.051500000000000004,1.7401076857319773,1.0,2860.211712521211,0.4403319972529842,1.3055229758524654,0.9753563311397473,0.28613752280074306,0.7023460179408606
0.052000000000000005,1.7392206209867933,1.0,2864.8210816475257,0.44347129478018116,1.3050814535719248,0.9756661800014219,0.28610026608144534,0.7032056973419689
0.0525,1.7383335562416091,1.0,2869.418136304323,0.4465929822943217,1.3046400733618753,0.9759680475162177,0.28606300936214757,0.7040638574683395
0.053,1.737446491496425,1.0,2874.001849897172,0.4496971582100408,1.3041988439747838,0.9762622106998462,0.28602575264284985,0.7049204825395572
0.0535,1.7365594267512408,1.0,2878.5711928241567,0.4527839209419734,1.3037577741631168,0.9765489345475236,0.28598849592355213,0.7057755568733066
0.054,1.7356723620060566,1.0,2883.1251325061253,0.45585336890475425,1.3033168726793412,0.9768284726583882,0.28595123920425436,0.7066290648852818
0.0545,1.7347852972608724,1.0,2887.6629855009546,0.4589055952125748,1.3028761451645052,0.9771010671212896,0.28591398248495664,0.7074809970991376
0.055,1.7338982325156884,1.0,2892.186115499128,0.4619406648252439,1.302435579166926,0.9773669460557425,0.2858767257656589,0.7083313789986163
0.0555,1.7330111677705042,1.0,2896.6903176708893,0.4649587313332618,1.3019952114087647,0.9776263393064446,0.28583946904636115,0.7091801412186719
0.056,1.73212410302532,1.0,2901.1755859712675,0.46795988516640774,1.3015550414811181,0.9778794590576493,0.28580221232706343,0.7100272862159476
0.0565,1.7312370382801359,1.0,2905.6419147592237,0.4709442167544608,1.3011150689750832,0.978126508783379,0.2857649556077657,0.7108728164417439
0.057,1.7303499735349517,1.0,2910.089298796099,0.4739118165272001,1.3006752934817574,0.9783676836759474,0.28572769888846794,0.7117167343420252
0.0575,1.7294629087897675,1.0,2914.5177332439275,0.4768627749144049,1.3002357145922374,0.9786031710500518,0.2856904421691702,0.7125590423574253
0.058,1.7285758440445833,1.0,2918.9272136633795,0.4797971823458542,1.2997963318976204,0.9788331507240161,0.2856531854498725,0.7133997429232519
0.0585,1.7276887792993993,1.0,2923.3177360121526,0.4827151292513273,1.2993571449890036,0.9790577953796509,0.2856159287305748,0.714238838469492
0.059000000000000004,1.7268017145542152,1.0,2927.6892966431938,0.48561670606060325,1.2989181534574836,0.9792772709020855,0.28557867201127707,0.7150763314208172
0.059500000000000004,1.725914649809031,1.0,2932.0418923027564,0.48850200320346127,1.2984793568941575,0.9794917367008413,0.2855414152919793,0.7159122241965885
0.06,1.7250275850638468,1.0,2936.3755201290383,0.4913711111096804,1.2980407548901227,0.9797013460133135,0.2855041585726816,0.7167465192108603
0.0605,1.7241405203186626,1.0,2940.6901776499076,0.49422412020903994,1.297602347036476,0.9799062461917631,0.28546690185338386,0.7175792188723882
0.061,1.7232534555734784,1.0,2944.9858627813765,0.49706112093131893,1.2971641329243144,0.9801065789748279,0.2854296451340861,0.7184103255846314
0.0615,1.7223663908282942,1.0,2949.2625738260826,0.4998822037062966,1.2967261121447349,0.9803024807445022,0.28539238841478837,0.7192398417457597
0.062,1.7214793260831103,1.0,2953.5203094710246,0.5026874589637521,1.2962882842888346,0.9804940827694703,0.28535513169549065,0.7200677697486567
0.0625,1.720592261337926,1.0,2957.759068786149,0.5054769771334645,1.2958506489477106,0.9806815114356118,0.2853178749761929,0.7208941119809262
0.063,1.719705196592742,1.0,2961.978851222742,0.508250848645213,1.2954132057124599,0.9808648884644504,0.28528061825689516,0.7217188708248976
0.0635,1.7188181318475577,1.0,2966.179656611174,0.5110091639287767,1.2949759541741797,0.9810443311202571,0.28524336153759744,0.7225420486576284
0.064,1.7179310671023735,1.0,2970.3615048244337,0.5137519995616527,1.2945388937526212,0.9812199514082881,0.28520610481829967,0.7233636481727747
0.0645,1.7170440023571893,1.0,2974.52477344668,0.5164794118767522,1.2941020207566267,0.9813918557371434,0.28516884809900195,0.7241836778918007
0.065,1.7161569376120052,1.0,2978.669735775966,0.5191915502280064,1.2936653324148342,0.9815601532606009,0.28513159137970423,0.7250021445716994
0.0655,1.7152698728668212,1.0,2982.7965891979593,0.5218884952322961,1.2932288266256502,0.9817249444976144,0.28509433466040646,0.7258190536854094
0.066,1.714382808121637,1.0,2986.90553199101,0.5245703275065016,1.2927925012874817,0.9818863264383585,0.28505707794110874,0.7266344106818241
0.0665,1.7134957433764528,1.0,2990.9967633172123,0.5272371276675036,1.2923563542987357,0.9820443926933722,0.285019821221811,0.7274482209858166
0.067,1.7126086786312686,1.0,2995.070483214187,0.5298889763321828,1.2919203835578188,0.9821992336353785,0.28498256450251325,0.7282604899982652
0.0675,1.7117216138860845,1.0,2999.1268925871227,0.5325259541174195,1.2914845869631384,0.9823509365341941,0.28494530778321553,0.7290712230960734
0.068,1.7108345491409003,1.0,3003.166193200207,0.5351481416400944,1.2910489624131007,0.9824995856851054,0.2849080510639178,0.7298804256321986
0.0685,1.709947484395716,1.0,3007.188587668693,0.537755619517088,1.2906135078061132,0.9826452625310751,0.2848707943446201,0.7306881029356702
0.069,1.7090604196505321,1.0,3011.194279451174,0.5403484683652807,1.2901782210405823,0.9827880457791157,0.2848335376253224,0.7314942603116166
0.0695,1.708173354905348,1.0,3015.1834728411327,0.5429267688015533,1.2897431000149153,0.9829280115111438,0.2847962809060246,0.7322989030412843
0.07,1.7072862901601638,1.0,3019.156372960058,0.5454906014427863,1.2893081426275188,0.9830652332896159,0.2847590241867269,0.733102036382064
0.07050000000000001,1.7063992254149796,1.0,3023.1131857488476,0.5480400469058602,1.2888733467767999,0.9831997822582222,0.28472176746742917,0.7339036655675086
0.07100000000000001,1.7055121606697954,1.0,3027.054117960778,0.5505751858076555,1.2884387103611652,0.9833317272379054,0.2846845107481314,0.7347037958073592
