Time [s],Phi [rad],STIM [ ],Fsee [N],Gamma [ ],Lcerel [ ],q [ ],Lmtc [m],fisomrel [ ]
0.0,1.8,1.0,17.96879240422102,2.843157669229708e-05,1.3793395631347267,0.005000213671532755,0.288653,0.5411399739819984
0.0005,1.79999375,1.0,18.284196565704192,0.005637481406832007,1.379301560055115,0.01299176099031511,0.2886527375,0.5412319086089157
0.001,1.799975,1.0,21.639476648499258,0.011215068902255957,1.3789361480860203,0.03570467956613694,0.28865195,0.5421154198779647
0.0015,1.79994375,1.0,31.119419079490953,0.01676137054266381,1.3780419300283115,0.07073321749603845,0.2886506375,0.5442739130754757
0.002,1.7999,1.0,53.69059298746756,0.02227656181607441,1.376361115434943,0.11487356797036741,0.2886488,0.5483173175655787
0.0025,1.79984375,1.0,97.30094531470215,0.027760817226517232,1.3739264008497216,0.16474408838497645,0.28864643749999996,0.5541423684552721
0.003,1.7997750000000001,1.0,161.19525380309724,0.0332143103015803,1.3712054726304188,0.2174550032978465,0.28864354999999997,0.5606074524528935
0.0035,1.79969375,1.0,237.95134545423596,0.0386372135921347,1.3685764810216523,0.27078649832021806,0.2886401375,0.5668092399161212
0.004,1.7996,1.0,321.75199283759497,0.04402969868308218,1.3661485396430022,0.3230839049248091,0.2886362,0.5724975985883191
0.0045000000000000005,1.7994937500000001,1.0,409.56316914312794,0.04939193619854969,1.3639158808227136,0.3731940831652477,0.2886317375,0.5776952540976674
0.005,1.799375,1.0,499.71495428175035,0.054724095793008666,1.3618519375232783,0.42039675730315923,0.28862675,0.582471860046714
0.0055,1.79924375,1.0,591.0946215866381,0.06002634619806926,1.359932892385667,0.4643119243621989,0.2886212375,0.5868887531214535
0.006,1.7991000000000001,1.0,682.8227326731934,0.06529885516737327,1.3581408781053517,0.5048069915989084,0.2886152,0.5909920645086979
0.006500000000000001,1.79894375,1.0,774.1682523535861,0.07054178929996537,1.3564623548871197,0.541917080236682,0.2886086375,0.5948169309576821
0.007,1.798775,1.0,864.594034179624,0.07575531525591483,1.3548854166514694,0.5757825391135013,0.28860155,0.5983939446687275
0.0075,1.79859375,1.0,953.5529709541203,0.08093959723431235,1.3534020152177506,0.6066060410264063,0.2885939375,0.6017443100766351
0.008,1.7984,1.0,1040.648882204754,0.0860947992374994,1.352004370681505,0.6346195132844057,0.2885858,0.604888147388768
0.0085,1.79819375,1.0,1125.6043237457068,0.09122108479119924,1.3506851350670754,0.6600638294612693,0.2885771375,0.6078441838105455
0.009000000000000001,1.797975,1.0,1208.1644484506392,0.09631861595509442,1.349438424341764,0.6831764810544048,0.28856795,0.610627511459009
0.0095,1.79774375,1.0,1288.130949421363,0.10138755345423067,1.3482589647322016,0.7041833467190827,0.2885582375,0.6132515736085942
0.01,1.7975,1.0,1365.4174657810602,0.1064280590759645,1.347141166897686,0.7232940731556526,0.288548,0.615730262260564
0.0105,1.79724375,1.0,1439.9203879680495,0.11144029164167263,1.3460806813121213,0.7407011059931037,0.2885372375,0.6180744962453377
0.011,1.796975,1.0,1511.5694009607394,0.11642440904100744,1.3450735342731532,0.7565788685952684,0.28852595000000003,0.6202941834956472
0.0115,1.79669375,1.0,1580.3496207994465,0.12138056916362136,1.3441157520784275,0.7710841524064712,0.2885141375,0.6223990726131959
0.012,1.7964,1.0,1646.278997770434,0.1263089292564378,1.3432035667260969,0.7843573016610862,0.28850180000000003,0.6243983156456812
0.0125,1.79609375,1.0,1709.3897793957176,0.13120964559082027,1.3423335559939238,0.7965235941690814,0.2884889375,0.6263001799762598
0.013000000000000001,1.7957750000000001,1.0,1769.70541071172,0.13608287258229382,1.3415028278967533,0.8076947106984012,0.28847555,0.6281116662580373
0.0135,1.79544375,1.0,1827.275535001887,0.14092876439832222,1.3407085508482843,0.8179699280771479,0.2884616375,0.6298395515907591
0.014,1.7951000000000001,1.0,1882.1701912211981,0.14574747439957364,1.339947982220764,0.8274374719600426,0.2884472,0.6314903360460176
0.0145,1.79474375,1.0,1934.4674230121439,0.15053915612315993,1.3392185684997981,0.8361757960979417,0.2884322375,0.6330700343907774
0.015,1.794375,1.0,1984.2263539728765,0.15530396007501981,1.3385181957560186,0.844254784405069,0.28841675,0.634583645223501
0.0155,1.79399375,1.0,2031.524453529293,0.16004203676109202,1.3378447500600568,0.8517366035267607,0.2884007375,0.6360361124262046
0.016,1.7936,1.0,2076.447055409305,0.16475353592262248,1.3371962102889476,0.8586766427301928,0.2883842,0.6374321293583285
0.0165,1.7931937500000001,1.0,2119.0889762969105,0.16943860775719483,1.3365706114962235,0.8651243059894796,0.2883671375,0.638776222822252
0.017,1.792775,1.0,2159.5412977574197,0.1740974014374649,1.3359661638147131,0.8711237532159073,0.28834955,0.64007250246054
0.0175,1.7923437500000001,1.0,2197.870368242327,0.17873006286400642,1.3353814452956967,0.8767145687920296,0.2883314375,0.6413242543092144
0.018000000000000002,1.7919,1.0,2234.151900934068,0.18333673793739308,1.334815033990454,0.8819321970723966,0.2883128,0.6425347353761832
0.0185,1.79144375,1.0,2268.4701961904857,0.1879175725581986,1.3342655079502657,0.8868084259155592,0.2882936375,0.6437071753659149
0.019,1.790975,1.0,2300.912216650054,0.19247271196219168,1.3337314966291118,0.891371822563852,0.28827395,0.644844668870195
0.0195,1.79049375,1.0,2331.5640907105553,0.19700230100338245,1.3332117068100913,0.8956481091070218,0.2882537375,0.6459501225915363
0.02,1.79,1.0,2360.5100937252637,0.2015064841144285,1.3327049241030318,0.8996604848280161,0.288233,0.6470262547117216
0.0205,1.78949375,1.0,2387.813348433803,0.2059854022907567,1.3322101928835044,0.9034299471717544,0.2882117375,0.6480752160213801
0.021,1.788975,1.0,2413.541392865836,0.21043919652779375,1.33172655752708,0.9069754789045976,0.28818995000000003,0.6490991423189825
0.021500000000000002,1.78844375,1.0,2437.765815514196,0.21486800782096643,1.3312530624093293,0.9103142690448173,0.2881676375,0.6501001551162022
0.022,1.7879,1.0,2460.558669845176,0.219271976604226,1.3307887829326583,0.9134619131463309,0.2881448,0.651080296830136
0.0225,1.78734375,1.0,2481.9867246825083,0.22365124218334828,1.3303328765690308,0.9164325932802193,0.28812143749999997,0.6520414242909104
0.023,1.786775,1.0,2502.129358385898,0.2280059458546224,1.3298844085217265,0.9192391945232197,0.28809755,0.6529855772138733
0.0235,1.78619375,1.0,2521.0378346237108,0.23233622352495817,1.3294427362251318,0.9218935088792884,0.28807313749999996,0.6539141694786297
0.024,1.7856,1.0,2538.765503957252,0.23664221110126538,1.3290072171136336,0.9244062950653157,0.2880482,0.6548286067829796
0.0245,1.78499375,1.0,2555.3676311764384,0.24092404449045388,1.328577208621618,0.9267873832806522,0.2880227375,0.6557302869082451
0.025,1.784375,1.0,2570.9012317900692,0.24518185959943342,1.3281520681834724,0.9290457680850638,0.28799675,0.6566205999582579
0.025500000000000002,1.78374375,1.0,2585.4185199755607,0.2494157908883268,1.327731212984591,0.93118970019372,0.2879702375,0.657500803685104
0.026000000000000002,1.7831000000000001,1.0,2598.9739257824713,0.25362597360653716,1.3273140524625384,0.9332267486009008,0.2879432,0.6583721653716539
0.0265,1.78244375,1.0,2611.6246323116175,0.25781254303376,1.3268999822518268,0.9351638647275559,0.2879156375,0.6592359745017708
0.027,1.781775,1.0,2623.409082971296,0.2619756296688302,1.3264885825129147,0.9370074696898493,0.28788755,0.6600931297471547
0.0275,1.7810937500000001,1.0,2634.3666042658547,0.2661153640105826,1.3260794334062609,0.9387634771844197,0.2878589375,0.6609445252214665
0.028,1.7804,1.0,2644.53733034411,0.2702318765578522,1.3256721150923239,0.940437340295512,0.2878298,0.6617910505462123
0.0285,1.77969375,1.0,2653.9621314553183,0.2743252978094738,1.3252662077315625,0.9420340934178099,0.2878001375,0.6626335909053829
0.029,1.778975,1.0,2662.6825463137907,0.2783957582642823,1.324861291484435,0.9435583898577362,0.28776995,0.6634730270888549
0.029500000000000002,1.7782437500000001,1.0,2670.736530597569,0.2824433851377032,1.3244569849931536,0.9450145396781577,0.2877392375,0.6643101558965323
0.03,1.7775,1.0,2678.1629229143014,0.2864683107373501,1.324052903584488,0.9464065370354671,0.287708,0.6651457770359139
0.0305,1.77674375,1.0,2684.9916230377435,0.29047066103169106,1.3236487488339201,0.9477380951097658,0.2876762375,0.6659805082214225
0.031,1.775975,1.0,2691.2519717764303,0.29445056114110496,1.3232442309104069,0.9490126618112423,0.28764395,0.6668149463748073
0.0315,1.7751937500000001,1.0,2696.9736498727325,0.29840813618597084,1.3228390599829047,0.9502334412883617,0.2876111375,0.6676496854252374
0.032,1.7744,1.0,2702.1866449923928,0.30234351128666753,1.32243294622037,0.9514034141748614,0.2875778,0.6684853162999105
0.0325,1.77359375,1.0,2706.9212205760605,0.3062568115635741,1.3220255997917594,0.952525355920199,0.2875439375,0.6693224269093037
0.033,1.772775,1.0,2711.198167703831,0.310148155201051,1.3216168195042872,0.9536018618014734,0.28750955,0.6701614203187077
0.0335,1.7719437500000002,1.0,2715.045054444377,0.3140176682910945,1.3212063441458317,0.9546353483007237,0.2874746375,0.6710028204096605
0.034,1.7711000000000001,1.0,2718.5013611868053,0.31786548597849507,1.3207938057351618,0.9556280622697593,0.2874392,0.6718473667154059
0.0345,1.7702437500000001,1.0,2721.583843487505,0.3216917262098968,1.3203790449192603,0.9565821221531501,0.2874032375,0.6726953685479038
0.035,1.7693750000000001,1.0,2724.3093769668612,0.3254965069319437,1.3199619023451095,0.957499509547149,0.28736675,0.6735471334429166
0.035500000000000004,1.76849375,1.0,2726.6949454979954,0.32927994609128,1.3195422186596921,0.9583820796242974,0.2873297375,0.674402967136612
0.036000000000000004,1.7676,1.0,2728.7576299582843,0.3330421616345497,1.3191198345099913,0.9592315706493991,0.2872922,0.6752631735405479
0.0365,1.76669375,1.0,2730.5145975441214,0.3367832715083968,1.318694590542989,0.9600496126754381,0.2872541375,0.6761280547150402
0.037,1.765775,1.0,2731.9830916481255,0.3405033936594656,1.3182663274056685,0.9608377354985326,0.28721555,0.676997910840905
0.0375,1.76484375,1.0,2733.180422300416,0.34420264603440004,1.317834885745012,0.9615973759426129,0.2871764375,0.6778730401895894
0.038,1.7639,1.0,2734.12395717138,0.34788114657984426,1.3174001062080023,0.9623298845370989,0.28713679999999997,0.6787537390916737
0.0385,1.76294375,1.0,2734.8311131392275,0.3515390132424423,1.316961829441622,0.9630365316442668,0.28709663750000003,0.6796403019037629
0.039,1.761975,1.0,2735.319348418716,0.35517636396883834,1.3165198960928541,0.9637185130871619,0.28705595,0.6805330209737527
0.0395,1.7609937500000001,1.0,2735.5936610930203,0.35879330603583387,1.3160742602492,0.9643769636287864,0.2870147375,0.6814319579334216
0.04,1.76,1.0,2735.6784908195914,0.3623899658151348,1.3156246997217071,0.9650129406963267,0.286973,0.682337528461678
0.0405,1.7589937500000001,1.0,2735.58572000127,0.36596645646084247,1.3151711065438851,0.9656274494052984,0.2869307375,0.6832499158160172
0.041,1.757975,1.0,2735.3242976406577,0.36952288834731356,1.3147133995412934,0.9662214403349194,0.28688795,0.6841692479246244
0.0415,1.75694375,1.0,2734.9031871949132,0.373059371848905,1.314251497539491,0.9667958113402078,0.2868446375,0.6850956514483013
0.042,1.7559,1.0,2734.3313638928585,0.37657601733997337,1.3137853193640374,0.9673514110171425,0.28680079999999997,0.6860292517589575
0.0425,1.75484375,1.0,2733.6178121981834,0.3800729351948755,1.3133147838404924,0.9678890419058068,0.2867564375,0.6869701729176835
0.043000000000000003,1.753775,1.0,2732.771523418184,0.38355023578796815,1.312839809794415,0.9684094634537982,0.28671155,0.6879185376524053
0.043500000000000004,1.75269375,1.0,2731.801493459777,0.38700802949360813,1.3123603160513648,0.9689133947600879,0.28666613750000003,0.6888744673351131
0.044,1.7516,1.0,2730.7167207300968,0.3904464266861521,1.3118762214369013,0.9694015171176443,0.2866202,0.6898380819586764
0.0445,1.75049375,1.0,2729.526204184772,0.3938655377399569,1.3113874447765836,0.9698744763714287,0.2865737375,0.6908095001132337
0.045,1.7493750000000001,1.0,2728.234778528238,0.3972654665127014,1.3108939427447601,0.9703328870670701,0.28652675,0.6917887639177864
0.0455,1.74824375,1.0,2726.8519332395663,0.4006463260150097,1.3103956296968755,0.970777330538055,0.2864792375,0.6927759982942607
0.046,1.7471,1.0,2725.38695502421,0.4040082274041182,1.3098924217911534,0.9712083586471124,0.2864312,0.6937713230752993
0.0465,1.7459437500000001,1.0,2723.8446890599453,0.40735127425954054,1.3093842755461012,0.9716264976255653,0.28638263750000004,0.6947747769286166
0.047,1.744775,1.0,2722.2299785769414,0.41067557016079054,1.3088711474802268,0.972032247693965,0.28633355,0.6957863974944132
0.0475,1.74359375,1.0,2720.54766419839,0.4139812186873819,1.3083529941120375,0.9724260845894384,0.28628393750000003,0.6968062213716255
0.048,1.7424,1.0,2718.8025833207876,0.4172683234188284,1.3078297719600407,0.9728084609895191,0.2862338,0.6978342841040477
0.0485,1.74119375,1.0,2716.999569538111,0.4205369879346439,1.3073014375427443,0.9731798078403873,0.2861831375,0.6988706201663355
0.049,1.739975,1.0,2715.143452106722,0.42378731581434204,1.3067679473786555,0.9735405355967504,0.28613195,0.699915262949893
0.0495,1.73874375,1.0,2713.2390554527224,0.4270194106374366,1.306229257986282,0.9738910353800073,0.2860802375,0.7009682447486325
0.05,1.7375,1.0,2711.291198721287,0.43023337598344136,1.3056853258841312,0.9742316800607705,0.286028,0.702029596744619
0.0505,1.73624375,1.0,2709.302224238627,0.4334293095939687,1.3051361301359008,0.9745628260998989,0.2859752375,0.7030993051201742
0.051000000000000004,1.734975,1.0,2707.272280331206,0.4366073072635186,1.3045816698080386,0.9748848147397033,0.28592195,0.7041773163805707
0.051500000000000004,1.73369375,1.0,2705.213233783945,0.4397674903507267,1.3040218369808563,0.9751979676349398,0.2858681375,0.7052637839246991
0.052000000000000005,1.7324,1.0,2703.1272892064926,0.4429099550577047,1.3034566118291244,0.975502594845025,0.2858138,0.7063586885752171
0.0525,1.73109375,1.0,2701.016648308046,0.4460347975865643,1.3028859745276122,0.9757989926286788,0.28575893750000003,0.7074620103139625
0.053,1.729775,1.0,2698.883509789758,0.44914211413941735,1.3023099052510896,0.9760874441748174,0.28570355000000003,0.7085737282751188
0.0535,1.72844375,1.0,2696.730069247063,0.45223200091837545,1.3017283841743266,0.9763682202886645,0.2856476375,0.709693820738361
0.054,1.7271,1.0,2694.5585190803586,0.4553045541255505,1.3011413914720928,0.9766415800361807,0.2855912,0.7108222651219762
0.0545,1.7257437500000001,1.0,2692.3710484142416,0.45835986996305406,1.3005489073191583,0.97690777134968,0.2855342375,0.7119590379759566
0.055,1.724375,1.0,2690.169843025521,0.461398044632998,1.2999509118902925,0.977167031597274,0.28547675,0.7131041149750701
0.0555,1.72299375,1.0,2687.957085280204,0.4644191743374939,1.2993473853602657,0.9774195881185865,0.2854187375,0.7142574709119023
0.056,1.7216,1.0,2685.7349540788764,0.4674233552786537,1.2987383079038473,0.9776656587290039,0.2853602,0.7154190796898794
0.0565,1.72019375,1.0,2683.5056248109545,0.47041068365858896,1.298123659695807,0.9779054521945493,0.28530113749999997,0.7165889143162585
0.057,1.718775,1.0,2681.2712693176522,0.47338125567941153,1.297503420910915,0.9781391686793168,0.28524155,0.7177669468950986
0.0575,1.71734375,1.0,2679.0340558635694,0.4763351675432331,1.296877571723941,0.9783670001672642,0.2851814375,0.7189531486202051
0.058,1.7159,1.0,2676.794487099898,0.4792724898596765,1.2962461075647629,0.9785891294906415,0.2851208,0.7201474609461956
0.0585,1.71444375,1.0,2674.5552699976274,0.4821933461896906,1.295609003614471,0.9788057355918943,0.2850596375,0.7213498628254456
0.059000000000000004,1.7129750000000001,1.0,2672.3174113990394,0.48509783035694154,1.2949662506305972,0.9790169885717507,0.28499795,0.7225603028983665
0.059500000000000004,1.71149375,1.0,2670.0816050320227,0.48798603054080886,1.2943178422327752,0.979223051493294,0.2849357375,0.7237787236716939
0.06,1.71,1.0,2667.848543462626,0.4908580349206723,1.2936637720406383,0.9794240810335604,0.284873,0.7250050669351531
0.0605,1.7084937500000001,1.0,2665.618918096865,0.4937139316759116,1.2930040336738202,0.9796202277812014,0.2848097375,0.7262392737591544
0.061,1.7069750000000001,1.0,2663.393419183521,0.4965538089859064,1.2923386207519545,0.9798116365180461,0.28474595,0.7274812844924902
0.0615,1.7054437500000001,1.0,2661.172735817724,0.49937775503003634,1.2916675268946742,0.9799984464855572,0.2846816375,0.7287310387600271
0.062,1.7039,1.0,2658.9575559459777,0.5021858579876811,1.2909907457216132,0.9801807916370934,0.2846168,0.7299884754603937
0.0625,1.70234375,1.0,2656.748566371061,0.5049782060382204,1.2903082708524047,0.9803588008768389,0.2845514375,0.7312535327636698
0.063,1.7007750000000001,1.0,2654.5464527589565,0.5077548873610338,1.2896200959066826,0.9805325982861962,0.28448555,0.7325261481090688
0.0635,1.69919375,1.0,2652.351899645977,0.5105159901355012,1.28892621450408,0.9807023033383915,0.28441913750000003,0.7338062582026221
0.064,1.6976,1.0,2650.1655904468544,0.513261602541002,1.2882266202642305,0.9808680311019844,0.2843522,0.7350937990148567
0.0645,1.69599375,1.0,2647.9882074641187,0.5159918127569161,1.2875213068067677,0.9810298924339358,0.2842847375,0.7363887057784713
0.065,1.694375,1.0,2645.8204318979315,0.5187067089626229,1.286810267751325,0.9811879941628413,0.28421675,0.7376909129860119
0.0655,1.69274375,1.0,2643.6629438570785,0.5214063793375024,1.2860934967175357,0.9813424392628951,0.2841482375,0.7390003543875427
0.066,1.6911,1.0,2641.5130887353043,0.5240908699633392,1.2853710181270372,0.9814933256274954,0.2840792,0.7403169069296498
0.0665,1.6894437500000001,1.0,2639.37351145743,0.5267602999723795,1.2846428074552454,0.9816407503118575,0.2840096375,0.7416405362372325
0.067,1.687775,1.0,2637.246437534399,0.5294147790831334,1.2839088440166133,0.9817848064553102,0.28393955,0.7429711999016273
0.0675,1.68609375,1.0,2635.1317712060068,0.532054386335633,1.283169128566804,0.9819255828957867,0.2838689375,0.7443088157739692
0.068,1.6844000000000001,1.0,2633.0294169192975,0.5346792007699103,1.2824236618614815,0.9820631653868613,0.2837978,0.7456533010865802
0.0685,1.68269375,1.0,2630.939279327001,0.5372893014259973,1.2816724446563086,0.9821976367247585,0.2837261375,0.7470045724532487
0.069,1.680975,1.0,2628.861263285602,0.539884767343926,1.280915477706949,0.982329076869274,0.28365395,0.7483625458695047
0.0695,1.67924375,1.0,2626.795273853552,0.5424656775637283,1.280152761769066,0.9824575630589423,0.28358123749999997,0.7497271367128984
0.07,1.6775,1.0,2624.7412162898086,0.5450321111254365,1.2793842975983234,0.9825831699207587,0.283508,0.7510982597432764
0.07050000000000001,1.67574375,1.0,2622.6989960518154,0.5475841470690824,1.2786100859503844,0.9827059695747495,0.2834342375,0.7524758291030594
0.07100000000000001,1.673975,1.0,2620.668518793814,0.550121864434698,1.2778301275809123,0.9828260317336645,0.28335995,0.7538597583175191
0.07150000000000001,1.67219375,1.0,2618.6496903652956,0.5526453422623154,1.2770444232455709,0.9829434237980512,0.2832851375,0.7552499602950542
0.07200000000000001,1.6704,1.0,2616.642416809209,0.5551546595919666,1.2762529737000232,0.9830582109469506,0.2832098,0.756646347327469
0.0725,1.66859375,1.0,2614.6466043601517,0.5576498954636835,1.275455779699933,0.9831704562244484,0.2831339375,0.7580488310902486
0.073,1.6667750000000001,1.0,2612.662159443019,0.5601311289174983,1.2746528420009637,0.9832802206222937,0.28305755,0.7594573226428369
0.0735,1.66494375,1.0,2610.6889886711224,0.5625984389934429,1.2738441613587785,0.9833875631587853,0.2829806375,0.7608717324289135
0.074,1.6631,1.0,2608.726998844385,0.5650519047315492,1.273029738529041,0.983492540954125,0.2829032,0.7622919702766694
0.0745,1.6612437500000001,1.0,2606.7760969480305,0.5674916051718494,1.2722095742674147,0.9835952093024101,0.2828252375,0.7637179453990844
0.075,1.659375,1.0,2604.8361901509,0.5699176193543755,1.2713836693295628,0.9836956217404389,0.28274675,0.7651495663942045
0.0755,1.65749375,1.0,2602.907185803749,0.5723300263191593,1.270552024471149,0.9837938301134892,0.2826677375,0.766586741245417
