Time [s],Phi [rad],STIM [ ],Fsee [N],Gamma [ ],Lcerel [ ],q [ ],Lmtc [m],fisomrel [ ]
0.0,1.8,1.0,17.966508086625268,1.000030202960081e-05,1.3793398190511874,0.005000026653381161,0.288653,0.5411393548539937
0.0005,1.79999375,1.0,18.275900220740308,0.0056191535170384685,1.379302481534263,0.01294051666675507,0.2886527375,0.5412296795342797
0.001,1.799975,1.0,21.61755504815694,0.011196843817432998,1.3789383865303002,0.03560858416399852,0.28865195,0.5421100102481275
0.0015,1.79994375,1.0,31.068322505970084,0.016743247686149147,1.3780462815564658,0.07060171754176366,0.2886506375,0.5442634215603617
0.002,1.7999,1.0,53.581196183186144,0.022258540614470537,1.3763682089959106,0.11471785184388396,0.2886488,0.5483002909987582
0.0025,1.79984375,1.0,97.11738512149417,0.027742897109594235,1.373935242072334,0.16457468949675516,0.28864643749999996,0.5541212842356662
0.003,1.7997750000000001,1.0,160.95652836643634,0.03319649070234628,1.3712144050853365,0.21728024184406772,0.28864354999999997,0.5605863056668995
0.0035,1.79969375,1.0,237.68169440434082,0.03861949394677385,1.3685847846614416,0.27061267532054595,0.2886401375,0.5667897210334143
0.004,1.7996,1.0,321.46518978192785,0.04401207843092747,1.3661561342856205,0.32291559371459,0.2886362,0.5724798639190389
0.0045000000000000005,1.7994937500000001,1.0,409.26625072473524,0.04937441478204531,1.3639228493788431,0.3730343093263836,0.2886317375,0.5776790806759691
0.005,1.799375,1.0,499.41207564630525,0.05470667265764699,1.3618583727027973,0.42024727497506165,0.28862675,0.5824570092630212
0.0055,1.79924375,1.0,590.7890577995372,0.060009020792976014,1.359938861596187,0.46417352637023007,0.2886212375,0.5868750507424776
0.006,1.7991000000000001,1.0,682.5168191053187,0.06528162694420606,1.3581464381820467,0.5046798044870847,0.2886152,0.5909793648517647
0.006500000000000001,1.79894375,1.0,773.8798554508478,0.07052465794442124,1.356467277557349,0.5418006188340052,0.2886086375,0.5948057398942983
0.007,1.798775,1.0,864.2847976126891,0.07573827968493023,1.3548904113691158,0.5756766496994421,0.28860155,0.5983826400454713
0.0075,1.79859375,1.0,953.2414432010105,0.08092265712381894,1.353406806449573,0.6065098052074791,0.2885939375,0.6017335113364606
0.008,1.7984,1.0,1040.358716297705,0.08607795431858656,1.3520086424915023,0.6345319421318476,0.2885858,0.6048785574339596
0.0085,1.79819375,1.0,1125.3207372862955,0.09120433436555744,1.350689149344185,0.6599842814291225,0.2885771375,0.6078352057788645
0.009000000000000001,1.797975,1.0,1207.8816796760623,0.09630195930528784,1.3494422878444232,0.6831042432092349,0.28856795,0.6106189013585946
0.0095,1.79774375,1.0,1287.8750070247809,0.10137099089708695,1.348262351388918,0.7041175187646576,0.2885582375,0.6132440516743042
0.01,1.7975,1.0,1365.1625900826923,0.10641158927419556,1.3471444425918595,0.723234184743393,0.288548,0.6157230101326121
0.0105,1.79724375,1.0,1439.6524582458396,0.11142391359575575,1.3460840345104064,0.7406466382336596,0.2885372375,0.61806709520727
0.011,1.796975,1.0,1511.298138625169,0.11640812245850637,1.3450768477375963,0.7565292074334119,0.28852595000000003,0.6202868914396804
0.0115,1.79669375,1.0,1580.101904320812,0.12136437456186466,1.3441187113355886,0.771038659558518,0.2885141375,0.6223925781528503
0.012,1.7964,1.0,1646.0518985148801,0.12629282599744962,1.3432062247956933,0.7843155676938403,0.28850180000000003,0.6243924976450512
0.0125,1.79609375,1.0,1709.1619772896104,0.13119363228664482,1.3423361726041318,0.7964853400827521,0.2884889375,0.626294467240925
0.013000000000000001,1.7957750000000001,1.0,1769.4778738545342,0.1360669486487472,1.3415053965329853,0.807659581702352,0.28847555,0.628106071871328
0.0135,1.79544375,1.0,1827.064622062666,0.14091292996427823,1.340710894003806,0.8179375439827155,0.2884616375,0.6298344601630336
0.014,1.7951000000000001,1.0,1881.9816358586797,0.14573172960720396,1.3399500462112837,0.8274075416411837,0.2884472,0.6314858612275067
0.0145,1.79474375,1.0,1934.2836978239518,0.15052349922853783,1.3392205522440477,0.836148147982228,0.2884322375,0.6330657427781994
0.015,1.794375,1.0,1984.04668803448,0.1552883904792933,1.3385201111907272,0.8442292034801456,0.28841675,0.6345795099471228
0.0155,1.79399375,1.0,2031.3481441311374,0.16002655391341772,1.3378466076987003,0.8517128979954905,0.2884007375,0.6360321099058689
0.016,1.7936,1.0,2076.2932516117753,0.16473814121668032,1.3371978131727786,0.8586545786694008,0.2883842,0.6374286823708415
0.0165,1.7931937500000001,1.0,2118.9531294873386,0.16942330051853316,1.3365720129190453,0.8651037483702313,0.2883671375,0.6387732146671621
0.017,1.792775,1.0,2159.4009993226555,0.1740821792380359,1.335967597541835,0.8711046322205264,0.28834955,0.640069430490968
0.0175,1.7923437500000001,1.0,2197.721068680717,0.17871492479424822,1.3353829576454825,0.8766967706501265,0.2883314375,0.6413210195183944
0.018000000000000002,1.7919,1.0,2234.0010044372502,0.1833216838615922,1.334816550054401,0.8819155875509339,0.2883128,0.6425314981175665
0.0185,1.79144375,1.0,2268.3328402950206,0.18790260336098022,1.3342668774902555,0.886792865782091,0.2882936375,0.6437042557809775
0.019,1.790975,1.0,2300.797648043663,0.1924578284846666,1.3337326308780717,0.8913572022245357,0.28827395,0.6448422547423494
0.0195,1.79049375,1.0,2331.463805410158,0.19698750212374788,1.3332126931024055,0.8956343712077842,0.2882537375,0.6459480266436293
0.02,1.79,1.0,2360.405438014885,0.20149176716932057,1.3327059470478129,0.8996475993394324,0.288233,0.6470240841805419
0.0205,1.78949375,1.0,2387.701938982412,0.20597076651248125,1.3322112755988493,0.9034178516252376,0.2882117375,0.6480729220822239
0.021,1.788975,1.0,2413.4242136925914,0.21042464110396786,1.3317276902291735,0.9069641094248739,0.28818995000000003,0.6490967459668926
0.021500000000000002,1.78844375,1.0,2437.661159691843,0.21485353482646763,1.331254069015162,0.9103035342624205,0.2881676375,0.6500980285742931
0.022,1.7879,1.0,2460.4755831739103,0.21925758700686124,1.3307895783692067,0.9134517481615263,0.2881448,0.6510786187574057
0.0225,1.78734375,1.0,2481.9247094106304,0.22363693561449102,1.3303334677072185,0.9164229566768519,0.28812143749999997,0.6520401789302425
0.023,1.786775,1.0,2502.0684839253545,0.22799171861869919,1.3298849864451086,0.9192300824162805,0.28809755,0.6529843613460158
0.0235,1.78619375,1.0,2520.9693453382383,0.2323220739888281,1.3294433839987871,0.9218848986603656,0.28807313749999996,0.6539128084803179
0.024,1.7856,1.0,2538.690125913114,0.23662813931540116,1.3290079275483435,0.9243981505118529,0.2880482,0.6548271161044131
0.0245,1.78499375,1.0,2555.28429498332,0.24091004993538193,1.3285779915064553,0.926779673945,0.2880227375,0.6557286463570913
0.025,1.784375,1.0,2570.8269243405057,0.24516794526231434,1.3281527641368958,0.9290384385993958,0.28799675,0.6566191434608255
0.025500000000000002,1.78374375,1.0,2585.360848378978,0.24940195795169565,1.327731751609392,0.9311827137671553,0.2879702375,0.6574996778923461
0.026000000000000002,1.7831000000000001,1.0,2598.9301656023194,0.25361222065902306,1.3273144600936715,0.9332200860224948,0.2879432,0.6583713144565955
0.0265,1.78244375,1.0,2611.580133369953,0.25779886603979374,1.326900395759461,0.9351575248020702,0.2879156375,0.6592351124116957
0.027,1.781775,1.0,2623.3570680509556,0.261962026749505,1.3264890647764875,0.9370014408866625,0.28788755,0.6600921255783627
0.0275,1.7810937500000001,1.0,2634.308250584352,0.266101835443654,1.3260799733144786,0.9387577386287029,0.2878589375,0.6609434024337657
0.028,1.7804,1.0,2644.4735997830035,0.27021842102304494,1.3256727036145726,0.9404318723452961,0.2878298,0.6617898281899706
0.0285,1.77969375,1.0,2653.9057476064963,0.27431191893291995,1.3252667274846068,0.9420288642904076,0.2878001375,0.6626325127278525
0.029,1.778975,1.0,2662.6381669680313,0.27838245720401417,1.3248616999076195,0.943553379622836,0.28776995,0.6634721809092212
0.029500000000000002,1.7782437500000001,1.0,2670.7027303821637,0.28243016294386225,1.3244572955868923,0.9450097374955408,0.2877392375,0.6643095132029337
0.03,1.7775,1.0,2678.1317949487993,0.2864551632599989,1.324053189225708,0.9464019389613654,0.287708,0.6651451867112486
0.0305,1.77674375,1.0,2684.9581583168624,0.290457585259959,1.3236490555273488,0.9477336944392055,0.2876762375,0.6659798751793848
0.031,1.775975,1.0,2691.2150169935535,0.29443755605127714,1.323244569195097,0.949008448484051,0.28764395,0.6668142489983298
0.0315,1.7751937500000001,1.0,2696.935761624118,0.29839520260287644,1.3228394064444853,0.9502294022999496,0.2876111375,0.6676489720872846
0.032,1.7744,1.0,2702.144596143492,0.3023306430313757,1.3224333303568105,0.9513995417237074,0.2875778,0.668484526387168
0.0325,1.77359375,1.0,2706.8861333619548,0.3062440158358524,1.3220259200496687,0.952521631081686,0.2875439375,0.6693217691841977
0.033,1.772775,1.0,2711.180753221775,0.31013544160511025,1.3216169783289737,0.9535982679545242,0.28750955,0.6701610945489173
0.0335,1.7719437500000002,1.0,2715.049020436403,0.3140050409279529,1.3212063080006398,0.9546318756148552,0.2874746375,0.671002894453438
0.034,1.7711000000000001,1.0,2718.511666935772,0.317852934393184,1.3207937118705804,0.955624716799912,0.2874392,0.6718475587509409
0.0345,1.7702437500000001,1.0,2721.5895751739754,0.3216792425896073,1.3203789927447096,0.9565789062410089,0.2874032375,0.6726954751526956
0.035,1.7693750000000001,1.0,2724.30376229887,0.3254840861060263,1.3199619534289415,0.9574964220751664,0.28736675,0.6735470292026016
0.035500000000000004,1.76849375,1.0,2726.675365183988,0.3292675855312448,1.31954239672919,0.9583791162503118,0.2873297375,0.6744026042492506
0.036000000000000004,1.7676,1.0,2728.725626322376,0.33302986145406643,1.3191201254513691,0.9592287240232744,0.2872922,0.6752625814155052
0.0365,1.76669375,1.0,2730.475880583069,0.3367710344632948,1.3186949424013925,0.9600468726390585,0.2872541375,0.6761273395656031
0.037,1.765775,1.0,2731.9655795748513,0.34049121407957145,1.3182664865116975,0.9608350704965057,0.28721555,0.676997587893812
0.0375,1.7648480858991866,1.0,2733.3909906320364,0.3441905298934789,1.317834931232399,0.9615947912762411,0.28717661960776586,0.6778729479862764
0.038,1.763920997310218,1.0,2735.116209951146,0.34786910352991834,1.3174005781087512,0.9623274302590175,0.28713768188702915,0.6787527838527759
0.0385,1.7629939087212492,1.0,2737.130449894202,0.35152704792189843,1.3169636064326158,0.96303428605541,0.28709874416629244,0.6796367098125953
0.039,1.7620668201322804,1.0,2739.414268237388,0.3551644760024276,1.3165241954958533,0.9637165807992508,0.2870598064455558,0.6805243420462463
0.0395,1.7611397315433117,1.0,2741.948231387863,0.35878150070451453,1.3160825245903252,0.9643754654809259,0.2870208687248191,0.681415298624383
0.04,1.760212642954343,1.0,2744.7129050441354,0.3623782349611677,1.3156387730078924,0.9650120248543769,0.2869819310040824,0.6823091995346688
0.0405,1.7592855543653743,1.0,2747.688845568393,0.3659547917053958,1.3151931200404163,0.9656272819560183,0.2869429932833457,0.6832056667065936
0.041,1.7583584657764055,1.0,2750.856592071849,0.3695112838702073,1.314745744979758,0.9662222022699988,0.286904055562609,0.6841043240342385
0.0415,1.7574313771874368,1.0,2754.1966592129315,0.3730478243886109,1.3142968271177786,0.9667976975708631,0.28686511784187235,0.6850047973969936
0.042,1.756504288598468,1.0,2757.689530707667,0.376564526193615,1.3138465457463393,0.9673546294716674,0.28682618012113564,0.6859067146782237
0.0425,1.7555772000094994,1.0,2761.3156535536987,0.3800615022182283,1.313395080157301,0.9678938127029005,0.286787242400399,0.686809705781884
0.043000000000000003,1.7546501114205308,1.0,2765.0567236915285,0.3835388642854536,1.3129425979859926,0.9684160170209205,0.2867483046796623,0.6877134259112802
0.043500000000000004,1.7537230228315621,1.0,2768.9069176299936,0.38699671760558063,1.3124891538500856,0.9689219611384077,0.2867093669589256,0.6886177574172754
0.044,1.7527959342425934,1.0,2772.8467426492575,0.3904351811291425,1.312034925546068,0.9694123378308422,0.2866704292381889,0.6895223381360327
0.0445,1.7518688456536247,1.0,2776.8691848312837,0.39385436084609543,1.3115799779523236,0.96988779303725,0.28663149151745226,0.6904270323317269
0.045,1.750941757064656,1.0,2780.967213050585,0.39725436274639536,1.3111243759472373,0.9703489394865239,0.28659255379671555,0.6913317050109763
0.0455,1.7500146684756872,1.0,2785.133777986851,0.40063529281999843,1.3106681844091927,0.9707963587305345,0.28655361607597885,0.6922362219256881
0.046,1.7490875798867185,1.0,2789.361811229908,0.4039972570568607,1.3102114682165742,0.9712306030338627,0.2865146783552422,0.6931404495756295
0.0465,1.7481604912977498,1.0,2793.6442244782343,0.4073403614469382,1.3097542922477659,0.9716521971315407,0.2864757406345055,0.6940442552107324
0.047,1.747233402708781,1.0,2797.9739088314586,0.41066471198018706,1.3092967213811517,0.9720616398652024,0.28643680291376883,0.6949475068331321
0.0475,1.7463063141198123,1.0,2802.3437341749323,0.41397041464656326,1.3088388204951165,0.9724594057071191,0.2863978651930321,0.6958500731989326
0.048,1.7453792255308436,1.0,2806.746548659144,0.417257575436023,1.3083806544680436,0.9728459461807868,0.2863589274722954,0.6967518238197101
0.0485,1.744452136941875,1.0,2811.180785682051,0.42052628850413715,1.3079222379549775,0.9732216862335946,0.28631998975155876,0.697652727591831
0.049,1.7435250483529063,1.0,2815.636846718602,0.4237766705842735,1.3074636574503222,0.9735870383874257,0.28628105203082205,0.6985526127145119
0.0495,1.7425979597639376,1.0,2820.1091589666607,0.4270088285182262,1.3070049631774654,0.9739423921082285,0.2862421143100854,0.6994513794145507
0.05,1.7416708711749689,1.0,2824.5954819350773,0.4302228613489657,1.3065461754263914,0.9742881158408839,0.2862031765893487,0.700348987026314
0.0505,1.7407437825860002,1.0,2829.0935679840672,0.43341886811946256,1.3060873144870846,0.9746245610952278,0.286164238868612,0.7012453951214432
0.051000000000000004,1.7398166939970314,1.0,2833.601162287658,0.43659694787268727,1.3056284006495293,0.974952063376225,0.2861253011478753,0.702140563508963
0.051500000000000004,1.7388896054080627,1.0,2838.116002804959,0.43975719965161036,1.3051694542037104,0.9752709430550991,0.2860863634271386,0.7030344522353619
0.052000000000000005,1.737962516819094,1.0,2842.635820261634,0.44289972249920234,1.304710495439612,0.9755815061856542,0.28604742570640196,0.7039270215846498
0.0525,1.7370354282301252,1.0,2847.1583381390546,0.44602461545843364,1.3042515446472187,0.9758840452696882,0.28600848798566525,0.7048182320783849
0.053,1.7361083396411565,1.0,2851.6812726737967,0.44913197757227485,1.303792622116515,0.9761788399750867,0.28596955026492854,0.705708044475677
0.0535,1.7351812510521878,1.0,2856.2023328657533,0.4522219078836965,1.3033337481374854,0.9764661578099093,0.2859306125441919,0.7065964197731651
0.054,1.7342541624632193,1.0,2860.71922049518,0.4552945054356691,1.302874943000114,0.9767462547555138,0.28589167482345523,0.707483319204967
0.0545,1.7333270738742506,1.0,2865.2296301491638,0.45834986927116306,1.3024162269943855,0.9770193758615413,0.2858527371027185,0.708368704242603
0.055,1.7323999852852818,1.0,2869.7334372538667,0.46138808256637037,1.301957601014234,0.9772857531317155,0.2858137993819818,0.7092525739468389
0.0555,1.731472896696313,1.0,2874.2285778554797,0.4644092525337551,1.3014990831299347,0.9775456121539919,0.28577486166124516,0.710134894361635
0.056,1.7305458081073444,1.0,2878.7124358929414,0.4674134886833988,1.3010406962425327,0.9777991696048334,0.28573592394050845,0.71101562246751
0.0565,1.7296187195183756,1.0,2883.184622495461,0.47040088216405906,1.30058244348528,0.9780466303925581,0.2856969862197718,0.7118947534069467
0.057,1.728691630929407,1.0,2887.6447478104487,0.4733715241244933,1.3001243279914283,0.9782881910704112,0.2856580484990351,0.7127722823587168
0.0575,1.7277645423404382,1.0,2892.0924210131457,0.47632550571345894,1.2996663528942296,0.9785240402450484,0.2856191107782984,0.7136482045378542
0.058,1.7268374537514695,1.0,2896.5272503163374,0.4792629180797134,1.2992085213269355,0.9787543589618762,0.2855801730575617,0.7145225151956275
0.0585,1.7259103651625007,1.0,2900.948842979672,0.48218385237201417,1.298750836422798,0.9789793210687391,0.285541235336825,0.7153952096195109
0.059000000000000004,1.724983276573532,1.0,2905.3568053206204,0.48508839973911866,1.2982933013150688,0.9791990935593289,0.28550229761608836,0.7162662831331555
0.059500000000000004,1.7240561879845633,1.0,2909.7507427239984,0.48797665132978435,1.2978359191369997,0.9794138368975983,0.28546335989535165,0.7171357310963602
0.06,1.7231290993955948,1.0,2914.130259652849,0.4908486982927686,1.2973786930218425,0.9796237053243757,0.28542442217461494,0.7180035489050407
0.0605,1.722202010806626,1.0,2918.4949596592805,0.49370463177682905,1.296921626102849,0.97982884714728,0.2853854844538783,0.718869731991199
0.061,1.7212749222176573,1.0,2922.844445394974,0.496544542930723,1.296464721513271,0.9800294050149733,0.28534654673314164,0.7197342758228913
0.0615,1.7203478336286886,1.0,2927.1783186227262,0.4993685229032079,1.2960079823863602,0.9802255161767103,0.28530760901240493,0.7205971759041974
0.062,1.7194207450397199,1.0,2931.496180227801,0.5021766628430412,1.2955514118553686,0.9804173127280764,0.2852686712916682,0.7214584277751859
0.0625,1.7184936564507511,1.0,2935.797630229496,0.5049690538989804,1.295095013053548,0.9806049218437501,0.28522973357093157,0.7223180270118826
0.063,1.7175665678617824,1.0,2940.0832459106196,0.5077457408526234,1.294638780547741,0.9807884621362591,0.28519079585019486,0.7231759853231507
0.0635,1.7166394792728137,1.0,2944.3525095147465,0.5105068521826122,1.2941827185057273,0.9809680545209332,0.2851518581294582,0.7240322963411352
0.064,1.715712390683845,1.0,2948.605008747738,0.5132524993667656,1.2937268301625555,0.9811438141868092,0.2851129204087215,0.7248869554931674
0.0645,1.7147853020948762,1.0,2952.8408526692615,0.5159827641301283,1.293271114189512,0.9813158498020638,0.2850739826879848,0.7257399667794715
0.065,1.7138582135059075,1.0,2957.060150973752,0.518697728197745,1.2928155692578829,0.9814842661551595,0.28503504496724813,0.7265913341842538
0.0655,1.7129311249169388,1.0,2961.2630139855983,0.5213974732946598,1.2923601940389555,0.9816491643215491,0.2849961072465114,0.7274410616757152
0.066,1.7120040363279703,1.0,2965.4495526541855,0.5240820811459177,1.291904987204016,0.9818106418220591,0.28495716952577477,0.728289153206069
0.0665,1.7110769477390015,1.0,2969.6198785487145,0.526751633476563,1.2914499474243513,0.9819687927734293,0.28491823180503806,0.7291356127115526
0.067,1.7101498591500328,1.0,2973.774103853533,0.5294062120116404,1.2909950733712476,0.9821237080314448,0.28487929408430135,0.7299804441124433
0.0675,1.709222770561064,1.0,2977.912341363232,0.5320458984761944,1.2905403637159918,0.9822754753270794,0.2848403563635647,0.7308236513130715
0.068,1.7082956819720954,1.0,2982.03470447724,0.5346707745952697,1.2900858171298704,0.982424179396035,0.284801418642828,0.7316652382018349
0.0685,1.7073685933831266,1.0,2986.1413071958173,0.5372809220939107,1.28963143228417,0.9825699021020412,0.28476248092209133,0.7325052086512125
0.069,1.706441504794158,1.0,2990.232264114518,0.539876422697162,1.289177207850177,0.9827127225542589,0.2847235432013546,0.733343566517779
0.0695,1.7055144162051892,1.0,2994.3076904200643,0.5424573581300682,1.2887231424991783,0.9828527172191059,0.2846846054806179,0.7341803156422169
0.07,1.7045873276162204,1.0,2998.367701885365,0.5450238101176739,1.2882692349024603,0.9829899600268078,0.28464566775988126,0.735015459849331
0.07050000000000001,1.7036602390272517,1.0,3002.4124148645374,0.5475758603850235,1.2878154837313096,0.983124522472955,0.28460673003914455,0.735849002948062
0.07100000000000001,1.702733150438283,1.0,3006.441946288971,0.5501135906571617,1.2873618876570128,0.9832564737153344,0.2845677923184079,0.7366809487315
0.07150000000000001,1.7018060618493145,1.0,3010.456413662011,0.5526370826591331,1.2869084453508566,0.983385880666284,0.2845288545976712,0.7375113009768959
