Time [s],Phi [rad],STIM [ ],Fsee [N],Gamma [ ],Lcerel [ ],q [ ],Lmtc [m],fisomrel [ ]
0.0,1.8,1.0,17.967707720941142,1.0010782763433838e-05,1.3793396846518369,0.0050000267090482406,0.288653,0.5411396800007812
0.0005,1.79999375,1.0,18.27699245264899,0.005619163938983238,1.37930236020757,0.012940543340937968,0.2886527375,0.5412299730260421
0.001,1.799975,1.0,21.61858971699704,0.011196854180919253,1.3789382808533515,0.035608630890750816,0.28865195,0.542110265637457
0.0015,1.79994375,1.0,31.0693661503509,0.01674325799150402,1.3780461926409877,0.07060177880761123,0.2886506375,0.5442636359363942
0.002,1.7999,1.0,53.58229255969937,0.02225855086202091,1.3763681378682249,0.11471792368214968,0.2886488,0.5483004617270564
0.0025,1.79984375,1.0,97.11850529171727,0.02774290729966374,1.3739351880937287,0.16457476907395202,0.28864643749999996,0.5541214129633538
0.003,1.7997750000000001,1.0,160.95760325780526,0.033196500835257645,1.371214364850992,0.21728032620590254,0.28864354999999997,0.5605864009192429
0.0035,1.79969375,1.0,237.6826884255277,0.03861950402284793,1.3685847540428862,0.27061276124866646,0.2886401375,0.5667897930074781
0.004,1.7996,1.0,321.46609979329645,0.04401208845048292,1.366156110182853,0.3229156784465328,0.2886362,0.572479920203324
0.0045000000000000005,1.7994937500000001,1.0,409.26708468294544,0.04937442474539831,1.3639228298026391,0.37303439088313195,0.2886317375,0.577679126111095
0.005,1.799375,1.0,499.4128373625846,0.05470668256510471,1.3618583565163727,0.42024735218581133,0.28862675,0.5824570466175694
0.0055,1.79924375,1.0,590.7897628924063,0.060009030644874575,1.3599388478203704,0.46417359846369277,0.2886212375,0.5868750823652558
0.006,1.7991000000000001,1.0,682.517463661096,0.06528163674084875,1.3581464264657301,0.504679871330496,0.2886152,0.59097939161297
0.006500000000000001,1.79894375,1.0,773.8807067670831,0.0705246676856845,1.3564672630248131,0.5418006775742492,0.2886086375,0.5948057729323939
0.007,1.798775,1.0,864.2852211267791,0.07573828937214025,1.354890404528003,0.575676707404264,0.28860155,0.5983826555291785
0.0075,1.79859375,1.0,953.2427267096554,0.08092266676281362,1.353406786707872,0.6065098494978758,0.2885939375,0.6017335558316856
0.008,1.7984,1.0,1040.3439230807141,0.08607796347383165,1.3520088602925648,0.634532121600735,0.2885858,0.6048780684806427
0.0085,1.79819375,1.0,1125.3139226042817,0.09120434363823503,1.350689245814894,0.6599843827522153,0.2885771375,0.6078349900184339
0.009000000000000001,1.797975,1.0,1207.9001137580296,0.09630196920308148,1.3494420359636383,0.6831041462510988,0.28856795,0.6106194626963881
0.0095,1.79774375,1.0,1287.8925660770926,0.1013710006667905,1.3482621190349395,0.7041174332143493,0.2885582375,0.613244567746472
0.01,1.7975,1.0,1365.1672013206683,0.10641159852778162,1.3471443833249395,0.7232341885759337,0.288548,0.6157231413454959
0.0105,1.79724375,1.0,1439.6587463920525,0.11142392276267091,1.3460839558093243,0.7406466304064656,0.2885372375,0.6180672689138065
0.011,1.796975,1.0,1511.3214661930122,0.11640813215227648,1.345076562780098,0.7565291015425502,0.28852595000000003,0.6202875185582688
0.0115,1.79669375,1.0,1580.120573602677,0.12136438387407866,1.3441184883015442,0.771038584103376,0.2885141375,0.622393067630931
0.012,1.7964,1.0,1646.0572983147974,0.12629283458904522,1.3432061615919317,0.7843155627613787,0.28850180000000003,0.624392635986393
0.0125,1.79609375,1.0,1709.1739777612358,0.13119364105582615,1.3423360347584015,0.7964853034468465,0.2884889375,0.6262947681948168
0.013000000000000001,1.7957750000000001,1.0,1769.506443609398,0.13606695818567444,1.3415050740033907,0.8076594727957236,0.28847555,0.6281067743301616
0.0135,1.79544375,1.0,1827.0910932924683,0.14091293946381225,1.3407105999119695,0.8179374497588136,0.2884616375,0.6298350991952355
0.014,1.7951000000000001,1.0,1881.991971681359,0.1457317383754619,1.339949933069208,0.827407516583473,0.2884472,0.6314861065250034
0.0145,1.79474375,1.0,1934.2800998705452,0.1505235072915394,1.3392205910933324,0.8361481764824292,0.2884322375,0.6330656587317928
0.015,1.794375,1.0,1984.0538909225536,0.15528839925082785,1.3385200343984216,0.8442291918869634,0.28841675,0.6345796757362611
0.0155,1.79399375,1.0,2031.3736032952154,0.1600265638760105,1.3378463394497837,0.8517128251096626,0.2884007375,0.6360326878838697
0.016,1.7936,1.0,2076.312170704405,0.16473815059669644,1.3371976160020929,0.8586545298588911,0.2883842,0.6374291063855393
0.0165,1.7931937500000001,1.0,2118.95692045831,0.1694233088424949,1.3365719738100221,0.8651037478449758,0.2883671375,0.6387732986148782
0.017,1.792775,1.0,2159.3906779574,0.17408218653154703,1.3359677030189872,0.8711046725771444,0.28834955,0.6400692044902604
0.0175,1.7923437500000001,1.0,2197.7202857206803,0.17871493302463348,1.335382965576716,0.8766967828050706,0.2883314375,0.6413210025541051
0.018000000000000002,1.7919,1.0,2234.013906558588,0.18332169355431763,1.3348164204242008,0.8819155631553288,0.2883128,0.6425317749181276
0.0185,1.79144375,1.0,2268.346055883667,0.18790261318805457,1.3342667457192476,0.8867928415736667,0.2882936375,0.6437045366908924
0.019,1.790975,1.0,2300.798785222786,0.19245783699329946,1.3337326196196633,0.8913572078904158,0.28827395,0.6448422787047103
0.0195,1.79049375,1.0,2331.4526481829057,0.19698750893731862,1.3332128028335322,0.8956344045398503,0.2882537375,0.6459477934560638
0.02,1.79,1.0,2360.39706395202,0.20149177402491483,1.3327060289000732,0.8996476248392875,0.288233,0.6470239105023714
0.0205,1.78949375,1.0,2387.7067287908703,0.20597077482238071,1.3322112290493244,0.9034178479764469,0.2882117375,0.6480730207064327
0.021,1.788975,1.0,2413.444956184224,0.2104246517141317,1.3317274897217137,0.9069640734856663,0.28818995000000003,0.6490971701624053
0.021500000000000002,1.78844375,1.0,2437.679006594396,0.21485354508458315,1.3312538973576684,0.9103035052213928,0.2881676375,0.6500983912160565
0.022,1.7879,1.0,2460.4797583400914,0.2192575953181505,1.3307895383976163,0.9134517458282247,0.2881448,0.6510787030825637
0.0225,1.78734375,1.0,2481.9151407581608,0.223636941441336,1.3303335589176009,0.9164229790061821,0.28812143749999997,0.652039986775612
0.023,1.786775,1.0,2502.0559224674475,0.2279917237080912,1.3298851057005965,0.9192301089884602,0.28809755,0.6529841104493186
0.0235,1.78619375,1.0,2520.9666490145864,0.23232208097735302,1.3294434095008747,0.9218849078023115,0.28807313749999996,0.6539127548993591
0.024,1.7856,1.0,2538.698621374128,0.23662814852995945,1.3290078474784746,0.9243981412144067,0.2880482,0.6548272841121838
0.0245,1.78499375,1.0,2555.305021585352,0.24091006164674852,1.3285777967934351,0.9267796457539008,0.2880227375,0.655729054382564
0.025,1.784375,1.0,2570.8407543882854,0.24516795560855828,1.3281526346057955,0.9290384216677614,0.28799675,0.6566194145448829
0.025500000000000002,1.78374375,1.0,2585.3622974608693,0.24940196569622666,1.327731738075595,0.9311827154468533,0.2879702375,0.6574997061796861
0.026000000000000002,1.7831000000000001,1.0,2598.9181321510664,0.2536122247747582,1.327314572187262,0.933220106430257,0.2879432,0.6583710804651458
0.0265,1.78244375,1.0,2611.563252239672,0.2577988688852592,1.3269005526287483,0.935157551188272,0.2879156375,0.6592347853667697
0.027,1.781775,1.0,2623.3484014878004,0.26196203198187057,1.326489145130199,0.9370014557310266,0.28788755,0.6600919582657904
0.0275,1.7810937500000001,1.0,2634.3106212832636,0.2661018436983589,1.326079951379845,0.938757738857081,0.2878589375,0.6609434480488456
0.028,1.7804,1.0,2644.4877367168497,0.2702184336684909,1.3256725730659165,0.9404318582879433,0.2878298,0.6617900993387287
0.0285,1.77969375,1.0,2653.91828893752,0.2743119315260333,1.325266611876644,0.9420288526361946,0.2878001375,0.6626327525455631
0.029,1.778975,1.0,2662.641471025301,0.27838246690475277,1.3248616695002584,0.9435533790475328,0.28776995,0.66347224390786
0.029500000000000002,1.7782437500000001,1.0,2670.6970673819205,0.2824301694384161,1.3244573476249901,0.9450097470097538,0.2877392375,0.6643094055234577
0.03,1.7775,1.0,2678.124145697442,0.2864551659753947,1.3240532594181977,0.9464019493150881,0.287708,0.6651450416468183
0.0305,1.7767472339687598,1.0,2685.119813552728,0.29045758654321835,1.3236491474319132,0.9477337068920915,0.2876763838266879,0.665979685480216
0.031,1.7759940666649936,1.0,2692.1044703386283,0.29443756003651506,1.3232450385211632,0.9490085097558135,0.28764475079992974,0.6668132814778436
0.0315,1.7752408993612272,1.0,2699.0894158879473,0.29839521012529846,1.3228410099007093,0.9502296049596552,0.28761311777317156,0.6676456706833231
0.032,1.774487732057461,1.0,2706.0661577924398,0.3023306604795821,1.3224371387853135,0.9514000122577874,0.2875814847464134,0.6684766949360346
0.0325,1.7737345647536948,1.0,2713.026160126157,0.3062440347693796,1.3220335023897374,0.9525225428001707,0.2875498517196552,0.6693061968705325
0.033,1.7729813974499287,1.0,2719.96084378086,0.3101354566647045,1.321630177928743,0.9535998160766875,0.287518218692897,0.6701340199155776
0.0335,1.7722282301461623,1.0,2726.861586934112,0.31400504983557026,1.3212272426170917,0.9546342752929297,0.2874865856661388,0.6709600082927938
0.034,1.771475062842396,1.0,2733.7197256493573,0.31785293795199054,1.3208247736695455,0.9556282013393768,0.28745495263938065,0.671784007014939
0.0345,1.77072189553863,1.0,2740.5384735305056,0.32167922418376177,1.3204227401806545,0.9565837083469221,0.28742331961262246,0.6726060828288289
0.035,1.7699687282348637,1.0,2747.2992846537923,0.3254840576780301,1.3200213085543961,0.9575028067178383,0.2873916865858643,0.6734258994615179
0.035500000000000004,1.7692155609310973,1.0,2753.9984010150906,0.3292675597163333,1.3196205105769845,0.9583873567876632,0.2873600535591061,0.6742433967426906
0.036000000000000004,1.7684623936273312,1.0,2760.635063142627,0.3330298459356072,1.3192203508020344,0.9592390973361345,0.2873284205323479,0.6750585702609251
0.0365,1.767709226323565,1.0,2767.2085118372897,0.33677103197278774,1.31882083378316,0.9600596588542195,0.28729678750558973,0.675871415643529
0.037,1.7669560590197988,1.0,2773.7179882369605,0.34049123346481086,1.3184219640739765,0.9608505715145652,0.28726515447883155,0.6766819285563497
0.0375,1.7662028917160326,1.0,2780.1627338817734,0.3441905660486125,1.3180237462280984,0.9616132724700082,0.28723352145207337,0.6774901047035908
0.038,1.7654497244122662,1.0,2786.5419907797263,0.34786914536112845,1.3176261847991402,0.9623491125435917,0.2872018884253152,0.6782959398276227
0.0385,1.7646965571085,1.0,2792.855001472726,0.3515270870392948,1.3172292843407167,0.9630593623669401,0.287170255398557,0.6790994297087904
0.039,1.7639433898047339,1.0,2799.101009103056,0.35516450672004735,1.3168330494064426,0.9637452180179998,0.2871386223717988,0.6799005701652254
0.0395,1.7631902225009677,1.0,2805.279257480205,0.35878152004032204,1.3164374845499327,0.9644078062039436,0.28710698934504064,0.6806993570526503
0.04,1.7624370551972013,1.0,2811.3889911485558,0.36237824263705476,1.3160425943248015,0.9650481890304188,0.28707535631828246,0.6814957862641866
0.0405,1.761683887893435,1.0,2817.4294554550984,0.3659547901471815,1.3156483832846637,0.9656673683942125,0.2870437232915243,0.6822898537301596
0.041,1.760930720589669,1.0,2823.399896617873,0.3695112782076382,1.3152548559831339,0.9662662900327289,0.2870120902647661,0.6830815554179004
0.0415,1.7601775532859028,1.0,2829.301044180195,0.37304780508687946,1.3148620037392802,0.9668458431613614,0.2869804572380079,0.6838709139071604
0.042,1.7594243859821366,1.0,2835.133987296509,0.37656449844016876,1.3144698147283767,0.9674068730369944,0.28694882421124973,0.6846579579869275
0.0425,1.7586712186783702,1.0,2840.899300950917,0.38006147731424217,1.314078281781772,0.9679501779815265,0.28691719118449155,0.685442706993016
0.043000000000000003,1.757918051374604,1.0,2846.5981129443526,0.3835388483330758,1.3136873928651085,0.968476511113478,0.28688555815773337,0.686225189915469
0.043500000000000004,1.7571648840708378,1.0,2852.2315592876116,0.38699671812064573,1.313297135944028,0.9689865856624681,0.2868539251309752,0.6870054356162923
0.044,1.7564117167670716,1.0,2857.8007840310843,0.39043519330092813,1.312907498984172,0.969481077481355,0.286822292104217,0.6877834728299439
0.0445,1.7556585494633052,1.0,2863.3069390978,0.3938543804978992,1.3125184699511827,0.9699606273761271,0.2867906590774588,0.6885593301638129
0.045,1.754905382159539,1.0,2868.751184119512,0.39725438633553506,1.3121300368107023,0.9704258432684421,0.28675902605070064,0.6893330360986916
0.0455,1.7541522148557729,1.0,2874.1346862762643,0.40063531743781183,1.3117421875283723,0.9708773022043611,0.28672739302394246,0.6901046189892384
0.046,1.7533990475520067,1.0,2879.4586201388033,0.40399728042870564,1.3113549100698347,0.9713155522216048,0.2866957599971843,0.6908741070644296
0.0465,1.7526458802482405,1.0,2884.72416751456,0.40734038193219263,1.3109681924007317,0.971741114086572,0.2866641269704261,0.6916415284280023
0.047,1.7518927129444741,1.0,2889.93251729662,0.41066472857224895,1.3105820224867049,0.9721544829113609,0.2866324939436679,0.6924069110588902
0.0475,1.751139545640708,1.0,2895.084865315861,0.41397042697285075,1.3101963882933962,0.9725561296601509,0.2866008609169097,0.6931702828116473
0.048,1.7503863783369418,1.0,2900.182414196679,0.4172575837579741,1.3098112777864477,0.9729465025534827,0.28656922789015155,0.693931671416864
0.0485,1.7496332110331756,1.0,2905.226188579325,0.4205263009610401,1.3094266805582253,0.9733260279262939,0.28653759486339336,0.6946911012714222
0.049,1.7488800437294092,1.0,2910.214818713068,0.4237766136533249,1.3090426073303887,0.9736951053255474,0.2865059618366352,0.6954485550205204
0.0495,1.748126876425643,1.0,2915.153856628648,0.4270087269405903,1.3086590079236846,0.9740541318027287,0.286474328809877,0.696204135291986
0.05,1.7473737091218768,1.0,2920.0442450738183,0.43022273661003846,1.3082758728495267,0.9744034756380564,0.2864426957831188,0.6969578642183114
0.0505,1.7466205418181107,1.0,2924.8869318682387,0.4334187384488717,1.3078931926193285,0.9747434882120225,0.28641106275636063,0.6977097638350673
0.051000000000000004,1.7458673745143445,1.0,2929.6828698068243,0.4365968282442923,1.3075109577445037,0.9750745049314467,0.28637942972960245,0.6984598560811801
0.051500000000000004,1.745114207210578,1.0,2934.4330165649153,0.4397571017835025,1.3071291587364657,0.9753968460968646,0.28634779670284427,0.6992081627992055
0.052000000000000005,1.744361039906812,1.0,2939.138334605724,0.4428996548537046,1.3067477861066283,0.9757108177154515,0.2863161636760861,0.6999547057355937
0.0525,1.7436078726030457,1.0,2943.799791089462,0.4460245832421008,1.3063668303664053,0.9760167122633481,0.2862845306493279,0.7006995065409509
0.053,1.7428547052992795,1.0,2948.418357784915,0.4491319827358935,1.30598628202721,0.9763148094009506,0.2862528976225697,0.7014425867702958
0.0535,1.7421015379955131,1.0,2952.9950109823926,0.4522219491222849,1.3056061316004557,0.9766053766444502,0.28622126459581154,0.7021839678833066
0.054,1.741348370691747,1.0,2957.5307314091924,0.45529457818847724,1.3052263695975568,0.9768886699966457,0.28618963156905336,0.7029236712445652
0.0545,1.7405952033879808,1.0,2962.0265041470225,0.45834996572167286,1.3048469865299261,0.9771649345398293,0.2861579985422952,0.703661718123798
0.055,1.7398420360842146,1.0,2966.4833185511106,0.46138820750907394,1.3044679729089779,0.9774344049933238,0.286126365515537,0.704398129696103
0.0555,1.7390888687804482,1.0,2970.9021681713875,0.4644093993378828,1.3040893192461254,0.9776973062380577,0.2860947324887788,0.7051329270421813
0.056,1.738335701476682,1.0,2975.284050676062,0.4674136369953017,1.303711016052782,0.977953853810386,0.28606309946202063,0.7058661311485548
0.0565,1.7375825341729159,1.0,2979.62996777659,0.4704010162685329,1.3033330538403618,0.9782042543671986,0.28603146643526245,0.7065977629077811
0.057,1.7368293668691497,1.0,2983.9409251552147,0.47337163294477874,1.3029554231202782,0.9784487061242054,0.28599983340850427,0.7073278431186645
0.0575,1.7360761995653835,1.0,2988.217932393954,0.4763255828112414,1.3025781144039448,0.9786873992691543,0.2859682003817461,0.7080563924864582
0.058,1.735323032261617,1.0,2992.4620029061048,0.47926296165512317,1.3022011182027753,0.9789205163516028,0.2859365673549879,0.708783431623062
0.0585,1.734569864957851,1.0,2996.6741538693573,0.48218386526362633,1.301824425028183,0.9791482326507549,0.2859049343282297,0.7095089810472155
0.059000000000000004,1.7338166976540847,1.0,3000.8554061610853,0.48508838942395316,1.3014480253915817,0.9793707165227591,0.28587330130147154,0.7102330611846822
0.059500000000000004,1.7330635303503186,1.0,3005.0067842955236,0.4879766299233059,1.301071909804385,0.9795881297287697,0.28584166827471336,0.7109556923684319
0.06,1.7323103630465524,1.0,3009.1267530282,0.49084861062079604,1.300696090968779,0.9798006231452489,0.28581003524795523,0.7116768522834687
0.0605,1.731557195742786,1.0,3013.218727914543,0.4937045052691781,1.3003205387271488,0.9800083515728542,0.285778402221197,0.7123966008247293
0.061,1.7308040284390198,1.0,3017.283398726993,0.4965444041578387,1.2999452465733428,0.9802114584773326,0.2857467691944388,0.7131149523534969
0.0615,1.7300508611352536,1.0,3021.3212642855324,0.49936839187033555,1.299570209672418,0.9804100815433058,0.28571513616768063,0.7138319179745648
0.062,1.7292976938314875,1.0,3025.332825345561,0.5021765529902266,1.2991954231894312,0.9806043532955749,0.2856835031409225,0.714547508745208
0.0625,1.728544526527721,1.0,3029.3185845704425,0.5049689721010696,1.2988208822894387,0.9807944013313634,0.28565187011416426,0.7152617356752596
0.063,1.7277913592239549,1.0,3033.2790465053677,0.5077457337864224,1.2984465821374978,0.9809803485404268,0.2856202370874061,0.7159746097271869
0.0635,1.7270381919201887,1.0,3037.214717550774,0.5105069226298428,1.298072517898665,0.981162313313752,0.2855886040606479,0.7166861418161673
0.064,1.7262850246164225,1.0,3041.126105937242,0.5132526232148886,1.297698684737997,0.9813404097415178,0.2855569710338898,0.7173963428101616
0.0645,1.7255318573126561,1.0,3045.013721699913,0.5159829201251177,1.2973250778205505,0.9815147478009421,0.28552533800713154,0.718105223529986
0.065,1.72477869000889,1.0,3048.878076654774,0.5186978979440879,1.2969516923113826,0.9816854335346022,0.2854937049803734,0.7188127947493812
0.0655,1.7240255227051238,1.0,3052.719684373832,0.521397641255357,1.2965785233755498,0.9818525692197799,0.28546207195361517,0.7195190671950844
0.066,1.7232723554013576,1.0,3056.5390601623676,0.5240822346424829,1.2962055661781087,0.9820162535293413,0.28543043892685704,0.7202240515468945
0.0665,1.7225191880975914,1.0,3060.3367210351776,0.5267517626890234,1.2958328158841164,0.9821765816846327,0.2853988059000988,0.7209277584377376
0.067,1.721766020793825,1.0,3064.1131856951097,0.5294063099785361,1.2954602676586295,0.9823336456008435,0.2853671728733407,0.7216301984537341
0.0675,1.7210128534900588,1.0,3067.868974510136,0.532045961094579,1.2950879166667046,0.982487534025258,0.28533553984658244,0.7223313821342601
0.068,1.7202596861862927,1.0,3071.6046094929225,0.5346708006207102,1.2947157580733988,0.9826383326687899,0.2853039068198243,0.7230313199720085
0.0685,1.7195065188825265,1.0,3075.3206142788663,0.537280913140487,1.2943437870437686,0.9827861243311704,0.2852722737930661,0.7237300224130503
0.069,1.71875335157876,1.0,3079.0175141070195,0.5398763832374676,1.2939719987428708,0.9829309890201413,0.28524064076630795,0.7244274998568927
0.0695,1.718000184274994,1.0,3082.695835798813,0.5424572954952096,1.2936003883357623,0.9830730040649736,0.2852090077395497,0.7251237626565357
0.07,1.7172470169712277,1.0,3086.356107740226,0.5450237344972709,1.2932289509874995,0.9832122442246242,0.2851773747127916,0.7258188211185288
0.07050000000000001,1.7164938496674615,1.0,3089.998859861442,0.5475757848272095,1.2928576818631394,0.9833487817908155,0.28514574168603335,0.7265126855030237
0.07100000000000001,1.7157406823636951,1.0,3093.6234775905236,0.5501134739639283,1.292486585912481,0.9834826837557022,0.2851141086592752,0.7272053477718778
