Time [s],Phi [rad],STIM [ ],Fsee [N],Gamma [ ],Lcerel [ ],q [ ],Lmtc [m],fisomrel [ ]
0.0,1.8,1.0,18.14104830632508,0.00042486499424077673,1.3793203116186534,0.005046702194739943,0.288653,0.5411865471732387
0.0005,1.79999375,1.0,18.582071370492077,0.006031691146459909,1.3792686123550915,0.014132302018978797,0.2886527375,0.5413116061296026
0.001,1.799975,1.0,22.2316024664838,0.011607067436968547,1.3788761085807413,0.03780314619491387,0.28865195,0.5422605049321249
0.0015,1.79994375,1.0,32.35606100832719,0.01715117027556415,1.3779376829351453,0.0735843169405322,0.2886506375,0.5445252162551455
0.002,1.7999,1.0,56.20759893472455,0.022664175080420724,1.3761998579709083,0.11823639034218197,0.2886488,0.5487042948426928
0.0025,1.79984375,1.0,101.4069938296487,0.028146256287489322,1.3737307678895467,0.1683938124152753,0.28864643749999996,0.5546087791220975
0.003,1.7997750000000001,1.0,166.46116634454074,0.03359758735358849,1.3710100923628854,0.2212145299766269,0.28864354999999997,0.5610698704237349
0.0035,1.79969375,1.0,243.85401690570524,0.03901834076345486,1.368395878703572,0.27452184448166084,0.2886401375,0.5672336624815788
0.004,1.7996,1.0,328.0065794319151,0.04440868803238031,1.3659837499642766,0.3266979161555929,0.2886362,0.5728823174811412
0.0045000000000000005,1.7994937500000001,1.0,416.0234782764515,0.04976879971393186,1.3637648805714624,0.3766227588301374,0.2886317375,0.5780456366799417
0.005,1.799375,1.0,506.293516636163,0.05509884539904971,1.3617126427329387,0.4236032220290971,0.28862675,0.5827932528289332
0.0055,1.79924375,1.0,597.7274232275313,0.06039899377109802,1.3598036982947108,0.4672796739708158,0.2886212375,0.5871852636908441
0.006,1.7991000000000001,1.0,689.4512525585458,0.0656694124721085,1.3580207070733379,0.5075338300362051,0.2886152,0.5912664965137346
0.006500000000000001,1.79894375,1.0,780.7682503830677,0.07091026829778246,1.3563499485411303,0.5444098133390901,0.2886086375,0.5950724304041255
0.007,1.798775,1.0,871.0898889825677,0.07612172708992423,1.3547807028021426,0.5780542134816635,0.28860155,0.598630908543424
0.0075,1.79859375,1.0,959.9206019301765,0.08130395357100514,1.3533042533186335,0.6086721937971074,0.2885939375,0.6019646192186316
0.008,1.7984,1.0,1046.899217463037,0.08645711213417244,1.3519124976747408,0.6364966734959439,0.2885858,0.6050943685597117
0.0085,1.79819375,1.0,1131.7007634134766,0.09158136542630158,1.3505989595452401,0.6617691084790122,0.2885771375,0.608036892748071
0.009000000000000001,1.797975,1.0,1214.0845728473475,0.09667687551625953,1.349357640567822,0.6847262743868678,0.28856795,0.6108075222477184
0.0095,1.79774375,1.0,1293.8896517041112,0.10174380409207288,1.3481828537334233,0.7055927966726803,0.2885582375,0.6134206006570458
0.01,1.7975,1.0,1370.9815554805477,0.10678231122273858,1.3470697325620757,0.7245774919132366,0.288548,0.6158883952145702
0.0105,1.79724375,1.0,1445.272150995216,0.11179255610194323,1.3460137680755075,0.7418714244645959,0.2885372375,0.6182221693309595
0.011,1.796975,1.0,1516.7202430834618,0.11677469723574392,1.3450106731602043,0.7576475943808579,0.28852595000000003,0.6204325108595112
0.0115,1.79669375,1.0,1585.323719112184,0.12172889321218693,1.3440563797849705,0.7720615590336827,0.2885141375,0.6225293607438143
0.012,1.7964,1.0,1651.0679238274925,0.1266552998732362,1.3431475576639678,0.7852527507889041,0.28850180000000003,0.6245208981800189
0.0125,1.79609375,1.0,1713.9759259569198,0.13155407290344545,1.3422809150394732,0.7973454752799874,0.2884889375,0.6264150994889698
0.013000000000000001,1.7957750000000001,1.0,1774.0925744189806,0.13642536727850527,1.3414533339802779,0.8084503920138335,0.28847555,0.6282194538066097
0.0135,1.79544375,1.0,1831.490578242864,0.1412693384111716,1.340661751785244,0.8186658690098644,0.2884616375,0.6299412336435232
0.014,1.7951000000000001,1.0,1886.221854112282,0.1460861390051005,1.3399036563063857,0.828079495772292,0.2884472,0.6315864299411684
0.0145,1.79474375,1.0,1938.342083126488,0.15087592067774058,1.339176754378518,0.8367691672946006,0.2884322375,0.6331604888050206
0.015,1.794375,1.0,1987.927870407646,0.15563883504654044,1.3384787528364557,0.8448041246132095,0.28841675,0.6346687942547116
0.0155,1.79399375,1.0,2035.0616165356603,0.16037503284979904,1.3378074986679775,0.8522460138647088,0.2884007375,0.6361163706750139
0.016,1.7936,1.0,2079.84124995789,0.16508466532707494,1.3371608524013316,0.8591497425473913,0.2883842,0.63750816201533
0.0165,1.7931937500000001,1.0,2122.3415900038412,0.1697678808433319,1.3365370702870727,0.8655643897278419,0.2883671375,0.6388482153143938
0.017,1.792775,1.0,2162.6361287169893,0.1744248267374826,1.335934549189254,0.8715338169850705,0.28834955,0.6401402380772088
0.0175,1.7923437500000001,1.0,2200.809248040719,0.1790556503484398,1.3353516859719288,0.8770972440386889,0.2883314375,0.6413879040681916
0.018000000000000002,1.7919,1.0,2236.9372882718344,0.18366049815446375,1.33478705826693,0.8822898425992017,0.2883128,0.6425944694418855
0.0185,1.79144375,1.0,2271.1346538791536,0.18823951723977142,1.3342389495325666,0.8871430829731358,0.2882936375,0.6437637902275715
0.019,1.790975,1.0,2303.487815987347,0.19279285258770135,1.3337060052006084,0.8916853303637268,0.28827395,0.6448989224905979
0.0195,1.79049375499687,1.0,2334.041666361015,0.19732064702896154,1.3331873491782347,0.8959422242589786,0.2882537377098685,0.6460018824859093
0.02,1.7900066084395798,1.0,2363.150740490986,0.2018230433942601,1.332682105372624,0.8999368703952448,0.2882332775544624,0.6470746708062444
0.0205,1.7895194618822896,1.0,2391.149174346389,0.2063001845143051,1.332189397690956,0.9036901251798309,0.28821281739905613,0.6481192731559945
0.021,1.7890323153249994,1.0,2418.0952658551287,0.21075221241548658,1.3317084435362658,0.907220865264583,0.28819235724365,0.6491374632868239
0.021500000000000002,1.7885451687677092,1.0,2444.018483631457,0.21517926876693919,1.3312387638692045,0.9105462488514781,0.28817189708824376,0.6501303613214331
0.022,1.788058022210419,1.0,2468.9526770152293,0.2195814929089105,1.330779856234883,0.9136818294325908,0.2881514369328376,0.6510991285370861
0.0225,1.7875708756531288,1.0,2492.933533395977,0.22395902361384637,1.3303312183962661,0.9166417337989421,0.2881309767774314,0.6520449175792039
0.023,1.7870837290958386,1.0,2515.998483492365,0.2283119996541927,1.329892348116319,0.9194388129714985,0.28811051662202525,0.6529688732598897
0.0235,1.7865965825385484,1.0,2538.1706352080114,0.23264055302845005,1.3294628935454962,0.9220847992932736,0.288090056466619,0.653871816889761
0.024,1.7861094359812582,1.0,2559.5131067640295,0.23694483258213747,1.32904213908224,0.9245903402580706,0.28806959631121287,0.6547553275133413
0.0245,1.785622289423968,1.0,2580.053182698652,0.24122497178549335,1.328629721025906,0.9269652194677018,0.28804913615580663,0.6556202374312349
0.025,1.7851351428666777,1.0,2599.8181007734206,0.24548110363247674,1.3282252863250206,0.9292183904324144,0.2880286760004005,0.6564673514568184
0.025500000000000002,1.7846479963093875,1.0,2618.836112920817,0.24971336111704676,1.3278284819281099,0.9313580568766058,0.28800821584499425,0.6572974695048182
0.026000000000000002,1.7841608497520973,1.0,2637.1364241357282,0.25392187723316245,1.3274389547837007,0.9333917457150895,0.28798775568958807,0.6581113867670842
0.0265,1.7836737031948071,1.0,2654.749134129023,0.2581067849747829,1.327056351840319,0.9353263720379197,0.2879672955341819,0.6589098938804259
0.027,1.783186556637517,1.0,2671.7051817455927,0.2622682173358673,1.326680320046491,0.9371682970639446,0.2879468353787757,0.6596937770864868
0.0275,1.7826994100802267,1.0,2688.0362921456513,0.2664063073103746,1.3263105063507434,0.9389233798993923,0.2879263752233695,0.6604638183836781
0.028,1.7822122635229363,1.0,2703.7675258968734,0.2705211836736394,1.3259466252918701,0.940597032048828,0.2879059150679633,0.6612206551684987
0.0285,1.781725116965646,1.0,2718.93008089952,0.2746129802282664,1.3255883410337133,0.9421942446944234,0.2878854549125571,0.6619650260934772
0.029,1.7812379704083559,1.0,2733.553495686753,0.2786818295679212,1.3252353385232278,0.9437196340505407,0.28786499475715094,0.6626976230091881
0.029500000000000002,1.7807508238510656,1.0,2747.657036528381,0.2827278577536124,1.3248874008857898,0.9451774831687026,0.28784453460174475,0.6634189309492222
0.03,1.7802636772937754,1.0,2761.2603913673747,0.28675119084634887,1.3245443112467754,0.9465717600790284,0.28782407444633856,0.6641294325170797
0.0305,1.7797765307364852,1.0,2774.3836459873887,0.29075195490713934,1.3242058527315603,0.9479061449701623,0.2878036142909324,0.6648296079547252
0.031,1.779289384179195,1.0,2787.047261222679,0.2947302759969926,1.3238718084655205,0.9491840547032614,0.2877831541355262,0.6655199352081416
0.0315,1.7788022376219048,1.0,2799.2720512111105,0.29868628017691734,1.323541961574032,0.950408664950478,0.28776269398012,0.6662008899898839
0.032,1.7783150910646146,1.0,2811.079162689934,0.3026200935079224,1.323216095182471,0.9515829302138759,0.2877422338247138,0.6668729458386349
0.0325,1.7778279445073244,1.0,2822.4900553344137,0.3065318420510166,1.3228939924162129,0.9527096019505971,0.2877217736693076,0.6675365741757611
0.033,1.7773407979500342,1.0,2833.5150161823553,0.3104216421440012,1.3225755386998619,0.9537912541647879,0.28770131351390144,0.6681920339046362
0.0335,1.776853651392744,1.0,2844.1844365029415,0.31428963020250233,1.3222604421362287,0.9548302737976614,0.28768085335849525,0.6688399471752626
0.034,1.7763665048354538,1.0,2854.5116411513213,0.3181359262305966,1.321948565414964,0.955828902922132,0.28766039320308906,0.6694806161583119
0.0345,1.7758793582781636,1.0,2864.509118020421,0.3219606492886481,1.3216397802742623,0.9567892380319274,0.28763993304768287,0.6701143231668504
0.035,1.7753922117208734,1.0,2874.1895213634457,0.3257639184370206,1.3213339584523176,0.9577132405139379,0.2876194728922767,0.6707413493155747
0.035500000000000004,1.7749050651635832,1.0,2883.565663184144,0.3295458527360782,1.321030971687324,0.9586027469280136,0.2875990127368705,0.6713619745455757
0.036000000000000004,1.774417918606293,1.0,2892.6505049923503,0.3333065712461848,1.320730691717476,0.9594594783915741,0.2875785525814643,0.671976477648053
0.0365,1.7739307720490027,1.0,2901.4571499242165,0.3370461930277043,1.3204329902809673,0.9602850491562565,0.2875580924260581,0.6725851362869819
0.037,1.7734436254917125,1.0,2909.9988352269397,0.3407648371410006,1.3201377391159927,0.9610809744544785,0.28753763227065193,0.6731882270207289
0.0375,1.7729564789344223,1.0,2918.2889251085826,0.3444626226464378,1.3198448099607463,0.9618486776855307,0.28751717211524574,0.6737860253226216
0.038,1.7724693323771321,1.0,2926.337019270195,0.348139662654164,1.3195541086554776,0.9625894990283808,0.28749671195983956,0.6743787361014133
0.0385,1.771982185819842,1.0,2934.154522749101,0.3517960752744632,1.3192655260285766,0.9633046989616989,0.28747625180443337,0.6749665940360212
0.039,1.7714950392625517,1.0,2941.7576431038906,0.3554319865006025,1.3189789117116486,0.9639954619604804,0.2874557916490272,0.6755499167195544
0.0395,1.7710078927052615,1.0,2949.1536788027606,0.3590475079513249,1.3186941942564963,0.9646629083681557,0.287435331493621,0.6761288601632738
0.04,1.7705207461479713,1.0,2956.3499938654977,0.36264275124537343,1.3184113022149222,0.9653080944934725,0.2874148713382148,0.6767035797888951
0.0405,1.770033599590681,1.0,2963.3540149152905,0.3662178280014911,1.3181301641387295,0.9659320169509215,0.2873944111828086,0.6772742304370696
0.041,1.7695464530333909,1.0,2970.173228343725,0.36977284983842085,1.3178507085797204,0.9665356166629684,0.28737395102740243,0.6778409663755409
0.0415,1.7690593064761007,1.0,2976.81517758869,0.37330792837490573,1.3175728640896982,0.9671197825537123,0.28735349087199624,0.6784039413069709
0.042,1.7685721599188104,1.0,2983.287460525872,0.37682317522968867,1.3172965592204655,0.9676853549607201,0.28733303071659005,0.6789633083764466
0.0425,1.7680850133615202,1.0,2989.5977269732653,0.3803187020215127,1.317021722523825,0.9682331287892263,0.28731257056118387,0.6795192201786573
0.043000000000000003,1.76759786680423,1.0,2995.7536763085855,0.3837946203691208,1.3167482825515795,0.9687638564305917,0.2872921104057777,0.6800718287647474
0.043500000000000004,1.7671107202469398,1.0,3001.7630552003156,0.387251041891256,1.3164761678555317,0.9692782504648498,0.2872716502503715,0.6806212856488436
0.044,1.7666235736896496,1.0,3007.6312153977015,0.3906880713030787,1.3162053281162638,0.9697769867767269,0.28725119009496525,0.6811676992056312
0.0445,1.7661364271323594,1.0,3013.362797885938,0.39410581417032087,1.3159357194554224,0.970260706882938,0.2872307299395591,0.6817111644521193
0.045,1.7656492805750692,1.0,3018.969734636238,0.3975043977450776,1.315667235235639,0.9707300177825772,0.28721026978415287,0.6822519024192848
0.0455,1.765162134017779,1.0,3024.455948620326,0.40088392561854197,1.3153998384507946,0.9711854974827798,0.28718980962874674,0.6827899933201935
0.046,1.7646749874604888,1.0,3029.8253864108106,0.40424450138190693,1.3151334920947702,0.9716276949853693,0.2871693494733405,0.6833255170923325
0.0465,1.7641878409031986,1.0,3035.082017305394,0.40758622862636557,1.3148681591614468,0.9720571320199597,0.28714888931793436,0.6838585534001332
0.047,1.7637006943459084,1.0,3040.229832479433,0.4109092109431109,1.3146038026447056,0.972474304657581,0.2871284291625281,0.6843891816374081
0.0475,1.7632135477886182,1.0,3045.27284417018,0.4142135519233359,1.314340385538427,0.9728796848141231,0.287107969007122,0.6849174809296973
0.048,1.762726401231328,1.0,3050.2150848902097,0.4174993551582337,1.3140778708364929,0.9732737216520886,0.28708750885171574,0.6854435301365285
0.0485,1.7622392546740375,1.0,3055.060606672489,0.4207667242389973,1.3138162215327833,0.9736568428884166,0.28706704869630956,0.685967407853594
0.049,1.7617521081167473,1.0,3059.813480344703,0.4240157627568198,1.31355540062118,0.9740294560154852,0.28704658854090337,0.686489192414832
0.0495,1.761264961559457,1.0,3064.4777948344613,0.4272465743028941,1.313295371095564,0.9743919494418019,0.2870261283854972,0.6870089618944288
0.05,1.760777815002167,1.0,3069.057656505043,0.43045926246841326,1.3130360959498157,0.9747446935583494,0.287005668230091,0.6875267941087301
0.0505,1.7602906684448767,1.0,3073.557188520981,0.43365393084457043,1.3127775381778164,0.9750880417360609,0.2869852080746848,0.6880427666180632
0.051000000000000004,1.7598035218875865,1.0,3077.979177799606,0.43683067527846253,1.3125196723498602,0.9754223311510166,0.2869647479192786,0.6885569336554083
0.051500000000000004,1.7593163753302963,1.0,3082.3242459717,0.4399895830486822,1.3122624916581656,0.9757478840516429,0.28694428776387243,0.689069312192073
0.052000000000000005,1.758829228773006,1.0,3086.600841466885,0.44313078798323985,1.3120059224401592,0.9760650090672334,0.28692382760846624,0.689580052175591
0.0525,1.7583420822157159,1.0,3090.8108832005664,0.44625438497461056,1.3117499470343774,0.9763740004921683,0.28690336745306005,0.6900891917221393
0.053,1.7578549356584257,1.0,3094.9562981154613,0.44936046891526954,1.311494547779357,0.9766751397314428,0.28688290729765387,0.6905967688256822
0.0535,1.7573677891011354,1.0,3099.0390209523907,0.45244913469769177,1.3112397070136337,0.9769686959753816,0.2868624471422477,0.6911028213586334
0.054,1.7568806425438452,1.0,3103.060994028231,0.45552047721435235,1.3109854070757443,0.977254926833481,0.2868419869868415,0.6916073870724924
0.0545,1.756393495986555,1.0,3107.024167020648,0.45857459135772644,1.310731630304225,0.9775340789301825,0.2868215268314353,0.6921105035984646
0.055,1.7559063494292648,1.0,3110.9304967597704,0.46161157202028913,1.3104783590376123,0.9778063884651644,0.2868010666760291,0.6926122084480596
0.0555,1.7554192028719746,1.0,3114.781947026755,0.4646315140945154,1.3102255756144425,0.9780720817405437,0.2867806065206229,0.6931125390136729
0.056,1.7549320563146844,1.0,3118.5804883594374,0.4676345124728805,1.3099732623732518,0.9783313756572015,0.28676014636521674,0.6936115325691428
0.0565,1.7544449097573942,1.0,3122.328097864443,0.47062066204785946,1.3097214016525769,0.9785844781822798,0.28673968620981055,0.6941092262702907
0.057,1.753957763200104,1.0,3126.0267590369876,0.47359005771192736,1.309469975790954,0.9788315887897456,0.28671922605440436,0.6946056571554411
0.0575,1.7534706166428138,1.0,3129.6784615867514,0.4765427943575593,1.3092189671269194,0.9790728988757795,0.2866987658989982,0.695100862145922
0.058,1.7529834700855236,1.0,3133.2852012711915,0.4794789668772304,1.3089683579990097,0.9793085921506215,0.286678305743592,0.6955948780465427
0.0585,1.7524963235282334,1.0,3136.8489797357074,0.48239867016341575,1.308718130745761,0.9795388450083823,0.2866578455881858,0.6960877415460563
0.059000000000000004,1.7520091769709432,1.0,3140.371804360541,0.48530199910859045,1.3084682677057096,0.9797638268762277,0.2866373854327796,0.6965794892175978
0.059500000000000004,1.751522030413653,1.0,3143.852734357112,0.48818901088396216,1.3082187762341497,0.9799836988340263,0.2866169252773734,0.6970701083441426
0.06,1.7510348838563627,1.0,3147.2948793140445,0.49105982335684595,1.3079696293919667,0.9801986187819824,0.28659646512196724,0.6975596536102509
0.0605,1.7505477372990725,1.0,3150.701568663897,0.4939145552812674,1.3077207984460626,0.9804087384631822,0.28657600496656105,0.6980481830475693
0.061,1.7500605907417823,1.0,3154.073639739564,0.4967532918629976,1.3074722758039627,0.9806142022874244,0.28655554481115486,0.6985357130482521
0.0615,1.7495734441844921,1.0,3157.411932437126,0.4995761183078077,1.3072240538731923,0.9808151492050805,0.2865350846557487,0.6990222599544702
0.062,1.749086297627202,1.0,3160.7172891645173,0.5023831198214688,1.3069761250612766,0.9810117129547589,0.2865146245003425,0.699507840058557
0.0625,1.7485991510699117,1.0,3163.9905547916187,0.5051743816097521,1.306728481775741,0.9812040222979352,0.2864941643449363,0.6999924696031535
0.063,1.7481120045126215,1.0,3167.232576601657,0.5079499888784288,1.3064811164241106,0.9813922012413261,0.2864737041895301,0.7004761647813482
0.0635,1.7476248579553313,1.0,3170.4442042435676,0.5107100268332699,1.3062340214139108,0.9815763692477332,0.2864532440341239,0.7009589417368127
0.064,1.747137711398041,1.0,3173.6262896859557,0.5134545806800467,1.3059871891526666,0.9817566414360367,0.28643278387871773,0.7014408165639356
0.0645,1.7466505648407509,1.0,3176.7796871723294,0.5161837356245301,1.3057406120479036,0.9819331287709709,0.28641232372331155,0.7019218053079506
0.065,1.7461634182834607,1.0,3179.905253177299,0.5188975768724915,1.305494282507147,0.9821059382432754,0.28639186356790536,0.7024019239650622
0.0655,1.7456762717261705,1.0,3183.003846364369,0.5215961896297019,1.305248192937922,0.9822751730407756,0.28637140341249917,0.7028811884825674
0.066,1.7451891251688803,1.0,3186.076327544974,0.5242796591019325,1.305002335747754,0.9824409327109106,0.286350943257093,0.7033596147589742
0.0665,1.74470197861159,1.0,3189.123559638651,0.5269480704949545,1.304756703344168,0.982603313315196,0.2863304831016868,0.703837218644116
0.067,1.7442148320542998,1.0,3192.1464076344178,0.529601509014539,1.3045112881346896,0.9827624075760728,0.2863100229462806,0.7043140159392604
0.0675,1.7437276854970096,1.0,3195.145738553964,0.532240059866457,1.3042660825268437,0.982918305016574,0.2862895627908744,0.7047900223972192
0.068,1.7432405389397192,1.0,3198.1224214151944,0.5348638082564797,1.304021078928156,0.9830710920931994,0.28626910263546823,0.7052652537224486
0.0685,1.742753392382429,1.0,3201.077327198013,0.5374728393903785,1.3037762697461515,0.9832208523223845,0.286248642480062,0.7057397255711525
0.069,1.7422662458251388,1.0,3204.011328811024,0.5400672384739242,1.3035316473883556,0.983367666400906,0.28622818232465586,0.7062134535513742
0.0695,1.7417790992678486,1.0,3206.9253010587,0.5426470907128881,1.3032872042622934,0.9835116123205571,0.2862077221692496,0.706686453223093
0.07,1.7412919527105584,1.0,3209.8185080815542,0.5452124345344806,1.3030429462917008,0.9836527633108975,0.2861872620138435,0.7071587139759099
