Time [s],Phi [rad],STIM [ ],Fsee [N],Gamma [ ],Lcerel [ ],q [ ],Lmtc [m],fisomrel [ ]
0.0,1.8,1.0,18.080764767731594,0.0003423964097464338,1.3793270385372285,0.005030384208309769,0.288653,0.5411702737071938
0.0005,1.79999375,1.0,18.496687753529415,0.005949685145505182,1.3792780293994489,0.013889032799871276,0.2886527375,0.5412888278535422
0.001,1.799975,1.0,22.085013844855848,0.011525521424833434,1.3788908969380191,0.03736170177613533,0.28865195,0.5422247711017327
0.0015,1.79994375,1.0,32.07367669537701,0.017070081672147998,1.3779613095120458,0.07298771543475395,0.2886506375,0.5444682669385827
0.002,1.7999,1.0,55.65418451187243,0.02258354131999861,1.3762349989055647,0.11753478905860257,0.2886488,0.5486199795871485
0.0025,1.79984375,1.0,100.52449423889293,0.028066074818325903,1.3737724755570422,0.16763368002128642,0.28864643749999996,0.5545093638901797
0.003,1.7997750000000001,1.0,165.34021367956356,0.03351785563960075,1.3710514210087004,0.22043244324537725,0.28864354999999997,0.5609720757889802
0.0035,1.79969375,1.0,242.6074834000112,0.038939056280675906,1.3684338348795357,0.27374537266635085,0.2886401375,0.5671444812371141
0.004,1.7996,1.0,326.689819701907,0.04432984827272866,1.3660183111915196,0.3259471134416969,0.2886362,0.5728016450016197
0.0045000000000000005,1.7994937500000001,1.0,414.6658512873659,0.04969040218676227,1.363796515267651,0.3759107741394031,0.2886317375,0.5779722432369699
0.005,1.799375,1.0,504.91297443500775,0.05502088762500153,1.3617417990214877,0.422937592049819,0.28862675,0.582725991201204
0.0055,1.79924375,1.0,596.3329334474358,0.06032147325946486,1.3598308005009496,0.4666637877055526,0.2886212375,0.5871230708254012
0.006,1.7991000000000001,1.0,688.060861676198,0.0655923267993493,1.3580458659721812,0.5069680042312444,0.2886152,0.5912090492992055
0.006500000000000001,1.79894375,1.0,779.3854469028167,0.07083361499894852,1.356373459979022,0.5438926111054361,0.2886086375,0.5950189956077181
0.007,1.798775,1.0,869.7219762412059,0.07604550376957019,1.3548027211579332,0.5775829835779164,0.28860155,0.5985810875603506
0.0075,1.79859375,1.0,958.5805431868031,0.08122815784649765,1.353324800166612,0.6082436077227809,0.2885939375,0.6019183213878305
0.008,1.7984,1.0,1045.5873925889946,0.08638174150393936,1.3519317572593004,0.6361072671899436,0.2885858,0.6050511423226431
0.0085,1.79819375,1.0,1130.4224047358948,0.09150641756384495,1.350617010367637,0.6614153482255646,0.2885771375,0.6079965307425395
0.009000000000000001,1.797975,1.0,1212.8419036195342,0.0966023480404375,1.3493745812004443,0.6844047741861589,0.28856795,0.610769776820836
0.0095,1.79774375,1.0,1292.6856834444425,0.10166969469841564,1.3481987521861336,0.7053003691530474,0.2885582375,0.6133852964796541
0.01,1.7975,1.0,1369.8175140226595,0.1067086175284156,1.347084665052152,0.724311208680781,0.288548,0.6158553421098071
0.0105,1.79724375,1.0,1444.1486846915304,0.11171927575876056,1.3460278045174958,0.7416286207875407,0.2885372375,0.618191194198985
0.011,1.796975,1.0,1515.6381555122039,0.11670182798099282,1.3450238701392367,0.7574258623342134,0.28852595000000003,0.6204034726854053
0.0115,1.79669375,1.0,1584.2825503746974,0.12165643265803376,1.344068799763426,0.7718587431267121,0.2885141375,0.6225021078742203
0.012,1.7964,1.0,1650.067753806265,0.12658324571999133,1.3431592484719312,0.7850669208385705,0.28850180000000003,0.6244953131000617
0.0125,1.79609375,1.0,1713.016958157011,0.13148242292498974,1.3422919164862879,0.7971749095096755,0.2884889375,0.6263910838907658
0.013000000000000001,1.7957750000000001,1.0,1773.1707923725648,0.136354119238297,1.3414637280088837,0.8082935766549978,0.28847555,0.6281968190506222
0.0135,1.79544375,1.0,1830.6076991562375,0.1411984901251582,1.3406715498117736,0.8185214317471219,0.2884616375,0.6299199462654472
0.014,1.7951000000000001,1.0,1885.3753497002676,0.14601568804153778,1.3399129132784284,0.82794623329932,0.2884472,0.6315663628398329
0.0145,1.79474375,1.0,1937.5306573834596,0.15080586477795754,1.3391855075695274,0.8366460043151236,0.2884322375,0.6331415543839354
0.015,1.794375,1.0,1987.15158037708,0.15556917212493934,1.33848702184575,0.844690099119989,0.28841675,0.6346509440114627
0.0155,1.79399375,1.0,2034.3167280710643,0.160305760794722,1.3378153407177016,0.8521402819039796,0.2884007375,0.6360994756880842
0.016,1.7936,1.0,2079.1305677210926,0.16501578200302136,1.3371682533066687,0.85905152929976,0.2883842,0.6374922479659761
0.0165,1.7931937500000001,1.0,2121.6619641425923,0.16969938373792698,1.3365440765172982,0.8654730218580496,0.2883671375,0.6388331778096905
0.017,1.792775,1.0,2161.986088695246,0.17435671363471225,1.3359411876651963,0.8714486875117677,0.28834955,0.6401260154020962
0.0175,1.7923437500000001,1.0,2200.189091908885,0.17898791932865063,1.3353579640659694,0.8770178046141293,0.2883314375,0.6413744768416071
0.018000000000000002,1.7919,1.0,2236.350662418831,0.1835931471076054,1.334792948739636,0.8822155921238773,0.2883128,0.6425818924560571
0.0185,1.79144375,1.0,2270.5756226023063,0.18817254455221175,1.334244520476275,0.8870735971762518,0.2882936375,0.6437519149604114
0.019,1.790975,1.0,2302.933908530613,0.19272625538718433,1.3337114861745905,0.8916202673376459,0.28827395,0.6448872576375833
0.0195,1.79049375,1.0,2333.497088755771,0.19725442293098505,1.3331927001797497,0.8958812105149129,0.2882537375,0.6459905119481105
0.02,1.79,1.0,2362.3425309278186,0.20175719050207577,1.3326870168369194,0.8998795057749132,0.288233,0.6470642500897683
0.0205,1.78949375,1.0,2389.547100257938,0.20623470053424187,1.332193346941191,0.903635999301627,0.2882117375,0.6481109064030914
0.021,1.788975,1.0,2415.1923402758284,0.21068709598702876,1.3317106017120717,0.9071695402332108,0.28818995000000003,0.6491328976779827
0.021500000000000002,1.78844375,1.0,2439.3513006394,0.2151145182503178,1.3312378154598514,0.9104972240713128,0.2881676375,0.6501323648258464
0.022,1.7879,1.0,2462.083247829354,0.21951710601826002,1.3307741896530942,0.9136345896287702,0.2881448,0.6511110824596265
0.0225,1.78734375,1.0,2483.4505044833504,0.2238949979850065,1.3303189257603645,0.9165957522095082,0.28812143749999997,0.6520708140450218
0.023,1.786775,1.0,2503.5181943367033,0.22824833284470825,1.3298712252502265,0.9193935537225727,0.28809755,0.6530133123466656
0.0235,1.78619375,1.0,2522.3478672505353,0.23257724810653782,1.3294303475917741,0.9220397054246673,0.28807313749999996,0.6539401979769224
0.024,1.7856,1.0,2540.0039541125793,0.23688188183910344,1.3289955462858267,0.9245448929133042,0.2880482,0.6548530947834517
0.0245,1.78499375,1.0,2556.5538041554073,0.24116237230920312,1.328566066745636,0.9269188794495082,0.2880227375,0.6557536345130812
0.025,1.784375,1.0,2572.042786949503,0.24541885304935565,1.3281413777976043,0.9291706356336541,0.28799675,0.6566429725034755
0.025500000000000002,1.78374375,1.0,2586.517705902802,0.24965145759207985,1.3277209482681334,0.931308381110479,0.2879702375,0.6575222578642712
0.026000000000000002,1.7831000000000001,1.0,2600.0266784871947,0.2538603194698945,1.3273042469836256,0.9333396576280835,0.2879432,0.6583926336303629
0.0265,1.78244375,1.0,2612.6190227210036,0.25804557221531843,1.3268907427704826,0.9352713940982903,0.2879156375,0.6592552368972009
0.027,1.781775,1.0,2624.3437942023415,0.2622073488400151,1.326479917022406,0.9371099663373337,0.28788755,0.6601111727711828
0.0275,1.7810937500000001,1.0,2635.2434496142682,0.26634577981407953,1.3260713212531265,0.9388612565228073,0.2878589375,0.660961394949746
0.028,1.7804,1.0,2645.3717039063563,0.2704610007915091,1.3256644106925475,0.9405306770851679,0.2878298,0.661807052322308
0.0285,1.77969375,1.0,2654.762395915195,0.27455313975913337,1.3252588313935059,0.9421232498641681,0.2878001375,0.6626488922210808
0.029,1.778975,1.0,2663.4499713599644,0.2786223247037819,1.3248542294088392,0.9436436167294842,0.28776995,0.663487658275476
0.029500000000000002,1.7782437500000001,1.0,2671.469429483145,0.2826686836122841,1.324450250791385,0.9450960732339617,0.2877392375,0.6643240904381615
0.03,1.7775,1.0,2678.8562724694593,0.28669234447146946,1.3240465415939802,0.9464845988843708,0.287708,0.6651589250031278
0.0305,1.77674375,1.0,2685.6464576419366,0.2906934352681676,1.3236427478694626,0.9478128844064653,0.2876762375,0.6659928946157636
0.031,1.775975,1.0,2691.8702503095974,0.29467208069435946,1.323238571522997,0.949084362385784,0.28764395,0.6668266131370291
0.0315,1.7751937500000001,1.0,2697.5590546339695,0.29862840815966213,1.322833707174341,0.950302222886653,0.2876111375,0.6676607063522699
0.032,1.7744,1.0,2702.751819154544,0.3025625492611862,1.3224277833728504,0.9514694268011612,0.2875778,0.6684959327463975
0.0325,1.77359375,1.0,2707.470631708586,0.3064746255888772,1.3220205853223086,0.952588747145997,0.2875439375,0.669332725218998
0.033,1.772775,1.0,2711.7377935487125,0.3103647587326807,1.321611898226499,0.9536627685875493,0.28750955,0.6701715144105485
0.0335,1.7719437500000002,1.0,2715.575799038455,0.31423307028254216,1.3212015072892054,0.9546939024981357,0.2874746375,0.6710127286834903
0.034,1.7711000000000001,1.0,2719.0073163708876,0.31807968182840707,1.3207891977142112,0.955684400638073,0.2874392,0.6718567941003595
0.0345,1.7702437500000001,1.0,2722.055169310322,0.321904714960221,1.3203747547053,0.9566363676035389,0.2874032375,0.672704134398976
0.035,1.7693750000000001,1.0,2724.742319956286,0.32570829126792933,1.319957963466255,0.9575517721645256,0.28736675,0.6735551709646894
0.035500000000000004,1.76849375,1.0,2727.091852531253,0.32949053234147774,1.3195386092008603,0.9584324576034774,0.2873297375,0.6744103227996807
0.036000000000000004,1.7676,1.0,2729.122861145713,0.3332515562780838,1.3191165143560508,0.9592801541896459,0.2872922,0.6752699306927437
0.0365,1.76669375,1.0,2730.853285132369,0.3369914824808393,1.3186915126682475,0.9600964860149159,0.2872541375,0.6761343104375774
0.037,1.765775,1.0,2732.3080509169827,0.3407104366882589,1.318263375079136,0.9608829724756004,0.28721555,0.6770039033266494
0.0375,1.76484375,1.0,2733.500167604272,0.34440853362432766,1.317831981423437,0.9616410489748355,0.2871764375,0.6778789272463395
0.038,1.7639,1.0,2734.4426951093797,0.348085888013031,1.3173972115358712,0.9623720647545687,0.28713679999999997,0.6787595985626704
0.0385,1.76294375,1.0,2735.148737953141,0.35174261457835404,1.3169589452511594,0.9630772890100141,0.28709663750000003,0.6796461320958945
0.039,1.761975,1.0,2735.6314393768116,0.3553788280442822,1.3165170624040228,0.9637579165061695,0.28705595,0.6805387410941581
0.0395,1.7609937500000001,1.0,2735.903975777903,0.35899464313480084,1.3160714428291815,0.9644150727418835,0.2870147375,0.6814376372062483
0.04,1.76,1.0,2735.9795514648763,0.36259017457389514,1.3156219663613569,0.9650498187023785,0.286973,0.6823430304534137
0.0405,1.7589937500000001,1.0,2735.871393733276,0.36616553708555033,1.3151685128352693,0.9656631552370524,0.2869307375,0.6832551292002702
0.041,1.757975,1.0,2735.5927482609904,0.3697208453937519,1.3147109620856396,0.9662560270957473,0.28688795,0.6841741401247803
0.0415,1.75694375,1.0,2735.147227426218,0.37325620079370064,1.3142492815477398,0.9668293318182137,0.2868446375,0.6851000926234994
0.042,1.7559,1.0,2734.5567831194153,0.3767717317320961,1.3137832722416358,0.9673839083453737,0.28680079999999997,0.686033348409858
0.0425,1.75484375,1.0,2733.8321324588,0.3802675510801849,1.3133128372562795,0.9679205559466261,0.2867564375,0.6869740625332275
0.043000000000000003,1.753775,1.0,2732.9800512308548,0.3837437661174465,1.3128379155264291,0.9684400330187111,0.28671155,0.6879223169932359
0.043500000000000004,1.75269375,1.0,2732.0073202787516,0.38720048412336033,1.3123584459868436,0.9689430576996181,0.28666613750000003,0.6888781926679979
0.044,1.7516,1.0,2730.9207239742836,0.3906378123774059,1.3118743675722817,0.9694303104036555,0.2866202,0.6898417692965222
0.0445,1.75049375,1.0,2729.727048774638,0.3940558581590627,1.311385619217502,0.9699024361726362,0.2865737375,0.6908131254608829
0.045,1.7493750000000001,1.0,2728.433081859876,0.3974547287478101,1.3108921398572635,0.9703600468582033,0.28652675,0.6917923385681497
0.0455,1.74824375,1.0,2727.0456098541426,0.40083453142312775,1.3103938684263245,0.9708037231489525,0.2864792375,0.692779484832084
0.046,1.7471,1.0,2725.5714176294846,0.40419537346449497,1.3098907438594443,0.971234016454788,0.2864312,0.6937746392545929
0.0465,1.7459437500000001,1.0,2724.017287191952,0.4075373621513913,1.309382705091381,0.9716514506598489,0.28638263750000004,0.69477787560695
0.047,1.744775,1.0,2722.3899966506756,0.41086060476329617,1.308869691056894,0.9720565237543373,0.28633355,0.6957892664107744
0.0475,1.74359375,1.0,2720.6963192698086,0.4141652085796891,1.3083516406907414,0.9724497093546814,0.28628393750000003,0.6968088829187753
0.048,1.7424,1.0,2718.940296866222,0.4174512623816381,1.3078285177516524,0.9728314575381514,0.2862338,0.6978367463610351
0.0485,1.74119375,1.0,2717.1305378501615,0.4207188934515495,1.3073002443692696,0.9732021987086106,0.2861831375,0.6988729585796785
0.049,1.739975,1.0,2715.2707793524914,0.42396820400235163,1.3067667869799344,0.9735623427315062,0.28613195,0.699917533182422
0.0495,1.73874375,1.0,2713.364330870486,0.42719929349964236,1.3062281158861158,0.973912280118461,0.2860802375,0.7009704752577796
0.05,1.7375,1.0,2711.414498621701,0.43041226140901945,1.305684201390282,0.9742523831831174,0.286028,0.702031788968066
0.0505,1.73624375,1.0,2709.4245852694726,0.4336072071960807,1.3051350137949023,0.974583007049556,0.2859752375,0.7031014775394924
0.051000000000000004,1.734975,1.0,2707.3978896684794,0.4367842303264239,1.3045805234024446,0.9749044905961294,0.28592195,0.7041795432522095
0.051500000000000004,1.73369375,1.0,2705.3377066292524,0.43994343026564686,1.3040207005153779,0.975217157339385,0.2858681375,0.7052659874302899
0.052000000000000005,1.7324,1.0,2703.247326702521,0.44308490647934734,1.3034555154361707,0.975521316262369,0.2858138,0.7063608104316581
0.0525,1.73109375,1.0,2701.130035983384,0.4462087584331231,1.3028849384672916,0.9758172625912749,0.28575893750000003,0.7074640116379624
0.053,1.729775,1.0,2698.989115934469,0.449315085592572,1.3023089399112093,0.9761052785240683,0.28570355000000003,0.7085755894443904
0.0535,1.72844375,1.0,2696.8278432290476,0.4524039874232918,1.3017274900703926,0.9763856339144527,0.2856476375,0.7096955412494297
0.054,1.7271,1.0,2694.64948961393,0.4554755633908803,1.3011405592473098,0.9766585869142669,0.2855912,0.7108238634445712
0.0545,1.7257437500000001,1.0,2692.4567377109206,0.45852990975198765,1.3005481230898932,0.9769243845859447,0.2855342375,0.7119605411579797
0.055,1.724375,1.0,2690.2442380710927,0.46156708217756354,1.299950230746913,0.9771832639591553,0.28547675,0.7131054179683469
0.0555,1.72299375,1.0,2688.025308821849,0.4645872410806427,1.2993467604643045,0.9774354519532561,0.2854187375,0.7142586639015507
0.056,1.7216,1.0,2685.8008752312153,0.467590476794626,1.2987377038468384,0.977681165943183,0.2853602,0.7154202305494856
0.0565,1.72019375,1.0,2683.5718610753556,0.47057687965291445,1.2981230524992862,0.9779206142933616,0.28530113749999997,0.7165900687771296
0.057,1.718775,1.0,2681.3391886285726,0.4735465399889089,1.2975027980264184,0.9781539968023516,0.28524155,0.7177681287195539
0.0575,1.71734375,1.0,2679.103778654081,0.4764995481360103,1.2968769320330067,0.9783815051220701,0.2851814375,0.7189543597789207
0.058,1.7159,1.0,2676.866550397614,0.4794359944276195,1.2962454461238218,0.9786033231532404,0.2851208,0.7201487106214854
0.0585,1.71444375,1.0,2674.6284215816213,0.4823559691971376,1.295608331903635,0.9788196274185915,0.2850596375,0.7213511291745869
0.059000000000000004,1.7129750000000001,1.0,2672.3903084013455,0.4852595627779653,1.2949655809772171,0.9790305874152274,0.28499795,0.7225615626236377
0.059500000000000004,1.71149375,1.0,2670.153125522669,0.48814686550350367,1.2943171849493396,0.9792363659474824,0.2849357375,0.7237799574091079
0.06,1.71,1.0,2667.917786081056,0.4910179677071535,1.2936631354247734,0.9794371194414864,0.284873,0.7250062592235051
0.0605,1.7084937500000001,1.0,2665.685201682586,0.4938729597223159,1.2930034240082895,0.979632998242579,0.2848097375,0.72624041300835
0.061,1.7069750000000001,1.0,2663.456282406089,0.4967119318823916,1.2923380423046589,0.9798241468966329,0.28474595,0.7274823629511463
0.0615,1.7054437500000001,1.0,2661.2319368069784,0.49953497452078166,1.291666981918653,0.9800107044162719,0.2846816375,0.7287320524823473
0.062,1.7039,1.0,2659.013071923131,0.5023421779708869,1.2909902344550426,0.9801928045329026,0.2846168,0.7299894242723194
0.0625,1.70234375,1.0,2656.800593281321,0.5051336325661083,1.290307791518599,0.9803705759354194,0.2845514375,0.7312544202282962
0.063,1.7007750000000001,1.0,2654.595404906229,0.5079094286398468,1.2896196447140933,0.9805441424963774,0.28448555,0.7325269814913341
0.0635,1.69919375,1.0,2652.398409330583,0.5106696565255032,1.2889257856462963,0.9807136234863844,0.28441913750000003,0.7338070484332603
0.064,1.6976,1.0,2650.210507606453,0.5134144065564785,1.2882262059199794,0.9808791337774017,0.2843522,0.735094560653615
0.0645,1.69599375,1.0,2648.032080772656,0.5161437330727058,1.2875209019252591,0.9810407816925971,0.2842847375,0.7363894482018033
0.065,1.694375,1.0,2645.8635776081933,0.5188577544928044,1.2868098694212964,0.981198676169698,0.28421675,0.7376916415897288
0.0655,1.69274375,1.0,2643.7053151943605,0.5215565702174365,1.2860931053770615,0.9813529209118875,0.2841482375,0.7390010684174414
0.066,1.6911,1.0,2641.5574364068684,0.5242402611939405,1.2853706083666288,0.9815036147029454,0.2840792,0.7403176526800389
0.0665,1.6894437500000001,1.0,2639.4200839214363,0.5269089083696544,1.2846423769640725,0.9816508528237579,0.2840096375,0.7416413177176112
0.067,1.687775,1.0,2637.2934002160055,0.5295625926919164,1.2839084097434672,0.9817947271997656,0.28393955,0.7429719862147179
0.0675,1.68609375,1.0,2635.1775275743275,0.5322013951080645,1.283168705278887,0.9819353265411893,0.2838689375,0.7443095801998689
0.068,1.6844000000000001,1.0,2633.0726080884,0.534825396565437,1.2824232621444063,0.9820727364764388,0.2837978,0.745654021045
0.0685,1.68269375,1.0,2630.9787836614014,0.5374346780113718,1.2816720789140992,0.9822070396790796,0.2837261375,0.7470052294649537
0.069,1.680975,1.0,2628.8961960108622,0.5400293203932073,1.2809151541620403,0.9823383159887112,0.28365395,0.7483631255169552
0.0695,1.67924375,1.0,2626.8249866715596,0.5426094046582813,1.2801524864623035,0.9824666425260868,0.28358123749999997,0.749727628600092
0.07,1.6775,1.0,2624.765296998588,0.5451750117539322,1.2793840743889635,0.9825920938027886,0.283508,0.7510986574547899
0.07050000000000001,1.67574375,1.0,2622.717268170602,0.547726222627498,1.2786099165160945,0.9827147418257476,0.2834342375,0.7524761301622923
0.07100000000000001,1.673975,1.0,2620.6810411927786,0.5502631182263169,1.2778300114177708,0.9828346561968861,0.28335995,0.753859964144137
0.07150000000000001,1.67219375,1.0,2618.6567569000918,0.552785779497727,1.2770443576680666,0.9829519042081404,0.2832851375,0.755250076161634
0.07200000000000001,1.6704,1.0,2616.6445559607496,0.5552942873890664,1.2762529538410563,0.983066550932104,0.2832098,0.7566463823153419
0.0725,1.66859375,1.0,2614.6445788791375,0.5577887228476731,1.2754557985108141,0.9831786593085279,0.2831339375,0.7580487980445465
0.073,1.6667750000000001,1.0,2612.6569659995753,0.5602691668208856,1.2746528902514145,0.9832882902268824,0.28305755,0.7594572381267363
0.0735,1.66494375,1.0,2610.6818575092825,0.5627357002560417,1.2738442276369317,0.9833955026051955,0.2829806375,0.7608716166770801
0.074,1.6631,1.0,2608.719628725731,0.5651883972317738,1.2730298070538522,0.9835003529756462,0.2829032,0.7622918509570672
0.0745,1.6612437500000001,1.0,2606.772112384246,0.5676272866523538,1.2722096113283574,0.9836028929107891,0.2828252375,0.7637178810601549
0.075,1.659375,1.0,2604.836437671385,0.5700525208493198,1.2713836670264869,0.9837031811926481,0.28274675,0.7651495703802835
0.0755,1.65749375,1.0,2602.912354544364,0.5724641716126369,1.2705519763603512,0.983801269193067,0.2826677375,0.7665868242586351
