Time [s],Phi [rad],STIM [ ],Fsee [N],Gamma [ ],Lcerel [ ],q [ ],Lmtc [m],fisomrel [ ]
0.0,1.8,1.0,17.96853897200874,1.8344834552987724e-05,1.379339591526419,0.005000089263529905,0.288653,0.5411399052951835
0.0005,1.79999375,1.0,18.280556969080223,0.005627451243335795,1.3793019642811712,0.012963695064774336,0.2886527375,0.5412309307794805
0.001,1.799975,1.0,21.62832247969056,0.011205095000046706,1.3789372869115386,0.03565206692614418,0.28865195,0.5421126676917165
0.0015,1.79994375,1.0,31.092282733077443,0.016751452586155458,1.3780442405908089,0.07066122886204423,0.2886506375,0.544268342334562
0.002,1.7999,1.0,53.63155515217042,0.02226669949146873,1.3763649426964637,0.11478832859316543,0.2886488,0.5483081310876519
0.0025,1.79984375,1.0,97.20130655028377,0.027751010221748355,1.373931198939906,0.16465136472782127,0.28864643749999996,0.5541309262097083
0.003,1.7997750000000001,1.0,161.06537215793958,0.033204558306355256,1.3712103316264301,0.21735934927451048,0.28864354999999997,0.5605959492786856
0.0035,1.79969375,1.0,237.8044652365605,0.03862751629789849,1.368581003470235,0.27069136181720627,0.2886401375,0.5667986093140134
0.004,1.7996,1.0,321.59565194411135,0.04402005578300272,1.3661526791832646,0.32299178796334194,0.2886362,0.572487932164915
0.0045000000000000005,1.7994937500000001,1.0,409.4012265913592,0.04938234738749707,1.3639196812361567,0.3731066407487076,0.2886317375,0.5776864337020858
0.005,1.799375,1.0,499.54968818012327,0.054714560767514624,1.361855448645115,0.42031494881827713,0.28862675,0.5824637572890385
0.0055,1.79924375,1.0,590.9278402083219,0.06001686465667941,1.359936150280575,0.4642361830794113,0.2886212375,0.5868812746211716
0.006,1.7991000000000001,1.0,682.6557124856581,0.06528942680999408,1.3581439135961397,0.5047373864933894,0.2886152,0.5909851312309975
0.006500000000000001,1.79894375,1.0,774.0202035509765,0.07053241405706404,1.35646488182964,0.5418532434935801,0.2886086375,0.5948111862952192
0.007,1.798775,1.0,864.4256637034377,0.07574599229709908,1.3548881360217446,0.5757245846555685,0.28860155,0.5983877898948078
0.0075,1.79859375,1.0,953.382240342542,0.0809303264784363,1.3534046409219778,0.6065533801942992,0.2885939375,0.601738392139056
0.008,1.7984,1.0,1040.4948246931458,0.08608558064516145,1.352006638635391,0.6345715503126258,0.2885858,0.6048830559840983
0.0085,1.79819375,1.0,1125.4527527433165,0.09121191792021192,1.3506872805509043,0.6600202690033588,0.2885771375,0.6078393853948068
0.009000000000000001,1.797975,1.0,1208.008170055292,0.0963095002922184,1.3494405595357633,0.683136961894213,0.28856795,0.6106227530335864
0.0095,1.79774375,1.0,1287.997261916434,0.10137848947051303,1.3482607336573535,0.7041472786964708,0.2885582375,0.613247644746307
0.01,1.7975,1.0,1365.292209692683,0.1064190459642343,1.347142776666303,0.7232612063942752,0.288548,0.6157266983686518
0.0105,1.79724375,1.0,1439.7845654559403,0.11143132856361451,1.3460823811211746,0.7406712323486329,0.2885372375,0.6180707445073279
0.011,1.796975,1.0,1511.4289477723944,0.11641549601207316,1.3450752498691467,0.7565516458819002,0.28852595000000003,0.6202904079328634
0.0115,1.79669375,1.0,1580.220644855934,0.12137170626604311,1.3441172928149043,0.7710592207048257,0.2885141375,0.6223956912810631
0.012,1.7964,1.0,1646.1699721912275,0.12630011661497692,1.3432048427865582,0.7843343851828846,0.28850180000000003,0.6243955226015749
0.0125,1.79609375,1.0,1709.2808857863622,0.13120088218645592,1.342334806760123,0.7965025840949966,0.2884889375,0.6262974492363176
0.013000000000000001,1.7957750000000001,1.0,1769.5934566897613,0.13607415810806142,1.3415040917116137,0.8076754298227452,0.28847555,0.6281089137252097
0.0135,1.79544375,1.0,1827.1604157819534,0.14092009835621955,1.3407098297584419,0.8179522042232046,0.2884616375,0.6298367726593544
0.014,1.7951000000000001,1.0,1882.0726126489647,0.14573885788717902,1.3399490503357805,0.827421070294036,0.2884472,0.631488020330998
0.0145,1.79474375,1.0,1934.377199915228,0.15053058794016874,1.339219542657934,0.8361606267340981,0.2884322375,0.6330679269098918
0.015,1.794375,1.0,1984.1390883143474,0.15529543959784026,1.3385191260922118,0.8442407454771587,0.28841675,0.6345816367020575
0.0155,1.79399375,1.0,2031.441885586332,0.16003356394284513,1.337845620005923,0.8517235832228751,0.2884007375,0.6360342380191757
0.016,1.7936,1.0,2076.3651348285584,0.1647451107403059,1.3371970640262412,0.8586645607228669,0.2883842,0.637430293405877
0.0165,1.7931937500000001,1.0,2119.0172310657595,0.16943023076540242,1.336571351628761,0.8651130480708462,0.2883671375,0.6387746341287914
0.017,1.792775,1.0,2159.4674989624364,0.1740890710907952,1.3359669179679545,0.8711132808168449,0.28834955,0.6400708865788065
0.0175,1.7923437500000001,1.0,2197.7905623215693,0.1787217784264719,1.3353822536940054,0.8767048236249422,0.2883314375,0.6413225252140619
0.018000000000000002,1.7919,1.0,2234.0707354792153,0.18332849948242025,1.3348158494570967,0.881923103936113,0.2883128,0.642532994108172
0.0185,1.79144375,1.0,2268.392581748123,0.1879093799712022,1.3342662818186342,0.8867999166972744,0.2882936375,0.6437055256350301
0.019,1.790975,1.0,2300.8483016531354,0.19246456639879841,1.3337321293951205,0.8913638244166673,0.28827395,0.6448433220962964
0.0195,1.79049375,1.0,2331.5128732428007,0.19699420251848251,1.333212210524283,0.895640582728843,0.2882537375,0.6459490521604623
0.02,1.79,1.0,2360.4550293193633,0.20149843056119962,1.3327054623206844,0.8996534286959631,0.288233,0.6470251126976392
0.0205,1.78949375,1.0,2387.7486235718393,0.2059773927578949,1.332210821898887,0.9034233364293871,0.2882117375,0.6480738833331184
0.021,1.788975,1.0,2413.4721996903772,0.2104312313395134,1.3317272263734539,0.9069692682713079,0.28818995000000003,0.6490977273041305
0.021500000000000002,1.78844375,1.0,2437.6920787139047,0.21486008607960239,1.3312537716260382,0.9103084275631612,0.2881676375,0.6500986568352185
0.022,1.7879,1.0,2460.4984679482,0.21926410079510023,1.3307893592787445,0.9134563790724637,0.2881448,0.6510790809564977
0.0225,1.78734375,1.0,2481.947632174649,0.22364341327079781,1.3303332492033866,0.9164273299825341,0.28812143749999997,0.6520406392561648
0.023,1.786775,1.0,2502.095464564352,0.22799816079650853,1.3298847302983632,0.9192342097015479,0.28809755,0.652984900242271
0.0235,1.78619375,1.0,2521.000275209645,0.23232848066204592,1.3294430914620736,0.9218887975416055,0.28807313749999996,0.6539134231119637
0.024,1.7856,1.0,2538.722588043478,0.23663451015722337,1.3290076215929174,0.924401840909898,0.2880482,0.6548277580796291
0.0245,1.78499375,1.0,2555.3211271794303,0.24091638583033645,1.3285776454923413,0.9267831659234501,0.2880227375,0.6557293714372109
0.025,1.784375,1.0,2570.8492993455448,0.24517424300761548,1.3281525545745965,0.9290417744150108,0.28799675,0.6566195820349696
0.025500000000000002,1.78374375,1.0,2585.3774572447815,0.2494082197144907,1.3277315964900076,0.9311858914079657,0.2879702375,0.6575000021113229
0.026000000000000002,1.7831000000000001,1.0,2598.9468591620753,0.25361844787724436,1.327314304590829,0.9332231076730666,0.2879432,0.6583716390632077
0.0265,1.78244375,1.0,2611.599883616881,0.25780505942215864,1.3269002122293156,0.9351603964316043,0.2879156375,0.6592354950396313
0.027,1.781775,1.0,2623.3799354396456,0.2619681862755158,1.326488852757722,0.937004171877886,0.28788755,0.6600925670438345
0.0275,1.7810937500000001,1.0,2634.331356675855,0.26610796036359813,1.326079759528303,0.9387603414436505,0.2878589375,0.6609438470215694
0.028,1.7804,1.0,2644.499342318458,0.27022451361268773,1.325672465893313,0.940434352541125,0.2878298,0.6617903219354875
0.0285,1.77969375,1.0,2653.9223182617407,0.2743179743067366,1.3252665747337573,0.9420312429953417,0.2878001375,0.6626328295949269
0.029,1.778975,1.0,2662.6497919444473,0.2783884769274561,1.3248615929226155,0.9435556581466984,0.28776995,0.6634724025630767
0.029500000000000002,1.7782437500000001,1.0,2670.714020820074,0.28243614888873625,1.3244571918376506,0.9450119166678721,0.2877392375,0.664309727885287
0.03,1.7775,1.0,2678.145529777292,0.28646111658719114,1.3240530631898595,0.9464040215365331,0.287708,0.6651454471851688
0.0305,1.77674375,1.0,2684.975271504184,0.29046350641943497,1.3236488986902395,0.9477356849346888,0.2876762375,0.665980198904959
0.031,1.775975,1.0,2691.2345870938925,0.29444344478208184,1.3232443900497872,0.9490103530330929,0.28764395,0.6668146183078476
0.0315,1.7751937500000001,1.0,2696.955168757105,0.2984010580717459,1.3228392289795,0.9502312283721895,0.2876111375,0.6676493374742412
0.032,1.7744,1.0,2702.168592463877,0.30233647228894683,1.3224331111385268,0.9514012904603023,0.2875778,0.6684849771732475
0.0325,1.77359375,1.0,2706.8983182967445,0.306249805028158,1.3220258088316625,0.9525233203949702,0.2875439375,0.6693219975966631
0.033,1.772775,1.0,2711.186211848036,0.31014119435976606,1.3216169285448023,0.953599896762434,0.28750955,0.6701611966626517
0.0335,1.7719437500000002,1.0,2715.051740708241,0.3140107601322076,1.3212062832086868,0.9546334438040139,0.2874746375,0.67100294523999
0.034,1.7711000000000001,1.0,2718.5145343715694,0.31785862219391925,1.320793685754057,0.9556262251595438,0.2874392,0.6718476121821664
0.0345,1.7702437500000001,1.0,2721.5943685308084,0.3216849003933376,1.320378949111654,0.9565803564017403,0.2874032375,0.6726955643052048
0.035,1.7693750000000001,1.0,2724.311150147976,0.3254897145788992,1.3199618862122184,0.95749781645239,0.28736675,0.6735471663632633
0.035500000000000004,1.76849375,1.0,2726.6849033010285,0.32927318459904065,1.3195423099864914,0.9583804579917934,0.2873297375,0.6744027810219932
0.036000000000000004,1.7676,1.0,2728.735755805864,0.33303543030219857,1.3191200333652136,0.9592300169607147,0.2872922,0.6752627688296715
0.0365,1.76669375,1.0,2730.4839266151034,0.3367765715368095,1.318694869279126,0.9600481212433308,0.2872541375,0.6761274881860995
0.037,1.765775,1.0,2731.949713992011,0.3404967281513101,1.3182666306589697,0.9608362986101886,0.28721555,0.6769972953092698
0.0375,1.76484375,1.0,2733.145765928015,0.34419601102191977,1.3178352005471736,0.9615959889359569,0.2871764375,0.6778724020827103
0.038,1.7639,1.0,2734.091459281548,0.3478745432733116,1.3174004013525267,0.962328542363078,0.28713679999999997,0.67875314164941
0.0385,1.76294375,1.0,2734.808721117505,0.3515324510615683,1.316962032778578,0.9630352273165681,0.28709663750000003,0.6796398908701263
0.039,1.761975,1.0,2735.308292463801,0.3551698464641514,1.3165199964804508,0.9637172444448214,0.28705595,0.6805328183291308
0.0395,1.7609937500000001,1.0,2735.600945197704,0.3587868415585225,1.316074194113269,0.9643757247499164,0.2870147375,0.6814320912488762
0.04,1.76,1.0,2735.697477841142,0.362383548422143,1.3156245273321554,0.9650117343687659,0.286973,0.6823378754666884
0.0405,1.7589937500000001,1.0,2735.6087115706828,0.36596007913247436,1.315170897792234,0.9656262789771941,0.2869307375,0.6832503354108328
0.041,1.757975,1.0,2735.3454864418127,0.36951654576697823,1.3147132071486283,0.9662203078503392,0.28688795,0.6841696340759713
0.0415,1.75694375,1.0,2734.9186578277236,0.37305306040311603,1.3142513570564616,0.9667947176095102,0.2868446375,0.6850959329979984
0.042,1.7559,1.0,2734.3390930728247,0.37656973511834924,1.3137852491708573,0.9673503556827164,0.28680079999999997,0.6860293922282622
0.0425,1.75484375,1.0,2733.617668360304,0.3800666819901394,1.3133147851469391,0.9678880235034691,0.2867564375,0.6869701703071665
0.043000000000000003,1.753775,1.0,2732.765265793956,0.38354401309594793,1.3128398666398304,0.9684084794701213,0.28671155,0.6879184242371592
0.043500000000000004,1.75269375,1.0,2731.7927706953396,0.38700184051323644,1.3123603953046548,0.9689124416859165,0.28666613750000003,0.6888743094551015
0.044,1.7516,1.0,2730.704612104836,0.390440264909729,1.3118763314753283,0.9694005934025254,0.2866202,0.6898378630914896
0.0445,1.75049375,1.0,2729.5125286156217,0.39385940586951523,1.3113875690818986,0.969873579992391,0.2865737375,0.6908092532565875
0.045,1.7493750000000001,1.0,2728.2258423647895,0.3972593760852851,1.3108940239900078,0.9703320142332273,0.28652675,0.691788602829402
0.0455,1.74824375,1.0,2726.849729528102,0.400640279832424,1.3103956497375076,0.9707764793127166,0.2864792375,0.6927759586225464
0.046,1.7471,1.0,2725.3893657273047,0.40400222138631703,1.3098923998622496,0.9712075290086127,0.2864312,0.6937713664145906
0.0465,1.7459437500000001,1.0,2723.849925213296,0.4073453050223494,1.3093842279020855,0.9716256894500133,0.28638263750000004,0.6947748709356838
0.047,1.744775,1.0,2722.2365800972034,0.4106696350159064,1.3088710873948668,0.9720314607569603,0.28633355,0.6957865158530375
0.0475,1.74359375,1.0,2720.5544996298713,0.4139753156423732,1.3083529318784453,0.972425318567847,0.28628393750000003,0.6968063437562719
0.048,1.7424,1.0,2718.808849528328,0.41726245117713506,1.3078297148906723,0.9728077154632931,0.2862338,0.6978343961426257
0.0485,1.74119375,1.0,2717.0047913509043,0.42053114589557716,1.3073013899694,0.9731790822944056,0.2861831375,0.6988707134020242
0.049,1.739975,1.0,2715.1474819196537,0.42378150407308474,1.3067679106524792,0.9735398294226657,0.28613195,0.6999153348020171
0.0495,1.73874375,1.0,2713.2420727909985,0.427013629985043,1.3062292304777618,0.9738903478780836,0.2860802375,0.7009682984725696
0.05,1.7375,1.0,2711.293709774103,0.43022762790683716,1.3056853029830997,0.9742310104417029,0.286028,0.7020296413907224
0.0505,1.73624375,1.0,2709.3054741514343,0.4334235812612331,1.3051361004855233,0.9745621715264989,0.2859752375,0.7030993628204356
0.051000000000000004,1.734975,1.0,2707.2833988143834,0.43660161608299186,1.3045815683312987,0.9748841723767753,0.28592195,0.7041775134975972
0.051500000000000004,1.73369375,1.0,2705.230495451197,0.4397618351183303,1.304021679376334,0.9751973378945576,0.2858681375,0.7052640895063571
0.052000000000000005,1.7324,1.0,2703.1491446549453,0.44290433466728696,1.3034564122050232,0.9755019780414743,0.2858138,0.7063590749096144
0.0525,1.73109375,1.0,2701.0417239091066,0.44602921102990045,1.302885745401761,0.9757983889825692,0.28575893750000003,0.7074624529095013
0.053,1.729775,1.0,2698.9106074658716,0.4491365605062096,1.3023096575509416,0.9760868538169479,0.28570355000000003,0.7085742058400268
0.0535,1.72844375,1.0,2696.758166234743,0.4522264793962529,1.3017281272369594,0.9763676432636609,0.2856476375,0.7096943151596851
0.054,1.7271,1.0,2694.586767681205,0.45529906400006903,1.3011411330442086,0.9766410163059135,0.2855912,0.7108227614440377
0.0545,1.7257437500000001,1.0,2692.398775735338,0.45835441061769666,1.3005486535570838,0.9769072207964803,0.2855342375,0.7119595243782653
0.055,1.724375,1.0,2690.1965507110526,0.46139261554917443,1.2999506673599792,0.9771664940269525,0.28547675,0.713104582749691
0.0555,1.72299375,1.0,2687.9824492352686,0.46441377509454096,1.299347153037289,0.9774190632632734,0.2854187375,0.7142579144402736
0.056,1.7216,1.0,2685.7588241871285,0.46741798555383496,1.2987380891734077,0.9776651462498155,0.2853602,0.7154194964190723
0.0565,1.72019375,1.0,2683.528024647479,0.47040534322709504,1.2981234543527296,0.9779049516840909,0.28530113749999997,0.716589304734681
0.057,1.718775,1.0,2681.2923958590086,0.4733759444143598,1.297503227159649,0.9781386796640331,0.28524155,0.717767314507635
0.0575,1.71734375,1.0,2679.054279195286,0.476329885415668,1.2968773861785603,0.9783665221096445,0.2851814375,0.7189534999227869
0.058,1.7159,1.0,2676.8115126083317,0.4792672154397895,1.296245951293449,0.978588661385987,0.2851208,0.7201477561933656
0.0585,1.71444375,1.0,2674.5691572090714,0.48218807812553083,1.2956088760951259,0.9788052770196207,0.2850596375,0.7213501032327058
0.059000000000000004,1.7129750000000001,1.0,2672.3292782057974,0.4850925781939691,1.294966141617985,0.9790165395097657,0.28499795,0.7225605079687463
0.059500000000000004,1.71149375,1.0,2670.0924088578977,0.4879808025167262,1.2943177429435213,0.9792226118788949,0.2849357375,0.7237789100402785
0.06,1.71,1.0,2667.8590815302177,0.49085283796542384,1.293663675153229,0.9794236507681022,0.284873,0.7250052483912588
0.0605,1.7084937500000001,1.0,2665.6298276954717,0.4937087714116841,1.2930039333286034,0.9796198067344035,0.2848097375,0.7262394612690285
0.061,1.7069750000000001,1.0,2663.405177937317,0.49654868972712873,1.2923385125511389,0.9798112245319677,0.28474595,0.7274814862225372
0.0615,1.7054437500000001,1.0,2661.1856619531877,0.49937267978337957,1.2916674079023298,0.9799980433782648,0.2846816375,0.7287312601005611
0.062,1.7039,1.0,2658.9718085591535,0.5021808284520586,1.290990614463671,0.9801803972060464,0.2846168,0.729988719049921
0.0625,1.70234375,1.0,2656.7641456933743,0.5049732226047874,1.2903081273166572,0.9803584149020157,0.2845514375,0.7312537985136975
0.063,1.7007750000000001,1.0,2654.5632004219033,0.5077499491131882,1.2896199415427831,0.9805322205329804,0.28448555,0.7325264332294479
0.0635,1.69919375,1.0,2652.369498944184,0.5105110948488826,1.2889260522235433,0.9807019335602369,0.28441913750000003,0.7338065572274182
0.064,1.6976,1.0,2650.183566598469,0.5132567466834925,1.2882264544404323,0.9808676690428774,0.2843522,0.7350941038287546
0.0645,1.69599375,1.0,2648.00592786933,0.5159869914886399,1.287521143274945,0.9810295378306697,0.2842847375,0.7363890056437137
0.065,1.694375,1.0,2645.8371063943737,0.5187019161359465,1.286810113808576,0.9811876467471176,0.28421675,0.7376911945698716
0.0655,1.69274375,1.0,2643.6776249717896,0.5214016074970342,1.2860933611228198,0.9813420987632657,0.2841482375,0.7390006017903311
0.066,1.6911,1.0,2641.5280055691123,0.524086152443525,1.2853708802991712,0.9814929931627847,0.2840792,0.7403171577719263
0.0665,1.6894437500000001,1.0,2639.388769331644,0.5267556378470405,1.284642666419125,0.9816404256988273,0.2840096375,0.7416407922634269
0.067,1.687775,1.0,2637.2604365915804,0.5294101505792027,1.2839087145641757,0.9817844887431253,0.28393955,0.7429714342937419
0.0675,1.68609375,1.0,2635.1435268785062,0.5320497775116335,1.2831690198158177,0.9819252714277611,0.2838689375,0.7443090121701182
0.068,1.6844000000000001,1.0,2633.0374134473122,0.5346745916918196,1.282423587856551,0.982062859379309,0.2837978,0.7456534343821204
0.0685,1.68269375,1.0,2630.939826464706,0.5372846479528521,1.2816724395907357,0.9821973348196537,0.2837261375,0.7470045815529442
0.069,1.680975,1.0,2628.855748676212,0.5398800872497709,1.280915528783143,0.9823287795334877,0.28365395,0.7483624543637982
0.0695,1.67924375,1.0,2626.784992671398,0.5424609867526683,1.2801528570306382,0.9824572706537529,0.28358123749999997,0.749726966510111
0.07,1.6775,1.0,2624.727371401625,0.5450274236316367,1.2793844259300855,0.9825828827077627,0.283508,0.7510980310832799
0.07050000000000001,1.67574375,1.0,2622.682698175848,0.5475794750567683,1.2786102370783499,0.9827056877214111,0.2834342375,0.7524755605712554
0.07100000000000001,1.673975,1.0,2620.6507866564702,0.5501172181981554,1.2778302920722961,0.9828257553185283,0.28335995,0.7538594668591283
0.07150000000000001,1.67219375,1.0,2618.6314508554838,0.5526407302258903,1.2770445925087892,0.9829431528156355,0.2832851375,0.755249661229716
0.07200000000000001,1.6704,1.0,2616.6245051308247,0.5551500883100653,1.276253139984694,0.9830579453123461,0.2832098,0.7566460543641489
0.0725,1.66859375,1.0,2614.6297641821757,0.5576453696207726,1.2754559360968747,0.9831701957776371,0.2831339375,0.7580485563424569
0.073,1.6667750000000001,1.0,2612.647043047239,0.5601266513281047,1.2746529824421968,0.9832799651322037,0.28305755,0.7594570766441529
0.0735,1.66494375,1.0,2610.6761570981694,0.5625940106021536,1.273844280617525,0.9833873123271039,0.2829806375,0.7608715241488209
0.074,1.6631,1.0,2608.716922037799,0.5650475246130119,1.2730298322197238,0.9834922944188784,0.2829032,0.7622918071367012
0.0745,1.6612437500000001,1.0,2606.7691538958916,0.5674872705307717,1.272209638845658,0.9835949666413266,0.2828252375,0.7637178332892742
0.075,1.659375,1.0,2604.832669025934,0.5699133255255253,1.2713837020921928,0.9836953824741098,0.28274675,0.7651495096898469
0.0755,1.65749375,1.0,2602.9072841012444,0.5723257667673651,1.2705520235561927,0.9837935937083372,0.2826677375,0.766586742824137
