Time [s],Phi [rad],STIM [ ],Fsee [N],Gamma [ ],Lcerel [ ],q [ ],Lmtc [m],fisomrel [ ]
0.0,1.8,1.0,18.01902890079053,0.00023215809388411936,1.379333939151087,0.005014012110441987,0.288653,0.5411535797452788
0.0005,1.79999375,1.0,18.40067154860782,0.0058400651794102525,1.3792886451238995,0.013568768516605236,0.2886527375,0.5412631494900404
0.001,1.799975,1.0,21.90728061257953,0.011416516340064223,1.3789088932533513,0.03677562966397759,0.28865195,0.542181283844134
0.0015,1.79994375,1.0,31.714786125641364,0.016961688019692767,1.3779914878329917,0.0721931018233346,0.2886506375,0.5443955201715601
0.002,1.7999,1.0,54.937323717889576,0.02247575567029188,1.3762807792014604,0.11659862767909507,0.2886488,0.548510125011294
0.0025,1.79984375,1.0,99.3661670372738,0.027958893760835768,1.3738274979154799,0.16661834213722462,0.28864643749999996,0.5543781945224869
0.003,1.7997750000000001,1.0,163.86277502572054,0.033411275783119455,1.371106107623654,0.21938700032475822,0.28864354999999997,0.5608426558814446
0.0035,1.79969375,1.0,240.9544823435531,0.03883307425295265,1.368484318451312,0.2727069892172947,0.2886401375,0.5670258515799492
0.004,1.7996,1.0,324.9406720868052,0.044224460720399386,1.3660643292752823,0.3249426893843934,0.2886362,0.5726942182150436
0.0045000000000000005,1.7994937500000001,1.0,412.86084382280967,0.04958560577514423,1.3638386548891244,0.37495801858604305,0.2886317375,0.5778744681392622
0.005,1.799375,1.0,503.07646773252895,0.05491667903834404,1.361780646879895,0.4220466876495864,0.28862675,0.5826363633391733
0.0055,1.79924375,1.0,594.4832317173214,0.06021784920069326,1.3598667987890938,0.46583926751055516,0.2886212375,0.5870404564071744
0.006,1.7991000000000001,1.0,686.212328018993,0.06548928398949827,1.3580793542874425,0.5062104686012939,0.2886152,0.5911325766361232
0.006500000000000001,1.79894375,1.0,777.550564652579,0.07073115018054696,1.3564046902152218,0.5432000830961011,0.2886086375,0.5949480127314789
0.007,1.798775,1.0,867.9102610091703,0.07594361369270208,1.3548319097695591,0.5769519466471896,0.28860155,0.5985150376571666
0.0075,1.79859375,1.0,956.8007131372422,0.08112683929812302,1.353352112156379,0.6076697077429133,0.2885939375,0.6018567756206179
0.008,1.7984,1.0,1043.8457030030181,0.0862809912756611,1.3519573465904193,0.635585819812391,0.2885858,0.6049937059344115
0.0085,1.79819375,1.0,1128.7236898296262,0.0914062324473542,1.3506410125508204,0.6609416460440718,0.2885771375,0.6079428581547687
0.009000000000000001,1.797975,1.0,1211.1887270004395,0.09650272490291517,1.3493971315149802,0.6839742884918724,0.28856795,0.6107195296208663
0.0095,1.79774375,1.0,1291.0834570165812,0.10157063039342343,1.3482199211418417,0.7049088216045746,0.2885582375,0.6133382860968416
0.01,1.7975,1.0,1368.2684293505956,0.10661010883630677,1.3471045467748484,0.7239546744879113,0.288548,0.6158113316588875
0.0105,1.79724375,1.0,1442.6535638485764,0.11162131957547,1.3460464928334925,0.7413035322617173,0.2885372375,0.6181499515230855
0.011,1.796975,1.0,1514.2040748424422,0.11660442147425612,1.3450413672347554,0.7571289603864533,0.28852595000000003,0.6203649709718453
0.0115,1.79669375,1.0,1582.9029152793096,0.1215595724388695,1.3440852635554692,0.7715871772582199,0.2885141375,0.6224659802422299
0.012,1.7964,1.0,1648.7395260976537,0.12648692863030891,1.3431747793656772,0.7848181215536637,0.28850180000000003,0.6244613227274196
0.0125,1.79609375,1.0,1711.739354156566,0.13138664582805487,1.3423065781687358,0.7969465732748751,0.2884889375,0.6263590769847296
0.013000000000000001,1.7957750000000001,1.0,1771.9579029111121,0.13625887983371107,1.3414774086862833,0.8080835863461475,0.28847555,0.6281670260105263
0.0135,1.79544375,1.0,1829.449070367674,0.14110378518379518,1.3406844116423884,0.818328011067193,0.2884616375,0.6298920014792082
0.014,1.7951000000000001,1.0,1884.25736946808,0.14592151411177315,1.3399251421669516,0.8277678125434547,0.2884472,0.631539852432327
0.0145,1.79474375,1.0,1936.4511612961785,0.15071221885111077,1.339197155389874,0.8364811412131731,0.2884322375,0.6331163577022247
0.015,1.794375,1.0,1986.1140066882335,0.1554760511209832,1.3384980765602752,0.8445374889473142,0.28841675,0.6346270796077618
0.0155,1.79399375,1.0,2033.3352130974731,0.16021316247870634,1.3378256761207232,0.8519987270830992,0.2884007375,0.6360772083978834
0.016,1.7936,1.0,2078.1993014890654,0.16492370339717657,1.3371779532454073,0.8589200282804237,0.2883842,0.637471389812621
0.0165,1.7931937500000001,1.0,2120.7727639773925,0.16960782165960833,1.3365532449336783,0.8653506868618208,0.2883671375,0.6388134991218479
0.017,1.792775,1.0,2161.134281154907,0.17426566504921603,1.3359498881848877,0.8713347136115128,0.28834955,0.640107374453321
0.0175,1.7923437500000001,1.0,2199.3736960312726,0.1788973813492141,1.3353662199983865,0.8769114602476454,0.2883314375,0.6413568191453887
0.018000000000000002,1.7919,1.0,2235.5737286177286,0.18350311669319902,1.3348007513364786,0.8821162127165955,0.2883128,0.6425652324761781
0.0185,1.79144375,1.0,2269.8345765857553,0.18808301913021971,1.3342519063182119,0.8869805985645539,0.2882936375,0.6437361706716879
0.019,1.790975,1.0,2302.226287837079,0.1926372323803916,1.333718489116614,0.8915331235847577,0.28827395,0.6448723533856007
0.0195,1.79049375,1.0,2332.8198605245257,0.1971658995438922,1.333199358279756,0.8957994487846129,0.2882537375,0.6459763636542051
0.02,1.79,1.0,2361.692094035416,0.20166916372089902,1.3326933723557095,0.8998027003372808,0.288233,0.6470507652761008
0.0205,1.78949375,1.0,2388.9250990140245,0.20614716801158964,1.3321993898925453,0.9035637541192748,0.2882117375,0.6480981038106528
0.021,1.788975,1.0,2414.587735344683,0.21060005312923244,1.3317164443689724,0.9071015221461078,0.28818995000000003,0.6491205374209389
0.021500000000000002,1.78844375,1.0,2438.770073188958,0.21502796329892931,1.331243404306495,0.9104330977989396,0.2881676375,0.6501205583655738
0.022,1.7879,1.0,2461.53028487905,0.21943103704266806,1.3307794820990497,0.913574052925111,0.2881448,0.6510999178006519
0.0225,1.78734375,1.0,2482.927088623481,0.22380941249878908,1.330323913794151,0.9165385368412589,0.28812143749999997,0.6520603060450074
0.023,1.786775,1.0,2503.0219394271116,0.22816322780563275,1.3298759354393126,0.9193394218397025,0.28809755,0.6530034031187452
0.0235,1.78619375,1.0,2521.878798445224,0.2324926211015394,1.329434783082049,0.921988436117964,0.28807313749999996,0.6539308791316433
0.024,1.7856,1.0,2539.556947012957,0.23679772902351198,1.3289997584346902,0.9244962924560376,0.2880482,0.6548442568555979
0.0245,1.78499375,1.0,2556.1198431803805,0.2410786894728969,1.3285701426972212,0.9268727768904312,0.2880227375,0.6557450935201776
0.025,1.784375,1.0,2571.6276280459624,0.24533563926941532,1.3281452653850057,0.929126852089804,0.28799675,0.6566348367519267
0.025500000000000002,1.78374375,1.0,2586.124606033323,0.24956871126495053,1.3277246189694858,0.9312667561305422,0.2879702375,0.6575145858459992
0.026000000000000002,1.7831000000000001,1.0,2599.656363314209,0.25377803831138585,1.3273076959221035,0.933300047400952,0.2879432,0.6583854342798592
0.0265,1.78244375,1.0,2612.2696595316424,0.25796375326060456,1.3268939887143012,0.9352336698532082,0.2879156375,0.65924846984201
0.027,1.781775,1.0,2624.0123252348853,0.2621259889644899,1.3264829898175206,0.9370740111954534,0.28788755,0.660104774744301
0.0275,1.7810937500000001,1.0,2634.9305806906455,0.26626487734515136,1.3260742156116485,0.9388269580827426,0.2878589375,0.6609553759988781
0.028,1.7804,1.0,2645.065011019619,0.27038054876482565,1.3256672424778122,0.9404979472880164,0.2878298,0.6618011708446998
0.0285,1.77969375,1.0,2654.4674835075184,0.27447313799384343,1.3252615495825388,0.9420919861401273,0.2878001375,0.6626432537090741
0.029,1.778975,1.0,2663.1701364973164,0.2785427722451342,1.32485680441536,0.943613726859778,0.28776995,0.6634823234216856
0.029500000000000002,1.7782437500000001,1.0,2671.2056437610745,0.2825895787316274,1.3244526744658072,0.9450674744416933,0.2877392375,0.6643190753570949
0.03,1.7775,1.0,2678.6071671211653,0.2866136846662526,1.3240488272234128,0.9464572170142369,0.287708,0.6651542014513099
0.0305,1.77674375,1.0,2685.408311523038,0.2906152172619393,1.3236449301777085,0.9477866531839451,0.2876762375,0.6659883902113082
0.031,1.775975,1.0,2691.643082559088,0.294594303731617,1.3232406508182257,0.9490592166971663,0.28764395,0.666822326717506
0.0315,1.7751937500000001,1.0,2697.34418063845,0.29855107007310366,1.3228356718660201,0.9502781002289399,0.2876111375,0.6676566612589776
0.032,1.7744,1.0,2702.537527944054,0.30248563818703317,1.322429740852522,0.9514462805530577,0.2875778,0.6684919075694371
0.0325,1.77359375,1.0,2707.262730578561,0.30639814246306396,1.3220224827738274,0.9525665186436243,0.2875439375,0.6693288284061863
0.033,1.772775,1.0,2711.540505020185,0.3102887037240954,1.3216136974009032,0.9536414045418744,0.28750955,0.6701678241202815
0.0335,1.7719437500000002,1.0,2715.3917535830037,0.31415744279302665,1.3212031845047156,0.9546733545766963,0.2874746375,0.6710092929337679
0.034,1.7711000000000001,1.0,2718.837546579881,0.31800448049275715,1.3207907438562314,0.9556646250835491,0.2874392,0.6718536309188958
0.0345,1.7702437500000001,1.0,2721.899105375451,0.32182993764618606,1.320376175226417,0.9566173248856349,0.2874032375,0.6727012319747838
0.035,1.7693750000000001,1.0,2724.5977863273824,0.32563393507621285,1.3199592783862388,0.9575334266620132,0.28736675,0.6735524878015221
0.035500000000000004,1.76849375,1.0,2726.955065616919,0.32941659360573666,1.3195398531066633,0.9584147773135556,0.2873297375,0.6744077878717221
0.036000000000000004,1.7676,1.0,2728.992524967765,0.3331780340576569,1.3191176991586573,0.9592631074255118,0.2872922,0.6752675193995048
0.0365,1.76669375,1.0,2730.72972757151,0.33691837439058436,1.3186926354941755,0.9600800412128444,0.2872541375,0.6761320283219918
0.037,1.765775,1.0,2732.1830281849443,0.34063773009443477,1.318264510917414,0.9608671054955449,0.28721555,0.6770015978651125
0.0375,1.76484375,1.0,2733.3764726130817,0.3443362306599348,1.3178331049539016,0.9616257305743855,0.2871764375,0.67787664985766
0.038,1.7639,1.0,2734.3223802692223,0.3480139898349707,1.3173983041754815,0.9623572678348032,0.28713679999999997,0.6787573868192873
0.0385,1.76294375,1.0,2735.033114052785,0.35167112136742906,1.316959995153996,0.9630629884746257,0.28709663750000003,0.6796440097958507
0.039,1.761975,1.0,2735.5210748320405,0.3553077390051961,1.3165180644612888,0.9637440891313179,0.28705595,0.6805367183344369
0.0395,1.7609937500000001,1.0,2735.7986962134473,0.35892395649615816,1.3160723986692024,0.9644016970558826,0.2870147375,0.681435710457579
0.04,1.76,1.0,2735.8784395948715,0.36251988758820175,1.3156228843495796,0.9650368748744039,0.286973,0.682341182636645
0.0405,1.7589937500000001,1.0,2735.7727895049775,0.3660956460292132,1.3151694080742635,0.9656506249741313,0.2869307375,0.6832533297644081
0.041,1.757975,1.0,2735.494249227289,0.3696513455670788,1.3147118564150968,0.9662438935473561,0.28688795,0.6841723451267969
0.0415,1.75694375,1.0,2735.055336709833,0.373187099949685,1.3142501159439228,0.9668175743230811,0.2868446375,0.6850984203738235
0.042,1.7559,1.0,2734.468580760307,0.37670302292491825,1.313784073232584,0.9673725120135788,0.28680079999999997,0.6860317454896949
0.0425,1.75484375,1.0,2733.736574401143,0.3801992061455915,1.313313705162028,0.9679095093610952,0.2867564375,0.6869723283088067
0.043000000000000003,1.753775,1.0,2732.8808690187993,0.3836757902025267,1.3128388164892666,0.9684293198949117,0.28671155,0.6879205194438616
0.043500000000000004,1.75269375,1.0,2731.9084732135934,0.38713288309192967,1.3123593440650474,0.9689326625079551,0.28666613750000003,0.6888764036200681
0.044,1.7516,1.0,2730.8253915839714,0.39057059046186554,1.311875233889815,0.9694202186863046,0.2866202,0.6898400461931544
0.0445,1.75049375,1.0,2729.637631013559,0.3939890179603997,1.3113864319640143,0.9698926344884821,0.2865737375,0.6908115114436235
0.045,1.7493750000000001,1.0,2728.351199497164,0.39738827123559733,1.31089288428809,0.9703505227311642,0.28652675,0.6917908625606897
0.0455,1.74824375,1.0,2726.9721050316016,0.40076845593552357,1.310394536862487,0.9707944650194735,0.2864792375,0.6927781616260276
0.046,1.7471,1.0,2725.506354571291,0.4041296777082437,1.3098913356876503,0.9712250136342991,0.2864312,0.6937734695973344
0.0465,1.7459437500000001,1.0,2723.959953048415,0.407472042201823,1.3093832267640246,0.9716426932879969,0.28638263750000004,0.6947768462917095
0.047,1.744775,1.0,2722.338902457593,0.4107956550643266,1.3088701560920546,0.9720480027588123,0.28633355,0.6957883503688451
0.0475,1.74359375,1.0,2720.649201005635,0.4141006219438198,1.3083520696721853,0.9724414164134787,0.28628393750000003,0.6968080393140299
0.048,1.7424,1.0,2718.8968423251536,0.4173870484883677,1.3078289135048613,0.972823385626617,0.2862338,0.6978359694209714
0.0485,1.74119375,1.0,2717.0878147540184,0.42065504034603574,1.3073006335905277,0.9731943401048279,0.2861831375,0.6988721957744268
0.049,1.739975,1.0,2715.228100677908,0.42390470316488893,1.3067671759296293,0.9735546891227022,0.28613195,0.6999167722326527
0.0495,1.73874375,1.0,2713.315737024475,0.427136125725172,1.3062285588991864,0.9739048255905342,0.2860802375,0.7009696100590801
0.05,1.7375,1.0,2711.3584970457878,0.4303494218838103,1.3056847121209207,0.9742451211009887,0.286028,0.7020307932893808
0.0505,1.73624375,1.0,2709.36659077314,0.43354470696535297,1.305135542895131,0.9745759287264735,0.2859752375,0.7031004479020844
0.051000000000000004,1.734975,1.0,2707.342297761524,0.43672207797424534,1.3045810307728558,0.9748975880173238,0.28592195,0.7041785576956143
0.051500000000000004,1.73369375,1.0,2705.2878948517896,0.4398816319149326,1.3040211553051337,0.9752104231373033,0.2858681375,0.7052651056343487
0.052000000000000005,1.7324,1.0,2703.2056560386295,0.44302346579186014,1.3034558960430032,0.9755147436930955,0.2858138,0.7063600738416392
0.0525,1.73109375,1.0,2701.0978523473455,0.4461476766094732,1.302885232537503,0.9758108455120917,0.28575893750000003,0.707463443592802
0.053,1.729775,1.0,2698.9667517198873,0.44925436137221714,1.3023091443396715,0.976099011372107,0.28570355000000003,0.7085751953080857
0.0535,1.72844375,1.0,2696.8146189102576,0.4523436170845372,1.3017276110005473,0.9763795116863901,0.2856476375,0.709695308545607
0.054,1.7271,1.0,2694.64371538952,0.4554155407508787,1.3011406120711693,0.9766526051470228,0.2855912,0.7108237619942652
0.0545,1.7257437500000001,1.0,2692.4562992591923,0.4584702293756869,1.3005481271025756,0.9769185393295642,0.2855342375,0.7119605334666265
0.055,1.724375,1.0,2690.2546251749554,0.46150777996340714,1.299950135645805,0.977177551261585,0.28547675,0.7131055998917832
0.0555,1.72299375,1.0,2688.0409442788223,0.4645282895184847,1.299346617251896,0.977429867957527,0.2854187375,0.7142589373081853
0.056,1.7216,1.0,2685.8175041410304,0.4675318550453648,1.2987375514718873,0.977675706922149,0.2853602,0.7154205208564461
0.0565,1.72019375,1.0,2683.5865487112374,0.47051857354849286,1.2981229178568172,0.9779152766246434,0.28530113749999997,0.7165903247721219
0.057,1.718775,1.0,2681.3503182786035,0.4734885420323141,1.2975026959577245,0.97814877694536,0.28524155,0.7177683223784622
0.0575,1.71734375,1.0,2679.1090641714754,0.47644183312987126,1.296876883539912,0.9783763984767355,0.2851814375,0.7189544515932064
0.058,1.7159,1.0,2676.867180897668,0.4793785677327717,1.2962454403367465,0.9785983261981163,0.2851208,0.720148721555125
0.0585,1.71444375,1.0,2674.6259327055404,0.482298840786376,1.2956083547574666,0.9788147369757433,0.2850596375,0.721351086089234
0.059000000000000004,1.7129750000000001,1.0,2672.386003293671,0.4852027410150796,1.2949656205249533,0.9790258003955311,0.28499795,0.7225614882280906
0.059500000000000004,1.71149375,1.0,2670.148075215566,0.48809035714327764,1.294317231362088,0.9792316793501157,0.2849357375,0.723779870291311
0.06,1.71,1.0,2667.91282988055,0.49096177789536555,1.2936631809917514,0.9794325303533133,0.284873,0.7250061738833096
0.0605,1.7084937500000001,1.0,2665.6809475554337,0.49381709199573864,1.2930034631368246,0.9796285038374428,0.2848097375,0.7262403398910315
0.061,1.7069750000000001,1.0,2663.4531073672456,0.4966563881687923,1.2923380715201884,0.9798197444345683,0.28474595,0.7274823084816875
0.0615,1.7054437500000001,1.0,2661.2299873067473,0.49947975513892184,1.2916669998647239,0.9800063912426528,0.2846816375,0.728732019100482
0.062,1.7039,1.0,2659.012264233074,0.5022872816305226,1.2909902418933121,0.9801885780775342,0.2846168,0.7299894104683409
0.0625,1.70234375,1.0,2656.800613878508,0.5050790563679898,1.290307791328834,0.9803664337115834,0.2845514375,0.7312544205796369
0.063,1.7007750000000001,1.0,2654.5957108551647,0.507855168075719,1.2896196418941708,0.9805400820998417,0.28448555,0.7325269866999116
0.0635,1.69919375,1.0,2652.39822866196,0.5106157054781052,1.2889257873122033,0.9807096425943822,0.28441913750000003,0.7338070453635952
0.064,1.6976,1.0,2650.208839692072,0.513360757299544,1.2882262213058122,0.9808752301475906,0.2843522,0.7350945323717251
0.0645,1.69599375,1.0,2648.0282152423106,0.5160904122644306,1.287520937597879,0.9810369555050147,0.2842847375,0.7363893827896577
0.065,1.694375,1.0,2645.8570255224154,0.5188047590971605,1.2868099299112843,0.9811949253883914,0.28421675,0.7376915309447838
0.0655,1.69274375,1.0,2643.6954270986794,0.52150388297234,1.2860931967029534,0.9813492426557112,0.2841482375,0.7390009017866237
0.066,1.6911,1.0,2641.5451363247926,0.5241878681951327,1.2853707220156927,0.9815000057173396,0.2840792,0.7403174458426092
0.0665,1.6894437500000001,1.0,2639.4064272192327,0.5268567987754132,1.2846425031989956,0.981647310114039,0.2840096375,0.741641088560618
0.067,1.687775,1.0,2637.2794113281357,0.5295107584564172,1.2839085391010578,0.9817912480719361,0.28393955,0.7429717519945891
0.0675,1.68609375,1.0,2635.1642000633183,0.5321498309813798,1.283168828570075,0.9819319085877372,0.2838689375,0.7443093575454447
0.068,1.6844000000000001,1.0,2633.060904704328,0.534774100093537,1.2824233704542427,0.9820693775629737,0.2837978,0.7456538259606684
0.0685,1.68269375,1.0,2630.967113887611,0.5373836494056696,1.2816721869558527,0.9822037390310832,0.2837261375,0.7470050353810815
0.069,1.680975,1.0,2628.8843095829775,0.5399785613774478,1.280915264253216,0.9823350723791213,0.28365395,0.7483629282829904
0.0695,1.67924375,1.0,2626.812943865593,0.5425589179002593,1.2801525980458075,0.9824634546946044,0.28358123749999997,0.7497274292352814
0.07,1.6775,1.0,2624.7574770571605,0.545124800676391,1.2793841468736,0.9825889587154946,0.283508,0.7510985283026489
0.07050000000000001,1.67574375,1.0,2622.714011520681,0.5476762908870544,1.2786099467144192,0.9827116582643085,0.2834342375,0.7524760765044276
0.07100000000000001,1.673975,1.0,2620.6811696282343,0.5502134692219417,1.2778300102263498,0.9828316236106936,0.28335995,0.7538599662551861
0.07150000000000001,1.67219375,1.0,2618.6575280488205,0.552736416047343,1.277044350511805,0.9829489226983149,0.2832851375,0.7552500888057785
0.07200000000000001,1.6704,1.0,2616.6423236749556,0.5552452109403934,1.2762529745646418,0.9830636209119898,0.2832098,0.7566463458041689
0.0725,1.66859375,1.0,2614.625693571053,0.5577399327963095,1.2754559739012492,0.9831757852668372,0.2831339375,0.7580484899302115
0.073,1.6667752214678873,1.0,2612.6551659483116,0.5602206625840012,1.2746530069928226,0.9832854613539652,0.2830575593016513,0.7594570336409456
0.0735,1.6649525744866247,1.0,2611.08462352377,0.5626874777201376,1.273844469659319,0.983392725787332,0.28298100812843824,0.7608711939955559
0.074,1.6631299275053621,1.0,2610.071216932327,0.565140455621388,1.2730307577206952,0.9834976528813656,0.2829044569552252,0.7622901955945889
0.0745,1.6613072805240996,1.0,2609.572042861874,0.567579673704422,1.272212266996908,0.9836003147459954,0.28282790578201217,0.7637132707155742
0.075,1.659484633542837,1.0,2609.5443749219476,0.5700052093859086,1.2713893933079148,0.9837007813772513,0.28275135460879913,0.7651396594386541
