Time [s],Phi [rad],STIM [ ],Fsee [N],Gamma [ ],Lcerel [ ],q [ ],Lmtc [m],fisomrel [ ]
0.0,1.8,1.0,18.15812069586315,0.0004459253813939918,1.3793184085767207,0.0050514268362281045,0.288653,0.5411911508763521
0.0005,1.79999375,1.0,18.60550227755746,0.006052633401496333,1.3792660319221504,0.014194931470533453,0.2886527375,0.5413178476722782
0.001,1.799975,1.0,22.27069059904676,0.011627892222513954,1.378872173477368,0.037916292778583896,0.28865195,0.542270013279768
0.0015,1.79994375,1.0,32.43043160816087,0.017171878250520915,1.3779314776535112,0.07373696333344529,0.2886506375,0.5445401728272754
0.002,1.7999,1.0,56.351398783664656,0.022684766900013614,1.3761907552592572,0.11841573176322404,0.2886488,0.5487261341118295
0.0025,1.79984375,1.0,101.63510554264748,0.02816673260321912,1.3737200166885135,0.16858799824873813,0.28864643749999996,0.5546344041018405
0.003,1.7997750000000001,1.0,166.74869896173828,0.03361794881342849,1.3709995137041233,0.22141426801874364,0.28864354999999997,0.5610949006100256
0.0035,1.79969375,1.0,244.17497171443685,0.03903858801147099,1.368386121542453,0.2747200697101465,0.2886401375,0.5672565862720312
0.004,1.7996,1.0,328.3453439468782,0.044428821709461844,1.3659748695766787,0.3268895493314768,0.2886362,0.5729030447650926
0.0045000000000000005,1.7994937500000001,1.0,416.3714025072986,0.049788820454771156,1.363756781740009,0.3768044733719875,0.2886317375,0.5780644251854321
0.005,1.799375,1.0,506.6502136887792,0.05511875385118534,1.3617051159525777,0.4237730479646651,0.28862675,0.5828106157325649
0.0055,1.79924375,1.0,598.083614004684,0.06041879053741763,1.3597967807213744,0.4674368451114138,0.2886212375,0.5872011370616557
0.006,1.7991000000000001,1.0,689.8095375602785,0.0656890982013902,1.35801422807583,0.5076781813573586,0.2886152,0.5912812898446032
0.006500000000000001,1.79894375,1.0,781.1220445518968,0.07092984359320381,1.3563439364191123,0.5445417817208419,0.2886086375,0.5950860936777156
0.007,1.798775,1.0,871.439150889921,0.07614119260272041,1.3547750837432069,0.5781744560645434,0.28860155,0.5986436223054865
0.0075,1.79859375,1.0,960.2651600483553,0.08132330989947174,1.3532989725973996,0.6087815309352843,0.2885939375,0.6019765177347636
0.008,1.7984,1.0,1047.2354087254137,0.08647635985273253,1.3519075638183962,0.6365960242281479,0.2885858,0.6051054417327852
0.0085,1.79819375,1.0,1132.0289584647471,0.09160050521755307,1.3505943269738712,0.6618593601686764,0.2885771375,0.6080472509366656
0.009000000000000001,1.797975,1.0,1214.4026053217651,0.09669590796883977,1.349353306397863,0.6848083039945455,0.28856795,0.610817178918625
0.0095,1.79774375,1.0,1294.1970848326623,0.10176272969501367,1.3481787952513895,0.7056674137501527,0.2885582375,0.6134296126826881
0.01,1.7975,1.0,1371.2829127804252,0.10680113074900771,1.34706586774072,0.7246454115974357,0.288548,0.6158969497748124
0.0105,1.79724375,1.0,1445.5654714118464,0.11181127008444215,1.346010104266546,0.7419333410880717,0.2885372375,0.6182302542903507
0.011,1.796975,1.0,1516.998231603439,0.11679330609698443,1.3450072836136784,0.7577041647315479,0.28852595000000003,0.6204399689206342
0.0115,1.79669375,1.0,1585.590068924012,0.12174739756931378,1.3440532031848111,0.7721133099777551,0.2885141375,0.6225363309256093
0.012,1.7964,1.0,1651.3338764753369,0.12667370069507333,1.3431444495871891,0.7853001172376133,0.28850180000000003,0.624527699992044
0.0125,1.79609375,1.0,1714.2382538137895,0.13157237069053773,1.3422779061044186,0.7973889176091343,0.2884889375,0.6264216677065525
0.013000000000000001,1.7957750000000001,1.0,1774.3478452322743,0.1364435627719816,1.341450456020106,0.8084903205609076,0.28847555,0.6282257209300437
0.0135,1.79544375,1.0,1831.721873528605,0.141287431134819,1.3406591853039462,0.818702703216593,0.2884616375,0.6299468095282259
0.014,1.7951000000000001,1.0,1886.438518230643,0.14610413011919643,1.3399012873039082,0.8281135015768498,0.2884472,0.6315915653352872
0.0145,1.79474375,1.0,1938.5500632999867,0.1508938111000979,1.3391745111038478,0.8368005956636916,0.2884322375,0.6331653412546743
0.015,1.794375,1.0,1988.1266156849972,0.15565662527776022,1.338476636069584,0.8448332229184317,0.28841675,0.6346733636320743
0.0155,1.79399375,1.0,2035.2520964326736,0.1603927234222937,1.337805493560844,0.8522729971999957,0.2884007375,0.6361206904340386
0.016,1.7936,1.0,2080.017773686518,0.16510225606665005,1.3371590143139152,0.8591748237978246,0.2883842,0.637512114371394
0.0165,1.7931937500000001,1.0,2122.512579497282,0.16978537301180757,1.3365353077412594,0.8655877160916824,0.2883671375,0.6388519982254333
0.017,1.792775,1.0,2162.804552130425,0.17444222115845176,1.3359328293428583,0.8715555366332725,0.28834955,0.6401439227350193
0.0175,1.7923437500000001,1.0,2200.972384808225,0.1790729474072682,1.3353500346186933,0.8771175056213528,0.2883314375,0.6413914358457947
0.018000000000000002,1.7919,1.0,2237.1045319073337,0.1836776986589424,1.3347853790687458,0.8823087466082873,0.2883128,0.6425980547251153
0.0185,1.79144375,1.0,2271.2820321406757,0.18825662011216096,1.3342374809704531,0.8871608055564393,0.2882936375,0.6437669206458099
0.019,1.790975,1.0,2303.6045347796353,0.19280985912913617,1.3337048503396434,0.891701997918288,0.28827395,0.6449013802927176
0.0195,1.79049375,1.0,2334.14122214508,0.19733755862016017,1.3331863683447243,0.8959578911368764,0.2882537375,0.6460039666749162
0.02,1.79,1.0,2362.960874230048,0.2018398607727572,1.332680975720736,0.8999515417504138,0.288233,0.6470770675813107
0.0205,1.78949375,1.0,2390.1373490624483,0.2063169077744516,1.332187613202719,0.9037037634767243,0.2882117375,0.6481230536820176
0.021,1.788975,1.0,2415.7491551542653,0.21076884181276767,1.3317052215257135,0.9072333759347525,0.28818995000000003,0.6491442793768412
0.021500000000000002,1.78844375,1.0,2439.8645865226813,0.21519580293928933,1.331232880465278,0.9105574512166039,0.2881676375,0.6501427898554684
0.022,1.7879,1.0,2462.568680717044,0.21959793430981708,1.330769544031814,0.9136914505993131,0.2881448,0.6511208824648786
0.0225,1.78734375,1.0,2483.9207099324713,0.2239753741843771,1.3303144452578435,0.9166494733248733,0.28812143749999997,0.6520802527232243
0.023,1.786775,1.0,2503.9760400715377,0.22832825972164758,1.3298668800347253,0.9194443584054233,0.28809755,0.653022453622947
0.0235,1.78619375,1.0,2522.792425380368,0.23265672808030677,1.3294261442538187,0.9220878040909403,0.28807313749999996,0.6539490289606578
0.024,1.7856,1.0,2540.4298082100627,0.2369609164190329,1.3289915338064817,0.9245904849825776,0.2880482,0.6548615136596256
0.0245,1.78499375,1.0,2556.948012527408,0.24124096143421409,1.3285623644677556,0.926962158994838,0.2880227375,0.6557613923959114
0.025,1.784375,1.0,2572.398591046905,0.2454969977081848,1.3281380462639107,0.9292117708267155,0.28799675,0.6566499444965037
0.025500000000000002,1.78374375,1.0,2586.8528157704986,0.24972916390763147,1.3277178192880381,0.9313474903044668,0.2879702375,0.6575287975800153
0.026000000000000002,1.7831000000000001,1.0,2600.3518711218876,0.25393759184356807,1.3273012184974355,0.9333768593599859,0.2879432,0.6583989552617793
0.0265,1.78244375,1.0,2612.9380520110963,0.2581224133270085,1.326887778849401,0.9353068070341698,0.2879156375,0.6592614159403865
0.027,1.781775,1.0,2624.654670638418,0.262283760168967,1.3264770353012314,0.9371437074980122,0.28788755,0.660117172898337
0.0275,1.7810937500000001,1.0,2635.5459680922504,0.2664217641804573,1.3260685228102251,0.9388934318750264,0.2878589375,0.6609672143888957
0.028,1.7804,1.0,2645.6570307425177,0.2705365571724936,1.32566177633368,0.9405613945941217,0.2878298,0.6618125237091588
0.0285,1.77969375,1.0,2655.029043268437,0.27462826813444524,1.325256373851659,0.9421525999770929,0.2878001375,0.6626539900155289
0.029,1.778975,1.0,2663.703865556602,0.278697030170272,1.3248518932222264,0.9436716755300699,0.28776995,0.6634924983097424
0.029500000000000002,1.7782437500000001,1.0,2671.7149229369165,0.2827429711057305,1.324447995294599,0.9451229130805194,0.2877392375,0.6643287574914412
0.03,1.7775,1.0,2679.094311438907,0.28676621740928343,1.3240443576017675,0.9465102904792954,0.287708,0.6651634384772251
0.0305,1.77674375,1.0,2685.8745614830145,0.29076689554939344,1.3236406576767237,0.9478374969456266,0.2876762375,0.6659972088602607
0.031,1.775975,1.0,2692.0885968122734,0.2947451319945232,1.3232365730524585,0.9491079576405179,0.28764395,0.6668307329123173
0.0315,1.7751937500000001,1.0,2697.7696957294993,0.29870105321313534,1.3228317812619625,0.9503248558593995,0.2876111375,0.6676646715791721
0.032,1.7744,1.0,2702.9428849989813,0.30263478052134934,1.3224260381146924,0.9514911610803137,0.2875778,0.6684995215104048
0.0325,1.77359375,1.0,2707.638967764779,0.306546441947627,1.3220190490227752,0.9526096344996946,0.2875439375,0.6693358803139908
0.033,1.772775,1.0,2711.8946577870292,0.3104361688958289,1.321610467748457,0.9536828447707425,0.28750955,0.6701744484522281
0.0335,1.7719437500000002,1.0,2715.7293328248174,0.31430408120866987,1.3212001081715554,0.9547132035752154,0.2874746375,0.6710155947403734
0.034,1.7711000000000001,1.0,2719.162531061785,0.3181502987288644,1.3207877841718878,0.9557029629781407,0.2874392,0.6718596859888085
0.0345,1.7702437500000001,1.0,2722.2139355331738,0.3219749412991273,1.3203733096292716,0.9566542278739224,0.2874032375,0.6727070869808256
0.035,1.7693750000000001,1.0,2724.9033593212002,0.32577812876217316,1.3199564984235241,0.9575689673231057,0.28736675,0.673558160448206
0.035500000000000004,1.76849375,1.0,2727.2507315183675,0.32955998096071665,1.319537164434463,0.9584490248902756,0.2873297375,0.6744132670445888
0.036000000000000004,1.7676,1.0,2729.276083958292,0.33332061773747246,1.3191151215419052,0.9592961280814685,0.2872922,0.6752727653166297
0.0365,1.76669375,1.0,2730.999538715683,0.3370601589351551,1.3186901836256688,0.9601118969688431,0.2872541375,0.6761370116729513
0.037,1.765775,1.0,2732.441296373208,0.3407787243964795,1.3182621645655708,0.9608978520809526,0.28721555,0.6770063603508851
0.0375,1.76484375,1.0,2733.617936461848,0.34447642966173214,1.3178309117440912,0.9616554239852212,0.2871764375,0.6778810954716828
0.038,1.7639,1.0,2734.5448482054685,0.3481533923904964,1.3173962838510669,0.9623859589486966,0.28713679999999997,0.6787614763951945
0.0385,1.76294375,1.0,2735.242346323488,0.3518097369020222,1.316958095272792,0.9630907205390247,0.28709663750000003,0.6796478502584303
0.039,1.761975,1.0,2735.7216252427797,0.35544557581053343,1.316516243574514,0.9637709036192897,0.28705595,0.680540393984308
0.0395,1.7609937500000001,1.0,2735.9939103973734,0.35906102173025384,1.3160706263214805,0.9644276337999463,0.2870147375,0.6814392830891168
0.04,1.76,1.0,2736.070453843065,0.3626561872754074,1.3156211410789396,0.9650619721890931,0.286973,0.682344691658253
0.0405,1.7589937500000001,1.0,2735.962530105135,0.3662311850602179,1.3151676854121388,0.9656749197683842,0.2869307375,0.6832567923212854
0.041,1.757975,1.0,2735.6814322582095,0.36978612769890923,1.314710156886326,0.9662674214277087,0.28688795,0.6841757562263524
0.0415,1.75694375,1.0,2735.2384682391653,0.37332112780570526,1.3142484530667489,0.9668403696885404,0.2868446375,0.6851017530138882
0.042,1.7559,1.0,2734.6449573926093,0.3768362979948298,1.3137824715186552,0.9673946081429575,0.28680079999999997,0.6860349507896821
0.0425,1.75484375,1.0,2733.912227249001,0.3803317508805068,1.3133121098072926,0.9679309346327478,0.2867564375,0.6869755160972673
0.043000000000000003,1.753775,1.0,2733.0471118598844,0.3838075923068026,1.3128373063626029,0.9684501064371228,0.28671155,0.6879235323590274
0.043500000000000004,1.75269375,1.0,2732.055034929068,0.3872639291629443,1.3123580124796606,0.96895284184418,0.28666613750000003,0.6888790562492226
0.044,1.7516,1.0,2730.956391730363,0.39070089030431204,1.3118740434512584,0.969439814009621,0.2866202,0.6898424139711818
0.0445,1.75049375,1.0,2729.7566317986084,0.39411858050504445,1.3113853503309048,0.9699116680201212,0.2865737375,0.6908136594365425
0.045,1.7493750000000001,1.0,2728.4612057833847,0.3975171045392801,1.3108918841721084,0.9703690157867807,0.28652675,0.6917928455226923
0.0455,1.74824375,1.0,2727.0755644762794,0.4008965671811574,1.3103935960283775,0.970812438070437,0.2864792375,0.6927800240579478
0.046,1.7471,1.0,2725.6051578909987,0.4042570732048151,1.3098904369532205,0.9712424863644346,0.2864312,0.6937752458065756
0.0465,1.7459437500000001,1.0,2724.0554343966364,0.4075987273843915,1.3093823580001456,0.9716596846461611,0.28638263750000004,0.6947785604536664
0.047,1.744775,1.0,2722.4318399036624,0.4109216344940253,1.3088693102226616,0.9720645310076613,0.28633355,0.6957900165898508
0.0475,1.74359375,1.0,2720.739817104178,0.41422589930785503,1.3083512446742764,0.9724574991747388,0.28628393750000003,0.696809661695869
0.048,1.7424,1.0,2718.9848047634555,0.4175116266000192,1.307828112408499,0.9728390399231537,0.2862338,0.6978375421269788
0.0485,1.74119375,1.0,2717.1722370667203,0.4207789211446564,1.3072998644788374,0.973209582399775,0.2861831375,0.69887370309722
0.049,1.739975,1.0,2715.3075430171225,0.4240278877159051,1.3067664519388,0.9735695353558894,0.28613195,0.6999181886635201
0.0495,1.73874375,1.0,2713.3961458880026,0.42725863108790396,1.3062278258418953,0.9739192882992588,0.2860802375,0.7009710417096486
0.05,1.7375,1.0,2711.440921559076,0.43047125005897746,1.3056839604166859,0.9742592134301943,0.286028,0.7020322587499044
0.0505,1.73624375,1.0,2709.4419973340414,0.4336658405757197,1.305134854940807,0.9745896671023966,0.2859752375,0.703101786671724
0.051000000000000004,1.734975,1.0,2707.410819368251,0.43684252324834216,1.3045804053977577,0.9749109853747402,0.28592195,0.7041797724736532
0.051500000000000004,1.73369375,1.0,2705.349708867304,0.440001394822812,1.304020590933588,0.9752234917721777,0.2858681375,0.705266199899209
0.052000000000000005,1.7324,1.0,2703.2609841062504,0.4431425520450961,1.3034553906943478,0.9755274952974881,0.2858138,0.7063610518448366
0.0525,1.73109375,1.0,2701.1469603050655,0.4462660916611617,1.3028847838260873,0.9758232912068412,0.28575893750000003,0.7074643103527563
0.053,1.729775,1.0,2699.0099495134104,0.449372110416976,1.302308749474856,0.9761111617374524,0.28570355000000003,0.7085759566037908
0.0535,1.72844375,1.0,2696.8522605051635,0.45246070505850594,1.3017272667867041,0.9763913767906751,0.2856476375,0.7096959709101565
0.054,1.7271,1.0,2694.676198682759,0.45553197233171877,1.3011403149076817,0.9766641945736171,0.2855912,0.7108243327082344
0.0545,1.7257437500000001,1.0,2692.484065990775,0.45858600898258145,1.3005478729838384,0.9769298622021252,0.2855342375,0.711961020551309
0.055,1.724375,1.0,2690.2781608393593,0.46162291175706116,1.2999499201612246,0.9771886162677755,0.28547675,0.7131060121022801
0.0555,1.72299375,1.0,2688.060778037787,0.46464277740112503,1.29934643558589,0.9774406833712934,0.2854187375,0.7142592841263478
0.056,1.7216,1.0,2685.8342087365522,0.4676457026607401,1.2987373984038844,0.9776862806246578,0.2853602,0.7154208124836698
0.0565,1.72019375,1.0,2683.600740380208,0.4706317842818736,1.2981227877612578,0.977925616123966,0.28530113749999997,0.7165905721219901
0.057,1.718775,1.0,2681.3626566693943,0.4736011190104924,1.2975025828040605,0.9781588893949895,0.28524155,0.7177685370692384
0.0575,1.71734375,1.0,2679.1232517393064,0.4765537748865276,1.2968767533733132,0.9783862887472198,0.2851814375,0.7189546980437531
0.058,1.7159,1.0,2676.8833641099977,0.47948988273617216,1.296245291798586,0.9786080016454616,0.2851208,0.7201490021912328
0.0585,1.71444375,1.0,2674.643704398092,0.4824095324004693,1.2956081915710813,0.9788242045069756,0.2850596375,0.7213513937374838
0.059000000000000004,1.7129750000000001,1.0,2672.4050063563395,0.4853128125908919,1.2949654459585707,0.9790350666231317,0.28499795,0.7225618166149921
0.059500000000000004,1.71149375,1.0,2670.168002509894,0.48819981201891266,1.2943170482288266,0.9792407506056573,0.2849357375,0.723780214036577
0.06,1.71,1.0,2667.933424156945,0.4910706193960045,1.2936629916496207,0.9794414127003453,0.284873,0.7250065284929681
0.0605,1.7084937500000001,1.0,2665.7020013703877,0.49392532343364015,1.2930032694887255,0.9796372030836726,0.2848097375,0.7262407017503741
0.061,1.7069750000000001,1.0,2663.474463000077,0.4967640128432925,1.2923378750139125,0.9798282661433835,0.28474595,0.7274826748480552
0.0615,1.7054437500000001,1.0,2661.25153667654,0.4995867763364344,1.2916668014929542,0.9800147407440203,0.2846816375,0.7287323880958854
0.062,1.7039,1.0,2659.0339488156947,0.5023937026245385,1.2909900421936225,0.9801967604783167,0.2846168,0.7299897810719191
0.0625,1.70234375,1.0,2656.8224246241152,0.5051848804190778,1.2903075903836891,0.9803744539053076,0.2845514375,0.7312547926199495
0.063,1.7007750000000001,1.0,2654.6176881057313,0.507960398431525,1.2896194393309266,0.9805479447759504,0.28448555,0.7325273608470655
0.0635,1.69919375,1.0,2652.4204620695236,0.5107203453733529,1.2889255823031065,0.9807173522469995,0.28441913750000003,0.733807423121208
0.064,1.6976,1.0,2650.231468137679,0.5134648099560344,1.2882260125680014,0.9808827910838313,0.2843522,0.735094916068719
0.0645,1.69599375,1.0,2648.051426755851,0.5161938808910422,1.2875207233933827,0.9810443718528615,0.2842847375,0.7363897755718938
0.065,1.694375,1.0,2645.881057203096,0.5189076468898493,1.286809708047023,0.9812022011041661,0.28421675,0.7376919367665222
0.0655,1.69274375,1.0,2643.7194658332105,0.5216061427109572,1.286092974682859,0.9813563785121973,0.2841482375,0.739001306878549
0.066,1.6911,1.0,2641.5692605961594,0.5242895117101666,1.2853704991149204,0.9815070061470285,0.2840792,0.7403178515143534
0.0665,1.6894437500000001,1.0,2639.4310208013003,0.5269578516492511,1.2846422758699025,0.9816541801907414,0.2840096375,0.7416415012359767
0.067,1.687775,1.0,2637.304710594368,0.5296112419750539,1.2839083051547533,0.981797992463544,0.28393955,0.7429721755872305
0.0675,1.68609375,1.0,2635.1902942272513,0.5322497621344183,1.2831685871764213,0.9819385315769577,0.2838689375,0.7443097934837675
0.068,1.6844000000000001,1.0,2633.087736057001,0.5348734915741873,1.2824231221418545,0.9820758830668433,0.2837978,0.7456542732131606
0.0685,1.68269375,1.0,2630.997000545464,0.5374825097412042,1.2816719102580014,0.9822101295200094,0.2837261375,0.7470055324349758
0.069,1.680975,1.0,2628.9180522589727,0.5400768960823119,1.2809149517318101,0.9823413506947556,0.28365395,0.7483634881808507
0.0695,1.67924375,1.0,2626.850855867755,0.5426567300443539,1.2801522467702289,0.9824696236356786,0.28358123749999997,0.7497280568545689
0.07,1.6775,1.0,2624.7953761455274,0.5452220910741732,1.2793837955802059,0.9825950227830543,0.283508,0.7510991542321357
0.07050000000000001,1.67574375,1.0,2622.751577969005,0.5477730586186129,1.2786095983686891,0.9827176200770836,0.2834342375,0.752476695461855
0.07100000000000001,1.673975,1.0,2620.719426317241,0.5503097121245163,1.2778296553426274,0.9828374850572772,0.28335995,0.7538605950644033
0.07150000000000001,1.67219375,1.0,2618.698886271681,0.5528321310387265,1.2770439667089684,0.9829546849572366,0.2832851375,0.7552507669329083
0.07200000000000001,1.6704,1.0,2616.6899230151844,0.5553403948080867,1.2762525326746605,0.9830692847950743,0.2832098,0.7566471243330217
0.0725,1.66859375,1.0,2614.692501831762,0.55783458287944,1.275455353446652,0.9831813474596992,0.2831339375,0.7580495799029976
0.073,1.6667750000000001,1.0,2612.7065881061753,0.5603147746996295,1.274652429231891,0.9832909337931841,0.28305755,0.7594580456537663
0.0735,1.66494375,1.0,2610.732147323417,0.5627810497154987,1.273843760237326,0.9833981026694147,0.2829806375,0.7608724329690111
0.074,1.6631,1.0,2608.769145068188,0.5652334873738903,1.273029346669905,0.9835029110692143,0.2829032,0.7622926526052451
0.0745,1.6612437500000001,1.0,2606.817547024506,0.5676721671216479,1.2722091887365763,0.9836054141521198,0.2828252375,0.7637186146918845
0.075,1.659375,1.0,2604.877318975345,0.5700971684056144,1.271383286644288,0.9837056653249827,0.28274675,0.7651502287313272
0.0755,1.65749375,1.0,2602.948426802021,0.5725085706726329,1.2705516405999886,0.983803716307549,0.2826677375,0.7665874035990262
