Time [s],Phi [rad],STIM [ ],Fsee [N],Gamma [ ],Lcerel [ ],q [ ],Lmtc [m],fisomrel [ ]
0.0,1.8,1.0,17.967608515483064,1.0607908209210168e-05,1.3793396957660111,0.0050000299766639125,0.288653,0.5411396531127236
0.0005,1.79999375,1.0,18.277103546966828,0.005619757715027747,1.3793023478672564,0.0129422013685251,0.2886527375,0.5412300028775091
0.001,1.799975,1.0,21.61915120652927,0.011197444626349563,1.3789382235061087,0.03561174316159391,0.28865195,0.5421104042284259
0.0015,1.79994375,1.0,31.07087272980306,0.016743845125002627,1.3780460642874166,0.07060603944007063,0.2886506375,0.5442639453979417
0.002,1.7999,1.0,53.58568352913274,0.022259134702164275,1.3763679178828867,0.11472296989095691,0.2886488,0.5483009897592496
0.0025,1.79984375,1.0,97.12430177063898,0.027743487864925916,1.3739349087787898,0.16458025905890047,0.28864643749999996,0.554122079070785
0.003,1.7997750000000001,1.0,160.96519939239303,0.033197078144007665,1.3712140805233017,0.2172859900439541,0.28864354999999997,0.5605870740473203
0.0035,1.79969375,1.0,237.69130168664014,0.03862007809335192,1.3685844887337038,0.27061839465812054,0.2886401375,0.5667904166610784
0.004,1.7996,1.0,321.47528279030934,0.04401265930090505,1.36615586696182,0.32292113320307775,0.2886362,0.5724804881678509
0.0045000000000000005,1.7994937500000001,1.0,409.2766074854944,0.049374992393802095,1.363922606267284,0.37303956893098883,0.2886317375,0.5776796449222812
0.005,1.799375,1.0,499.4225643451646,0.05470724702945589,1.3618581498196691,0.42025219666406444,0.28862675,0.5824575236259117
0.0055,1.79924375,1.0,590.7995855803348,0.06000959194301663,1.3599386559095603,0.4641780836894911,0.2886212375,0.5868755229018467
0.006,1.7991000000000001,1.0,682.5273068285422,0.06528219489054789,1.3581462475437067,0.5046839931842008,0.2886152,0.590979800288144
0.006500000000000001,1.79894375,1.0,773.8906556500073,0.070525222704389,1.3564670931913394,0.5418044445854201,0.2886086375,0.5948061590297098
0.007,1.798775,1.0,864.2946315183494,0.07573884127772992,1.3548902525203872,0.5756801445915767,0.28860155,0.5983829995727545
0.0075,1.79859375,1.0,953.2514922496736,0.08092321557304359,1.3534066518850831,0.6065129802704807,0.2885939375,0.6017338597046418
0.008,1.7984,1.0,1040.3628515837843,0.08607850956907656,1.3520085816078145,0.6345348769968976,0.2885858,0.6048786941149702
0.0085,1.79819375,1.0,1125.3278255500136,0.09120488659743028,1.3506890490008803,0.6599869229419757,0.2885771375,0.6078354302004407
0.009000000000000001,1.797975,1.0,1207.892320419577,0.09630250857567196,1.3494421424505187,0.6831066155889425,0.28856795,0.61061922538135
0.0095,1.79774375,1.0,1287.879207821533,0.1013715368422792,1.3482622958008172,0.7041197191996138,0.2885582375,0.6132441751388523
0.01,1.7975,1.0,1365.171516804903,0.10641213216173606,1.3471443278593482,0.7232361555914749,0.288548,0.6157232641424788
0.0105,1.79724375,1.0,1439.6680678054538,0.11142445352616506,1.3460838391448402,0.74064839180032,0.2885372375,0.618067526411889
0.011,1.796975,1.0,1511.3170402470664,0.1164086593991246,1.3450766168449946,0.7565307866698879,0.28852595000000003,0.620287399575296
0.0115,1.79669375,1.0,1580.120010736383,0.12136490834603272,1.3441184950258513,0.7710401047020998,0.2885141375,0.6223930528735432
0.012,1.7964,1.0,1646.0729863679496,0.1262933568326728,1.3432059779664611,0.7843168735191358,0.28850180000000003,0.6243930379084344
0.0125,1.79609375,1.0,1709.1850137429901,0.13119416021711997,1.3423359079918973,0.7964865261246832,0.2884889375,0.6262950449597042
0.013000000000000001,1.7957750000000001,1.0,1769.4999732316978,0.13606747371466052,1.3415051470485322,0.8076606734579159,0.28847555,0.6281066152403074
0.0135,1.79544375,1.0,1827.0814768324644,0.14091345184147727,1.3407107067493127,0.8179385687153775,0.2884616375,0.629834867048418
0.014,1.7951000000000001,1.0,1881.995485497858,0.1457322486010015,1.339949894604949,0.8274084972110076,0.2884472,0.6314861899173598
0.0145,1.79474375,1.0,1934.2953955116718,0.15052401544187619,1.339220425937269,0.8361490378749716,0.2884322375,0.633066016029776
0.015,1.794375,1.0,1984.0556102536643,0.15528890381274427,1.3385200160681006,0.8442300360047641,0.28841675,0.6345797153101178
0.0155,1.79399375,1.0,2031.3581605347956,0.16002706426552726,1.3378465021612787,0.8517136648516109,0.2884007375,0.636032337300348
0.016,1.7936,1.0,2076.300658040992,0.16473864826562198,1.3371977359844704,0.8586552977226031,0.2883842,0.6374288483639903
0.0165,1.7931937500000001,1.0,2118.9640441034658,0.1694238049337426,1.3365719003200254,0.8651044055976976,0.2883671375,0.6387734563615017
0.017,1.792775,1.0,2159.416840054989,0.17408268125492712,1.3359674356610924,0.8711052292106817,0.28834955,0.6400697773447377
0.0175,1.7923437500000001,1.0,2197.738358747421,0.1787154242142137,1.3353827825008202,0.876697322441708,0.2883314375,0.6413213941390546
0.018000000000000002,1.7919,1.0,2234.0177973853347,0.1833221807966403,1.3348163813323577,0.8819161035163855,0.2883128,0.6425318583912795
0.0185,1.79144375,1.0,2268.338896479619,0.18790309648144685,1.3342668171047365,0.8867933744027825,0.2882936375,0.6437043845110608
0.019,1.790975,1.0,2300.7976786125005,0.19245831834711147,1.3337326305754311,0.8913576928711985,0.28827395,0.6448422553864885
0.0195,1.79049375,1.0,2331.465680286384,0.19698798967456718,1.333212674663058,0.8956348272913079,0.2882537375,0.6459480658287344
0.02,1.79,1.0,2360.4113255874977,0.20149225266462642,1.3327058894998334,0.8996480188190558,0.288233,0.6470242062886629
0.0205,1.78949375,1.0,2387.708151996852,0.20597124951810153,1.3322112152179741,0.9034182451908485,0.2882117375,0.6480730500108318
0.021,1.788975,1.0,2413.434380690796,0.21042512243580488,1.3317275919496974,0.9069644719622889,0.28818995000000003,0.6490969538879308
0.021500000000000002,1.78844375,1.0,2437.6588069033837,0.21485401156646475,1.331254091645117,0.9103038998567654,0.2881676375,0.6500979807664811
0.022,1.7879,1.0,2460.466548154888,0.2192580600493435,1.3307896648674564,0.913452105744392,0.2881448,0.6510784362783032
0.0225,1.78734375,1.0,2481.917830999678,0.22363740634772222,1.3303335332736421,0.9164232908880469,0.28812143749999997,0.6520400408002283
0.023,1.786775,1.0,2502.0679442253117,0.22799218765019708,1.329884991568886,0.919230387558476,0.28809755,0.652984350566314
0.0235,1.78619375,1.0,2520.974583224097,0.23232254114536427,1.3294433344583996,0.921885177624519,0.28807313749999996,0.6539129125667446
0.024,1.7856,1.0,2538.6976485454684,0.23662860402182,1.329007856647395,0.924398410778926,0.2880482,0.6548272648733646
0.0245,1.78499375,1.0,2555.297968064164,0.24091051319948759,1.3285778630566158,0.926779910863422,0.2880227375,0.6557289155266193
0.025,1.784375,1.0,2570.8271210404855,0.245168402853145,1.3281527622946174,0.9290386833077794,0.28799675,0.6566191473163658
0.025500000000000002,1.78374375,1.0,2585.3559747301997,0.24940241213445222,1.3277317971271885,0.931182953833224,0.2879702375,0.6574995827544112
0.026000000000000002,1.7831000000000001,1.0,2598.9259180061345,0.25361267288299116,1.3273144996607034,0.9332203138088794,0.2879432,0.6583712318618093
0.0265,1.78244375,1.0,2611.5794616422622,0.25779931693834396,1.326900402001536,0.9351577370033288,0.2879156375,0.659235099398068
0.027,1.781775,1.0,2623.3601441299325,0.26196247614009255,1.3264890362560604,0.9370016381121997,0.28788755,0.6600921849636125
0.0275,1.7810937500000001,1.0,2634.3124423477348,0.26610228232781896,1.3260799345306509,0.938757925027091,0.2878589375,0.6609434830882859
0.028,1.7804,1.0,2644.481687085665,0.27021886734110523,1.3256726289316811,0.940432045582643,0.2878298,0.6617899833058913
0.0285,1.77969375,1.0,2653.9042015467708,0.2743123584641802,1.3252667417364474,0.9420290406030681,0.2878001375,0.6626324831637602
0.029,1.778975,1.0,2662.6300321774784,0.27838289153461665,1.3248617747724785,0.9435535556266448,0.28776995,0.6634720258025366
0.029500000000000002,1.7782437500000001,1.0,2670.6940664800177,0.282430595131946,1.3244573752007183,0.94500990677904,0.2877392375,0.6643093484625648
0.03,1.7775,1.0,2678.126242019607,0.2864555951149968,1.3240532401815248,0.9464020980805096,0.287708,0.6651450814025989
0.0305,1.77674375,1.0,2684.956920098823,0.29045801734259774,1.3236490668752565,0.9477338426749944,0.2876762375,0.6659798517563003
0.031,1.775975,1.0,2691.2168470941074,0.2944379876735774,1.3232445524422716,0.9490085876212718,0.28764395,0.6668142835344246
0.0315,1.7751937500000001,1.0,2696.9371178255033,0.2983956319667643,1.3228393940429286,0.9502295362800843,0.2876111375,0.6676489976211565
0.032,1.7744,1.0,2702.1491409597797,0.3023310760809872,1.3224332888375856,0.9513996685563575,0.2875778,0.6684846117645986
0.0325,1.77359375,1.0,2706.8846064473705,0.3062444458750746,1.3220259339866012,0.9525217592251323,0.2875439375,0.6693217405614069
0.033,1.772775,1.0,2711.1630861419426,0.31013585953098965,1.32161713945794,0.9535984055561619,0.28750955,0.6701607640525895
0.0335,1.7719437500000002,1.0,2715.0225278786447,0.3140054506441813,1.3212065494485716,0.9546320158130144,0.2874746375,0.6710023998448416
0.034,1.7711000000000001,1.0,2718.4839752378025,0.3178533403559816,1.3207939640864852,0.9556248529569982,0.2874392,0.6718470427477004
0.0345,1.7702437500000001,1.0,2721.5659523113386,0.32167964791114534,1.3203792077798957,0.956579034104448,0.2874032375,0.6726950357854797
0.035,1.7693750000000001,1.0,2724.287109949774,0.32548449255442724,1.3199621049370176,0.9574965396089872,0.28736675,0.6735467200391356
0.035500000000000004,1.76849375,1.0,2726.6662125784005,0.32926799353058195,1.319542479966066,0.9583792234801093,0.2873297375,0.6744024346209705
0.036000000000000004,1.7676,1.0,2728.722125697028,0.3330302700843642,1.3191201572752553,0.9592288228934974,0.2872922,0.6752625166473734
0.0365,1.76669375,1.0,2730.4738040635566,0.3367714414605286,1.3186949612728003,0.9600469668816431,0.2872541375,0.676127301209593
0.037,1.765775,1.0,2731.940280560797,0.34049162690383006,1.3182667163669162,0.9608351842838286,0.28721555,0.6769971213425413
0.0375,1.76484375,1.0,2733.1406557472487,0.3441909456590232,1.317835246965817,0.9615949110261615,0.2871764375,0.6778723079916394
0.038,1.7639,1.0,2734.086435992326,0.34786951014230616,1.3174004469739935,0.9623275020562282,0.28713679999999997,0.6787530493007308
0.0385,1.76294375,1.0,2734.8002216347,0.3515274448894713,1.3169621099607038,0.9630342248643817,0.28709663750000003,0.6796397348509524
0.039,1.761975,1.0,2735.2960889489677,0.3551648654937644,1.316520107288078,0.9637162780081298,0.28705595,0.6805325946503306
0.0395,1.7609937500000001,1.0,2735.585159140586,0.35878188461837085,1.3160743374426753,0.9643747924260565,0.2870147375,0.6814318023283603
0.04,1.76,1.0,2735.6785801047895,0.3623786149264759,1.3156246989110556,0.9650108341909385,0.286973,0.6823375300934487
0.0405,1.7589937500000001,1.0,2735.5875223140633,0.3659551690812648,1.3151710901797782,0.965625408914158,0.2869307375,0.6832499487081956
0.041,1.757975,1.0,2735.323174934094,0.3695116597459229,1.3147134097354025,0.9662194658063741,0.28688795,0.6841692274640199
0.0415,1.75694375,1.0,2734.896742167794,0.3730481995836355,1.3142515560644885,0.966793901424602,0.2868446375,0.6850955341551264
0.042,1.7559,1.0,2734.3194398288006,0.37656490125758785,1.3137854276535952,0.9673495631329179,0.28680079999999997,0.6860290350518188
0.0425,1.75484375,1.0,2733.6024921424246,0.38006187743096526,1.3133149229892824,0.9678872523013955,0.2867564375,0.6869698948731506
0.043000000000000003,1.753775,1.0,2732.751404858635,0.38353922820130504,1.3128399925553613,0.9684077294989489,0.28671155,0.6879181730164587
0.043500000000000004,1.75269375,1.0,2731.780284757772,0.3869970777952531,1.312360508749602,0.9689117124223968,0.28666613750000003,0.6888740834620212
0.044,1.7516,1.0,2730.6987482075174,0.3904355401218781,1.31187638476421,0.9693998826253141,0.2866202,0.6898377570995102
0.0445,1.75049375,1.0,2729.512790252979,0.3938547205260363,1.3113875667037196,0.969872887473635,0.2865737375,0.6908092579793896
0.045,1.7493750000000001,1.0,2728.2284070375263,0.39725472435258413,1.3108940006726642,0.9703313410131353,0.28652675,0.6917886490616885
0.0455,1.74824375,1.0,2726.851594698663,0.400635656946378,1.310395632775578,0.9707758260051419,0.2864792375,0.6927759921997723
0.046,1.7471,1.0,2725.388348328333,0.4039976236522742,1.3098924091169943,0.9712068958188467,0.2864312,0.693771348123933
0.0465,1.7459437500000001,1.0,2723.8446609969355,0.40734072981512914,1.3093842758014478,0.971625076191613,0.28638263750000004,0.6947747764247886
0.047,1.744775,1.0,2722.226522842603,0.41066508077979924,1.308871178933472,0.9720308668676525,0.28633355,0.6957863355365024
0.0475,1.74359375,1.0,2720.5399202247086,0.41397078189114084,1.3083530646176007,0.9724247431245526,0.28628393750000003,0.6968060827198144
0.048,1.7424,1.0,2718.7908349409627,0.41725793849401027,1.307829878958368,0.9728071571963084,0.2862338,0.6978340740448868
0.0485,1.74119375,1.0,2716.985243510251,0.420526655933264,1.3073015680603077,0.9731785396007788,0.2861831375,0.6988703643739671
0.049,1.739975,1.0,2715.129116518436,0.4237770395537583,1.3067680780279536,0.9735393003788084,0.28613195,0.6999150073438629
0.0495,1.73874375,1.0,2713.2206720893278,0.4270091799844462,1.3062294255843687,0.9738898333017195,0.2860802375,0.7009679174307002
0.05,1.7375,1.0,2711.265555357802,0.43022318747143223,1.3056855597545598,0.9742305115460221,0.286028,0.7020291408084868
0.0505,1.73624375,1.0,2709.275915674274,0.43341918005132213,1.3051363701611092,0.9745616879621852,0.2859752375,0.7030988380258373
0.051000000000000004,1.734975,1.0,2707.254012354664,0.4365972547333646,1.3045818365375925,0.9748837027429408,0.28592195,0.7041769925108012
0.051500000000000004,1.73369375,1.0,2705.2021020296684,0.43975750852680845,1.304021938617586,0.975196880659765,0.2858681375,0.7052635868597092
0.052000000000000005,1.7324,1.0,2703.1224385142996,0.4429000384409025,1.3034566561346652,0.9755015318945429,0.2858138,0.7063586028302538
0.0525,1.73109375,1.0,2701.0172726861033,0.4460249414848954,1.302885968822406,0.9757979528193734,0.28575893750000003,0.7074620213345426
0.053,1.729775,1.0,2698.888852372553,0.4491323146680361,1.3023098564143845,0.9760864267281633,0.28570355000000003,0.7085738224321245
0.0535,1.72844375,1.0,2696.739422247871,0.4522222549995733,1.3017282986441763,0.976367224523383,0.2856476375,0.7096939853229935
0.054,1.7271,1.0,2694.571223738472,0.4552948594887558,1.3011412752453575,0.9766406053610919,0.2855912,0.7108224883405607
0.0545,1.7257437500000001,1.0,2692.3864949379013,0.45835022514483237,1.3005487659515036,0.9769068172570988,0.2855342375,0.7119593089446057
0.055,1.724375,1.0,2690.1874705303258,0.4613884489770518,1.299950750496191,0.9771660976569072,0.28547675,0.7131044237141959
0.0555,1.72299375,1.0,2687.976381724175,0.4644096279946628,1.2993472086129951,0.9774186739718941,0.2854187375,0.7142578083405866
0.056,1.7216,1.0,2685.7554561936186,0.4674138592069142,1.298738120035492,0.9776647640839844,0.2853602,0.7154194376200893
0.0565,1.72019375,1.0,2683.5269180301248,0.4704012396230548,1.2981234644972575,0.977904576820917,0.28530113749999997,0.7165892854469148
0.057,1.718775,1.0,2681.2929877028014,0.4733718662523334,1.2975032217318674,0.9781383124040411,0.28524155,0.7177673248059928
0.0575,1.71734375,1.0,2679.0557128099717,0.4763258137821879,1.2968773730254335,0.9783661609830197,0.2851814375,0.718953524826268
0.058,1.7159,1.0,2676.817057144,0.47926320050255766,1.2962459004021616,0.9785883088839703,0.2851208,0.7201478523434712
0.0585,1.71444375,1.0,2674.577958573837,0.48218412127395455,1.295608795276749,0.9788049334103256,0.2850596375,0.7213502555963938
0.059000000000000004,1.7129750000000001,1.0,2672.3392700837417,0.48508866496605757,1.2949660498293087,0.9790162043340062,0.28499795,0.7225606806380541
0.059500000000000004,1.71149375,1.0,2670.1018432324636,0.48797692044854557,1.2943176562399545,0.9792222847238149,0.2849357375,0.7237790727851401
0.06,1.71,1.0,2667.8665281531153,0.4908489765910975,1.2936636066887994,0.9794233312604316,0.284873,0.725005376615198
0.0605,1.7084937500000001,1.0,2665.634173554431,0.49370492226339235,1.2930038933559567,0.9796194945342337,0.2848097375,0.7262395359638112
0.061,1.7069750000000001,1.0,2663.4056267231854,0.496544846335109,1.2923385084215395,0.9798109193270081,0.28474595,0.7274814939217777
0.0615,1.7054437500000001,1.0,2661.181733528039,0.49936883767592627,1.2916674440656615,0.9799977448785411,0.2846816375,0.7287311928322839
0.062,1.7039,1.0,2658.963338425316,0.5021769851555232,1.2909906924684353,0.9801801051390031,0.2846168,0.7299885742880756
0.0625,1.70234375,1.0,2656.751284464781,0.5049693776435787,1.2903082458099748,0.9803581290079931,0.2845514375,0.7312535791286201
0.063,1.7007750000000001,1.0,2654.5464132983884,0.5077461040097717,1.289620096270393,0.980531940561034,0.28448555,0.7325261474372714
0.0635,1.69919375,1.0,2652.3495651891935,0.5105072531237812,1.288926236029803,0.9807016592642713,0.28441913750000003,0.7338062185384264
0.064,1.6976,1.0,2650.161579021938,0.5132529138552859,1.2882266572683185,0.9808674001780708,0.2843522,0.7350937309946788
0.0645,1.69599375,1.0,2647.983292315612,0.5159831750739649,1.2875213521660525,0.9810292741501648,0.2842847375,0.7363886226039695
0.065,1.694375,1.0,2645.815478533637,0.5186981252560897,1.286810313482006,0.9811873879999706,0.28421675,0.7376908293378619
0.0655,1.69274375,1.0,2643.6589578929143,0.5213978482354654,1.2860935335319497,0.9813418443454979,0.2841482375,0.739000287216847
0.066,1.6911,1.0,2641.5133723793215,0.524082428102734,1.285371015506233,0.9814927426853579,0.2840792,0.7403169116994303
0.0665,1.6894437500000001,1.0,2639.3777227675396,0.5267519493939381,1.2846427685279707,0.9816401793054634,0.2840096375,0.7416406069028447
0.067,1.687775,1.0,2637.2510114791635,0.52940649664512,1.283908801720277,0.981784247098309,0.28393955,0.7429712764851926
0.0675,1.68609375,1.0,2635.1371365313444,0.5320461541017175,1.283169078932487,0.9819250335076628,0.2838689375,0.7443089054098436
0.068,1.6844000000000001,1.0,2633.034916063653,0.5346710051756288,1.2824236109689076,0.9820626251124893,0.2837978,0.7456533927528162
0.0685,1.68269375,1.0,2630.943532276361,0.5372811328915776,1.2816724052811785,0.9821971053201833,0.2837261375,0.7470046431859552
0.069,1.680975,1.0,2628.862059758287,0.5398766198858951,1.2809154703300405,0.9823285547016711,0.28365395,0.7483625590856254
0.0695,1.67924375,1.0,2626.791918722627,0.5424575482107444,1.2801527928564285,0.9824570500313521,0.28358123749999997,0.7497270811694614
0.07,1.6775,1.0,2624.7319721368062,0.5450239996133334,1.2793843832846725,0.9825826665627275,0.283508,0.7510981070683775
0.07050000000000001,1.67574375,1.0,2622.6849324169893,0.5475760552027373,1.278610216360511,0.9827054753344122,0.2834342375,0.7524755973837666
0.07100000000000001,1.6739763478448892,1.0,2620.715686061815,0.5501137958209508,1.2778302987427006,0.9828255464518052,0.28336000660948535,0.7538594550399929
0.07150000000000001,1.6722071526809967,1.0,2619.25229987012,0.5526373017301429,1.2770448841657212,0.9829429589359556,0.28328570041260187,0.7552491459107211
0.07200000000000001,1.670437957517104,1.0,2618.338310553116,0.5551466523838675,1.2762543744001247,0.9830577959668712,0.2832113942157184,0.7566438795433538
0.0725,1.6686687623532113,1.0,2617.926569196922,0.5576419275759632,1.275459204379154,0.9831701396765784,0.28313708801883486,0.7580428148048581
0.073,1.6668995671893185,1.0,2617.9702193005246,0.5601232071220692,1.2746598078869498,0.9832800696547045,0.2830627818219514,0.7594451209550506
0.0735,1.665130372025426,1.0,2618.4362853246425,0.5625905686646674,1.2738564910542092,0.9833876572905698,0.2829884756250679,0.7608501986845531
0.074,1.6633611768615333,1.0,2619.2918877427815,0.5650440898462399,1.2730495600116287,0.9834929718210516,0.28291416942818437,0.7622574546474999
0.0745,1.6615919816976406,1.0,2620.5042174716255,0.5674838483092686,1.2722393208899048,0.9835960804175795,0.2828398632313009,0.7636663015350876
0.075,1.6598227865337478,1.0,2622.0413312408127,0.5699099214591427,1.2714260722255923,0.9836970479231704,0.2827655570344174,0.7650761712888633
