Time [s],Phi [rad],STIM [ ],Fsee [N],Gamma [ ],Lcerel [ ],q [ ],Lmtc [m],fisomrel [ ]
0.0,1.8,1.0,17.967424456579188,2.252316473757888e-05,1.3793397163865584,0.005000134339019127,0.288653,0.541139603226293
0.0005,1.79999375,1.0,18.280956591678095,0.005631606136394262,1.3793019198957517,0.012975317747442355,0.2886527375,0.5412310381485868
0.001,1.799975,1.0,21.63190018481966,0.01120922658743979,1.3789369216007108,0.035673864314518515,0.28865195,0.5421135505350024
0.0015,1.79994375,1.0,31.10248573992954,0.016755560998612255,1.3780433717231584,0.07069105950431216,0.2886506375,0.5442704371689602
0.002,1.7999,1.0,53.654949487198955,0.022270784858976107,1.3763634258538,0.11482365280626015,0.2886488,0.5483117719374719
0.0025,1.79984375,1.0,97.24153860165272,0.027755072673577068,1.3739292612754541,0.16468979039398696,0.28864643749999996,0.5541355470726823
0.003,1.7997750000000001,1.0,161.11821332044485,0.03320859797104068,1.3712083545519256,0.21739898791138856,0.28864354999999997,0.5606006298177677
0.0035,1.79969375,1.0,237.86445043969465,0.03863153330325614,1.3685791563544285,0.2707307845879877,0.2886401375,0.5668029512151076
0.004,1.7996,1.0,321.65965272331664,0.04402405025613482,1.3661509844710882,0.3230299584021366,0.2886362,0.572491889575424
0.0045000000000000005,1.7994937500000001,1.0,409.46763164378166,0.049386319454801486,1.3639181227737789,0.3731428733824533,0.2886317375,0.5776900507551301
0.005,1.799375,1.0,499.6175474264672,0.05471851055470847,1.3618540068872942,0.42034884627346003,0.28862675,0.5824670845013076
0.0055,1.79924375,1.0,590.9963865759066,0.060020792288613234,1.3599348112453422,0.4642675661099014,0.2886212375,0.5868843483857777
0.006,1.7991000000000001,1.0,682.7244202032836,0.06529333241098739,1.3581426648300166,0.5047662265185296,0.2886152,0.5909879835091021
0.006500000000000001,1.79894375,1.0,774.088503006698,0.07053629775009627,1.3564637160434878,0.5418796130895275,0.2886086375,0.5948138365576139
0.007,1.798775,1.0,864.4934477385145,0.07574985420800057,1.3548870412024148,0.5757486125635849,0.28860155,0.5983902678143992
0.0075,1.79859375,1.0,953.4481670588563,0.0809341667190663,1.3534036269924137,0.6065752404159515,0.2885939375,0.6017406773871394
0.008,1.7984,1.0,1040.5615761512506,0.08608939935757529,1.3520056559348221,0.6345913935785014,0.2885858,0.6048852620851264
0.0085,1.79819375,1.0,1125.5187109598476,0.09121571519772924,1.3506863468962096,0.6600382882618212,0.2885771375,0.607841473535049
0.009000000000000001,1.797975,1.0,1208.0805274522863,0.0963132764721547,1.3494395709169422,0.6831532752161678,0.28856795,0.610624956241656
0.0095,1.79774375,1.0,1288.0568202819081,0.10138224419975352,1.3482599455821587,0.7041621906213161,0.2885582375,0.6132493950992088
0.01,1.7975,1.0,1365.3455082386715,0.10642277960016237,1.3471420916739947,0.7232748124952318,0.288548,0.6157282148858543
0.0105,1.79724375,1.0,1439.8380632783033,0.1114350413849175,1.3460817115901724,0.7406836248808604,0.2885372375,0.618072222266635
0.011,1.796975,1.0,1511.482681507785,0.11641918804971146,1.3450745935173438,0.7565629488253537,0.28852595000000003,0.6202918523878824
0.0115,1.79669375,1.0,1580.2671271386118,0.12137537746942707,1.3441167375339649,0.7710695864808098,0.2885141375,0.6223969099138403
0.012,1.7964,1.0,1646.2097074967826,0.12630376720308403,1.343204377710507,0.7843439065850683,0.28850180000000003,0.6243965405623204
0.0125,1.79609375,1.0,1709.3179548085745,0.13120451241247325,1.3423343809760264,0.7965113268338698,0.2884889375,0.6262983788321455
0.013000000000000001,1.7957750000000001,1.0,1769.629242932004,0.13607776797847865,1.3415036877272764,0.8076834654231418,0.28847555,0.6281097935863231
0.0135,1.79544375,1.0,1827.196502350757,0.14092368805175964,1.3407094288525077,0.8179595962240259,0.2884616375,0.6298376437850702
0.014,1.7951000000000001,1.0,1882.103399704409,0.1457424272336638,1.3399487133313825,0.8274279041599278,0.2884472,0.631488750970464
0.0145,1.79474375,1.0,1934.4069315423715,0.1505341372561787,1.339219221636667,0.8361669403024201,0.2884322375,0.6330686214037431
0.015,1.794375,1.0,1984.1697342536354,0.15529896908101606,1.338518799374573,0.8442465812659166,0.28841675,0.6345823420599412
0.0155,1.79399375,1.0,2031.473002590631,0.16003707366988754,1.3378452921513138,0.8517289875995103,0.2884007375,0.6360349444234485
0.016,1.7936,1.0,2076.39611267665,0.16474860088767676,1.3371967411878753,0.8586695756780761,0.2883842,0.6374309876666997
0.0165,1.7931937500000001,1.0,2119.046322760738,0.16943370127692553,1.3365710515137843,0.8651177142778101,0.2883671375,0.6387752783255918
0.017,1.792775,1.0,2159.494699432014,0.17409252204046297,1.3359666400036199,0.8711176294107478,0.28834955,0.6400714821577745
0.0175,1.7923437500000001,1.0,2197.8162287330224,0.17872520995770189,1.3353819937031277,0.8767088815312046,0.2883314375,0.6413230813128674
0.018000000000000002,1.7919,1.0,2234.0955984523143,0.18333191180805505,1.3348155996580537,0.8819268943809729,0.2883128,0.6425335275051591
0.0185,1.79144375,1.0,2268.4145153777563,0.18791277319464175,1.3342660631242027,0.8868034679600985,0.2882936375,0.6437059918477249
0.019,1.790975,1.0,2300.869146075191,0.19246794081964932,1.3337319230319176,0.8913671520276673,0.28827395,0.644843761318298
0.0195,1.79049375,1.0,2331.5313791322733,0.1969975579339726,1.3332120285216915,0.8956437077452809,0.2882537375,0.6459494389300364
0.02,1.79,1.0,2360.471280101157,0.20150176696548516,1.332705303479534,0.8996563671655314,0.288233,0.6470254497340281
0.0205,1.78949375,1.0,2387.7640693510184,0.20598071034206045,1.3322106717914548,0.9034260999916516,0.2882117375,0.6480742013643823
0.021,1.788975,1.0,2413.4867766494303,0.21043452992486048,1.3317270854664742,0.9069718704635782,0.28818995000000003,0.6490980254079034
0.021500000000000002,1.78844375,1.0,2437.7127940843375,0.2148633669668294,1.331253572379981,0.9103108672094644,0.2881676375,0.6500990777598874
0.022,1.7879,1.0,2460.5185933343414,0.21926736364351532,1.3307891666064975,0.9134586814054477,0.2881448,0.6510794874227642
0.0225,1.78734375,1.0,2481.9611459845028,0.2236466575921785,1.330333120387839,0.9164295163183139,0.28812143749999997,0.6520409106340352
0.023,1.786775,1.0,2502.1001342473946,0.22800138645007925,1.3298846859658204,0.9192362925278046,0.28809755,0.6529849935115818
0.0235,1.78619375,1.0,2520.997724978446,0.23233168785447783,1.3294431155822566,0.9218907815122829,0.28807313749999996,0.6539133724344897
0.024,1.7856,1.0,2538.7183560885064,0.2366376994426345,1.3290076614789623,0.9244037237270761,0.2880482,0.654827674388216
0.0245,1.78499375,1.0,2555.315371709636,0.24091955577985777,1.3285776995610075,0.9267849534778195,0.2880227375,0.6557292581351923
0.025,1.784375,1.0,2570.857244678362,0.24517739684543854,1.3281524801595384,0.9290434501622374,0.28799675,0.6566197377715044
0.025500000000000002,1.78374375,1.0,2585.3922129470757,0.24941135663851016,1.3277314586787605,0.9311874730761013,0.2879702375,0.6575002901539919
0.026000000000000002,1.7831000000000001,1.0,2598.9631640869156,0.2536215673410759,1.3273141527086576,0.9332246091238601,0.2879432,0.6583719561116504
0.0265,1.78244375,1.0,2611.6141305719216,0.25780816113513894,1.326900079839213,0.9351618280401298,0.2879156375,0.6592357710494776
0.027,1.781775,1.0,2623.390192239547,0.26197127020270267,1.32648875766041,0.9370055408731147,0.28788755,0.6600927650553636
0.0275,1.7810937500000001,1.0,2634.3373839107308,0.26611102672577036,1.3260797037622323,0.9387616522140746,0.2878589375,0.6609439629921392
0.028,1.7804,1.0,2644.5020870455273,0.270227562629953,1.3256724405470055,0.9404356075138521,0.2878298,0.6617903745795828
0.0285,1.77969375,1.0,2653.9221620289863,0.2743210052913955,1.3252665761739326,0.9420324448053694,0.2878001375,0.6626328266074213
0.029,1.778975,1.0,2662.650063647108,0.27839149128239826,1.3248615904221306,0.9435568062321236,0.28776995,0.6634724077436349
0.029500000000000002,1.7782437500000001,1.0,2670.715621264086,0.28243914686811716,1.324457177130989,0.9450130131360875,0.2877392375,0.6643097583169326
0.03,1.7775,1.0,2678.1491314215336,0.2864640983137084,1.324053030139898,0.9464050685758314,0.287708,0.6651455154883621
0.0305,1.77674375,1.0,2684.9813166724352,0.290466471884328,1.3236488432882474,0.9477366848086408,0.2876762375,0.6659803132595009
0.031,1.775975,1.0,2691.243286492786,0.2944463938451321,1.3232443104154272,0.9490113080752051,0.28764395,0.666814782474665
0.0315,1.7751937500000001,1.0,2696.966500271818,0.29840399046127675,1.3228391253608274,0.9502321409808587,0.2876111375,0.667649550817143
0.032,1.7744,1.0,2702.182732380127,0.302339387997918,1.3224329819638374,0.9514021627324432,0.2875778,0.6684852427994507
0.0325,1.77359375,1.0,2706.909701027863,0.3062527059868134,1.3220257049359974,0.9525241611188326,0.2875439375,0.6693222109708992
0.033,1.772775,1.0,2711.187565284327,0.31014407597776733,1.3216169162010993,0.9536007140913062,0.28750955,0.6701612219811705
0.0335,1.7719437500000002,1.0,2715.047909522455,0.3140136240907367,1.321206318125266,0.9546342344828069,0.2874746375,0.6710028737130435
0.034,1.7711000000000001,1.0,2718.509291348443,0.31786146981259666,1.3207937335073723,0.9556269871188582,0.2874392,0.6718475144846972
0.0345,1.7702437500000001,1.0,2721.5904099060513,0.3216877326302223,1.3203789851462928,0.9565810886694031,0.2874032375,0.672695490678034
0.035,1.7693750000000001,1.0,2724.310091850233,0.32549253203048867,1.3199618958409027,0.9574985190723659,0.28736675,0.6735471467152274
0.035500000000000004,1.76849375,1.0,2726.6872780179674,0.32927598750027093,1.3195422883900767,0.958381131949844,0.2873297375,0.6744028250332688
0.036000000000000004,1.7676,1.0,2728.741010794232,0.3330382185264441,1.3191199855926896,0.9592306641162345,0.2872922,0.6752628660565101
0.0365,1.76669375,1.0,2730.490422174859,0.33677934459588327,1.3186948102476164,0.9600487442668421,0.2872541375,0.6761276081672061
0.037,1.765775,1.0,2731.954722525285,0.3404994851954636,1.3182665851537314,0.9608369009260181,0.28721555,0.6769973876740518
0.0375,1.76484375,1.0,2733.153190035488,0.34419875981206016,1.3178351331099103,0.9615965697255011,0.2871764375,0.6778725387787169
0.038,1.7639,1.0,2734.0977715762538,0.3478772786584549,1.3174003440243836,0.9623291046003705,0.28713679999999997,0.6787532576951625
0.0385,1.76294375,1.0,2734.8114137549123,0.3515351696929406,1.3169620083272942,0.9630357733355427,0.28709663750000003,0.6796399402969653
0.039,1.761975,1.0,2735.3066470144745,0.3551725473367388,1.3165200114210773,0.9637177754257165,0.28705595,0.6805327881696464
0.0395,1.7609937500000001,1.0,2735.594609372181,0.35878952408085335,1.3160742516393071,0.9643762415891651,0.2870147375,0.6814319752890687
0.04,1.76,1.0,2735.6864656400676,0.362386212416288,1.315624627315558,0.9650122376947563,0.286973,0.6823376742089129
0.0405,1.7589937500000001,1.0,2735.593403297154,0.36596272483404657,1.315171036783404,0.965626769164981,0.2869307375,0.683250056035951
0.041,1.757975,1.0,2735.32662858994,0.3695191738251328,1.3147133783764189,0.9662207850353794,0.28688795,0.6841692904046588
0.0415,1.75694375,1.0,2734.897362862564,0.3730556718805504,1.3142515504281773,0.9667951817004841,0.2868446375,0.6850955454511695
0.042,1.7559,1.0,2734.3168391161917,0.3765723314913032,1.3137854512722533,0.9673508063734877,0.28680079999999997,0.68602898778657
0.0425,1.75484375,1.0,2733.5962987974394,0.380069265148395,1.313314979242221,0.967888460284245,0.2867564375,0.6869697824695365
0.043000000000000003,1.753775,1.0,2732.745021916807,0.3835465816335453,1.3128400505393991,0.9684089025019977,0.28671155,0.6879180573294204
0.043500000000000004,1.75269375,1.0,2731.7651374807456,0.38700437914475116,1.3123606463753412,0.9689128553472802,0.28666613750000003,0.6888738092984026
0.044,1.7516,1.0,2730.6782069530336,0.39044279403233273,1.3118765714358154,0.9694009950521126,0.2866202,0.6898373858081657
0.0445,1.75049375,1.0,2729.4896780409676,0.39386193091355154,1.3113877767849453,0.9698739692497608,0.2865737375,0.6908088407810238
0.045,1.7493750000000001,1.0,2728.204999666616,0.39726189440566917,1.3108942134868544,0.9703323922426151,0.28652675,0.6917882271058361
0.0455,1.74824375,1.0,2726.8296209891373,0.40064278912594714,1.3103958326056668,0.9707768470384301,0.2864792375,0.6927755966231979
0.046,1.7471,1.0,2725.368990480523,0.404004719691647,1.309892585205506,0.9712078872431507,0.2864312,0.6937710001104851
0.0465,1.7459437500000001,1.0,2723.8285550542028,0.40734779072003025,1.309384422350496,0.9716260388217165,0.28638263750000004,0.6947744872667407
0.047,1.744775,1.0,2722.2137592466174,0.4106721068283586,1.3088712951047603,0.9720318017372198,0.28633355,0.6957861066974109
0.0475,1.74359375,1.0,2720.530044452374,0.4139777726338934,1.3083531545324232,0.9724256514778958,0.28628393750000003,0.6968059058989271
0.048,1.7424,1.0,2718.782848211775,0.41726489275389633,1.3078299516976077,0.9728080404806007,0.2862338,0.6978339312431393
0.0485,1.74119375,1.0,2716.977603552264,0.4205335718056289,1.3073016376644382,0.9731793994586969,0.2861831375,0.6988702279615892
0.049,1.739975,1.0,2715.1197383821104,0.42378391440635266,1.306768163497038,0.9735401386415882,0.28613195,0.6999148401296382
0.0495,1.73874375,1.0,2713.2146749377494,0.42701602517332915,1.3062294802595313,0.9738906489325361,0.2860802375,0.7009678106504378
0.05,1.7375,1.0,2711.267829284474,0.43023000872381995,1.3056855390160418,0.9742313029908504,0.286028,0.70202918123875
0.0505,1.73624375,1.0,2709.2819897156155,0.433425949449139,1.3051363147447155,0.9745624555240981,0.2859752375,0.7030989458673914
0.051000000000000004,1.734975,1.0,2707.26179521567,0.43660397045794835,1.3045817655043177,0.9748844482765902,0.28592195,0.7041771304919414
0.051500000000000004,1.73369375,1.0,2705.2104151111234,0.43976417591630773,1.304021862716285,0.975197606197699,0.2858681375,0.7052637340258942
0.052000000000000005,1.7324,1.0,2703.130279734338,0.4429066621019469,1.3034565845140833,0.9755022391975143,0.2858138,0.7063587414382877
0.0525,1.73109375,1.0,2701.0238162452633,0.4460315252925956,1.3028859090311788,0.9757986433921224,0.28575893750000003,0.7074621368314937
0.053,1.729775,1.0,2698.8934485055324,0.4491388617659836,1.3023098144010377,0.9760871018340869,0.28570355000000003,0.708573903433706
0.0535,1.72844375,1.0,2696.7415969639787,0.45222876779984067,1.301728278757126,0.9763678851981745,0.2856476375,0.7096940235913969
0.054,1.7271,1.0,2694.570678552264,0.4553013396718966,1.3011412802329096,0.9766412524254243,0.2855912,0.7108224787617481
0.0545,1.7257437500000001,1.0,2692.3831065909435,0.4583566736598812,1.300548796961855,0.9769074513284232,0.2855342375,0.7119592495050435
0.055,1.724375,1.0,2690.18129070669,0.4613948660415241,1.299950807077428,0.9771667191604297,0.28547675,0.7131043154770396
0.0555,1.72299375,1.0,2687.9676367596903,0.46441601309455516,1.2993472887130948,0.9774192831507911,0.2854187375,0.714257655421298
0.056,1.7216,1.0,2685.744546781875,0.4674202110967042,1.2987382200023214,0.977665361008909,0.2853602,0.7154192471614943
0.0565,1.72019375,1.0,2683.514418925553,0.47040755632570086,1.298123579078574,0.9779051613988496,0.28530113749999997,0.7165890675936903
0.057,1.718775,1.0,2681.2796474227753,0.473378145059275,1.2975033440753185,0.9781388843865266,0.28524155,0.7177670926785799
0.0575,1.71734375,1.0,2679.04262255527,0.47633207357515633,1.2968774931260212,0.9783667218612588,0.2851814375,0.718953297433703
0.058,1.7159,1.0,2676.801128378124,0.4792693934684598,1.296246046606684,0.9785888564215699,0.2851208,0.7201475761157856
0.0585,1.71444375,1.0,2674.559654928348,0.4821902433598998,1.295608963349801,0.9788054674436635,0.2850596375,0.7213499387348727
0.059000000000000004,1.7129750000000001,1.0,2672.320584562005,0.4850947307810949,1.2949662214807953,0.9790167255030866,0.28499795,0.7225603577338725
0.059500000000000004,1.71149375,1.0,2670.08445530421,0.4879829425986274,1.2943178160382016,0.9792227936128962,0.2849357375,0.7237787728396152
0.06,1.71,1.0,2667.8518042777314,0.4908549656790795,1.2936637420605552,0.979423828405196,0.284873,0.7250051230835194
0.0605,1.7084937500000001,1.0,2665.6231677055466,0.49371088688903353,1.2930039945863903,0.979619980428412,0.2848097375,0.7262393467998042
0.061,1.7069750000000001,1.0,2663.3990809136876,0.4965507930950718,1.2923385686542421,0.9798113944285011,0.28474595,0.7274813816236894
0.0615,1.7054437500000001,1.0,2661.1800783343065,0.4993747711637765,1.2916674593026454,0.9799982096150787,0.2846816375,0.7287311644896037
0.062,1.7039,1.0,2658.966693510323,0.5021829079617299,1.2909906615701348,0.9801805599133805,0.2846168,0.7299886316293855
0.0625,1.70234375,1.0,2656.7594590989997,0.5049752903555144,1.290308170495245,0.9803585742029115,0.2845514375,0.7312537185704839
0.063,1.7007750000000001,1.0,2654.5589068776185,0.507752005211712,1.2896199811165114,0.9805323765435844,0.28448555,0.7325263601341567
0.0635,1.69919375,1.0,2652.3655677490165,0.5105131393969052,1.2889260884724683,0.9807020863900849,0.28441913750000003,0.7338064904336717
0.064,1.6976,1.0,2650.1799717471595,0.5132587797776763,1.2882264876016505,0.980867818795165,0.2843522,0.7350940428724988
0.0645,1.69599375,1.0,2648.002648044581,0.5159890132206074,1.287521173542593,0.9810296846025073,0.2842847375,0.7363889501425066
0.065,1.694375,1.0,2645.8341249589766,0.5187039265922809,1.2868101413338309,0.9811877906297716,0.28421675,0.7376911442221555
0.0655,1.69274375,1.0,2643.674929961222,0.521403606759279,1.2860933860138983,0.9813422398423883,0.2841482375,0.7390005563746893
0.066,1.6911,1.0,2641.5255896836393,0.524088140588184,1.2853709026213307,0.9814931315186289,0.2840792,0.7403171171463234
0.0665,1.6894437500000001,1.0,2639.386629929105,0.526757614945578,1.2846426861946623,0.981640561406453,0.2840096375,0.7416407563644357
0.067,1.687775,1.0,2637.2585756796025,0.5294121166980436,1.2839087317724285,0.9817846218725922,0.28393955,0.7429714031357502
0.0675,1.68609375,1.0,2635.141951107325,0.5320517327121629,1.2831690343931637,0.9819254020443127,0.2838689375,0.7443089858445259
0.068,1.6844000000000001,1.0,2633.0358350897686,0.5346765355036509,1.2824236024636615,0.9820629876412029,0.2837978,0.7456534080722185
0.0685,1.68269375,1.0,2630.937559856017,0.5372865816887196,1.2816724605757155,0.9821974611721453,0.2837261375,0.7470045438559375
0.069,1.680975,1.0,2628.853022934453,0.5398820107430302,1.2809155540289243,0.9823289039169517,0.28365395,0.7483624091346381
0.0695,1.67924375,1.0,2626.782010321604,0.5424628998594971,1.2801528846640058,0.9824573930221312,0.28358123749999997,0.7497269171378709
0.07,1.6775,1.0,2624.7243084203965,0.5450293262310343,1.2793844543216772,0.982583003028154,0.283508,0.7510979804954676
0.07050000000000001,1.67574375,1.0,2622.6797040352003,0.5475813670505559,1.278610264842656,0.9827058059736822,0.2834342375,0.7524755112382177
0.07100000000000001,1.673975,1.0,2620.6479843670754,0.5501190995109762,1.2778303180676598,0.9828258714949472,0.28335995,0.7538594207985427
0.07150000000000001,1.67219375,1.0,2618.628937009288,0.5526426008052091,1.2770446158374062,0.9829432669205271,0.2832851375,0.7552496200111735
0.07200000000000001,1.6704,1.0,2616.622349942897,0.555151948126169,1.2762531599926124,0.9830580573617665,0.2832098,0.7566460191138269
0.0725,1.66859375,1.0,2614.6280115319078,0.5576472186667697,1.2754559523739961,0.9831703057990663,0.2831339375,0.7580485277478788
0.073,1.6667750000000001,1.0,2612.645710519267,0.5601284896199258,1.274652994822275,0.9832800731642578,0.28305755,0.7594570549590416
0.0735,1.66494375,1.0,2610.6752360223904,0.5625958381785511,1.273844289178166,0.9833874184192632,0.2829806375,0.7608715091980388
0.074,1.6631,1.0,2608.7163775286654,0.5650493415355597,1.2730298372823874,0.9834923986312326,0.2829032,0.7622917983212789
0.0745,1.6612437500000001,1.0,2606.7689248919005,0.5674890768838661,1.272209640975656,0.9835950690443355,0.2828252375,0.7637178295915321
0.075,1.659375,1.0,2604.8326683276887,0.5699151214163841,1.2713837020986898,0.9836954831483774,0.28274675,0.7651495096786021
0.0755,1.65749375,1.0,2602.9073984096535,0.572327552326028,1.270552022492206,0.9837936927444026,0.2826677375,0.7665867446600028
