Time [s],Phi [rad],STIM [ ],Fsee [N],Gamma [ ],Lcerel [ ],q [ ],Lmtc [m],fisomrel [ ]
0.0,1.8,1.0,17.966481148504982,1.0000024059957678e-05,1.3793398220692135,0.005000026651905511,0.288653,0.5411393475526067
0.0005,1.79999375,1.0,18.27587567994541,0.005619153240628027,1.3793024842603314,0.012940515949453418,0.2886527375,0.541229672939863
0.001,1.799975,1.0,21.61753176811936,0.011196843542572995,1.3789383889080595,0.03560858289264273,0.28865195,0.5421100045017992
0.0015,1.79994375,1.0,31.06829895675397,0.016743247412830904,1.378046283562808,0.070601715861996,0.2886506375,0.5442634167230516
0.002,1.7999,1.0,53.5811713152714,0.022258540342685387,1.3763682106092308,0.11471784987065425,0.2886488,0.5483002871262939
0.0025,1.79984375,1.0,97.11735954786909,0.027742896839333592,1.3739352433046759,0.164574687318064,0.28864643749999996,0.5541212812967886
0.003,1.7997750000000001,1.0,160.95650368148134,0.03319649043360157,1.3712144060093225,0.21728023954551684,0.28864354999999997,0.5605863034794192
0.0035,1.79969375,1.0,237.68167146319627,0.03861949367953659,1.368584785368092,0.27061267298898456,0.2886401375,0.5667897193723139
0.004,1.7996,1.0,321.46516868714804,0.0440120781651892,1.3661561348443423,0.3229155914226291,0.2886362,0.5724798626143235
0.0045000000000000005,1.7994937500000001,1.0,409.2662313140764,0.049374414517797637,1.363922849834486,0.37303430712546054,0.2886317375,0.5776790796184509
0.005,1.799375,1.0,499.41205784359283,0.05470667239488172,1.361858373081104,0.42024727289553115,0.28862675,0.5824570083899763
0.0055,1.79924375,1.0,590.7890412618574,0.06000902053168435,1.3599388619192936,0.46417352443124416,0.2886212375,0.5868750500007771
0.006,1.7991000000000001,1.0,682.5168039251411,0.06528162668437991,1.3581464384579824,0.5046798026919294,0.2886152,0.5909793642215007
0.006500000000000001,1.79894375,1.0,773.8798265360507,0.0705246576860787,1.3564672780509441,0.5418006173452661,0.2886086375,0.5948057387721648
0.007,1.798775,1.0,864.2847589412223,0.07573827942798123,1.3548904119937841,0.5756766484477492,0.28860155,0.5983826386316395
0.0075,1.79859375,1.0,953.242267796088,0.0809226568731238,1.3534067937664396,0.6065097959304259,0.2885939375,0.6017335399225934
0.008,1.7984,1.0,1040.3575374950021,0.08607795406049651,1.3520086598469998,0.6345319511476865,0.2885858,0.6048785184716812
0.0085,1.79819375,1.0,1125.3189467298603,0.09120433411031191,1.3506891746918177,0.6599842948927802,0.2885771375,0.6078351490879201
0.009000000000000001,1.797975,1.0,1207.8845901917605,0.09630195922010239,1.3494422480754054,0.6831042205385014,0.28856795,0.6106189899872668
0.0095,1.79774375,1.0,1287.8724922491792,0.10137099058299336,1.3482623846663628,0.7041175354502885,0.2885582375,0.6132439777630687
0.01,1.7975,1.0,1365.1646467797161,0.10641158896008739,1.3471444161577097,0.7232341698417136,0.288548,0.615723068656004
0.0105,1.79724375,1.0,1439.6607703292668,0.11142391336166968,1.3460839304781989,0.740646585543075,0.2885372375,0.618067324823856
0.011,1.796975,1.0,1511.3086153115278,0.11640812222673878,1.3450767197595446,0.7565291454462502,0.28852595000000003,0.6202871730867117
0.0115,1.79669375,1.0,1580.112539861406,0.12136437422950597,1.3441185842771048,0.7710386002618292,0.2885141375,0.6223928569997484
0.012,1.7964,1.0,1646.066412587756,0.12629282573681744,1.3432060549111147,0.7843154922055656,0.28850180000000003,0.6243928694909087
0.0125,1.79609375,1.0,1709.178732581767,0.13119363210180637,1.342335980141373,0.7964852583792977,0.2884889375,0.6262948874382828
0.013000000000000001,1.7957750000000001,1.0,1769.4936456892196,0.136066948599119,1.3415052184813125,0.8076595095081751,0.28847555,0.6281064596620887
0.0135,1.79544375,1.0,1827.0742998196363,0.1409129296090625,1.3407107864849683,0.8179375014845225,0.2884616375,0.6298346937907983
0.014,1.7951000000000001,1.0,1881.9879562549086,0.1457317292817414,1.3399499770244223,0.827407515227813,0.2884472,0.6314860112279808
0.0145,1.79474375,1.0,1934.287847670742,0.1505234990438391,1.33922050743568,0.8361481316214906,0.2884322375,0.6330658397164535
0.015,1.794375,1.0,1984.0482015399753,0.1552883903220389,1.3385200950547467,0.8442291976725865,0.28841675,0.6345795447835627
0.0155,1.79399375,1.0,2031.350524291432,0.16002655361857765,1.3378465826202166,0.8517128892551766,0.2884007375,0.63603216394082
0.016,1.7936,1.0,2076.2929053423154,0.16473814043227036,1.3371978167815322,0.8586545786642413,0.2883842,0.6374286746102305
0.0165,1.7931937500000001,1.0,2118.9575437144736,0.16942329999160982,1.33657196738029,0.8651037337468667,0.2883671375,0.6387733124163297
0.017,1.792775,1.0,2159.412159297071,0.17408217922165756,1.335967483494966,0.8711045986892391,0.28834955,0.640069674853507
0.0175,1.7923437500000001,1.0,2197.7352290397685,0.1787149250474751,1.3353828142040354,0.8766967303601797,0.2883314375,0.6413213263283849
0.018000000000000002,1.7919,1.0,2234.015084821597,0.18332168439412397,1.3348164085859746,0.8819155495670837,0.2883128,0.6425318001963958
0.0185,1.79144375,1.0,2268.33718730841,0.187902602896114,1.3342668341466777,0.8867928538865708,0.2882936375,0.6437043481809869
0.019,1.790975,1.0,2300.7957515035823,0.19245782734929787,1.333732649654383,0.8913572058531808,0.28827395,0.6448422147789056
0.0195,1.79049375,1.0,2331.4651591677834,0.19698750142580124,1.3332126797882418,0.8956343672851127,0.2882537375,0.6459480549373045
0.02,1.79,1.0,2360.4129213464325,0.2014917672364378,1.3327058739021267,0.8996475820771711,0.288233,0.647024239384637
0.0205,1.78949375,1.0,2387.7116369244322,0.20597076689202126,1.3322111813499113,0.9034178303665252,0.2882117375,0.6480731217668888
0.021,1.788975,1.0,2413.4385667158035,0.21042464250336532,1.3317275514854692,0.9069640798116968,0.28818995000000003,0.6490970394944369
0.021500000000000002,1.78844375,1.0,2437.664067513242,0.21485353439001545,1.3312540410467177,0.9103035279357518,0.2881676375,0.6500980876601385
0.022,1.7879,1.0,2460.470509738885,0.21925758530895686,1.3307896269405568,0.9134517570287276,0.2881448,0.6510785162899466
0.0225,1.78734375,1.0,2481.921007538864,0.22363693424242753,1.3303335029942078,0.9164229628425304,0.28812143749999997,0.6520401045904838
0.023,1.786775,1.0,2502.0706658386443,0.22799171828566145,1.3298849657305742,0.9192300781580091,0.28809755,0.65298440492646
0.0235,1.78619375,1.0,2520.9769923638796,0.23232207453389267,1.3294433116725597,0.921884885303027,0.28807313749999996,0.6539129604407421
0.024,1.7856,1.0,2538.699696747807,0.23662814008235522,1.3290078373430683,0.9243981343834118,0.2880482,0.654827305378945
0.0245,1.78499375,1.0,2555.3005006104113,0.24091005202628313,1.3285778392650034,0.9267796479396938,0.2880227375,0.6557289653824668
0.025,1.784375,1.0,2570.8321942937655,0.24516794393859456,1.3281527147789023,0.9290384293276711,0.28799675,0.6566192467577692
0.025500000000000002,1.78374375,1.0,2585.3611132367223,0.24940195552690608,1.3277317491357352,0.9311827121092203,0.2879702375,0.6574996830626005
0.026000000000000002,1.7831000000000001,1.0,2598.930093224906,0.25361221887015933,1.3273144607678786,0.933220085257753,0.2879432,0.6583713130492119
0.0265,1.78244375,1.0,2611.5820061098593,0.2577988656717975,1.3269003783569033,0.9351575218503597,0.2879156375,0.6592351486929637
0.027,1.781775,1.0,2623.360755850967,0.261962027635264,1.3264890305843793,0.9370014359666853,0.28788755,0.6600921967731896
0.0275,1.7810937500000001,1.0,2634.311188484705,0.26610183646400204,1.3260799461318769,0.9387577349493446,0.2878589375,0.6609434589624754
0.028,1.7804,1.0,2644.4790070199288,0.2702184238614549,1.325672653680966,0.9404318661434579,0.2878298,0.6617899319017782
0.0285,1.77969375,1.0,2653.8990492701646,0.2743119180270509,1.325266789231037,0.9420288728224511,0.2878001375,0.6626323846407276
0.029,1.778975,1.0,2662.6182410779174,0.278382452370288,1.3248618832867232,0.9435534035411623,0.28776995,0.6634718009802407
0.029500000000000002,1.7782437500000001,1.0,2670.6807550757703,0.28243015798963084,1.3244574975213512,0.945009763365183,0.2877392375,0.6643090953513469
0.03,1.7775,1.0,2678.115253796518,0.28645516052690717,1.324053341013847,0.946401958316175,0.287708,0.6651448730158269
0.0305,1.77674375,1.0,2684.9508132116734,0.2904575856239451,1.3236491228431368,0.9477337033647489,0.2876762375,0.6659797362336356
0.031,1.775975,1.0,2691.2168857792285,0.29443755892257223,1.3232445520881466,0.9490084472380672,0.28764395,0.6668142842644562
0.0315,1.7751937500000001,1.0,2696.9432653669924,0.2983952060646166,1.3228393378278027,0.9502293948218284,0.2876111375,0.667649113363858
0.032,1.7744,1.0,2702.160054053129,0.30233065269190607,1.3224331891410308,0.9513995274159062,0.2875778,0.6684848167740569
0.0325,1.77359375,1.0,2706.8976308028277,0.30624402444626847,1.3220258151067574,0.9525216210724199,0.2875439375,0.6693219847092745
0.033,1.772775,1.0,2711.1783877212333,0.31013544355357575,1.3216169999030043,0.9535982710315688,0.28750955,0.6701610502978028
0.0335,1.7719437500000002,1.0,2715.0322667083597,0.3140050363190957,1.3212064606906666,0.9546318918339526,0.2874746375,0.6710025816663752
0.034,1.7711000000000001,1.0,2718.488855588825,0.31785292731121206,1.3207939196361689,0.9556247382202386,0.2874392,0.6718471336877017
0.0345,1.7702437500000001,1.0,2721.5668221794135,0.32167923596623393,1.3203791998616077,0.9565789272966233,0.2874032375,0.6726950519644006
0.035,1.7693750000000001,1.0,2724.2849609739455,0.3254840817204706,1.3199621244890791,0.9574964394055152,0.28736675,0.6735466801416934
0.035500000000000004,1.76849375,1.0,2726.6621798962647,0.32926758401023104,1.3195425166406793,0.9583791285443436,0.2873297375,0.6744023598818277
0.036000000000000004,1.7676,1.0,2728.7174877459233,0.3330298622718246,1.3191201994385047,0.9592287318760664,0.2872922,0.6752624308365083
0.0365,1.76669375,1.0,2730.469982338804,0.33677103594156016,1.3186949960046515,0.9600468784199375,0.2872541375,0.6761272306173316
0.037,1.765775,1.0,2731.938839340244,0.34049122445574714,1.3182667294612158,0.960835097001618,0.28721555,0.676997094764226
0.0375,1.76484375,1.0,2733.137186661213,0.34419054403230637,1.3178352784775,0.9615948282817998,0.2871764375,0.6778722441171238
0.038,1.7639,1.0,2734.084216634791,0.3478691146837443,1.3174004671301915,0.9623274219089492,0.28713679999999997,0.6787530084997966
0.0385,1.76294375,1.0,2734.7999330023936,0.3515270548798527,1.316962112581719,0.9630341464457025,0.28709663750000003,0.6796397295527222
0.039,1.761975,1.0,2735.2960544209595,0.35516447815791585,1.3165201076015918,0.9637162020832735,0.28705595,0.6805325940174642
0.0395,1.7609937500000001,1.0,2735.5843312714724,0.35878149805521825,1.316074344959319,0.9643747193842699,0.2870147375,0.6814317871764585
0.04,1.76,1.0,2735.6765410438375,0.3623782281090442,1.3156247174244105,0.9650107640632813,0.286973,0.682337492827682
0.0405,1.7589937500000001,1.0,2735.584483977122,0.3659547818566782,1.315171117766375,0.9656253413903445,0.2869307375,0.68324989325859
0.041,1.757975,1.0,2735.319978954143,0.3695112728354046,1.3147134387547221,0.9662194002507013,0.28688795,0.6841691692193168
0.0415,1.75694375,1.0,2734.894859651547,0.3730478145825078,1.3142515731589615,0.966793836890995,0.2868446375,0.6850954998951464
0.042,1.7559,1.0,2734.317198048803,0.376564514497145,1.3137854480125666,0.9673495002293746,0.28680079999999997,0.6860289943097988
0.0425,1.75484375,1.0,2733.5993064755844,0.38006148908141274,1.3133149519240621,0.9678871914344056,0.2867564375,0.6869698370561947
0.043000000000000003,1.753775,1.0,2732.7535372226193,0.3835388548308437,1.3128399731845164,0.968407668601737,0.28671155,0.6879182116642573
0.043500000000000004,1.75269375,1.0,2731.786755828976,0.38699671879688063,1.312360449954599,0.9689116520562553,0.28666613750000003,0.6888742005872461
0.044,1.7516,1.0,2730.7058313847338,0.3904351880309662,1.311876320394981,0.9693998242635656,0.2866202,0.6898378851303799
0.0445,1.75049375,1.0,2729.5176350649394,0.39385436958454323,1.311387522666332,0.969872832190852,0.2865737375,0.690809345432795
0.045,1.7493750000000001,1.0,2728.229038747388,0.3972543705090543,1.3108939949293226,0.9703312894980946,0.28652675,0.6917886604492549
0.0455,1.74824375,1.0,2726.8469137153297,0.4006352978559422,1.310395675344623,0.9707757785733745,0.2864792375,0.6927759079316178
0.046,1.7471,1.0,2725.3781294455803,0.40399725867664954,1.3098925020729035,0.971206852424765,0.2864312,0.6937711644100621
0.0465,1.7459437500000001,1.0,2723.829552480567,0.40734036002261914,1.3093844132748345,0.971625036440199,0.28638263750000004,0.6947745051740639
0.047,1.744775,1.0,2722.2080453854883,0.4106647089452936,1.3088713471110862,0.9720308300256998,0.28633355,0.6957860042531343
0.0475,1.74359375,1.0,2720.5203692907485,0.41397041149166863,1.3083532426209261,0.9724247080646906,0.28628393750000003,0.6968057326695163
0.048,1.7424,1.0,2718.7712346200587,0.4172575499250842,1.3078300574687354,0.9728071207260814,0.2862338,0.6978337235930965
0.0485,1.74119375,1.0,2716.9690167296544,0.42052626490377293,1.3073017158951323,0.9731785015544738,0.2861831375,0.6988700746425618
0.049,1.739975,1.0,2715.116944958324,0.42377665548863896,1.3067681889553628,0.9735392615048564,0.28613195,0.6999147903222156
0.0495,1.73874375,1.0,2713.218245779984,0.4270088207405863,1.3062294477046725,0.9738897921923874,0.2860802375,0.7009678742298828
0.05,1.7375,1.0,2711.276142517795,0.430222859720519,1.305685463198307,0.9742304669745342,0.286028,0.7020293290473103
0.0505,1.73624375,1.0,2709.29385507669,0.4334188714893411,1.305136206491512,0.974561641963256,0.2859752375,0.7030991565305147
0.051000000000000004,1.734975,1.0,2707.274599695097,0.43659695510795665,1.304581648639533,0.9748836569723321,0.28592195,0.7041773575000768
0.051500000000000004,1.73369375,1.0,2705.221588714426,0.4397572096372697,1.304021760697616,0.9751968364045314,0.2858681375,0.7052639318313823
0.052000000000000005,1.7324,1.0,2703.1380303679402,0.4428997341381843,1.3034565137210068,0.9755014900829394,0.2858138,0.70635887844481
0.0525,1.73109375,1.0,2701.0271285879476,0.4460246276716044,1.3028858787649507,0.9757979140304169,0.28575893750000003,0.7074621952958662
0.053,1.729775,1.0,2698.892082830943,0.4491319892984342,1.3023098268846935,0.9760863912008451,0.28570355000000003,0.7085738793652635
0.0535,1.72844375,1.0,2696.7360879224057,0.45222191807957757,1.301728329135481,0.9763671921655284,0.2856476375,0.7096939266489503
0.054,1.7271,1.0,2694.562333919321,0.4552945130759387,1.3011413565725591,0.9766405757578708,0.2855912,0.7108223321480829
0.0545,1.7257437500000001,1.0,2692.374005991705,0.4583498733484216,1.300548880251173,0.9769067896791851,0.2855342375,0.7119590898589477
0.055,1.724375,1.0,2690.1742843223083,0.4613880979579303,1.2999508712265688,0.9771660710682927,0.28547675,0.7131041927628263
0.0555,1.72299375,1.0,2687.9606347264858,0.464409245100711,1.2993473528487907,0.9774186462652722,0.2854187375,0.7142575329796608
0.056,1.7216,1.0,2685.7384207595996,0.46741344643118266,1.2987382761373372,0.9776647348209404,0.2853602,0.7154191402120285
0.0565,1.72019375,1.0,2683.511899881474,0.47040081850448373,1.2981236021710914,0.9779045462775804,0.28530113749999997,0.7165890236879237
0.057,1.718775,1.0,2681.281927613452,0.4733714506581257,1.2975033231637123,0.978138280834567,0.28524155,0.717767132355063
0.0575,1.71734375,1.0,2679.0493580768757,0.47632543222962004,1.2968774313288598,0.9783661305273781,0.2851814375,0.7189534144374303
0.058,1.7159,1.0,2676.815043987162,0.47926285255647816,1.2962459188801938,0.9785882796239049,0.2851208,0.7201478174324925
0.0585,1.71444375,1.0,2674.57983664905,0.48218380097621144,1.2956087780313734,0.9788049049984655,0.2850596375,0.7213502881084126
0.059000000000000004,1.7129750000000001,1.0,2672.344585952649,0.48508836682633144,1.2949660009960589,0.9790161764849428,0.28499795,0.7225607725012533
0.059500000000000004,1.71149375,1.0,2670.1101403715084,0.4879766394443495,1.2943175799879096,0.9792222572103626,0.2849357375,0.7237792159121825
0.06,1.71,1.0,2667.8773469616085,0.49084870816777704,1.293663507220585,0.9794233039101443,0.284873,0.7250055629046728
0.0605,1.7084937500000001,1.0,2665.6470513618647,0.4937046623341256,1.2930037749077452,0.9796194672261619,0.2848097375,0.7262397573016945
0.061,1.7069750000000001,1.0,2663.4200977959977,0.4965445912809065,1.2923383752630497,0.979810891988676,0.28474595,0.7274817421829092
0.0615,1.7054437500000001,1.0,2661.1973290754977,0.4993685843456313,1.2916673005001578,0.9799977174831301,0.2846816375,0.728731459881858
0.062,1.7039,1.0,2658.979586604384,0.5021767308658114,1.2909905428327295,0.9801800777027303,0.2846168,0.7299888519831423
0.0625,1.70234375,1.0,2656.7677103848196,0.5049691201789581,1.2903080944744243,0.9803581015876635,0.2845514375,0.731253859319607
0.063,1.7007750000000001,1.0,2654.562539024396,0.507745841622583,1.289619947638902,0.9805319132517623,0.28448555,0.732526421969514
0.0635,1.69919375,1.0,2652.364909744895,0.5105069845341975,1.2889260945398222,0.9807016321973581,0.28441913750000003,0.7338064792537173
0.064,1.6976,1.0,2650.175658391515,0.5132526382513131,1.2882265273908444,0.9808673735190223,0.2843522,0.7350939697328278
0.0645,1.69599375,1.0,2647.995619444868,0.515982892111441,1.2875212384056285,0.9810292480968478,0.2842847375,0.7363888312043806
0.065,1.694375,1.0,2645.8256260330936,0.5186978354520928,1.286810219797834,0.9811873627798785,0.28421675,0.7376910006999943
0.0655,1.69274375,1.0,2643.666628276951,0.521397557205829,1.2860934626882135,0.9813418204777825,0.2841482375,0.7390004164766193
0.066,1.6911,1.0,2641.5197475491336,0.5240821385004365,1.2853709566011913,0.9814927197944764,0.2840792,0.7403170189047226
0.0665,1.6894437500000001,1.0,2639.38404580113,0.5267516615730976,1.2846427100810234,0.9816401568364681,0.2840096375,0.7416407130029672
0.067,1.687775,1.0,2637.2584666833664,0.5294062105443067,1.2839087327803405,0.9817842245058305,0.28393955,0.742971401310782
0.0675,1.68609375,1.0,2635.142054894264,0.5320458695249191,1.2831690334330381,0.9819250124089162,0.2838689375,0.7443089875784406
0.068,1.6844000000000001,1.0,2633.0374902923927,0.5346707222017055,1.2824235871453784,0.9820626054033658,0.2837978,0.745653435663064
0.0685,1.68269375,1.0,2630.943651390299,0.5372808515087804,1.2816724041783851,0.9821970870264172,0.2837261375,0.7470046451669912
0.069,1.680975,1.0,2628.8635471501507,0.5398763400728056,1.28091545655386,0.9823285361308071,0.28365395,0.7483625837663788
0.0695,1.67924375,1.0,2626.7936397356075,0.5424572699834564,1.2801527769101766,0.9824570316762087,0.28358123749999997,0.7497271096604491
0.07,1.6775,1.0,2624.7379704403784,0.5450237229288637,1.2793843276848904,0.9825826466708291,0.283508,0.751098206135401
0.07050000000000001,1.67574375,1.0,2622.692819460216,0.547575780093608,1.2786101432250148,0.9827054549461487,0.2834342375,0.7524757273346198
0.07100000000000001,1.6739766330477441,1.0,2620.7362005524315,0.5501135220985515,1.2778302372446368,0.9828255268979874,0.28336001858800525,0.7538595640069796
0.07150000000000001,1.672208022585568,1.0,2619.297478493254,0.5526370297093491,1.2770448578175915,0.9829429412948114,0.2832857369485938,0.755249192464383
0.07200000000000001,1.6704394121233919,1.0,2618.404668462825,0.5551463823106473,1.2762544154839857,0.9830577816904222,0.28321145530918246,0.7566438071607189
0.0725,1.6686708016612157,1.0,2618.013293898333,0.5576416592633808,1.2754593204459599,0.9831701290503551,0.2831371736697711,0.7580426109038584
0.073,1.6669021911990396,1.0,2618.1037423660537,0.5601229342737355,1.274659753682567,0.9832800512730826,0.28306289203035967,0.7594452159025242
0.0735,1.6651335807368635,1.0,2618.5995372433017,0.5625902943406084,1.27385642513133,0.9833876384860102,0.28298861039094825,0.7608503138210723
0.074,1.6633649702746873,1.0,2619.4633840499864,0.5650438183658513,1.2730496818988213,0.9834929616835583,0.2829143287515369,0.762257242394619
0.0745,1.6615963598125112,1.0,2620.6725156735015,0.5674835820096525,1.2722397368710527,0.9835960836602821,0.28284004711212546,0.763665579299681
0.075,1.659827749350335,1.0,2622.2042151327505,0.5699096609322011,1.2714268029340363,0.9836970653306719,0.28276576547271404,0.765074906406275
