Time [s],Phi [rad],STIM [ ],Fsee [N],Gamma [ ],Lcerel [ ],q [ ],Lmtc [m],fisomrel [ ]
0.0,1.8,1.0,18.206476130736,0.0004973311826921068,1.3793130232956288,0.00506391039380196,0.288653,0.5412041784385516
0.0005,1.79999375,1.0,18.66895877826761,0.006103750856901268,1.3792590516401833,0.014348654165285267,0.2886527375,0.5413347313424388
0.001,1.799975,1.0,22.372218457070552,0.011678722949414098,1.3788619685096057,0.03819314615147873,0.28865195,0.5422946709726612
0.0015,1.79994375,1.0,32.61852137471655,0.017222423857215643,1.3779158156310705,0.07411001008559859,0.2886506375,0.5445779218619349
0.002,1.7999,1.0,56.70957980151384,0.022735028985830137,1.3761681323154407,0.1188537232047317,0.2886488,0.5487804088976822
0.0025,1.79984375,1.0,102.19847448785293,0.028216712758406103,1.373693515959085,0.1690620644675418,0.28864643749999996,0.5546975641904881
0.003,1.7997750000000001,1.0,167.45618436098454,0.03366764861959812,1.3709735232597473,0.2219017694188997,0.28864354999999997,0.5611563936232453
0.0035,1.79969375,1.0,244.96316369070334,0.039088009040435516,1.3683621873507912,0.27520379491951913,0.2886401375,0.5673128154660096
0.004,1.7996,1.0,329.1758574748474,0.044477965525279634,1.3659531178221798,0.32735713543215356,0.2886362,0.5729538123604139
0.0045000000000000005,1.7994937500000001,1.0,417.2198975970669,0.04983768859384549,1.3637370450109692,0.3772478700860407,0.2886317375,0.578110210735613
0.005,1.799375,1.0,507.5166693339851,0.05516734791388493,1.3616868436180047,0.4241874483970426,0.28862675,0.5828527651583066
0.0055,1.79924375,1.0,598.9430519331736,0.060467111987824465,1.359780098072574,0.46782041654958945,0.2886212375,0.5872394165525798
0.006,1.7991000000000001,1.0,690.6712897276566,0.0657371486402586,1.3579986515861484,0.5080304872471924,0.2886152,0.5913168541533786
0.006500000000000001,1.79894375,1.0,781.9726760871908,0.07097762449123053,1.356329486972223,0.5448638617306141,0.2886086375,0.5951189308485724
0.007,1.798775,1.0,872.2785229690836,0.07618870547254998,1.3547615842077936,0.578467917833538,0.28860155,0.5986741657218642
0.0075,1.79859375,1.0,961.0997387289489,0.08137055639758224,1.3532861857127811,0.6090483153137236,0.2885939375,0.6020053283944973
0.008,1.7984,1.0,1048.037970331458,0.08652334106753368,1.3518957888319523,0.6368385426845155,0.2885858,0.6051318679921495
0.0085,1.79819375,1.0,1132.8138672123214,0.09164722302032281,1.3505832504747501,0.6620796561758799,0.2885771375,0.6080720168576486
0.009000000000000001,1.797975,1.0,1215.174238283887,0.09674236392261415,1.3493427928854254,0.6850084473408563,0.28856795,0.6108406028667437
0.0095,1.79774375,1.0,1294.9380651472832,0.10180892490271197,1.348169015412726,0.7058495074248472,0.2885582375,0.6134513287835874
0.01,1.7975,1.0,1371.996137643052,0.10684706663726962,1.3470567225269805,0.7248112482829582,0.288548,0.6159171918011176
0.0105,1.79724375,1.0,1446.262615505687,0.11185694858310327,1.3460013978649514,0.7420845040698376,0.2885372375,0.6182494664397309
0.011,1.796975,1.0,1517.679232054629,0.11683872878138483,1.3449989814076144,0.7578421580863988,0.28852595000000003,0.620458236057744
0.0115,1.79669375,1.0,1586.2279885972819,0.12179256466584755,1.3440455961703766,0.7722396268100354,0.2885141375,0.6225530221803897
0.012,1.7964,1.0,1651.9411107242317,0.12671861423499467,1.3431373540338074,0.7854158851234506,0.28850180000000003,0.6245432278911911
0.0125,1.79609375,1.0,1714.8327993816886,0.13161703284697632,1.3422710874405601,0.797495119729044,0.2884889375,0.6264365519842362
0.013000000000000001,1.7957750000000001,1.0,1774.927134739663,0.13648797473065394,1.3414439257940451,0.8085879288146471,0.28847555,0.6282399411299445
0.0135,1.79544375,1.0,1832.279498165953,0.14133159411488894,1.3406529984976738,0.8187925980869536,0.2884616375,0.6299602506841322
0.014,1.7951000000000001,1.0,1886.9547462809758,0.1461480443633128,1.3398956434217004,0.8281965169091816,0.2884472,0.6316037996905239
0.0145,1.79474375,1.0,1939.0451897196506,0.1509374790765465,1.3391691711532412,0.8368773196902989,0.2884322375,0.6331768920255848
0.015,1.794375,1.0,1988.6129521227865,0.15570004895429157,1.3384714567153977,0.8449042108568708,0.28841675,0.6346845439698874
0.0155,1.79399375,1.0,2035.7259266984665,0.1604359040766023,1.3378005061425333,0.8523387998864802,0.2884007375,0.6361314351079347
0.016,1.7936,1.0,2080.4681084954086,0.16514519452353296,1.3371543254690115,0.859235955298608,0.2883842,0.6375221964844895
0.0165,1.7931937500000001,1.0,2122.92088608453,0.16982806921145535,1.3365310992372683,0.8656446566625916,0.2883671375,0.6388610307594256
0.017,1.792775,1.0,2163.1909376685035,0.17448467782563254,1.3359288840412626,0.8716086019259269,0.28834955,0.6401523752129845
0.0175,1.7923437500000001,1.0,2201.349165558278,0.17911516660925217,1.3353462208864177,0.8771670014672526,0.2883314375,0.6413995922742282
0.018000000000000002,1.7919,1.0,2237.47077955576,0.18371968145715728,1.3347817020037198,0.8823549832513864,0.2883128,0.6426059056233819
0.0185,1.79144375,1.0,2271.639452629917,0.18829836826419105,1.3342339196241548,0.8872040554648719,0.2882936375,0.6437745120302105
0.019,1.790975,1.0,2303.935753358498,0.19285137165598684,1.3337015732939657,0.8917425513411554,0.28827395,0.6449083545316712
0.0195,1.79049375,1.0,2334.4524066618706,0.1973788376347994,1.3331833097120769,0.8959959551117376,0.2882537375,0.6460104659735532
0.02,1.79,1.0,2363.259573852623,0.2018809085931,1.3326780577558424,0.8999873003683541,0.288233,0.6470832585707922
0.0205,1.78949375,1.0,2390.4253125489386,0.20635772599807245,1.3321848161523213,0.9037373956734316,0.2882117375,0.648128979329874
0.021,1.788975,1.0,2416.022184084602,0.21080943131690055,1.3317025836285734,0.9072650558783512,0.28818995000000003,0.6491498597389327
0.021500000000000002,1.78844375,1.0,2440.1268726752605,0.21523616601676818,1.3312303589116583,0.9105873205173185,0.2881676375,0.6501481165027233
0.022,1.7879,1.0,2462.802017440209,0.21963806878958114,1.330767311148597,0.9137196791455702,0.2881448,0.6511255927153293
0.0225,1.78734375,1.0,2484.136369409799,0.2240152829623557,1.3303123904196195,0.916676162317782,0.28812143749999997,0.6520845814262656
0.023,1.786775,1.0,2504.1820144817157,0.22836794509956235,1.3298649253503985,0.9194696059063198,0.28809755,0.6530265657639542
0.0235,1.78619375,1.0,2522.9929838162825,0.23269619170250974,1.3294242480766119,0.9221117059285936,0.28807313749999996,0.6539530126886444
0.024,1.7856,1.0,2540.6254299024176,0.2370001592725065,1.3289896907339374,0.9246131349277216,0.2880482,0.6548653807104218
0.0245,1.78499375,1.0,2557.1374474004488,0.24127998431086134,1.3285605854580533,0.9269836456274064,0.2880227375,0.6557651201640984
0.025,1.784375,1.0,2572.584508925487,0.24553580240264952,1.3281363055333464,0.929232169464446,0.28799675,0.6566535873435152
0.025500000000000002,1.78374375,1.0,2587.0186824875323,0.24976774832750093,1.3277162706361523,0.9313668982502117,0.2879702375,0.6575320343122839
0.026000000000000002,1.7831000000000001,1.0,2600.5059601438684,0.25397595915823723,1.3272997835480471,0.933395330615516,0.2879432,0.6584019505401835
0.0265,1.78244375,1.0,2613.0859650046896,0.25816056599074605,1.3268864047346485,0.9353243949128457,0.2879156375,0.6592642806111466
0.027,1.781775,1.0,2624.7993034244637,0.2623216999209152,1.3264756946615746,0.93716046468075,0.28788755,0.6601199642705432
0.0275,1.7810937500000001,1.0,2635.6874818398146,0.2664594920446324,1.3260672137944425,0.9389094104572842,0.2878589375,0.6609699365061523
0.028,1.7804,1.0,2645.792827891044,0.2705740734577852,1.3256605225988705,0.940576646125754,0.2878298,0.6618151276168067
0.0285,1.77969375,1.0,2655.158415827172,0.2746655752562615,1.325255181540476,0.9421671704290151,0.2878001375,0.6626564632687244
0.029,1.778975,1.0,2663.823058687077,0.27873412560297756,1.3248507965148222,0.9436856094626477,0.28776995,0.6634947704199159
0.029500000000000002,1.7782437500000001,1.0,2671.8279970640665,0.28277985700475267,1.3244469564490846,0.9451362436957359,0.2877392375,0.664330907050146
0.03,1.7775,1.0,2679.2050851504996,0.2868028965494781,1.3240433412931802,0.9465230490685465,0.287708,0.6651655387868352
0.0305,1.77674375,1.0,2685.98458069998,0.2908033699537199,1.3236396495651113,0.9478497149991097,0.2876762375,0.665999289634477
0.031,1.775975,1.0,2692.1971215656063,0.294781402934044,1.3232355797828796,0.9491196668307266,0.28764395,0.6668327804924288
0.0315,1.7751937500000001,1.0,2697.8736894851336,0.29873712120701634,1.3228308304644878,0.950336088025072,0.2876111375,0.6676666291505393
0.032,1.7744,1.0,2703.0455758817197,0.30267065048920305,1.3224251001279375,0.951501940231219,0.2875778,0.6685014502789844
0.0325,1.77359375,1.0,2707.738689506516,0.3065821126642215,1.322018138946366,0.952619986494086,0.2875439375,0.6693377493288228
0.033,1.772775,1.0,2711.9797228606135,0.3104716324571642,1.3216096920394278,0.9536928025329697,0.28750955,0.6701760394971442
0.0335,1.7719437500000002,1.0,2715.804913706823,0.3143393418793632,1.3211994194351013,0.954722783721089,0.2874746375,0.6710170055948783
0.034,1.7711000000000001,1.0,2719.2327597124436,0.3181853601230878,1.3207871446118573,0.9557121818802237,0.2874392,0.6718609944252913
0.0345,1.7702437500000001,1.0,2722.281898621998,0.32200980638060744,1.320372691048167,0.9566631016888056,0.2874032375,0.6727083508627415
0.035,1.7693750000000001,1.0,2724.9710943450673,0.32581279984419154,1.319955882222501,0.9575775120154143,0.28736675,0.6735594178291487
0.035500000000000004,1.76849375,1.0,2727.3192237350518,0.32959445970610945,1.3195365416133302,0.9584572562538665,0.2873297375,0.674414536268471
0.036000000000000004,1.7676,1.0,2729.3452640586033,0.33335490515863064,1.3191144926991256,0.9593040617582088,0.2872922,0.6752740451191955
0.0365,1.76669375,1.0,2731.0682811564034,0.3370942553940245,1.3186895589583583,0.9601195484653128,0.2872541375,0.6761382812848441
0.037,1.765775,1.0,2732.5074182940816,0.3408126296045604,1.3182615638694988,0.9609052367833536,0.28721555,0.6770075796024904
0.0375,1.76484375,1.0,2733.6818857047206,0.34451014698250776,1.3178303309110182,0.9616625548161686,0.2871764375,0.6778822728092879
0.038,1.7639,1.0,2734.6045005552405,0.3481869212509869,1.3173957421370912,0.962392849473706,0.28713679999999997,0.6787625729376439
0.0385,1.76294375,1.0,2735.2928390456163,0.35184307256373065,1.3169576367971654,0.963097385051103,0.28709663750000003,0.6796487770279216
0.039,1.761975,1.0,2735.766506605062,0.3554787216085721,1.3165158360857148,0.9637773501413022,0.28705595,0.6805412165400541
0.0395,1.7609937500000001,1.0,2736.0360336894996,0.3590939805259644,1.316070243892805,0.9644338703485972,0.2870147375,0.6814400539717564
0.04,1.76,1.0,2736.111976506401,0.36268896145636076,1.3156207641085014,0.9650680067803679,0.286973,0.6823454504577989
0.0405,1.7589937500000001,1.0,2736.0049131669825,0.3662637765402142,1.31516730062287,0.9656807604223053,0.2869307375,0.6832575657464718
0.041,1.757975,1.0,2735.72544004369,0.3698185379179779,1.3147097573259758,0.9662730761725074,0.28688795,0.6841765581754637
0.0415,1.75694375,1.0,2735.2841683316983,0.37335335773010503,1.3142480381078852,0.9668458465643333,0.2868446375,0.6851025846471466
0.042,1.7559,1.0,2734.691720816425,0.37686834811704867,1.313782046858663,0.9673999152050057,0.28680079999999997,0.6860358006032776
0.0425,1.75484375,1.0,2733.958728844537,0.380363621219262,1.3133116874683752,0.9679360799543635,0.2867564375,0.6869763599991046
0.043000000000000003,1.753775,1.0,2733.095829500436,0.3838392891771981,1.3128368638270875,0.968455095865855,0.28671155,0.6879244152768887
0.043500000000000004,1.75269375,1.0,2732.112668769121,0.3872954626492344,1.312357488857615,0.9689576784031577,0.28666613750000003,0.6888800993449136
0.044,1.7516,1.0,2731.015414369675,0.39073225085654484,1.3118735071037408,0.9694445077244288,0.2866202,0.6898434807615208
0.0445,1.75049375,1.0,2729.811476777527,0.39414976185393563,1.3113848518367093,0.9699162275759337,0.2865737375,0.6908146493833884
0.045,1.7493750000000001,1.0,2728.5084013370615,0.39754810297731036,1.3108914551025594,0.9703734483909833,0.28652675,0.6917936962506801
0.0455,1.74824375,1.0,2727.113731968553,0.40092738156257274,1.3103932489473302,0.9708167495240216,0.2864792375,0.6927807111221961
0.046,1.7471,1.0,2725.6350098581033,0.4042877049456265,1.3098901654170605,0.9712466811289716,0.2864312,0.6937757824546776
0.0465,1.7459437500000001,1.0,2724.076747595604,0.4076291797443758,1.309382164078094,0.971663767829363,0.28638263750000004,0.6947789430814901
0.047,1.744775,1.0,2722.459855337044,0.41095191187079705,1.3088690552432598,0.9720684974250304,0.28633355,0.6957905188556637
0.0475,1.7435961541648526,1.0,2720.883748275195,0.41425600593979184,1.308351020059025,0.9724613602123418,0.2862840384749238,0.6968101034073941
0.048,1.7424164068496335,1.0,2719.7824414156,0.417541566495918,1.3078282582644774,0.9728428239698708,0.2862344890876846,0.6978372557839867
0.0485,1.7412366595344146,1.0,2719.1714455830793,0.42080869761955075,1.3073010331007608,0.973213338332793,0.2861849397004454,0.6988714128035877
0.049,1.7400569122191956,1.0,2719.0059801582793,0.4240575030674464,1.3067697508855105,0.9735733412949099,0.28613539031320623,0.6999117345077864
0.0495,1.7388771649039765,1.0,2719.252223518755,0.4272880851280865,1.3062347192519594,0.9739232432881629,0.286085840925967,0.7009575788414336
0.05,1.7376974175887574,1.0,2719.876795787926,0.4305005460272153,1.3056962426551606,0.9742634353510609,0.2860362915387278,0.7020083138600675
0.0505,1.7365176702735385,1.0,2720.8482692783446,0.43369498752763186,1.305154608400373,0.9745942892488989,0.2859867421514886,0.7030633449362726
0.051000000000000004,1.7353379229583195,1.0,2722.1371838942073,0.43687151107404154,1.3046100863208048,0.9749161585482647,0.28593719276424945,0.7041221151518873
0.051500000000000004,1.7341581756431004,1.0,2723.7190841901747,0.4400302166776346,1.3040629009931746,0.9752293777088095,0.2858876433770102,0.7051841589273435
0.052000000000000005,1.7329784283278815,1.0,2725.5697163773016,0.4431712042967732,1.3035132753533696,0.9755342660760405,0.285838093989771,0.7062490168503497
0.0525,1.7317986810126624,1.0,2727.675702630966,0.44629456863817746,1.3029613335261432,0.9758311220170655,0.28578854460253184,0.7073164234313171
0.053,1.7306189336974434,1.0,2729.9974481443073,0.449400417859285,1.3024074380610131,0.9761202470614154,0.2857389952152926,0.708385654991628
0.0535,1.7294391863822245,1.0,2732.5202675521073,0.4524888484262788,1.3018517248600314,0.9764019143859632,0.28568944582805345,0.7094564292060711
0.054,1.7282594390670054,1.0,2735.2307535387417,0.4555599561845067,1.301294318179431,0.976676384613773,0.2856398964408142,0.7105284879872188
0.0545,1.7270796917517863,1.0,2738.115491703641,0.4586138369793165,1.3007353422754446,0.9769439072330811,0.285590347053575,0.7116015749568596
0.055,1.7258999444365675,1.0,2741.1610560668382,0.46165058665605607,1.3001749214043052,0.9772047211696232,0.28554079766633583,0.712675435458926
0.0555,1.7247201971213484,1.0,2744.354004916505,0.4646703010600733,1.2996131798222457,0.9774590553249906,0.2854912482790966,0.7137498165714371
0.056,1.7235404498061293,1.0,2747.6808770000935,0.46767307603671593,1.2990502417854985,0.9777071290832927,0.28544169889185744,0.7148244671174582
0.0565,1.7223607024909102,1.0,2751.128188056313,0.4706590074313318,1.2984862315502967,0.9779491527882401,0.2853921495046182,0.7158991376750722
0.057,1.7211809551756914,1.0,2754.6835925447085,0.4736281899023424,1.297921262833299,0.9781853274821738,0.28534260011737905,0.7169736006116467
0.0575,1.7200012078604723,1.0,2758.3408914032952,0.4765807136531248,1.2973553935412505,0.9784158425120394,0.28529305073013983,0.7180477357523216
0.058,1.7188214605452532,1.0,2762.0827649479925,0.47951668164066796,1.2967887819624722,0.9786408863819847,0.28524350134290066,0.7191212337411741
0.0585,1.7176417132300343,1.0,2765.903523202244,0.48243618426392354,1.2962214809830537,0.9788606331479023,0.28519395195566144,0.720193986620556
0.059000000000000004,1.7164619659148153,1.0,2769.797463331867,0.4853393119218432,1.2956535434890843,0.9790752500089949,0.2851444025684222,0.7212658871886101
0.059500000000000004,1.7152822185995962,1.0,2773.758868867496,0.4882261550133788,1.2950850223666537,0.9792848976331454,0.28509485318118305,0.7223368290015035
0.06,1.7141024712843773,1.0,2777.782008989067,0.4910968039374819,1.2945159705018512,0.9794897304644102,0.2850453037939438,0.723406706375487
0.0605,1.7129227239691582,1.0,2781.86113787288,0.49395134909310423,1.293946440780766,0.9796898970137529,0.28499575440670466,0.7244754143887744
0.061,1.7117429766539392,1.0,2785.990494099745,0.4967898808791976,1.2933764860894879,0.979885540134048,0.28494620501946544,0.7255428488832416
0.0615,1.71056322933872,1.0,2790.1643001262346,0.4996124896947136,1.292806159314106,0.980076797280329,0.2848966556322262,0.7266089064659514
0.062,1.7093834820235012,1.0,2794.3767618170878,0.5024192659386041,1.2922355133407102,0.9802638007561663,0.28484710624498705,0.7276734845104962
0.0625,1.7082037347082821,1.0,2798.6246525104602,0.505210293324349,1.2916645778554554,0.9804466762425337,0.2847975568577479,0.7287365243124968
0.063,1.707023987393063,1.0,2802.9043920240388,0.5079856599304404,1.2910933856307845,0.9806255452770616,0.28474800747050866,0.7297979618686461
0.0635,1.7058442400778442,1.0,2807.207234147038,0.510745468409977,1.2905220156461308,0.9808005283704073,0.28469845808326943,0.730857648038614
0.064,1.704664492762625,1.0,2811.5312338476388,0.5134898028588712,1.289950485729814,0.9809717372210668,0.28464890869603027,0.7319155479114952
0.0645,1.703484745447406,1.0,2815.8744401517715,0.5162187473730359,1.2893788137101547,0.9811392795108993,0.28459935930879104,0.7329716268357894
0.065,1.7023049981321872,1.0,2820.2348960842537,0.5189323860483832,1.2888070174154724,0.981303259079393,0.2845498099215519,0.7340258504195759
0.0655,1.701125250816968,1.0,2824.610638615111,0.521630802980826,1.2882351146740876,0.9814637760891638,0.28450026053431265,0.735078184530662
0.066,1.699945503501749,1.0,2828.9996986149745,0.5243140822662766,1.2876631233143199,0.9816209271831768,0.28445071114707343,0.7361285952967169
0.0665,1.6987657561865301,1.0,2833.4001008158316,0.5269823080006479,1.2870910611644897,0.9817748056341727,0.28440116175983426,0.7371770491053802
0.067,1.697586008871311,1.0,2837.809863779719,0.5296355642798523,1.2865189460529167,0.9819255014867277,0.28435161237259504,0.7382235126043553
0.0675,1.696406261556092,1.0,2842.2269998744955,0.5322739351998022,1.2859467958079212,0.9820731016923678,0.2843020629853559,0.7392679527014765
0.068,1.695226514240873,1.0,2846.649515255934,0.5348975048564103,1.285374628257823,0.9822176902381169,0.28425251359811665,0.7403103365647621
0.0685,1.694046766925654,1.0,2851.0754098579578,0.5375063573455893,1.2848024612309423,0.9823593482688463,0.2842029642108775,0.7413506316224413
0.069,1.692867019610435,1.0,2855.5026773888185,0.5401005767632515,1.2842303125555992,0.9824981542037621,0.28415341482363826,0.7423888055629669
0.0695,1.6916872722952159,1.0,2859.9296191040726,0.5426802444406733,1.2836581972738665,0.9826341835453302,0.2841038654363991,0.7434248313754471
0.07,1.690507524979997,1.0,2864.3576268918105,0.5452454203736311,1.28308610295792,0.982767506717819,0.28405431604915987,0.7444587318625573
0.07050000000000001,1.689327777664778,1.0,2868.781955625148,0.5477962222760493,1.2825140716304937,0.982898197858552,0.28400476666192065,0.7454904315394142
0.07100000000000001,1.6881480303495588,1.0,2873.2021444445973,0.5503327270117583,1.2819421072288677,0.9830263244683192,0.2839552172746815,0.7465199240157707
0.07150000000000001,1.68696828303434,1.0,2877.6177311513984,0.5528550114445888,1.2813702136903211,0.9831519518657188,0.28390566788744226,0.7475472029587469
0.07200000000000001,1.685788535719121,1.0,2882.028252213636,0.5553631524383711,1.2807983949521335,0.9832751432725002,0.2838561185002031,0.7485722620928112
0.0725,1.6846087884039018,1.0,2886.4332427722916,0.5578572268569358,1.2802266549515848,0.9833959598950288,0.28380656911296387,0.7495950951997622
