Time [s],Phi [rad],STIM [ ],Fsee [N],Gamma [ ],Lcerel [ ],q [ ],Lmtc [m],fisomrel [ ]
0.0,1.8,1.0,17.967030987886943,1.0909782460618739e-05,1.3793397604681252,0.005000031700045103,0.288653,0.5411394965815861
0.0005,1.79999375,1.0,18.27668110885877,0.005620057896003658,1.3793023947917171,0.01294304070663355,0.2886527375,0.5412298893662895
0.001,1.799975,1.0,21.61898521022266,0.01119774312354736,1.3789382404599189,0.03561332007864886,0.28865195,0.5421103632561886
0.0015,1.79994375,1.0,31.071187889130414,0.016744141947867497,1.3780460374376995,0.07060819935860707,0.2886506375,0.5442640101328238
0.002,1.7999,1.0,53.5869427445254,0.022259429860087113,1.376367836194473,0.11472552835139799,0.2886488,0.5483011858363853
0.0025,1.79984375,1.0,97.12678517122994,0.027743781367246482,1.3739347891137121,0.164583041878152,0.28864643749999996,0.5541223644466953
0.003,1.7997750000000001,1.0,160.96862631402635,0.033197370000012195,1.3712139522538485,0.2172888599836542,0.28864354999999997,0.560587377717084
0.0035,1.79969375,1.0,237.6952861271221,0.03862036831227468,1.3685843660049688,0.2706212482857072,0.2886401375,0.5667907051553418
0.004,1.7996,1.0,321.479596513639,0.04401294789192894,1.366155752709661,0.3229238956571242,0.2886362,0.5724807549669055
0.0045000000000000005,1.7994937500000001,1.0,409.2811289912576,0.0493752793660594,1.363922500131751,0.37304219075488165,0.2886317375,0.5776798912559175
0.005,1.799375,1.0,499.427222360128,0.05470753239203273,1.3618580508383664,0.42025464918918026,0.28862675,0.5824577520518439
0.0055,1.79924375,1.0,590.8043175476105,0.060009875704923624,1.3599385634592975,0.4641803540740526,0.2886212375,0.5868757351239071
0.006,1.7991000000000001,1.0,682.532075865357,0.0652824770607704,1.3581461608560468,0.5046860793726563,0.2886152,0.5909799982910544
0.006500000000000001,1.79894375,1.0,773.895431497075,0.07052550329305883,1.3564670116651172,0.5418063517440099,0.2886086375,0.5948063443703482
0.007,1.798775,1.0,864.299770860176,0.07573912029013921,1.3548901695040956,0.5756818783450381,0.28860155,0.5983831874660532
0.0075,1.79859375,1.0,953.2564694176026,0.08092349301776673,1.3534065753315292,0.6065145578160773,0.2885939375,0.6017340322463016
0.008,1.7984,1.0,1040.3722565012285,0.08607878551938238,1.3520084431399588,0.6345362707417478,0.2885858,0.6048790049686938
0.0085,1.79819375,1.0,1125.335051948769,0.0912051609083655,1.3506889467024255,0.6599882046106651,0.2885771375,0.6078356589947175
0.009000000000000001,1.797975,1.0,1207.9001055232106,0.09630278137448461,1.3494420360761572,0.6831077746902651,0.28856795,0.6106194624456303
0.0095,1.79774375,1.0,1287.8716435566323,0.10137180757298984,1.3482623958969224,0.7041208793065015,0.2885582375,0.613243952819309
0.01,1.7975,1.0,1365.1755581460702,0.10641240180202353,1.3471442759173131,0.723237137080047,0.288548,0.6157233791385344
0.0105,1.79724375,1.0,1439.6865098457738,0.11142472218713881,1.3460836083299788,0.7406491977044498,0.2885372375,0.6180680358587431
0.011,1.796975,1.0,1511.3394043598137,0.11640892680302078,1.3450763436582298,0.7565314974232827,0.28852595000000003,0.6202880007891176
0.0115,1.79669375,1.0,1580.125250788889,0.12136517372435471,1.3441184324253777,0.7710408438038238,0.2885141375,0.6223931902586123
0.012,1.7964,1.0,1646.0649307834035,0.12629362019362958,1.34320607225533,0.7843176167931589,0.28850180000000003,0.624392831527644
0.0125,1.79609375,1.0,1709.1852060952997,0.1311944224103562,1.3423359057824162,0.7964871697064572,0.2884889375,0.6262950497835862
0.013000000000000001,1.7957750000000001,1.0,1769.5090025475515,0.1360677347699851,1.3415050451151604,0.807661225209343,0.28847555,0.6281068372477432
0.0135,1.79544375,1.0,1827.0866374076675,0.14091371140452272,1.340710649416107,0.8179390922793373,0.2884616375,0.6298349916277254
0.014,1.7951000000000001,1.0,1881.989018443912,0.1457325058460632,1.3399499653970737,0.8274090252222296,0.2884472,0.631486036436634
0.0145,1.79474375,1.0,1934.297091949809,0.150524271611834,1.3392204076198657,0.8361494953465046,0.2884322375,0.6330660556575642
0.015,1.794375,1.0,1984.067119271674,0.15528915913762548,1.3385198933671019,0.8442304241936426,0.28841675,0.6345799802127743
0.0155,1.79399375,1.0,2031.3735585344416,0.1600273188592282,1.3378463399214016,0.8517140112319266,0.2884007375,0.6360326868677066
0.016,1.7936,1.0,2076.3044958771593,0.1647389009337505,1.3371976959873721,0.8586556555462778,0.2883842,0.6374289343775759
0.0165,1.7931937500000001,1.0,2118.9481610461767,0.1694240545912123,1.336572064175328,0.8651047979159887,0.2883671375,0.638773104645277
0.017,1.792775,1.0,2159.4035773158694,0.1740829297009937,1.3359675711965822,0.8711055880207393,0.28834955,0.6400694869396348
0.0175,1.7923437500000001,1.0,2197.73712940558,0.17871567217849418,1.3353827949537662,0.8766976245416972,0.2883314375,0.6413213675031888
0.018000000000000002,1.7919,1.0,2234.0245637531993,0.18332242793911324,1.3348163133495123,0.8819163644665015,0.2883128,0.6425320035556159
0.0185,1.79144375,1.0,2268.35021127297,0.1879033428982503,1.3342667042864518,0.8867936068256673,0.2882936375,0.6437046250174547
0.019,1.790975,1.0,2300.798091768378,0.1924585619605127,1.333732626485066,0.8913579358733573,0.28827395,0.644842264092409
0.0195,1.79049375,1.0,2331.458676289734,0.19698823070073487,1.3332127435471788,0.895635071877826,0.2882537375,0.6459479194443944
0.02,1.79,1.0,2360.4109809200077,0.20149249282282783,1.3327058928687778,0.8996482338598174,0.288233,0.6470241991402721
0.0205,1.78949375,1.0,2387.7190364348085,0.20597148942323332,1.3322111094382887,0.9034184233187087,0.2882117375,0.6480732741255784
0.021,1.788975,1.0,2413.4513160558117,0.21042536159839298,1.331727428244137,0.9069646266547342,0.28818995000000003,0.6490973002249075
0.021500000000000002,1.78844375,1.0,2437.6803668033785,0.21485425044474848,1.3312538842747481,0.9103040361520426,0.2881676375,0.6500984188548846
0.022,1.7879,1.0,2460.4777353329114,0.21925829613859604,1.3307895577651798,0.9134522530034452,0.2881448,0.6510786622242244
0.0225,1.78734375,1.0,2481.9140962640427,0.22363763883546625,1.3303335688739462,0.9164234565966266,0.28812143749999997,0.6520399658003886
0.023,1.786775,1.0,2502.061262233048,0.2279924189309108,1.3298850550060979,0.9192305499105867,0.28809755,0.6529842171033922
0.0235,1.78619375,1.0,2520.9717376384096,0.23232277242789118,1.329443361372194,0.921885325474496,0.28807313749999996,0.6539128560197384
0.024,1.7856,1.0,2538.7001381558466,0.23662883532936885,1.3290078331827944,0.9243985424999539,0.2880482,0.654827314108299
0.0245,1.78499375,1.0,2555.3030145225125,0.24091074363830534,1.3285778156484578,0.9267800316549979,0.2880227375,0.6557290148714544
0.025,1.784375,1.0,2570.838685827689,0.2451686333576621,1.3281526539797435,0.9290387879454939,0.28799675,0.6566193739988864
0.025500000000000002,1.78374375,1.0,2585.3580932993623,0.24940263834023838,1.327731777340653,0.9311830662361141,0.2879702375,0.6574996241107676
0.026000000000000002,1.7831000000000001,1.0,2598.9189959681644,0.2536128951142299,1.3273145641406539,0.9332204331369626,0.2879432,0.6583710972621614
0.0265,1.78244375,1.0,2611.5739061921486,0.2577995381426052,1.3269004536259623,0.9351578488615608,0.2879156375,0.659234991770217
0.027,1.781775,1.0,2623.361565246754,0.26196269791270765,1.3264890230799222,0.9370017355816881,0.28788755,0.6600922123989733
0.0275,1.7810937500000001,1.0,2634.3216015903577,0.2661025049118805,1.3260798497858777,0.9387580079553871,0.2878589375,0.6609436593227661
0.028,1.7804,1.0,2644.49445482014,0.2702190896274671,1.3256725110271723,0.9404321199440325,0.2878298,0.6617902281927817
0.0285,1.77969375,1.0,2653.9213035893063,0.27431258254681073,1.3252665840871503,0.9420291067438987,0.2878001375,0.6626328101922092
0.029,1.778975,1.0,2662.6439974864843,0.2783831141572548,1.3248616462491554,0.9435536223951525,0.28776995,0.663472292080002
0.029500000000000002,1.7782437500000001,1.0,2670.696437592366,0.28243081096902956,1.3244573534122175,0.9450099828817108,0.2877392375,0.6643093935482762
0.03,1.7775,1.0,2678.124124420277,0.2864558063386861,1.3240532596134456,0.946402175171664,0.287708,0.6651450412433064
0.0305,1.77674375,1.0,2684.9584769321064,0.29045822710121255,1.3236490526073335,0.9477339120513143,0.2876762375,0.6659798812065546
0.031,1.775975,1.0,2691.2268158799075,0.2944381979097471,1.3232444611876448,0.9490086447752973,0.28764395,0.6668144716565982
0.0315,1.7751937500000001,1.0,2696.956790680767,0.2983958434174282,1.322839214148144,0.9502295805541697,0.2876111375,0.66764936801087
0.032,1.7744,1.0,2702.1763485990114,0.30233128827739403,1.3224330402825952,0.9513997028276245,0.2875778,0.6684851228766656
0.0325,1.77359375,1.0,2706.913705559455,0.30624465714278293,1.3220256683847622,0.9525217896186162,0.2875439375,0.669322286037459
0.033,1.772775,1.0,2711.197318591035,0.31013607466673326,1.321616827248409,0.9535984301706636,0.28750955,0.670161404434525
0.0335,1.7719437500000002,1.0,2715.050342525971,0.3140056615454738,1.3212062959514077,0.9546320447185268,0.2874746375,0.6710029191364053
0.034,1.7711000000000001,1.0,2718.4983492051892,0.3178535415268777,1.3207938331682716,0.9556248917274194,0.2874392,0.671847310590584
0.0345,1.7702437500000001,1.0,2721.574206642524,0.32167984442631226,1.3203791326419172,0.9565790763846344,0.2874032375,0.67269518930999
0.035,1.7693750000000001,1.0,2724.2947508548077,0.3254846882072076,1.3199620354177102,0.9574965808449559,0.28736675,0.6735468618984566
0.035500000000000004,1.76849375,1.0,2726.676925296414,0.3292681908329941,1.3195423825410162,0.9583792607979219,0.2873297375,0.6744026331633
0.036000000000000004,1.7676,1.0,2728.737769690721,0.33303047026710203,1.3191200150572013,0.959228854987303,0.2872922,0.6752628060902155
0.0365,1.76669375,1.0,2730.494409422224,0.3367716444729616,1.3186947740116315,0.9600469939102025,0.2872541375,0.6761276818165661
0.037,1.765775,1.0,2731.9640454883606,0.3404918314140032,1.3182665004496723,0.9608352077748897,0.28721555,0.6769975596030573
0.0375,1.76484375,1.0,2733.1639450118914,0.3441911490536571,1.31783503541669,0.9615949337880989,0.2871764375,0.6778727368037993
0.038,1.7639,1.0,2734.1114323133816,0.3478697153553536,1.3174002199580497,0.9623275228350823,0.28713679999999997,0.678753508834763
0.0385,1.76294375,1.0,2734.8238805437163,0.3515276482825229,1.316961895119118,0.9630342456091437,0.28709663750000003,0.6796401691406162
0.039,1.761975,1.0,2735.3099620901326,0.3551650594315998,1.316519981320302,0.9637163043548009,0.28705595,0.6805328489317466
0.0395,1.7609937500000001,1.0,2735.589186665992,0.3587820698626677,1.3160743008747444,0.9643748244232692,0.2870147375,0.6814318760412676
0.04,1.76,1.0,2735.6789816157457,0.36237879706698933,1.3156246952655961,0.9650108676663395,0.286973,0.68233753743144
0.0405,1.7589937500000001,1.0,2735.5887568708063,0.36595535208211477,1.315171078970618,0.9656254409866804,0.2869307375,0.6832499712388282
0.041,1.757975,1.0,2735.3279401465797,0.3695118459455942,1.31471336646757,0.9662194948149543,0.28688795,0.6841693143069163
0.0415,1.75694375,1.0,2734.9059739243594,0.3730483896949778,1.314251472234214,0.9667939268616628,0.2868446375,0.6850957021639956
0.042,1.7559,1.0,2734.3323125956786,0.37656509436781554,1.31378531074831,0.9673495855823082,0.28680079999999997,0.6860292690005949
0.0425,1.75484375,1.0,2733.6164197682965,0.3800620710016576,1.313314796487619,0.9678872733805018,0.2867564375,0.6869701476464345
0.043000000000000003,1.753775,1.0,2732.767765734324,0.3835394306340542,1.3128398439299018,0.9684077495713109,0.28671155,0.6879184695469218
0.043500000000000004,1.75269375,1.0,2731.7958251013565,0.3869972843025553,1.3123603675529192,0.9689117331250322,0.28666613750000003,0.6888743647391748
0.044,1.7516,1.0,2730.710074584302,0.3904357430447111,1.3118762818344318,0.9693999052097076,0.2866202,0.6898379618275832
0.0445,1.75049375,1.0,2729.5148567715287,0.39385490967034203,1.3113875479198942,0.969872913962405,0.2865737375,0.6908092952820013
0.045,1.7493750000000001,1.0,2728.2236819750697,0.39725490234390093,1.310894043631723,0.970331369997475,0.28652675,0.6917885638849375
0.0455,1.74824375,1.0,2726.843321406045,0.4006358280946123,1.3103957080132487,0.9707758558294558,0.2864792375,0.6927758432619708
0.046,1.7471,1.0,2725.379012320641,0.40399779144077896,1.3098924940418373,0.9712069252786819,0.2864312,0.6937711802823019
0.0465,1.7459437500000001,1.0,2723.83599049673,0.407340896900704,1.3093843546948543,0.9716251045131392,0.28638263750000004,0.6947746207590837
0.047,1.744775,1.0,2722.219489458807,0.4106652489926902,1.3088712429496652,0.9720308936883739,0.28633355,0.6957862094347222
0.0475,1.74359375,1.0,2720.534739752638,0.41397095223504043,1.3083531117836358,0.9724247684751774,0.28628393750000003,0.6968059899660352
0.048,1.7424,1.0,2718.7869682677165,0.4172581111460576,1.3078299141741314,0.9728071814837155,0.2862338,0.6978340049092695
0.0485,1.74119375,1.0,2716.9813976098953,0.42052683024404464,1.307301603098518,0.9731785635920167,0.2861831375,0.6988702957049773
0.049,1.739975,1.0,2715.123245522221,0.4237772140473044,1.306768131534161,0.9735393251860714,0.28613195,0.699914902662754
0.0495,1.73874375,1.0,2713.2175892498553,0.42700936550989094,1.3062294536901622,0.9738898572162786,0.2860802375,0.7009678625402578
0.05,1.7375,1.0,2711.2684318006577,0.43022336691585383,1.3056855335210145,0.9742305306438779,0.286028,0.7020291919514436
0.0505,1.73624375,1.0,2709.282959924067,0.4334193545506908,1.305136305893044,0.9745617035852009,0.2859752375,0.7030989630929421
0.051000000000000004,1.734975,1.0,2707.2636494601584,0.4365974253038986,1.304581748580857,0.9748837160392857,0.28592195,0.7041771633655216
0.051500000000000004,1.73369375,1.0,2705.21297331116,0.4397576760649741,1.3040218393590595,0.9751968925938799,0.2858681375,0.7052637793135659
0.052000000000000005,1.7324,1.0,2703.1334012913385,0.4429002037234141,1.3034565560022573,0.975501543256443,0.2858138,0.7063587966175029
0.0525,1.73109375,1.0,2701.0273999881997,0.44602510516871535,1.3028858762850566,0.9757979642333342,0.28575893750000003,0.7074622000862034
0.053,1.729775,1.0,2698.8974326342777,0.4491324772903748,1.3023097779820632,0.976086438660833,0.28570355000000003,0.7085739736493485
0.0535,1.72844375,1.0,2696.7459589900445,0.4522224169778891,1.3017282388678835,0.9763672372913588,0.2856476375,0.7096941003497623
0.054,1.7271,1.0,2694.575435237801,0.45529502112075526,1.3011412367171231,0.9766406191379982,0.2855912,0.7108225623357194
0.0545,1.7257437500000001,1.0,2692.38831388629,0.4583503866084699,1.3005487493043884,0.9769068320801988,0.2855342375,0.7119593408532141
0.055,1.724375,1.0,2690.1870436865925,0.4613886103305299,1.2999507544042852,0.9771661134332809,0.28547675,0.7131044162382021
0.0555,1.72299375,1.0,2687.974069558776,0.46440978917643216,1.2993472297914195,0.9774186904842094,0.2854187375,0.7142577679088109
0.056,1.7216,1.0,2685.7518325293327,0.4674140200356734,1.2987381532403974,0.9776647809958885,0.2853602,0.7154193743575155
0.0565,1.72019375,1.0,2683.5227696800603,0.4704013997977505,1.298123502525825,0.9779045936820724,0.28530113749999997,0.7165892131432856
0.057,1.718775,1.0,2681.2893141076,0.47337202535216016,1.297503255422308,0.9781383286548309,0.28524155,0.717767260883702
0.0575,1.71734375,1.0,2679.0489693767827,0.47632594709717124,1.296877434895109,0.9783661763015061,0.2851814375,0.7189534076852687
0.058,1.7159,1.0,2676.807483671951,0.47926330638858955,1.2962459882736321,0.9785883230543577,0.2851208,0.7201476863258259
0.0585,1.71444375,1.0,2674.567452805711,0.48218421104446224,1.2956088917457953,0.9788049464857522,0.2850596375,0.7213500737271131
0.059000000000000004,1.7129750000000001,1.0,2672.3294408784836,0.48508874838329974,1.2949661401236188,0.9790162163613075,0.28499795,0.7225605107798907
0.059500000000000004,1.71149375,1.0,2670.0940110456413,0.4879770057236124,1.2943177282191223,0.9792222957476884,0.2849357375,0.7237789376783638
0.06,1.71,1.0,2667.8617255186255,0.49084907038391073,1.2936636508443253,0.9794233413272464,0.284873,0.7250052939183105
0.0605,1.7084937500000001,1.0,2665.6331455670793,0.49370502968270513,1.2930039028112479,0.9796195036955226,0.2848097375,0.7262395182952066
0.061,1.7069750000000001,1.0,2663.408831521712,0.496544970938506,1.2923384789319095,0.9798109276426648,0.28474595,0.7274815489023518
0.0615,1.7054437500000001,1.0,2661.1893427770074,0.4993689814698238,1.2916673740183302,0.9799977524197496,0.2846816375,0.7287313231289907
0.062,1.7039,1.0,2658.975237795704,0.5021771485951689,1.2909905828825297,0.9801801119909244,0.2846168,0.7299887776584364
0.0625,1.70234375,1.0,2656.7670741127326,0.5049695596330518,1.2903081003365278,0.9803581352722261,0.2845514375,0.7312538484661879
0.063,1.7007750000000001,1.0,2654.565408340398,0.5077463019019828,1.289619921192344,0.9805319463578742,0.28448555,0.7325264708180499
0.0635,1.69919375,1.0,2652.3707961741266,0.5105074627204723,1.2889260402619982,0.9807016647347827,0.28441913750000003,0.7338065792682469
0.064,1.6976,1.0,2650.1837923982966,0.5132531294070309,1.2882264523575104,0.9808674054859893,0.2843522,0.7350941076575375
0.0645,1.69599375,1.0,2648.0049508935313,0.515983389280169,1.2875211522909003,0.9810292794836447,0.2842847375,0.7363889891113296
0.065,1.694375,1.0,2645.834824643882,0.5186983296583969,1.2868101348741874,0.9811873935721791,0.28421675,0.7376911560377883
0.0655,1.69274375,1.0,2643.673965744672,0.521398037860225,1.2860933949193916,0.981341850742203,0.2841482375,0.7390005401259472
0.066,1.6911,1.0,2641.5229254113246,0.5240826012041638,1.2853709272385327,0.9814927502956821,0.2840792,0.7403170723438139
0.0665,1.6894437500000001,1.0,2639.382253988691,0.5267521070087238,1.2846427266436307,0.9816401880028776,0.2840096375,0.7416406829364776
0.067,1.687775,1.0,2637.252500960297,0.5294066425924153,1.2839087879467048,0.9817842562515228,0.28393955,0.7429713014242123
0.0675,1.68609375,1.0,2635.134112270542,0.5320462904675595,1.283169106909744,0.9819250439150147,0.2838689375,0.7443088548850064
0.068,1.6844000000000001,1.0,2633.026989132638,0.5346710875529128,1.282423684329778,0.9820626340238734,0.2837978,0.7456532606173274
0.0685,1.68269375,1.0,2630.933071143263,0.5372811852248979,1.2816725021336648,0.9821971133086183,0.2837261375,0.7470044692020428
0.069,1.680975,1.0,2628.8521910470804,0.539876661090687,1.2809155617338563,0.9823285616486642,0.28365395,0.7483623953308417
0.0695,1.67924375,1.0,2626.7841819156747,0.5424575927574523,1.280152864542804,0.9824570562067719,0.28358123749999997,0.7497269530882058
0.07,1.6775,1.0,2624.728877144393,0.5450240578323663,1.2793844119729596,0.9825826715384871,0.283508,0.7510980559519247
0.07050000000000001,1.67574375,1.0,2622.6861104486097,0.5475761339226013,1.2786102054367745,0.982705479696443,0.2834342375,0.7524756167936171
0.07100000000000001,1.673975,1.0,2620.6557158602345,0.5501138986353297,1.2778302463467006,0.9828255503298053,0.28335995,0.7538595478792464
0.07150000000000001,1.67219375,1.0,2618.6375277245834,0.5526374295777237,1.2770445361151896,0.9829429507791115,0.2832851375,0.7552497608696409
0.07200000000000001,1.6704,1.0,2616.6313806969433,0.5551468043569555,1.2762530761546926,0.9830577461667496,0.2832098,0.7566461668210127
0.0725,1.66859375,1.0,2614.637109739111,0.5576421005801978,1.275455867877662,0.9831699994833017,0.2831339375,0.7580486761854721
0.073,1.6667750000000001,1.0,2612.654550116434,0.5601233958546227,1.2746529126965487,0.9832797716699714,0.28305755,0.7594571988115498
0.0735,1.66494375,1.0,2610.683537394309,0.5625907677874026,1.2738442120238047,0.9833871216972896,0.2829806375,0.7608716439447114
0.074,1.6631,1.0,2608.723907435183,0.5650442939857099,1.2730297672718816,0.9834921066402972,0.2829032,0.762291920227877
0.0745,1.6612437500000001,1.0,2606.775496395364,0.5674840520567167,1.272209579853231,0.9835947817503792,0.2828252375,0.7637179357019372
0.075,1.659375,1.0,2604.838140722077,0.5699101196075956,1.2713836511803043,0.9836952005239203,0.28274675,0.7651495978062721
0.0755,1.65749375,1.0,2602.911677150273,0.5723225742455188,1.2705519826655536,0.9837934147679427,0.2826677375,0.7665868133792666
