Time [s],Phi [rad],STIM [ ],Fsee [N],Gamma [ ],Lcerel [ ],q [ ],Lmtc [m],fisomrel [ ]
0.0,1.8,1.0,18.06212233280654,0.0003132939411608212,1.3793291210784453,0.005025456716396206,0.288653,0.5411652356564228
0.0005,1.79999375,1.0,18.469099038661597,0.0059207459187524975,1.3792810768305794,0.013803937302605939,0.2886527375,0.5412814564994775
0.001,1.799975,1.0,22.035856537960626,0.011496744524258902,1.3788958670765001,0.03720653508064151,0.28865195,0.5422127612000865
0.0015,1.79994375,1.0,31.976422202013815,0.017041466187227322,1.377969470679228,0.0727776254039328,0.2886506375,0.5444485944976536
0.002,1.7999,1.0,55.46205480726868,0.022555086345337476,1.3762472396628314,0.11728746297390685,0.2886488,0.5485906079276146
0.0025,1.79984375,1.0,100.21592716957862,0.028037779453561368,1.3737871018633445,0.16736555705227218,0.28864643749999996,0.5544744977060004
0.003,1.7997750000000001,1.0,164.94787261132234,0.03348971898946539,1.3710659193983825,0.22015645001031575,0.28864354999999997,0.5609377661384984
0.0035,1.79969375,1.0,242.1692083256509,0.038911077454907315,1.3684472032455322,0.27347129960549144,0.2886401375,0.5671130689430661
0.004,1.7996,1.0,326.2264483691211,0.04430202638605337,1.366030489944459,0.325682044145072,0.2886362,0.572773215660138
0.0045000000000000005,1.7994937500000001,1.0,414.1879378844606,0.04966273635884173,1.3638076636701673,0.3756593685257288,0.2886317375,0.5779463770881839
0.005,1.799375,1.0,504.42696163915576,0.054993376980571475,1.3617520728275552,0.42270252565535227,0.28862675,0.5827022889189006
0.0055,1.79924375,1.0,595.8434843130239,0.06029411692797233,1.359840320560969,0.46644625050667776,0.2886212375,0.5871012235286321
0.006,1.7991000000000001,1.0,687.5719857280783,0.06556512391530009,1.3580547181429887,0.50676814608205,0.2886152,0.5911888355087529
0.006500000000000001,1.79894375,1.0,778.900133317132,0.07080656469943727,1.3563817165801426,0.5437099099118626,0.2886086375,0.5950002298705068
0.007,1.798775,1.0,869.2432112102321,0.07601860520484569,1.3548104316014145,0.5774165039242848,0.28860155,0.598563640391639
0.0075,1.79859375,1.0,958.1101507594509,0.08120141016009244,1.353332016003103,0.608092204077901,0.2885939375,0.6019020614387212
0.008,1.7984,1.0,1045.1272184130898,0.08635514384428433,1.3519385161783437,0.6359697007480578,0.2885858,0.6050359720350309
0.0085,1.79819375,1.0,1129.9740386118854,0.09147996910911847,1.3506233438543347,0.6612903741060223,0.2885771375,0.607982368445169
0.009000000000000001,1.797975,1.0,1212.4067418933407,0.09657604793621385,1.3493805155747163,0.6842911921078535,0.28856795,0.6107565540074791
0.0095,1.79774375,1.0,1292.263309299025,0.10164354208510941,1.348204331409058,0.7051970644237251,0.2885582375,0.6133729068493972
0.01,1.7975,1.0,1369.4084073122167,0.10668261165325185,1.3470899146381403,0.7242171461494238,0.288548,0.615843721800027
0.0105,1.79724375,1.0,1443.7528177806223,0.1116934157589124,1.3460327517280082,0.7415428598810748,0.2885372375,0.6181802765674191
0.011,1.796975,1.0,1515.2502737552504,0.11667611291036348,1.345028601834382,0.7573475833690241,0.28852595000000003,0.6203930609573072
0.0115,1.79669375,1.0,1583.906897559589,0.12163086182790572,1.3440732818831485,0.7717871563010961,0.2885141375,0.6224922726216819
0.012,1.7964,1.0,1649.7104195682275,0.12655781849292644,1.3431634261467649,0.7850013123217726,0.28850180000000003,0.6244861701377993
0.0125,1.79609375,1.0,1712.6753783809113,0.13145713838002124,1.3422958358931432,0.7971146859225979,0.2884889375,0.6263825278386939
0.013000000000000001,1.7957750000000001,1.0,1772.848577062606,0.13632897668951266,1.341467361950926,0.8082381813079753,0.28847555,0.6281889053643981
0.0135,1.79544375,1.0,1830.2951721195618,0.14117348820366654,1.340675018744416,0.8184704259944084,0.2884616375,0.62991240944991
0.014,1.7951000000000001,1.0,1885.075722051005,0.1459908263213922,1.339916190362692,0.8278991743679471,0.2884472,0.6315592587031702
0.0145,1.79474375,1.0,1937.2452418612409,0.15078114262672487,1.3391885869026228,0.8366025058485824,0.2884322375,0.6331348932238582
0.015,1.794375,1.0,1986.8796835822195,0.1555445887036998,1.3384899184610783,0.8446498243964702,0.28841675,0.6346446910083308
0.0155,1.79399375,1.0,2034.057192556316,0.16028131503962034,1.3378180733974623,0.852102932104451,0.2884007375,0.6360935882845242
0.016,1.7936,1.0,2078.8820605291667,0.16499147331336078,1.3371708415102632,0.8590168390473777,0.2883842,0.6374866825103984
0.0165,1.7931937500000001,1.0,2121.426029975061,0.16967521165635244,1.3365465090136415,0.865440745178145,0.2883671375,0.6388279568581982
0.017,1.792775,1.0,2161.762074160939,0.1743326773970235,1.335943475624933,0.871418610792102,0.28834955,0.6401211134727041
0.0175,1.7923437500000001,1.0,2199.9740666166995,0.17896401786380203,1.335360141061474,0.8769897426609721,0.2883314375,0.6413698207500903
0.018000000000000002,1.7919,1.0,2236.1504049177574,0.18356937975807414,1.3347949597575628,0.8821893553098696,0.2883128,0.6425775985999105
0.0185,1.79144375,1.0,2270.3816708207833,0.18814890970347398,1.334246453434376,0.8870490518331619,0.2882936375,0.6437477945361654
0.019,1.790975,1.0,2302.75208146663,0.1927027532470895,1.3337132855166827,0.8915972587600607,0.28827395,0.6448834281558069
0.0195,1.79049375,1.0,2333.328965613631,0.19723105314150244,1.333194352975042,0.8958596092500472,0.2882537375,0.6459869998263491
0.02,1.79,1.0,2362.1853311395025,0.20173395213929465,1.3326885527800132,0.8998592046246879,0.288233,0.6470609912281262
0.0205,1.78949375,1.0,2389.399392333627,0.206211592993048,1.3321947819021556,0.9036168985317681,0.2882117375,0.6481078663168982
0.021,1.788975,1.0,2415.0438127720604,0.21066411684459038,1.3317120369538773,0.9071515670136852,0.28818995000000003,0.6491298614155279
0.021500000000000002,1.78844375,1.0,2439.203234515511,0.21509166698003004,1.331239239140236,0.91048028965324,0.2881676375,0.6501293573144057
0.022,1.7879,1.0,2461.9443982090756,0.21949438338035984,1.3307755185363555,0.9136185995463149,0.2881448,0.6511082791358584
0.0225,1.78734375,1.0,2483.324064386916,0.2238724038559077,1.3303201306574943,0.9165806307863975,0.28812143749999997,0.6520682757730099
0.023,1.786775,1.0,2503.4016886211816,0.2282258662170014,1.32987233101891,0.9193792420015954,0.28809755,0.653010986059154
0.0235,1.78619375,1.0,2522.2391969422683,0.2325549082739688,1.3294313751358602,0.9220261490999068,0.28807313749999996,0.6539380391457148
0.024,1.7856,1.0,2539.900773548116,0.23685966783713772,1.3289965185236032,0.9245320426130588,0.2880482,0.654851054844861
0.0245,1.78499375,1.0,2556.41344521598,0.24114027932267085,1.3285673850204303,0.926906755324646,0.2880227375,0.655750872132769
0.025,1.784375,1.0,2571.913078208548,0.24539688294529005,1.3281425923688714,0.9291591123870375,0.28799675,0.6566404307188669
0.025500000000000002,1.78374375,1.0,2586.425614172045,0.24962961151951688,1.3277218081804134,0.9312973768284375,0.2879702375,0.6575204605961744
0.026000000000000002,1.7831000000000001,1.0,2599.972654515499,0.2538385975005083,1.3273047501217672,0.9333291372927539,0.2879432,0.6583915833792333
0.0265,1.7824454007304116,1.0,2612.656953398187,0.25802397334342125,1.3268911358596434,0.9352613647156119,0.2879157068306773,0.6592544173992099
0.027,1.7817893247681051,1.0,2624.959067313842,0.2621858715034128,1.3264806830607532,0.9371004708718643,0.2878881516402604,0.660109577768444
0.0275,1.7811332488057985,1.0,2636.9787328221805,0.26632442443563986,1.3260731093918072,0.9388523606644955,0.2878605964498435,0.6609576764399188
0.028,1.780477172843492,1.0,2648.7377277984624,0.27043976371670675,1.3256681942406194,0.9405224876307139,0.28783304125942666,0.6617991940690504
0.0285,1.7798210968811856,1.0,2660.2244726858858,0.2745320200448705,1.3252660265375593,0.9421159304040243,0.2878054860690098,0.6626339667744507
0.029,1.779165020918879,1.0,2671.4409440782138,0.2786013222386147,1.3248665703450648,0.9436373636792436,0.28777793087859294,0.6634620901538109
0.029500000000000002,1.7785089449565725,1.0,2682.39222958177,0.28264779845069254,1.324469761954278,0.9450911084523107,0.2877503756881761,0.6642837167644584
0.03,1.777852868994266,1.0,2693.0835209847714,0.2866715768338568,1.3240755376563405,0.9464811670884297,0.28772282049775916,0.665098998382506
0.0305,1.7771967930319597,1.0,2703.5179491744907,0.29067276575092166,1.323683853482766,0.9478112467340338,0.2876952653073423,0.6659080452632249
0.031,1.776540717069653,1.0,2713.704659124567,0.2946515176610377,1.323294611375277,0.9490847965227668,0.28766771011692543,0.6667110786215198
0.0315,1.7758846411073466,1.0,2723.650703081602,0.2986079643142175,1.3229077334244355,0.9503050169521031,0.2876401549265086,0.6675082770876714
0.032,1.7752285651450401,1.0,2733.3619367364035,0.3025422264189583,1.3225231535030944,0.9514748830612907,0.28761259973609166,0.6682997941786335
0.0325,1.7745724891827335,1.0,2742.8443033663843,0.30645442468375733,1.322140805484106,0.9525971650491323,0.2875850445456748,0.6690857826596027
0.033,1.773916413220427,1.0,2752.103830513984,0.3103446798171118,1.321760623240323,0.9536744448694499,0.28755748935525793,0.6698663945535681
0.0335,1.7732603372581206,1.0,2761.1466267633937,0.314213112527519,1.321382540644598,0.9547091312931058,0.2875299341648411,0.6706417811505845
0.034,1.7726042612958142,1.0,2769.978878613607,0.31805984352347605,1.3210064915697837,0.9557034735945557,0.2875023789744242,0.671412093016768
0.0345,1.7719481853335075,1.0,2778.606847448321,0.32188499351348027,1.320632409888733,0.9566595740030878,0.2874748237840073,0.6721774800030087
0.035,1.771292109371201,1.0,2787.0368666034865,0.32568868320602884,1.320260229474298,0.957579399043234,0.28744726859359043,0.672938091253412
0.035500000000000004,1.7706360334088946,1.0,2795.2753385306814,0.32947103330961897,1.3198898841993318,0.958464789875082,0.28741971340317357,0.6736940752134505
0.036000000000000004,1.769979957446588,1.0,2803.3287320585305,0.3332321645327479,1.3195213079366868,0.9593174717330955,0.2873921582127567,0.6744455796378476
0.0365,1.7693238814842815,1.0,2811.203579750181,0.33697219758391284,1.3191544345592157,0.9601390625513623,0.2873646030223398,0.6751927515981739
0.037,1.7686678055219751,1.0,2818.9064753588914,0.3406912531716111,1.318789197939771,0.9609310808537678,0.28733704783192293,0.6759357374901707
0.0375,1.7680117295596687,1.0,2826.441128854104,0.3443894395749847,1.318425558234962,0.9616949528961419,0.28730949264150607,0.6766746296643904
0.038,1.767355653597362,1.0,2833.807118997135,0.34806684639241,1.3180635128210894,0.9624320191916914,0.2872819374510892,0.6774094445532804
0.0385,1.7666995776350556,1.0,2841.0246112973437,0.35172365155209206,1.3177028758223714,0.9631435415677465,0.28725438226067235,0.6781405698156724
0.039,1.7660435016727491,1.0,2848.0973469108844,0.35535996461583536,1.3173436085848784,0.9638307076712268,0.2872268270702555,0.678868093400279
0.0395,1.7653874257104425,1.0,2855.0291012998855,0.3589758951454442,1.316985672454681,0.9644946364531138,0.28719927187983857,0.6795921028649674
0.04,1.764731349748136,1.0,2861.823683075307,0.362571552702723,1.316629028777849,0.9651363828785553,0.2871717166894217,0.6803126853800895
0.0405,1.7640752737858296,1.0,2868.484932872487,0.3661470468494762,1.3162736389004535,0.9657569422659513,0.28714416149900485,0.6810299277317142
0.041,1.7634191978235232,1.0,2875.0167222600885,0.3697024871475081,1.3159194641685645,0.9663572542878525,0.287116606308588,0.6817439163247674
0.0415,1.7627631218612165,1.0,2881.4229526822664,0.3732379831586231,1.3155664659282522,0.9669382066632968,0.28708905111817107,0.6824547371860754
0.042,1.76210704589891,1.0,2887.7075544339054,0.3767536444446256,1.3152146055255873,0.9675006385683412,0.2870614959277542,0.6831624759673098
0.0425,1.7614509699366037,1.0,2893.874485668571,0.38024958056732006,1.31486384430664,0.9680453437889796,0.28703394073733735,0.6838672179478442
0.043000000000000003,1.760794893974297,1.0,2899.9277314402675,0.38372590108851073,1.3145141436174805,0.9685730736383398,0.2870063855469205,0.6845690480375091
0.043500000000000004,1.7601388180119906,1.0,2905.8713027777417,0.3871827155700021,1.3141654648041796,0.9690845396580006,0.2869788303565036,0.6852680507792532
0.044,1.7594827420496841,1.0,2911.709235792299,0.39062013357359854,1.3138177692128075,0.9695804161214117,0.28695127516608676,0.6859643103517128
0.0445,1.7588266660873777,1.0,2917.445590818562,0.3940382646611044,1.3134710181894342,0.97006134235575,0.28692371997566984,0.6866579105716817
0.045,1.758170590125071,1.0,2923.0844515884687,0.3974372183943241,1.3131251730801305,0.9705279248970469,0.286896164785253,0.687348934896487
0.0455,1.7575145141627646,1.0,2928.6299244382244,0.40081710433506207,1.3127801952309668,0.9709807394920816,0.2868686095948361,0.6880374664262701
0.046,1.7568584382004582,1.0,2934.0861375484124,0.40417803204512265,1.3124360459880131,0.971420332959323,0.28684105440441926,0.6887235879061739
0.0465,1.7562023622381515,1.0,2939.457240217472,0.4075201110863102,1.31209268669734,0.9718472249201114,0.28681349921400234,0.6894073817284312
0.047,1.755546286275845,1.0,2944.746658570417,0.4108434460936211,1.3117500852123274,0.9722619092330875,0.2867859440235855,0.6900889169965134
0.0475,1.7548902103135386,1.0,2949.953333488894,0.41414811805899465,1.3114082487523633,0.9726648554658228,0.2867583888331686,0.6907681843398796
0.048,1.7542341343512322,1.0,2955.0854275668894,0.4174342710108768,1.3110671039861195,0.9730565129024887,0.28673083364275176,0.6914453342400789
0.0485,1.7535780583889256,1.0,2960.1448805203486,0.42070200413192543,1.3107266321819842,0.9734373074683167,0.2867032784523349,0.6921204083317665
0.049,1.7529219824266191,1.0,2965.133642473486,0.42395141660479824,1.3103868146083446,0.973807644966517,0.286675723261918,0.6927934480780775
0.0495,1.7522659064643127,1.0,2970.0536736832255,0.427182607612153,1.3100476325335892,0.9741679122123865,0.2866481680715011,0.6934644947714173
0.05,1.751609830502006,1.0,2974.906944271143,0.43039567633664744,1.309709067226106,0.9745184780935614,0.28662061288108426,0.6941335895342327
0.0505,1.7509537545396996,1.0,2979.6954339634935,0.4335907219609394,1.3093710999542825,0.9748596945618504,0.2865930576906674,0.6948007733197621
0.051000000000000004,1.7502976785773932,1.0,2984.4211318391626,0.43676784366768656,1.3090337119865068,0.9751918975616379,0.2865655025002505,0.6954660869127577
0.051500000000000004,1.7496416026150865,1.0,2989.086036085115,0.4399271406395467,1.3086968845911668,0.9755154078994409,0.2865379473098336,0.6961295709301908
0.052000000000000005,1.74898552665278,1.0,2993.692153759354,0.4430687120591776,1.3083605990366505,0.9758305320588407,0.28651039211941676,0.6967912658219326
0.0525,1.7483294506904736,1.0,2998.241500562547,0.44619265710923695,1.3080248365913458,0.9761375629646647,0.2864828369289999,0.6974512118714118
0.053,1.7476733747281672,1.0,3002.736100616477,0.44929907497238264,1.3076895785236406,0.9764367806999981,0.28645528173858303,0.6981094491962512
0.0535,1.7470172987658605,1.0,3007.1779862508815,0.45238806483127236,1.3073548061019227,0.9767284531793152,0.2864277265481662,0.6987660177488824
0.054,1.746361222803554,1.0,3011.569197797564,0.45545972586856387,1.3070205005945803,0.9770128367807736,0.28640017135774926,0.6994209573171344
0.0545,1.7457051468412477,1.0,3015.911783393313,0.45851415726691497,1.3066866432700008,0.9772901769404706,0.2863726161673324,0.7000743075248064
0.055,1.745049070878941,1.0,3020.207798788948,0.46155145820898336,1.3063532153965727,0.9775607087112559,0.28634506097691553,0.7007261078322102
0.0555,1.7443929949166346,1.0,3024.4576364059917,0.4645717064524876,1.3060202126697515,0.9778246561321858,0.2863175057864986,0.7013763693799746
0.056,1.7437369189543281,1.0,3028.662405967194,0.46757499528307994,1.3056876246179174,0.9780822350484555,0.28628995059608175,0.7020251152916301
0.0565,1.7430808429920217,1.0,3032.826417495965,0.4705614594565252,1.3053554132120162,0.978333654580827,0.2862623954056649,0.7026724222644096
0.057,1.742424767029715,1.0,3036.9506016426617,0.47353118837687946,1.3050235696569725,0.978579112853131,0.28623484021524803,0.7033183098013969
0.0575,1.7417686910674086,1.0,3041.035892745118,0.47648427144819877,1.3046920851577122,0.9788187999839068,0.28620728502483117,0.7039627973285889
0.058,1.7411126151051022,1.0,3045.083228757981,0.4794207980745392,1.3043609509191598,0.9790528984739642,0.2861797298344143,0.7046059041951045
0.0585,1.7404565391427955,1.0,3049.093551183171,0.4823408576599567,1.304030158146241,0.9792815835722053,0.2861521746439974,0.705247649673379
0.059000000000000004,1.739800463180489,1.0,3053.067805002993,0.48524453960850744,1.303699698043881,0.9795050236210773,0.28612461945358053,0.7058880529593605
0.059500000000000004,1.7391443872181827,1.0,3057.0069386139558,0.4881319333242474,1.303369561817005,0.9797233803829483,0.28609706426316367,0.7065271331726991
0.06,1.7384883112558762,1.0,3060.9119037628325,0.4910031282112327,1.303039740670538,0.9799368093485981,0.2860695090727468,0.7071649093569293
0.0605,1.7378322352935696,1.0,3064.783655484392,0.4938582136735194,1.3027102258094057,0.9801454600289353,0.2860419538823299,0.7078014004796513
0.061,1.7371761593312631,1.0,3068.6231520410956,0.4966972791151635,1.3023810084385328,0.9803494762309777,0.28601439869191303,0.708436625432704
0.0615,1.7365200833689567,1.0,3072.4313548637783,0.499520413940221,1.3020520797628448,0.9805489963190541,0.28598684350149617,0.7090706030323344
0.062,1.73586400740665,1.0,3076.2092284947735,0.502327707552748,1.301723430987267,0.9807441534621294,0.2859592883110793,0.7097033520193621
0.0625,1.7352079314443436,1.0,3079.957740532403,0.5051192493568007,1.3013950533167242,0.9809350758680884,0.28593173312066245,0.7103348910593399
0.063,1.7345518554820372,1.0,3083.6778615771523,0.507895128756435,1.3010669379561421,0.9811218870057576,0.2859041779302456,0.7109652387427056
0.0635,1.7338957795197307,1.0,3087.3705651799046,0.510655435155707,1.3007390761104458,0.9813047058153951,0.28587662273982867,0.7115944135849346
0.064,1.733239703557424,1.0,3091.036827791511,0.5134002579586727,1.3004114589845606,0.9814836469083253,0.2858490675494118,0.7122224340266827
0.0645,1.7325836275951176,1.0,3094.6776287142084,0.5161296865693882,1.3000840777834113,0.9816588207563597,0.28582151235899494,0.7128493184339273
0.065,1.7319275516328112,1.0,3098.293950054552,0.5188438103919095,1.2997569237119235,0.9818303338715905,0.2857939571685781,0.7134750850980998
0.0655,1.7312714756705045,1.0,3101.8852406059095,0.52154268058903,1.2994300010724578,0.9819982870163172,0.28576640197816117,0.7140997272249616
0.066,1.730615399708198,1.0,3105.453302470087,0.5242264194914467,1.299103294106284,0.9821627812438074,0.2857388467877443,0.7147232763226079
0.0665,1.7299593237458917,1.0,3108.9991160988584,0.5268951221518205,1.2987767940914803,0.982323912556719,0.28571129159732744,0.7153457503584733
0.067,1.729303247783585,1.0,3112.523120423834,0.5295488686349352,1.2984504969379234,0.9824817728543536,0.2856837364069106,0.7159671584104165
0.0675,1.7286471718212786,1.0,3116.025755742203,0.5321877390055737,1.2981243985554904,0.9826364508751001,0.2856561812164937,0.7165875095214512
0.068,1.7279910958589721,1.0,3119.507463699051,0.5348118133285195,1.297798494854058,0.9827880323273256,0.28562862602607686,0.7172068126998011
0.0685,1.7273350198966657,1.0,3122.968687268957,0.5374211716685559,1.297472781743503,0.9829366000139677,0.28560107083565994,0.7178250769189485
0.069,1.726678943934359,1.0,3126.409870739086,0.540015894090466,1.2971472551337022,0.9830822339511773,0.2855735156452431,0.7184423111176865
0.0695,1.7260228679720526,1.0,3129.8314596917403,0.5425960606590333,1.2968219109345323,0.9832250114813297,0.2855459604548262,0.7190585242001677
0.07,1.7253667920097462,1.0,3133.233900987387,0.5451617514390411,1.2964967450558704,0.9833650073807103,0.2855184052644093,0.7196737250359508
0.07050000000000001,1.7247107160474395,1.0,3136.617642749108,0.5477130464952726,1.2961717534075932,0.9835022939621609,0.28549085007399244,0.7202879224600505
