Time [s],Phi [rad],STIM [ ],Fsee [N],Gamma [ ],Lcerel [ ],q [ ],Lmtc [m],fisomrel [ ]
0.0,1.8,1.0,19.94264916065586,0.001436642098607157,1.3791241956344347,0.005528360633865241,0.288653,0.5416608554991802
0.0005,1.79999375,1.0,20.650863119514494,0.007037792981289382,1.3790467187122528,0.017370083289510813,0.2886527375,0.5418481665608237
0.001,1.799975,1.0,25.06247168031495,0.012607525836416049,1.378599533161363,0.043423512928654956,0.28865195,0.5429285506696366
0.0015,1.79994375,1.0,37.00895703126867,0.018146016893940718,1.3775622778517178,0.08104650904246306,0.2886506375,0.5454296120644841
0.002,1.7999,1.0,64.33518772133111,0.02365344139610754,1.3757024179751063,0.12692608899888386,0.2886488,0.5498969806366663
0.0025,1.79984375,1.0,113.48610358411393,0.02912997360122689,1.3731771657042442,0.17775362861386768,0.28864643749999996,0.5559273054749588
0.003,1.7997750000000001,1.0,181.20552207355652,0.034575786791076014,1.3704789091519116,0.23080879701962378,0.28864354999999997,0.5623258223010511
0.0035,1.79969375,1.0,260.0010603783269,0.039991053274082596,1.3679127105011446,0.28402054798129095,0.2886401375,0.5683681041189445
0.004,1.7996,1.0,344.8870654184897,0.04537594439125339,1.3655466826990588,0.3358641152281632,0.2886362,0.5739018583154134
0.0045000000000000005,1.7994937500000001,1.0,433.3048266169093,0.05073063053833553,1.363366622414299,0.38530229131359767,0.2886317375,0.5789690615919141
0.005,1.799375,1.0,523.7639920560404,0.05605528107483909,1.3613470546914863,0.4317092230020033,0.28862675,0.583636180056722
0.0055,1.79924375,1.0,615.2518912711936,0.06135006465901248,1.3594657643215293,0.4747749151232245,0.2886212375,0.587960345282968
0.006,1.7991000000000001,1.0,706.8875879701651,0.06661514857830748,1.3577073275275686,0.5144161270689932,0.2886152,0.5919817214065204
0.006500000000000001,1.79894375,1.0,798.0232719077276,0.07185069958226172,1.3560582985461975,0.5506990470347501,0.2886086375,0.5957349746058256
0.007,1.798775,1.0,888.0740131366301,0.07705688327166205,1.3545087475567597,0.5837837943301252,0.28860155,0.5992460073524798
0.0075,1.79859375,1.0,976.5770005147549,0.08223386432089397,1.3530500512880896,0.6138823704521674,0.2885939375,0.6025371852215475
0.008,1.7984,1.0,1063.167031177848,0.08738180683213628,1.3516746566606828,0.6412306025293768,0.2885858,0.6056279842557108
0.0085,1.79819375,1.0,1147.5295545972576,0.0925008732324103,1.3503762911201311,0.6660699190587916,0.2885771375,0.6085346129493021
0.009000000000000001,1.797975,1.0,1229.4436442357642,0.09759122549267572,1.3491489701909165,0.688635310447887,0.28856795,0.6112723106333626
0.0095,1.79774375,1.0,1308.764754319389,0.10265302547097913,1.3479870342648779,0.7091487131062884,0.2885582375,0.613855306069945
0.01,1.7975,1.0,1385.3564684989426,0.10768643265665725,1.3468858490289024,0.7278159219496101,0.288548,0.6162953053045201
0.0105,1.79724375,1.0,1459.137139529546,0.11269160607006175,1.3458409877773254,0.7448247647516464,0.2885372375,0.6186033519553695
0.011,1.796975,1.0,1530.0709798662022,0.117668704230416,1.3448482352835083,0.7603450593434178,0.28852595000000003,0.6207898425441649
0.0115,1.79669375,1.0,1598.159752975786,0.1226178854272929,1.3439035940481616,0.7745293477913497,0.2885141375,0.6228645344411903
0.012,1.7964,1.0,1663.399199862128,0.12753930559511584,1.3430037095112726,0.7875142309277836,0.28850180000000003,0.6248356354002123
0.0125,1.79609375,1.0,1725.8106547150735,0.13243312010624472,1.342145397478,0.7994214932970752,0.2884889375,0.6267108641091244
0.013000000000000001,1.7957750000000001,1.0,1785.441564602167,0.13729948387162744,1.3413255831984063,0.8103594972726855,0.28847555,0.6284975964740682
0.0135,1.79544375,1.0,1842.361466515984,0.14213855180232746,1.3405413017164531,0.8204245781186834,0.2884616375,0.6302028757183151
0.014,1.7951000000000001,1.0,1896.6270078260509,0.14695047666701797,1.3397900397055553,0.829702480660545,0.2884472,0.6318326814952078
0.0145,1.79474375,1.0,1948.295528050508,0.15173541001631904,1.339069531089439,0.838269475893649,0.2884322375,0.6333923886696047
0.015,1.794375,1.0,1997.444802727742,0.15649350340085078,1.3383775097918296,0.8461933700100246,0.28841675,0.6348873114383938
0.0155,1.79399375,1.0,2044.1525391341384,0.161224907225465,1.337711906490899,0.8535345609229047,0.2884007375,0.6363222838465632
0.016,1.7936,1.0,2088.526137184377,0.16592977278779708,1.3370705116287287,0.8603468071552012,0.2883842,0.6377023921886068
0.0165,1.7931937500000001,1.0,2130.633951010332,0.17060824783278405,1.3364516749139417,0.8666782234849724,0.2883671375,0.6390314746415922
0.017,1.792775,1.0,2170.5508568915434,0.17526047976821665,1.3358538006181635,0.8725717962015791,0.28834955,0.6403132162319352
0.0175,1.7923437500000001,1.0,2208.3624187544615,0.17988661600188563,1.3352752930130203,0.8780659728122716,0.2883314375,0.6415512687979381
0.018000000000000002,1.7919,1.0,2244.151670662136,0.1844868027458147,1.3347146797147176,0.8831952269593701,0.2883128,0.6427489897432208
0.0185,1.79144375,1.0,2278.0158786203974,0.18906118734585306,1.3341704317833232,0.8879904753489015,0.2882936375,0.6439098294698576
0.019,1.790975,1.0,2310.0278124291785,0.19360991368072675,1.3336413409872174,0.8924795797722573,0.28827395,0.6450365292865157
0.0195,1.79049375,1.0,2340.258401459523,0.19813312475004416,1.33312627992799,0.8966876367811334,0.2882537375,0.6461316378231456
0.02,1.79,1.0,2368.7842278098205,0.20263096355341387,1.3326241212072303,0.9006372716738561,0.288233,0.6471976849206562
0.0205,1.78949375,1.0,2395.6848215336554,0.20710357268653296,1.3321337590340787,0.9043489197839882,0.2882117375,0.6482371368300145
0.021,1.788975,1.0,2421.0337731346694,0.21155109361539026,1.3316541900954768,0.907841085795736,0.28818995000000003,0.6492522263779125
0.021500000000000002,1.78844375,1.0,2444.9122276623107,0.215973669473107,1.3311843774718621,0.9111305269194656,0.2881676375,0.6502452427250482
0.022,1.7879,1.0,2467.3780511257837,0.22037143844776097,1.3307235427915487,0.914232497160148,0.2881448,0.6512179153169855
0.0225,1.78734375,1.0,2488.4920696893473,0.22474453872743003,1.33027090768285,0.9171608571792071,0.28812143749999997,0.6521719628136045
0.023,1.786775,1.0,2508.317824028037,0.229093108500192,1.3298256937740809,0.9199282208516739,0.28809755,0.6531090935154535
0.0235,1.78619375,1.0,2526.921337115962,0.23341728595412461,1.3293871226935545,0.9225460846725294,0.28807313749999996,0.6540310057514709
0.024,1.7856,1.0,2544.3589988062427,0.2377172064749554,1.3289545280706276,0.925024960982555,0.2880482,0.6549391532583886
0.0245,1.78499375,1.0,2560.6987548098105,0.2419930101796375,1.328527152971822,0.9273744450293679,0.2880227375,0.6558351714293021
0.025,1.784375,1.0,2575.9908381817713,0.24624483176912124,1.328104423538454,0.9296033484573614,0.28799675,0.656720303745213
0.025500000000000002,1.78374375,1.0,2590.2801376467833,0.2504728040358142,1.32768582940637,0.9317197572124272,0.2879702375,0.6575956543566944
0.026000000000000002,1.7831000000000001,1.0,2603.612805213364,0.25467705977212396,1.327270860211415,0.9337310922372714,0.2879432,0.6584623216086751
0.0265,1.78244375,1.0,2616.0361483901092,0.25885773177045823,1.3268590055894345,0.9356441731272965,0.2879156375,0.6593213981667285
0.027,1.781775,1.0,2627.5985281769476,0.26301495282322457,1.326449755176274,0.9374652749171225,0.28788755,0.6601739711267565
0.0275,1.7810937500000001,1.0,2638.3458226890066,0.2671488545411333,1.3260426304129573,0.9392001830961538,0.2878589375,0.6610210559738512
0.028,1.7804,1.0,2648.3175979782354,0.2712595670255869,1.3256372187461687,0.9408542433783923,0.2878298,0.6618635260435584
0.0285,1.77969375,1.0,2657.567926135025,0.2753472256447599,1.3252329805447816,0.9424323763673915,0.2878001375,0.6627025139220591
0.029,1.778975,1.0,2666.1278057441273,0.2794119572808448,1.3248295951386142,0.9439391590884092,0.28776995,0.6635386929913393
0.029500000000000002,1.7782437500000001,1.0,2674.028749771877,0.28345388881603384,1.3244267418574849,0.9453788279454806,0.2877392375,0.6643727333154874
0.03,1.7775,1.0,2681.3027405074045,0.28747314713251937,1.324024100031212,0.9467553084212558,0.287708,0.6652053016548568
0.0305,1.77674375,1.0,2687.9821867837986,0.2914698591124939,1.3236213489896136,0.9480722418349782,0.2876762375,0.6660370614736695
0.031,1.775975,1.0,2694.0998834788234,0.2954441516381497,1.3232181680625081,0.9493330094819521,0.28764395,0.6668686729410594
0.0315,1.7751937500000001,1.0,2699.688973295938,0.29939615159167915,1.322814236579714,0.9505407544391212,0.2876111375,0.6677007929255627
0.032,1.7744,1.0,2704.7761979221696,0.3033259819044525,1.3224092951669995,0.951698407539279,0.2875778,0.6685339489474447
0.0325,1.77359375,1.0,2709.395342364471,0.30723377173542776,1.32200302252099,0.952808692957949,0.2875439375,0.6693687930081211
0.033,1.772775,1.0,2713.5711843054437,0.31111964447202767,1.3215951817331002,0.9538741585620157,0.28750955,0.6702058006570608
0.0335,1.7719437500000002,1.0,2717.3249848110536,0.31498372108297035,1.3211855697072594,0.9548971850195522,0.2874746375,0.6710453756754566
0.034,1.7711000000000001,1.0,2720.6781699636526,0.318826122536974,1.3207739833473977,0.9558799957984634,0.2874392,0.6718879196665926
0.0345,1.7702437500000001,1.0,2723.652313875733,0.32264696980275687,1.3203602195574444,0.9568246693975998,0.2874032375,0.6727338320315881
0.035,1.7693750000000001,1.0,2726.2691226171287,0.326446383849037,1.3199440752413296,0.9577331504898009,0.28736675,0.6735835099425077
0.035500000000000004,1.76849375,1.0,2728.5504190576694,0.3302244856445327,1.3195253473029824,0.9586072600850313,0.2873297375,0.6744373483128459
0.036000000000000004,1.7676,1.0,2730.5152318332307,0.33398139293465906,1.3191038589721604,0.9594487067741264,0.2872922,0.6752956861896542
0.0365,1.76669375,1.0,2732.180339934203,0.33771722182565317,1.3186794546954415,0.9602590949071015,0.2872541375,0.6761588174585973
0.037,1.765775,1.0,2733.5742008117545,0.34143210380011874,1.3182518735028002,0.9610399233720328,0.28721555,0.6770272481248651
0.0375,1.76484375,1.0,2734.709390316009,0.3451261529769328,1.317820999305602,0.9617926106192438,0.2871764375,0.6779011875012388
0.038,1.7639,1.0,2735.598532951803,0.3487994834749725,1.3173867160152133,0.9625184901523215,0.28713679999999997,0.678780843421806
0.0385,1.76294375,1.0,2736.2542959746884,0.35245220941311495,1.3169489075429999,0.9632188165428245,0.28709663750000003,0.6796664222171522
0.039,1.761975,1.0,2736.6893837843113,0.35608444491023733,1.3165074578003273,0.9638947709562565,0.28705595,0.6805581286886928
0.0395,1.7609937500000001,1.0,2736.916532617838,0.35969630408521674,1.3160622506985615,0.9645474662338546,0.2870147375,0.6814561660821417
0.04,1.76,1.0,2736.948505541259,0.36328790105693026,1.3156131701490688,0.9651779515702659,0.286973,0.6823607360601243
0.0405,1.7589937500000001,1.0,2736.7980877401387,0.3668593499442551,1.3151601000632145,0.9657872168231927,0.2869307375,0.6832720386739306
0.041,1.757975,1.0,2736.4780821085155,0.3704107648660684,1.314702924352365,0.9663761964875396,0.28688795,0.684190272334406
0.0415,1.75694375,1.0,2736.001305137276,0.3739422599412472,1.3142415269278855,0.9669457733634022,0.2868446375,0.6851156337819866
0.042,1.7559,1.0,2735.3750937782,0.3774539413508321,1.3137758415433727,0.967496784792143,0.28680079999999997,0.6860482183155239
0.0425,1.75484375,1.0,2734.6118352555663,0.3809459273822409,1.3133057561748962,0.9680300210064817,0.2867564375,0.6869882115678461
0.043000000000000003,1.753775,1.0,2733.722822611647,0.3844183325168705,1.312831168773537,0.9685462300890363,0.28671155,0.687935777563083
0.043500000000000004,1.75269375,1.0,2732.7148645608604,0.3878712636453329,1.3123520180447112,0.9690461225489191,0.28666613750000003,0.6888909975235854
0.044,1.7516,1.0,2731.59477292733,0.3913048276582401,1.3118682426938353,0.9695303716510256,0.2866202,0.6898539515276119
0.0445,1.75049375,1.0,2730.369361216788,0.39471913144620413,1.3113797814263253,0.9699996157325,0.2865737375,0.690824718491371
0.045,1.7493750000000001,1.0,2729.045443271123,0.3981142818998371,1.3108865729475971,0.9704544603531688,0.28652675,0.6918033761508239
0.0455,1.74824375,1.0,2727.6298320062238,0.401490385909751,1.3103885559630675,0.9708954802933479,0.2864792375,0.6927900010432453
0.046,1.7471,1.0,2726.1293382337794,0.4048475503665579,1.3098856691781522,0.9713232214112267,0.2864312,0.6937846684885485
0.0465,1.7459437500000001,1.0,2724.550769565464,0.40818588216086976,1.3093778512982677,0.9717382023709569,0.28638263750000004,0.6947874525703667
0.047,1.744775,1.0,2722.9009294010684,0.41150548818329863,1.30886504102883,0.9721409162515932,0.28633355,0.6957984261168977
0.0475,1.74359375,1.0,2721.1866159999367,0.4148064753244566,1.3083471770752555,0.9725318320461491,0.28628393750000003,0.6968176606815084
0.048,1.7424,1.0,2719.412033529083,0.418088925487917,1.307824221711453,0.9729113945789812,0.2862338,0.6978451802542672
0.0485,1.74119375,1.0,2717.5853906200705,0.42135297648515563,1.3072961007027553,0.9732800318059072,0.2861831375,0.6988810793778129
0.049,1.739975,1.0,2715.710069991963,0.4245987292867973,1.3067627837070972,0.9736381498099814,0.28613195,0.6999253652177063
0.0495,1.73874375,1.0,2713.7892387875368,0.427826282816578,1.306224242318476,0.9739861354908301,0.2860802375,0.7009780402311074
0.05,1.7375,1.0,2711.8260609717126,0.4310357359982337,1.3056804481308895,0.9743243577531835,0.286028,0.7020391059646001
0.0505,1.73624375,1.0,2709.82369707507,0.4342271877555005,1.3051313727383351,0.9746531685021531,0.2859752375,0.703108563044704
0.051000000000000004,1.734975,1.0,2707.7853039562733,0.43740073701211446,1.3045769877348106,0.9749729035748819,0.28592195,0.7041864111683325
0.051500000000000004,1.73369375,1.0,2705.7140345813364,0.4405564826918115,1.3040172647143133,0.9752838836131694,0.2858681375,0.7052726490931989
0.052000000000000005,1.7324,1.0,2703.6130378213998,0.44369452371832774,1.303452175270841,0.9755864148812932,0.2858138,0.7063672746281722
0.0525,1.73109375,1.0,2701.4854582682688,0.4468149590153991,1.3028816909983911,0.9758807900329151,0.28575893750000003,0.7074702846235814
0.053,1.729775,1.0,2699.3344360677415,0.4499178875067617,1.3023057834909615,0.9761672888306607,0.28570355000000003,0.7085816749614666
0.0535,1.72844375,1.0,2697.163106770961,0.4530034081161516,1.3017244243425494,0.9764461788216681,0.2856476375,0.7097014405457818
0.054,1.7271,1.0,2694.9746012035876,0.4560716197673047,1.3011375851471527,0.9767177159721562,0.2855912,0.7108295752925426
0.0545,1.7257437500000001,1.0,2692.772045352835,0.45912262138395715,1.3005452374987685,0.9769821452638239,0.2855342375,0.7119660721199261
0.055,1.724375,1.0,2690.558560272291,0.4621565118898449,1.299947352991395,0.9772397012546745,0.28547675,0.7131109229383148
0.0555,1.72299375,1.0,2688.3318289289437,0.4651733458964854,1.2993439529803057,0.9774906073689695,0.2854187375,0.7142640236419788
0.056,1.7216,1.0,2686.0978555481474,0.4681732638043361,1.2987349826113004,0.9777350812879481,0.2853602,0.7154254150644963
0.0565,1.72019375,1.0,2683.8598174975828,0.4711563758037193,1.2981204128521044,0.977973330300471,0.28530113749999997,0.7165950875028406
0.057,1.718775,1.0,2681.6185901091285,0.47412277117360585,1.297500235732828,0.9782055524730306,0.28524155,0.7177729902388768
0.0575,1.71734375,1.0,2679.375047272967,0.47707253919296677,1.296874443283581,0.9784319378119901,0.2851814375,0.718959071827372
0.058,1.7159,1.0,2677.130061431998,0.4800057691407729,1.2962430275344738,0.9786526686540351,0.2851208,0.720153280093141
0.0585,1.71444375,1.0,2674.8845035772065,0.4829225502959953,1.2956059805156164,0.9788679200347048,0.2850596375,0.7213555621281922
0.059000000000000004,1.7129750000000001,1.0,2672.639243244244,0.48582297193760476,1.294963294257119,0.9790778600363925,0.28499795,0.7225658642888656
0.059500000000000004,1.71149375,1.0,2670.3951485121343,0.48870712334457234,1.2943149607890914,0.9792826501171122,0.2849357375,0.7237841321929708
0.06,1.71,1.0,2668.1530860024086,0.49157509379586883,1.2936609721416439,0.9794824454212361,0.284873,0.7250103107169154
0.0605,1.7084937500000001,1.0,2665.9139208806296,0.49442697257046525,1.2930013203448865,0.9796773950733212,0.2848097375,0.7262443439928356
0.061,1.7069750000000001,1.0,2663.6785168586025,0.4972628489473326,1.2923359974289295,0.9798676424560729,0.28474595,0.7274861754057174
0.0615,1.7054437500000001,1.0,2661.4477361982294,0.5000828122054417,1.2916649954238828,0.9800533254734071,0.2846816375,0.728735747590518
0.062,1.7039,1.0,2659.222439717121,0.5028869516237635,1.2909883063598566,0.9802345767995269,0.2846168,0.7299930024292801
0.0625,1.70234375,1.0,2657.0034867948107,0.5056753564812689,1.290305922266961,0.9804115241148489,0.2845514375,0.7312578810482435
0.063,1.7007750000000001,1.0,2654.791735381255,0.508448116056929,1.289617835175306,0.9805842903295693,0.28448555,0.732530323814953
0.0635,1.69919375,1.0,2652.5880420063736,0.5112053196297145,1.288924037115002,0.9807529937956038,0.28441913750000003,0.7338102703353604
0.064,1.6976,1.0,2650.393261790367,0.5139470564785965,1.2882245201161586,0.9809177485075872,0.2843522,0.735097659450925
0.0645,1.69599375,1.0,2648.2082484569514,0.5166734158825458,1.2875192762088865,0.9810786642935726,0.2842847375,0.736392429235708
0.065,1.694375,1.0,2646.033854346516,0.5193844871205335,1.2868082974232953,0.981235846996028,0.28421675,0.737694516993465
0.0655,1.69274375,1.0,2643.8696417569495,0.5220803328146673,1.2860915876912353,0.9813893973743302,0.2841482375,0.7390038375392481
0.066,1.6911,1.0,2641.7149832411137,0.5247610411653122,1.2853691527045965,0.9815394144618836,0.2840792,0.7403203019281273
0.0665,1.6894437500000001,1.0,2639.571509357018,0.5274267344895199,1.284640977293853,0.9816859950784106,0.2840096375,0.7416438585625009
0.067,1.687775,1.0,2637.439309692954,0.5300774922891369,1.283907060514527,0.9818292304072914,0.28393955,0.7429744291772981
0.0675,1.68609375,1.0,2635.3184737336533,0.5327133940660096,1.283167401422142,0.981969208448977,0.2838689375,0.7443119348591567
0.068,1.6844000000000001,1.0,2633.2090908617274,0.5353345193219842,1.2824219990722208,0.9821060141527592,0.2837978,0.7456562960460795
0.0685,1.68269375,1.0,2631.1112503598442,0.5379409475589072,1.2816708525202862,0.9822397295421944,0.2837261375,0.7470074325270892
0.069,1.680975,1.0,2629.0250414129805,0.5405327582786249,1.2809139608218616,0.9823704338345233,0.28365395,0.7483652634418801
0.0695,1.67924375,1.0,2626.9505531103837,0.5431100309829836,1.2801513230324693,0.9824982035544164,0.28358123749999997,0.7497297072804754
0.07,1.6775,1.0,2624.8878744476037,0.5456728451738299,1.2793829382076327,0.9826231126423496,0.283508,0.7511006818828765
0.07050000000000001,1.67574375,1.0,2622.837094328687,0.5482212803530099,1.2786088054028746,0.9827452325578989,0.2834342375,0.7524781044387219
0.07100000000000001,1.673975,1.0,2620.7983015683167,0.5507554160223701,1.277828923673718,0.9828646323782213,0.28335995,0.7538618914869369
0.07150000000000001,1.67219375,1.0,2618.7715848940397,0.553275331683757,1.2770432920756856,0.9829813788919831,0.2832851375,0.7552519589153903
0.07200000000000001,1.6704,1.0,2616.75703294829,0.5557811068390167,1.2762519096643006,0.9830955366889671,0.2832098,0.7566482219605457
0.0725,1.66859375,1.0,2614.7547342907505,0.5582728209899956,1.2754547754950858,0.9832071682455895,0.2831339375,0.758050595207117
0.073,1.6667750000000001,1.0,2612.764777400546,0.5607505536385403,1.2746518886235645,0.9833163340065375,0.28305755,0.7594589925877204
0.0735,1.66494375,1.0,2610.787250678447,0.563214384286497,1.273843248105259,0.983423092462726,0.2829806375,0.7608733273825304
0.074,1.6631,1.0,2608.8222424489154,0.5656643924357121,1.273028852995693,0.983527500225764,0.2829032,0.7622935122189294
0.0745,1.6612437500000001,1.0,2606.8698409628923,0.568100657588032,1.272208702350389,0.9836296120991046,0.2828252375,0.763719459071165
0.075,1.659375,1.0,2604.9301343997186,0.5705232592453029,1.2713827952248697,0.9837294811460536,0.28274675,0.7651510792600014
0.0755,1.65749375,1.0,2603.0032108695814,0.5729322769093714,1.2705511306746586,0.9838271587547848,0.2826677375,0.7665882834523718
