Time [s],Phi [rad],STIM [ ],Fsee [N],Gamma [ ],Lcerel [ ],q [ ],Lmtc [m],fisomrel [ ]
0.0,1.8,1.0,17.968089713563934,1.2133284295425957e-05,1.37933964185677,0.005000039175994956,0.288653,0.5411397835330913
0.0005,1.79999375,1.0,18.278054189212277,0.005621274534960817,1.3793022422718186,0.01294643613175105,0.2886527375,0.5412302583149573
0.001,1.799975,1.0,21.621212512023668,0.011198952938122167,1.3789380129828577,0.035619689368818146,0.28865195,0.5421109129993738
0.0015,1.79994375,1.0,31.07534400803419,0.01674534497633929,1.378045683373602,0.07061691557597312,0.2886506375,0.5442648637837575
0.002,1.7999,1.0,53.594981035060385,0.02226062614051969,1.3763673147533222,0.11473585066643352,0.2886488,0.54830243745336
0.0025,1.79984375,1.0,97.13973291100011,0.02774497093749227,1.373934165239032,0.16459427329705711,0.28864643749999996,0.5541238522544271
0.003,1.7997750000000001,1.0,160.9851803849684,0.03319855289770942,1.3712133326552798,0.2173004493426785,0.28864354999999997,0.5605888445757672
0.0035,1.79969375,1.0,237.71382028744054,0.038621544574850626,1.3685837951292874,0.27063277742580755,0.2886401375,0.5667920470921286
0.004,1.7996,1.0,321.4991991611664,0.0440141175566016,1.366155233528672,0.322935060722912,0.2886362,0.5724819673455475
0.0045000000000000005,1.7994937500000001,1.0,409.3013416709918,0.049376442469839715,1.363922025676726,0.3730527905804822,0.2886317375,0.5776809924341468
0.005,1.799375,1.0,499.44777369163944,0.05470868897172367,1.361857614134769,0.4202645671018868,0.28862675,0.5824587598619027
0.0055,1.79924375,1.0,590.8250036920855,0.060011025797110436,1.3599381593104918,0.46418953712478206,0.2886212375,0.5868766628577011
0.006,1.7991000000000001,1.0,682.5527399178717,0.06528362070184678,1.358145785245261,0.5046945190652119,0.2886152,0.5909808562214778
0.006500000000000001,1.79894375,1.0,773.8975816145011,0.07052664025572156,1.3564669749615637,0.5418142670683432,0.2886086375,0.5948064278117091
0.007,1.798775,1.0,864.3259019488158,0.07574025120156343,1.3548897474098807,0.5756888517520805,0.28860155,0.5983841428040533
0.0075,1.79859375,1.0,953.2909383554274,0.08092461772002871,1.3534060451721217,0.6065208174265956,0.2885939375,0.6017352271549754
0.008,1.7984,1.0,1040.3918887922466,0.08607990373387575,1.3520081540973081,0.6345420814260171,0.2885858,0.6048796538552481
0.0085,1.79819375,1.0,1125.351472511693,0.09120627282944646,1.3506887142506263,0.6599935055522818,0.2885771375,0.6078361788815134
0.009000000000000001,1.797975,1.0,1207.9158103298273,0.09630388706053927,1.3494418214893344,0.6831125939862033,0.28856795,0.6106199406703321
0.0095,1.79774375,1.0,1287.905184990489,0.10137290767634882,1.348261952053402,0.704125134015097,0.2885582375,0.613244938622302
0.01,1.7975,1.0,1365.1921043231391,0.10641349515809846,1.347144063255517,0.7232411157784059,0.288548,0.615723849956791
0.0105,1.79724375,1.0,1439.6890408531058,0.11142580894744282,1.3460835766527908,0.7406529075065961,0.2885372375,0.6180681057755482
0.011,1.796975,1.0,1511.3380001173855,0.11641000721500376,1.3450763608115646,0.7565349056342678,0.28852595000000003,0.6202879630390526
0.0115,1.79669375,1.0,1580.1357286968187,0.12136624833377571,1.3441183072509888,0.7710438955621189,0.2885141375,0.6223934649703893
0.012,1.7964,1.0,1646.0905792235362,0.12629468952566933,1.343205772046707,0.7843203339786486,0.28850180000000003,0.6243934886282647
0.0125,1.79609375,1.0,1709.2052308969778,0.13119548571297268,1.3423356757655052,0.7964896863509073,0.2884889375,0.6262955519712211
0.013000000000000001,1.7957750000000001,1.0,1769.5184046012994,0.1360687918179739,1.3415049389741684,0.8076635834215143,0.28847555,0.628107068419163
0.0135,1.79544375,1.0,1827.0918585837117,0.14091476217316562,1.3407105914097175,0.817941279361069,0.2884616375,0.6298351176697722
0.014,1.7951000000000001,1.0,1882.0010046291732,0.14573355116794812,1.3399498341894316,0.8274110147193919,0.2884472,0.6314863209010777
0.0145,1.79474375,1.0,1934.3091498548122,0.1505253111180149,1.3392202774240671,0.8361513317103394,0.2884322375,0.6330663373225094
0.015,1.794375,1.0,1984.0765778524692,0.1552901926770193,1.3385197925266787,0.8442321315091832,0.28841675,0.6345801979199439
0.0155,1.79399375,1.0,2031.382006498177,0.16002834649861467,1.3378462509103217,0.8517155961016526,0.2884007375,0.6360328786538264
0.016,1.7936,1.0,2076.3132840307926,0.16473992256829473,1.3371976043992746,0.8586571246065579,0.2883842,0.6374291313373416
0.0165,1.7931937500000001,1.0,2118.964811945856,0.16942507106839322,1.3365718923987042,0.865106139142433,0.2883671375,0.6387734733646526
0.017,1.792775,1.0,2159.420031545218,0.17408394049487436,1.3359674030464594,0.8711068363855071,0.28834955,0.6400698472264601
0.0175,1.7923437500000001,1.0,2197.748946355206,0.17871667704922117,1.3353826752509672,0.8766988006276539,0.2883314375,0.6413216235379601
0.018000000000000002,1.7919,1.0,2234.0310759309837,0.1833234269329167,1.3348162479206545,0.8819174763700428,0.2883128,0.642532143266374
0.0185,1.79144375,1.0,2268.35465648186,0.18790433634744394,1.3342666599639479,0.8867946518293158,0.2882936375,0.6437047195042935
0.019,1.790975,1.0,2300.79875344177,0.19245954964267417,1.3337326199343047,0.891358923615911,0.28827395,0.6448422780350285
0.0195,1.79049375,1.0,2331.4617584518182,0.19698921359982907,1.3332127132341836,0.8956359930087253,0.2882537375,0.6459479838619699
0.02,1.79,1.0,2360.410689767244,0.2014934702561173,1.332705895714644,0.8996491064862586,0.288233,0.6470241931017743
0.0205,1.78949375,1.0,2387.7128463773406,0.2059724610547154,1.3322111695959207,0.903419256602821,0.2882117375,0.648073146669995
0.021,1.788975,1.0,2413.440055074824,0.21042632743879985,1.3317275370982489,0.9069654219029153,0.28818995000000003,0.6490970699321745
0.021500000000000002,1.78844375,1.0,2437.668289119264,0.21485521085154727,1.331254000441863,0.910304787776082,0.2881676375,0.6500981734415252
0.022,1.7879,1.0,2460.4641904129585,0.21925925062117435,1.330789687439715,0.9134529651940726,0.2881448,0.6510783886592337
0.0225,1.78734375,1.0,2481.9090084576974,0.22363858915157622,1.3303336173720548,0.9164241144166981,0.28812143749999997,0.652039863628485
0.023,1.786775,1.0,2502.06119257225,0.22799336418528168,1.3298850556674409,0.9192311629806975,0.28809755,0.6529842157120199
0.0235,1.78619375,1.0,2520.974029923329,0.23232371208942737,1.3294433396915648,0.9218859013522385,0.28807313749999996,0.6539129015716462
0.024,1.7856,1.0,2538.7029363165398,0.2366297692311499,1.3290078068101179,0.9243990868839581,0.2880482,0.6548273694451409
0.0245,1.78499375,1.0,2555.305277552769,0.2409116719775859,1.3285777943887915,0.9267805485687923,0.2880227375,0.6557290594215467
0.025,1.784375,1.0,2570.8402005197063,0.24516955669587198,1.328152639793277,0.9290392799030679,0.28799675,0.6566194036884687
0.025500000000000002,1.78374375,1.0,2585.3587444076343,0.24940355605218723,1.32773177125958,0.9311835347640968,0.2879702375,0.6574996368209769
0.026000000000000002,1.7831000000000001,1.0,2598.924311834774,0.2536138092380747,1.327314514622453,0.9332208723293633,0.2879432,0.6583712006296812
0.0265,1.78244375,1.0,2611.5777557417405,0.2578004474618533,1.3269004178537356,0.9351582690764966,0.2879156375,0.6592350663490213
0.027,1.781775,1.0,2623.360244911632,0.26196360166794147,1.3264890353216447,0.937002143035642,0.28788755,0.6600921869092533
0.0275,1.7810937500000001,1.0,2634.3138621172616,0.2661034028007571,1.3260799213943972,0.9387584051227692,0.2878589375,0.6609435104063257
0.028,1.7804,1.0,2644.481523729116,0.2702199818047185,1.32567263044021,0.940432505916451,0.2878298,0.6617899801726863
0.0285,1.77969375,1.0,2653.9069037264912,0.27431346962424386,1.3252667168272996,0.9420294775532453,0.2878001375,0.6626325348354252
0.029,1.778975,1.0,2662.631513861549,0.2783839967271554,1.3248617611364617,0.9435539748047505,0.28776995,0.6634720540539429
0.029500000000000002,1.7782437500000001,1.0,2670.6919597932406,0.28243169207049645,1.3244573945593812,0.9450103113858891,0.2877392375,0.664309308404777
0.03,1.7775,1.0,2678.122000379041,0.2864566832075571,1.3240532791044877,0.9464024870149427,0.287708,0.6651450009618273
0.0305,1.77674375,1.0,2684.951910380074,0.29045909699188327,1.3236491127878964,0.9477342153663003,0.2876762375,0.6659797569885444
0.031,1.775975,1.0,2691.212314021138,0.29443906013505333,1.323244593938242,0.9490089439568409,0.28764395,0.6668141979901181
0.0315,1.7751952548148797,1.0,2697.0098095957305,0.29839669794633517,1.3228394089235707,0.9502298746140952,0.28761120070222496,0.6676489669830342
0.032,1.7744138883596943,1.0,2702.8101624931282,0.30233213845584406,1.3224335226015398,0.9514000207029082,0.2875783833111072,0.668484131067482
0.0325,1.7736325219045088,1.0,2708.6802991069935,0.30624550458349215,1.322027056386434,0.9525222047331926,0.28754556591998937,0.6693194354435219
0.033,1.7728511554493234,1.0,2714.6071051573113,0.3101369192491917,1.3216201316925384,0.9535990566556285,0.2875127485288716,0.6701546265627367
0.0335,1.7720697889941381,1.0,2720.577409842434,0.31400650537285474,1.3212128699341374,0.9546330293158033,0.28747993113775383,0.6709894521322541
0.034,1.7712884225389527,1.0,2726.5779847683348,0.31785438587439346,1.3208053925255159,0.9556264124944464,0.287447113746636,0.6718236611178243
0.0345,1.7705070560837672,1.0,2732.6072147679947,0.32168067080360346,1.3203977148510821,0.956581330718125,0.28741429635551824,0.6726572204024384
0.035,1.7697256896285818,1.0,2738.6417991866315,0.32548549677864225,1.319990049013177,0.9574997989960226,0.2873814789644004,0.673489695575716
0.035500000000000004,1.7689443231733963,1.0,2744.668808882791,0.3292689902449971,1.3195825121683742,0.9583836905241079,0.28734866157328265,0.67432084794691
0.036000000000000004,1.7681629567182109,1.0,2750.684744703698,0.33303126708990166,1.3191751355752717,0.9592347486746855,0.2873158441821648,0.6751506148931983
0.0365,1.7673815902630254,1.0,2756.686092538818,0.33677244320058963,1.3187679504924672,0.9600546081811095,0.28728302679104706,0.6759789341161735
0.037,1.76660022380784,1.0,2762.669323441091,0.3404926344642946,1.3183609881785587,0.960844803137806,0.2872502093999293,0.6768057436414912
0.0375,1.7658188573526545,1.0,2768.630893770821,0.3441919567682504,1.3179542798921438,0.9616067743256784,0.28721739200881147,0.6776309818184576
0.038,1.7650374908974693,1.0,2774.567245361094,0.3478705259996905,1.3175478568918202,0.9623418759266046,0.2871845746176937,0.6784545873195538
0.0385,1.7642561244422839,1.0,2780.4748057042043,0.3515284580458486,1.3171417504361858,0.9630513816841145,0.28715175722657593,0.6792764991398982
0.039,1.7634747579870984,1.0,2786.3499881604316,0.3551658687939584,1.3167359917838386,0.9637364905614532,0.2871189398354581,0.6800966565966459
0.0395,1.762693391531913,1.0,2792.189192188489,0.35878287413125354,1.3163306121933762,0.964398331943026,0.28708612244434034,0.6809149993283286
0.04,1.7619120250767275,1.0,2797.9888035968684,0.36237958994496766,1.3159256429233963,0.9650379704205707,0.2870533050532226,0.6817314672941285
0.0405,1.761130658621542,1.0,2803.745194817847,0.36595613212233447,1.315521115232497,0.9656564102012789,0.28702048766210475,0.682546000773091
0.041,1.7603492921663566,1.0,2809.4562326736,0.36951261133619445,1.3151170468733215,0.9662545970857594,0.286987670270987,0.6833585675058573
0.0415,1.7595679257111712,1.0,2815.121633357297,0.37304914190800004,1.314713438986143,0.9668334236841619,0.2869548528798692,0.6841691687548317
0.042,1.7587865592559857,1.0,2820.739644114137,0.37656584136771454,1.3143103058536967,0.9673937353168268,0.2869220354887514,0.6849777794456494
0.0425,1.7580051928008005,1.0,2826.31022978406,0.38006281810121156,1.3139076463724073,0.967936328683833,0.2868892180976336,0.6857844054494122
0.043000000000000003,1.757223826345615,1.0,2831.8333571884614,0.38354018049436467,1.3135054594387003,0.9684619578050808,0.28685640070651586,0.6865890526215861
0.043500000000000004,1.7564424598904296,1.0,2837.3089951191214,0.3869980369330475,1.3131037439490005,0.9689713367381122,0.28682358331539803,0.6873917268020366
0.044,1.7556610934352441,1.0,2842.7371143265505,0.3904364958031336,1.3127024987997327,0.9694651420966539,0.28679076592428027,0.6881924338150612
0.0445,1.7548797269800587,1.0,2848.1176875082724,0.3938556654904967,1.312301722887322,0.9699440153863372,0.28675794853316244,0.6889911794694208
0.045,1.7540983605248732,1.0,2853.4506892975605,0.39725565438101035,1.3119014151081934,0.9704085651725407,0.2867251311420447,0.6897879695583752
0.0455,1.7533169940696878,1.0,2858.736096251736,0.40063657086054816,1.3115015743587717,0.970859369093958,0.28669231375092685,0.6905828098597151
0.046,1.7525356276145023,1.0,2863.9738868411296,0.40399852331498376,1.311102199535482,0.9712969757342592,0.2866594963598091,0.6913757061357947
0.0465,1.7517542611593169,1.0,2869.1645158614333,0.40734159709471474,1.3107032853286777,0.9717219029602452,0.2866266789686913,0.6921666724680047
0.047,1.7509728947041316,1.0,2874.3085051122366,0.41066590475325293,1.3103048258670136,0.9721346467704611,0.2865938615775735,0.6929557239912065
0.0475,1.7501915282489462,1.0,2879.4058852153853,0.4139715868586594,1.309906819659278,0.97253568284764,0.2865610441864557,0.693742867119489
0.048,1.7494101617937607,1.0,2884.4573883635067,0.4172587426783698,1.309509259028288,0.9729254581031458,0.28652822679533796,0.6945281204584188
0.0485,1.7486287953385753,1.0,2889.4637511274123,0.4205274714798197,1.30911213629686,0.973304398114145,0.28649540940422014,0.6953115025318604
0.049,1.7478474288833898,1.0,2894.4257143813456,0.4237778725304448,1.3087154437878115,0.9736729083384895,0.28646259201310237,0.6960930317821895
0.0495,1.7470660624282044,1.0,2899.344023228526,0.4270100450976806,1.3083191738239588,0.9740313752496886,0.2864297746219846,0.6968727265705086
0.05,1.746284695973019,1.0,2904.219426928807,0.4302240884489627,1.307923318728119,0.9743801673979103,0.2863969572308668,0.6976506051768535
0.0505,1.7455033295178335,1.0,2909.052678827778,0.43342010185172686,1.3075278708231088,0.9747196364024608,0.286364139839749,0.6984266858003996
0.051000000000000004,1.744721963062648,1.0,2913.844536286228,0.4365981845734086,1.307132822431745,0.975050117880736,0.28633132244863124,0.6992009865596629
0.051500000000000004,1.7439405966074628,1.0,2918.595760611554,0.43975843588144353,1.3067381658768444,0.9753719323182506,0.2862985050575134,0.699973525492696
0.052000000000000005,1.7431592301522774,1.0,2923.307116990989,0.4429009550432673,1.306343893481224,0.9756853858839627,0.28626568766639565,0.7007443205572849
0.0525,1.742377863697092,1.0,2927.9793744248805,0.4460258413263155,1.3059499975677002,0.9759907711947889,0.2862328702752779,0.7015133896311359
0.053,1.7415964972419065,1.0,2932.6133056621916,0.44913319399802376,1.3055564704590903,0.9762883680328882,0.28620005288416006,0.7022807505120634
0.0535,1.740815130786721,1.0,2937.209687137344,0.45222311232582774,1.305163304478211,0.9765784440190158,0.2861672354930423,0.7030464209181719
0.054,1.7400337643315356,1.0,2941.769298907517,0.455295695577163,1.304770491947879,0.976861255244995,0.28613441810192447,0.7038104184880349
0.0545,1.73925239787635,1.0,2946.292924592579,0.4583510430194651,1.3043780251909112,0.9771370468681104,0.2861016007108067,0.7045727607808707
0.055,1.7384710314211647,1.0,2950.7813513147626,0.46138925392016983,1.3039858965301245,0.9774060536700236,0.2860687833196889,0.7053334652767105
0.0555,1.7376896649659792,1.0,2955.235369641282,0.46441042754671263,1.3035940982883356,0.9776685005826036,0.2860359659285711,0.7060925493765702
0.056,1.736908298510794,1.0,2959.6545422674653,0.4674146157667188,1.3032026335360807,0.9779245994431107,0.28600314853745334,0.7068500096198507
0.0565,1.7361269320556085,1.0,2964.0408414770186,0.47040195232006027,1.3028114843232959,0.978174559676062,0.2859703311463355,0.7076058831693952
0.057,1.735345565600423,1.0,2968.3956789589897,0.4733725565989292,1.302420637645271,0.9784185810603905,0.28593751375521775,0.7083601974688385
0.0575,1.7345641991452376,1.0,2972.7196101565332,0.4763265171488685,1.302030087998663,0.9786568529533825,0.2859046963641,0.709112965381122
0.058,1.7337828326900522,1.0,2977.0131929458735,0.47926392251542116,1.3016398298801282,0.9788895571270079,0.28587187897298216,0.7098641997126509
0.0585,1.7330014662348667,1.0,2981.2769876004704,0.48218486124413024,1.301249857786323,0.9791168681321933,0.2858390615818644,0.7106139132133935
0.059000000000000004,1.7322200997796813,1.0,2985.5115567551966,0.4850894218805386,1.3008601662139043,0.9793389536428148,0.28580624419074663,0.711362118576983
0.059500000000000004,1.7314387333244958,1.0,2989.7174653723923,0.48797769297018934,1.3004707496595285,0.9795559747806908,0.2857734267996288,0.7121088284408195
0.06,1.7306573668693104,1.0,2993.8952807077003,0.49084976305862527,1.3000816026198523,0.9797680864227678,0.28574060940851104,0.7128540553861642
0.0605,1.7298760004141251,1.0,2998.0455722768747,0.49370572069138957,1.2996927195915318,0.9799754374916005,0.28570779201739327,0.7135978119382382
0.061,1.7290946339589397,1.0,3002.1689118231657,0.4965456544140251,1.299304095071224,0.9801781712301619,0.28567497462627545,0.7143401105663127
0.0615,1.7283132675037542,1.0,3006.2658732855775,0.49936965277207485,1.2989157235555853,0.9803764254619383,0.2856421572351577,0.715080963683804
0.062,1.7275319010485688,1.0,3010.337032767628,0.5021778043110818,1.2985275995412724,0.9805703328372048,0.2856093398440399,0.7158203836483601
0.0625,1.7267505345933833,1.0,3014.382968506606,0.504970197576589,1.2981397175249416,0.9807600210663162,0.2855765224529221,0.7165583827619516
0.063,1.725969168138198,1.0,3018.4042608441564,0.5077469211141393,1.2977520720032496,0.9809456131407851,0.2855437050618043,0.7172949732709556
0.0635,1.7251878016830124,1.0,3022.40149219657,0.5105080634692759,1.2973646574728528,0.9811272275428787,0.28551088767068655,0.7180301673662403
0.064,1.724406435227827,1.0,3026.375247026505,0.5132537131875415,1.296977468430408,0.981304978444408,0.28547807027956873,0.7187639771832461
0.0645,1.7236250687726415,1.0,3030.326111815447,0.5159839588144793,1.2965904993725716,0.9814789758953422,0.28544525288845096,0.7194964148020682
0.065,1.7228437023174563,1.0,3034.2546750358083,0.5186988888956321,1.2962037447960002,0.9816493260028406,0.2854124354973332,0.7202274922475318
0.0655,1.7220623358622709,1.0,3038.1615271250075,0.521398591976543,1.2958171991973504,0.9818161311012537,0.28537961810621537,0.7209572214892701
0.066,1.7212809694070854,1.0,3042.0472604596357,0.5240831566027551,1.2954308570732789,0.9819794899136124,0.2853468007150976,0.721685614441798
0.0665,1.7204996029519,1.0,3045.9120929078354,0.5267526535116739,1.2950447161593874,0.9821394966766605,0.2853139833239798,0.7224126768699826
0.067,1.7197182364967145,1.0,3049.755977477207,0.5294071461932747,1.2946587764769304,0.9822962420070007,0.285281165932862,0.723138410220403
0.0675,1.718936870041529,1.0,3053.5804293763113,0.5320467727644983,1.294273024624255,0.9824498176198053,0.2852483485417442,0.7238628411303972
0.068,1.7181555035863436,1.0,3057.385751496017,0.5346716117353877,1.2938874576472528,0.9826003087100555,0.2852155311506264,0.7245859765230683
0.0685,1.7173741371311582,1.0,3061.1722478134247,0.5372817416159855,1.2935020725918143,0.9827477975879232,0.28518271375950865,0.7253078232918029
0.069,1.7165927706759727,1.0,3064.940223379683,0.5398772409163347,1.2931168665038313,0.9828923637964676,0.28514989636839083,0.7260283883003034
0.0695,1.7158114042207875,1.0,3068.6899843087613,0.5424581881464778,1.2927318364291946,0.9830340842237556,0.28511707897727306,0.7267476783826251
0.07,1.715030037765602,1.0,3072.4218377650564,0.5450246618164577,1.2923469794137956,0.9831730332097001,0.2850842615861553,0.7274657003432072
0.07050000000000001,1.7142486713104166,1.0,3076.1360919525555,0.5475767404363172,1.2919622925035252,0.9833092826479034,0.2850514441950375,0.7281824609569069
0.07100000000000001,1.7134673048552311,1.0,3079.8330561033536,0.550114502516099,1.2915777727442752,0.9834429020827697,0.2850186268039197,0.7288979669690301
