Time [s],Phi [rad],STIM [ ],Fsee [N],Gamma [ ],Lcerel [ ],q [ ],Lmtc [m],fisomrel [ ]
0.0,1.8,1.0,18.26419899356406,0.0005535705730427494,1.3793066041316089,0.005079112520684089,0.288653,0.5412197068308258
0.0005,1.79999375,1.0,18.74305189220448,0.006159674788746118,1.3792509163151063,0.014518227901747064,0.2886527375,0.5413544083997202
0.001,1.799975,1.0,22.488042938057337,0.011734333192222371,1.3788503547668909,0.03849717071404617,0.28865195,0.5423227318016611
0.0015,1.79994375,1.0,32.82979091656809,0.0172777221705106,1.377898277205415,0.07451894191390782,0.2886506375,0.5446201915981486
0.002,1.7999,1.0,57.107894677185755,0.02279001711932667,1.376143058230399,0.11933337244593425,0.2886488,0.5488405604116156
0.0025,1.79984375,1.0,102.82711394178035,0.028271392451048455,1.373664031002885,0.16958081232011984,0.28864643749999996,0.5547678314243465
0.003,1.7997750000000001,1.0,168.23600899114447,0.03372202160315244,1.3709449388653197,0.22243510599381466,0.28864354999999997,0.5612240189100902
0.0035,1.79969375,1.0,245.8251707935917,0.039142077035131985,1.3683360557345292,0.27573293447757746,0.2886401375,0.5673742029525823
0.004,1.7996,1.0,330.0829149234566,0.04453173024160865,1.3659293926532186,0.32786852511979847,0.2886362,0.5730091823738731
0.0045000000000000005,1.7994937500000001,1.0,418.1611787078428,0.04989115175496368,1.3637151734655029,0.3777325236623582,0.2886317375,0.5781609457619872
0.005,1.799375,1.0,508.4611391905921,0.05522051112967919,1.3616669438316653,0.42464056815462975,0.28862675,0.5828986662610429
0.0055,1.79924375,1.0,599.9096921510044,0.06051997706787801,1.3597613488031142,0.46823942375763844,0.2886212375,0.5872824359290945
0.006,1.7991000000000001,1.0,691.6281430545557,0.06578971714452117,1.35798136748862,0.5084154539580239,0.2886152,0.5913563154686784
0.006500000000000001,1.79894375,1.0,782.9271497863639,0.07102989815786724,1.356313282940276,0.5452156775153866,0.2886086375,0.5951557538275601
0.007,1.798775,1.0,873.2189002881377,0.07624068591544936,1.3547464679276655,0.5787884775796318,0.28860155,0.5987083657297378
0.0075,1.79859375,1.0,962.0118285687842,0.08142224513654264,1.3532722175989365,0.6093399402179935,0.2885939375,0.6020367993390616
0.008,1.7984,1.0,1048.945480864859,0.08657474018508504,1.3518824794907458,0.6371033773466142,0.2885858,0.6051617366946584
0.0085,1.79819375,1.0,1133.6942896295016,0.09169833366253928,1.350570830668157,0.6623202796527236,0.2885771375,0.6080997853464236
0.009000000000000001,1.797975,1.0,1216.0208821858116,0.09679318764002819,1.3493312611874477,0.685227200020276,0.28856795,0.6108662945063368
0.0095,1.79774375,1.0,1295.766512311586,0.10185946382255208,1.3481580844540884,0.7060484264810631,0.2885582375,0.6134756002208543
0.01,1.7975,1.0,1372.79679587357,0.10689732219329355,1.347046459044166,0.724992391479255,0.288548,0.6159399083702362
0.0105,1.79724375,1.0,1447.0243752047882,0.11190692194540489,1.3459918868992593,0.7422497482896755,0.2885372375,0.6182704534435273
0.011,1.796975,1.0,1518.4093809050582,0.11688842161336808,1.3449900820929424,0.7579930872383592,0.28852595000000003,0.6204778165099009
0.0115,1.79669375,1.0,1586.9494430092943,0.12184197966022166,1.3440369948704063,0.7723775845236059,0.2885141375,0.6225718946445793
0.012,1.7964,1.0,1652.6307703819134,0.12676775195600695,1.3431292969181292,0.7855423120402103,0.28850180000000003,0.6245608596826222
0.0125,1.79609375,1.0,1715.477268545365,0.13166589422216216,1.3422636975529907,0.7976112466964161,0.2884889375,0.6264526828359532
0.013000000000000001,1.7957750000000001,1.0,1775.5307172564176,0.13653656138330952,1.3414371228507915,0.8086947689555286,0.28847555,0.6282547549087165
0.0135,1.79544375,1.0,1832.8691454602251,0.14137990890150912,1.3406464574262547,0.8188909592886842,0.2884616375,0.629974461233874
0.014,1.7951000000000001,1.0,1887.5412190554803,0.14619608923252642,1.3398892324959006,0.8282871874870604,0.2884472,0.6316176965349094
0.0145,1.79474375,1.0,1939.6037452920093,0.1509852540906116,1.3391631479359671,0.8369611359666541,0.2884322375,0.6331899205426188
0.015,1.794375,1.0,1989.1344483218088,0.15574755519001487,1.3384659036226914,0.844981858027878,0.28841675,0.6346965308828922
0.0155,1.79399375,1.0,2036.2118425971723,0.160483143233132,1.3377953921166756,0.8524108512818949,0.2884007375,0.6361424523748129
0.016,1.7936,1.0,2080.940135842378,0.16519216942607656,1.3371494113080755,0.8593028575701749,0.2883842,0.6375327629292671
0.0165,1.7931937500000001,1.0,2123.39047891874,0.16987478181904336,1.336526259543086,0.8657068419651959,0.2883671375,0.6388714178505724
0.017,1.792775,1.0,2163.6372678983403,0.17453112792994918,1.3359243270955699,0.8716665515729897,0.28834955,0.6401621379636117
0.0175,1.7923437500000001,1.0,2201.765790133307,0.1791613552767107,1.3353420042393904,0.8772211051578215,0.2883314375,0.6414086103083823
0.018000000000000002,1.7919,1.0,2237.8584361006942,0.18376561022434346,1.3347778103247927,0.8824055709094399,0.2883128,0.6426142146496719
0.0185,1.79144375,1.0,2272.014063603827,0.18834404016899214,1.3342301872921514,0.8872513854113456,0.2882936375,0.6437824678018286
0.019,1.790975,1.0,2304.3054497500184,0.19289678906905244,1.3336979158305855,0.8917868757060724,0.28827395,0.6449161382982254
0.0195,1.79049375,1.0,2334.804076280868,0.19742400012521505,1.3331798533967125,0.8960375498579629,0.2882537375,0.6460178102377078
0.02,1.79,1.0,2363.5871975121217,0.20192581653817074,1.3326748574471503,0.9000263983525515,0.288233,0.6470900485411933
0.0205,1.78949375,1.0,2390.732504964521,0.20640238076593403,1.3321818325129766,0.9037741866320891,0.2882117375,0.6481353002178596
0.021,1.788975,1.0,2416.319026715318,0.21085383533265262,1.331699715822027,0.9072996987753585,0.28818995000000003,0.6491559264144979
0.021500000000000002,1.78844375,1.0,2440.4240592668,0.21528032233657676,1.3312275019976898,0.9106199590220005,0.2881676375,0.6501541515317935
0.022,1.7879,1.0,2463.1054573923107,0.21968198027091335,1.330764407580525,0.9137504533261878,0.2881448,0.6511317177229095
0.0225,1.78734375,1.0,2484.4240899257143,0.2240589476288693,1.3303096491110922,0.916705249708327,0.28812143749999997,0.6520903561993213
0.023,1.786775,1.0,2504.443590098169,0.22841136290365147,1.329862443129951,0.9194971477103884,0.28809755,0.6530317876669
0.0235,1.78619375,1.0,2523.2301194840124,0.23273936458846672,1.3294220061776616,0.9221378103318681,0.28807313749999996,0.6539577227228466
0.024,1.7856,1.0,2540.8387501787197,0.23704308783367772,1.3289876809929988,0.9246379018352172,0.2880482,0.6548695974325538
0.0245,1.78499375,1.0,2557.346022547643,0.24132267359251017,1.3285586267755443,0.9270071381089794,0.2880227375,0.6557692243984969
0.025,1.784375,1.0,2572.796696304755,0.2455782551977756,1.3281343189209234,0.9292544616260613,0.28799675,0.6566577447267276
0.025500000000000002,1.78374375,1.0,2587.2366938190385,0.24980996592058083,1.3277142351998612,0.9313880670252647,0.2879702375,0.6575362884163587
0.026000000000000002,1.7831000000000001,1.0,2600.7132340492703,0.25401793903203257,1.3272978533830835,0.9334154734596655,0.2879432,0.6584059794988062
0.0265,1.78244375,1.0,2613.274721294486,0.25820230780323755,1.3268846512413153,0.9353435893934402,0.2879156375,0.6592679361697822
0.027,1.781775,1.0,2624.9706399916377,0.26236320550530257,1.326474106545282,0.9371787703926763,0.28788755,0.6601232709038898
0.0275,1.7810937500000001,1.0,2635.8412038867323,0.2665007613996001,1.3260657918905352,0.9389268833544582,0.2878589375,0.6609728933635146
0.028,1.7804,1.0,2645.9424578453168,0.27061511206331834,1.3256591411911982,0.9405933214747795,0.2878298,0.661817996679245
0.0285,1.77969375,1.0,2655.310665587179,0.27470638664232644,1.325253778427793,0.9421830890572291,0.2878001375,0.6626593737833042
0.029,1.778975,1.0,2663.97865906632,0.2787747126753368,1.3248493648577586,0.9437008166085095,0.28776995,0.6634977364525219
0.029500000000000002,1.7782437500000001,1.0,2671.9798094218413,0.2828202177010618,1.3244455617385342,0.9451507893144206,0.2877392375,0.664333792946961
0.03,1.7775,1.0,2679.347978723243,0.28684302925821387,1.3240420303275586,0.946536977210228,0.287708,0.6651682480267653
0.0305,1.77674375,1.0,2686.1174742604703,0.29084327488550543,1.3236384318822711,0.9478630623567197,0.2876762375,0.6660018029616854
0.031,1.775975,1.0,2692.323005377645,0.29482108212164887,1.323234427660111,0.9491324633516773,0.28764395,0.6668351555332925
0.0315,1.7751937500000001,1.0,2697.987490249744,0.2987765729854698,1.3228297900241728,0.9503483695774528,0.2876111375,0.6676687712785347
0.032,1.7744,1.0,2703.1496870382434,0.30270987885798983,1.3224241491864765,0.9515137336486587,0.2875778,0.6685034056804104
0.0325,1.77359375,1.0,2707.8430109810924,0.30662112695505234,1.3220171869100021,0.952631310142808,0.2875439375,0.6693397045107422
0.033,1.772775,1.0,2712.0888160733375,0.31051043825885044,1.321608697235427,0.9537036780715463,0.28750955,0.6701780799187864
0.0335,1.7719437500000002,1.0,2715.90864369275,0.3143779337515772,1.321198474203429,0.9547332436093838,0.2874746375,0.6710189418666745
0.034,1.7711000000000001,1.0,2719.3242042665015,0.3182237344154256,1.3207863118546859,0.9557222537334241,0.2874392,0.6718626981079983
0.0345,1.7702437500000001,1.0,2722.3573598784737,0.3220479612325889,1.3203720042298754,0.95667280863331,0.2874032375,0.6727097541636884
0.035,1.7693750000000001,1.0,2725.0301078170974,0.32585073518526003,1.3199553453696748,0.9575868730151897,0.28736675,0.6735605132951916
0.035500000000000004,1.76849375,1.0,2727.3645650634926,0.3296321772556321,1.3195361293147623,0.9584662864098381,0.2873297375,0.6744153764749348
0.036000000000000004,1.7676,1.0,2729.38295372024,0.33339240842589823,1.3191141501058155,0.9593127725830137,0.2872922,0.6752747423540915
0.0365,1.76669375,1.0,2731.102173872646,0.33713154567316694,1.3186892509757964,0.9601279522174536,0.2872541375,0.6761389072464473
0.037,1.765775,1.0,2732.5393640093657,0.34084970952028765,1.3182612736557047,0.9609133470633986,0.28721555,0.6770081686576808
0.0375,1.76484375,1.0,2733.7166145763977,0.34454702263621734,1.3178300154812441,0.9616703825762757,0.2871764375,0.6778829121785463
0.038,1.7639,1.0,2734.646555020018,0.34822359926463364,1.3173953602363015,0.9624004052380567,0.28713679999999997,0.6787633459836364
0.0385,1.76294375,1.0,2735.3418582955615,0.3518795536492144,1.3169571917047644,0.9631046816837775,0.28709663750000003,0.6796496767430779
0.039,1.761975,1.0,2735.8152352241955,0.3555150000336374,1.3165153936705196,0.9637844043015401,0.28705595,0.680542109596926
0.0395,1.7609937500000001,1.0,2736.0794291500297,0.3591300526615803,1.3160698499174541,0.9644406963816043,0.2870147375,0.6814408481286927
0.04,1.76,1.0,2736.1472108955,0.3627248257767211,1.3156204442294552,0.9650746168553229,0.286973,0.6823460943380145
0.0405,1.7589937500000001,1.0,2736.0313740173506,0.36629943362273737,1.31516706039041,0.9656871646605965,0.2869307375,0.6832580486124606
0.041,1.757975,1.0,2735.744730361216,0.36985399044330697,1.3147095821842056,0.9662792827669127,0.28688795,0.684176909698478
0.0415,1.75694375,1.0,2735.2984983629667,0.37338860698287474,1.3142479079912808,0.9668518625342696,0.2868446375,0.6851028454180598
0.042,1.7559,1.0,2734.7009722208277,0.37690339011077634,1.3137819628468244,0.9674057480689807,0.28680079999999997,0.6860359687244711
0.0425,1.75484375,1.0,2733.968514907771,0.38039846742079214,1.313311598589402,0.9679417350626723,0.2867564375,0.6869765375936017
0.043000000000000003,1.753775,1.0,2733.108158633609,0.38387394593059687,1.3128367518337978,0.9684605800652767,0.28671155,0.6879246387183636
0.043500000000000004,1.75269375,1.0,2732.126940542865,0.38732993265786514,1.312357359194796,0.9689629994858819,0.28666613750000003,0.6888803576430269
0.044,1.7516,1.0,2731.0319011243164,0.39076653462027167,1.3118733572871804,0.9694496721190761,0.2866202,0.6898437787449705
0.0445,1.75049375,1.0,2729.8300827116864,0.3941838588354912,1.3113846827257356,0.9699212414881272,0.2865737375,0.6908149852161767
0.045,1.7493750000000001,1.0,2728.5285280715734,0.3975820123211984,1.3108912721252457,0.9703783180199567,0.28652675,0.691794059044472
0.0455,1.74824375,1.0,2727.134279081708,0.40096110209506786,1.3103930621004947,0.9708214810655001,0.2864792375,0.6927810809945104
0.046,1.7471,1.0,2725.654375497798,0.40432123517477436,1.3098899892662668,0.9712512807778492,0.2864312,0.6937761305884984
0.0465,1.7459437500000001,1.0,2724.095853809444,0.40766251857799257,1.3093819902373462,0.9716682398594496,0.28638263750000004,0.6947792860866664
0.047,1.744775,1.0,2722.46574618511,0.4109850593223972,1.3088690016285172,0.9720728551886572,0.28633355,0.6957906244674843
0.0475,1.74359375,1.0,2720.7710795067533,0.4142889644256629,1.3083509600545637,0.9724655993350362,0.28628393750000003,0.6968102214076175
0.048,1.7424,1.0,2719.0116792913427,0.4175743228988518,1.307827867657903,0.972846924320883,0.2862338,0.6978380226185861
0.0485,1.74119375,1.0,2717.1966481594786,0.42084125562443614,1.3072996420889478,0.9732172585959808,0.2861831375,0.6988741389413412
0.049,1.739975,1.0,2715.3338757268994,0.42408987555092287,1.306766211960283,0.9735770099823454,0.28613195,0.6999186581617944
0.0495,1.73874375,1.0,2713.42632096286,0.427320281467471,1.306227550749918,0.9739265684435516,0.2860802375,0.7009715789595231
0.05,1.7375,1.0,2711.4769399376532,0.4305325721632396,1.305683631935862,0.974266305779382,0.286028,0.7020328991278714
0.0505,1.73624375,1.0,2709.4886855869177,0.4337268464273877,1.3051344289961249,0.9745965766319304,0.2859752375,0.7031026155650792
0.051000000000000004,1.734975,1.0,2707.464507491536,0.4369032030490743,1.3045799154087154,0.9749177194273059,0.28592195,0.7041807242653692
0.051500000000000004,1.73369375,1.0,2705.407351673102,0.4400617408174585,1.3040200646516436,0.9752300572575828,0.2858681375,0.7052672203099823
0.052000000000000005,1.7324,1.0,2703.320160405043,0.4432025585216993,1.3034548502029184,0.9755338987072926,0.2858138,0.7063620978581772
0.0525,1.73109375,1.0,2701.2058720393798,0.4463257549509557,1.3028842455405496,0.9758295386283878,0.28575893750000003,0.7074653501381762
0.053,1.729775,1.0,2699.067420848873,0.4494314288943868,1.3023082241425463,0.9761172588673186,0.28570355000000003,0.7085769694380739
0.0535,1.72844375,1.0,2696.907736884877,0.45251967914115154,1.3017267594869184,0.9763973289475583,0.2856476375,0.7096969470966942
0.054,1.7271,1.0,2694.7297458512385,0.45559060448040906,1.3011398250516748,0.9766700067106735,0.2855912,0.7108252734944092
0.0545,1.7257437500000001,1.0,2692.536368992714,0.4586443037013183,1.3005473943148254,0.9769355389187786,0.2855342375,0.711961938043906
0.055,1.724375,1.0,2690.3305230000647,0.4616808755930384,1.2999494407543792,0.9771941618210126,0.28547675,0.7131069291809157
0.0555,1.72299375,1.0,2688.1136954805647,0.4647004090661592,1.2993459508953453,0.9774461015245987,0.2854187375,0.7142602094469436
0.056,1.7216,1.0,2685.8866043497947,0.4677029921811613,1.2987369182940662,0.9776915750227575,0.2853602,0.7154217271944019
0.0565,1.72019375,1.0,2683.65477808952,0.4706887482251272,1.2981222923987068,0.9779307909819325,0.28530113749999997,0.7165915139507014
0.057,1.718775,1.0,2681.4191753676373,0.47365776742877086,1.2975020644822768,0.9781639488424849,0.28524155,0.7177695204999466
0.0575,1.71734375,1.0,2679.1807532794105,0.4766101400228064,1.2968762258177855,0.9783912399156744,0.2851814375,0.7189556968883521
0.058,1.7159,1.0,2676.940467340618,0.47954595623794777,1.2962447676782425,0.9786128477780978,0.2851208,0.720149992421123
0.0585,1.71444375,1.0,2674.699271481415,0.482465306304909,1.2956076813366575,0.9788289486439468,0.2850596375,0.7213523556593278
0.059000000000000004,1.7129750000000001,1.0,2672.4581180422706,0.4853682804544042,1.2949649580660398,0.9790397117164928,0.28499795,0.7225627344167709
0.059500000000000004,1.71149375,1.0,2670.2179577715333,0.48825496891714726,1.2943165891393995,0.9792452995201174,0.2849357375,0.7237810757568556
0.06,1.71,1.0,2667.9797398246146,0.4911254619238522,1.2936625658297456,0.9794458682141003,0.284873,0.7250073259894463
0.0605,1.7084937500000001,1.0,2665.744411765223,0.4939798497052332,1.2930028794100876,0.9796415678893082,0.2848097375,0.7262414306677221
0.061,1.7069750000000001,1.0,2663.512919567473,0.496818222492004,1.2923375211534356,0.9798325428488373,0.28474595,0.7274833345850275
0.0615,1.7054437500000001,1.0,2661.2862076205583,0.4996406705148789,1.2916664823327988,0.9800189318735892,0.2846816375,0.7287329817717193
0.062,1.7039,1.0,2659.0652187349538,0.5024472840045718,1.2909897542211868,0.9802008684737057,0.2846168,0.7299903154920068
0.0625,1.70234375,1.0,2656.850894149493,0.5052381531917967,1.290307328091609,0.980378481126706,0.2845514375,0.7312552782407872
0.063,1.7007750000000001,1.0,2654.644173541269,0.5080133683072676,1.2896191952170752,0.9805518935031327,0.28448555,0.7325278117404772
0.0635,1.69919375,1.0,2652.4459950367395,0.5107730195816985,1.288925346870595,0.9807212246804414,0.28441913750000003,0.7338078569378392
0.064,1.6976,1.0,2650.2556877144066,0.5135171615009143,1.2882257891536684,0.9808865874975813,0.2843522,0.7350953267434475
0.0645,1.69599375,1.0,2648.0749481527714,0.5162459113216387,1.2875205063301252,0.9810480941182895,0.2842847375,0.7363901735958815
0.065,1.694375,1.0,2645.9049080514524,0.5189593743956608,1.2868094878532301,0.9812058520098517,0.28421675,0.737692339532423
0.0655,1.69274375,1.0,2643.745661602048,0.5216576319349409,1.2860927327416944,0.981359963530628,0.2841482375,0.7390017483175683
0.066,1.6911,1.0,2641.5973028777717,0.5243407651514391,1.2853702400142295,0.9815105273845321,0.2840792,0.7403183230683069
0.0665,1.6894437500000001,1.0,2639.4599258359003,0.5270088552571159,1.2846420086895463,0.98165763877597,0.2840096375,0.7416419862537637
0.067,1.687775,1.0,2637.333624318993,0.5296619834639315,1.2839080377863559,0.9818013895571415,0.28393955,0.7429726596948378
0.0675,1.68609375,1.0,2635.2184920578356,0.5323002309838459,1.2831683263233695,0.9819418683681309,0.2838689375,0.7443102645638447
0.068,1.6844000000000001,1.0,2633.1146226728947,0.5349236790288197,1.2824228733192986,0.9820791607701839,0.2837978,0.7456547213841563
0.0685,1.68269375,1.0,2631.0221096765954,0.5375324088108129,1.2816716777928538,0.9822133493725531,0.2837261375,0.7470059500298429
0.069,1.680975,1.0,2628.941046475527,0.5401265015417858,1.2809147387627469,0.9823445139532581,0.28365395,0.7483638697253115
0.0695,1.67924375,1.0,2626.8715263723134,0.5427060384336986,1.2801520552476886,0.9824727315740953,0.28358123749999997,0.7497283990449491
0.07,1.6775,1.0,2624.813642568118,0.5452711006985115,1.2793836262663902,0.9825980766902077,0.283508,0.7510994559127615
0.07050000000000001,1.67574375,1.0,2622.7674881644944,0.547821769548185,1.278609450837563,0.9827206212545064,0.2834342375,0.752476957602014
0.07100000000000001,1.673975,1.0,2620.7331561657375,0.550358126194679,1.277829527979918,0.9828404348172175,0.28335995,0.7538608207348725
0.07150000000000001,1.67219375,1.0,2618.710739481004,0.552880251849954,1.2770438567121662,0.982957584620814,0.2832851375,0.755250961282043
0.07200000000000001,1.6704,1.0,2616.7003309268043,0.5553882277259702,1.276252436053019,0.9830721356905773,0.2832098,0.7566472945624129
0.0725,1.66859375,1.0,2614.702023228809,0.5578821350346876,1.2754552650211877,0.9831841509210126,0.2831339375,0.758049735242689
0.073,1.6667750000000001,1.0,2612.7159090246114,0.5603620549880669,1.2746523426353833,0.9832936911583373,0.28305755,0.7594581973370409
0.0735,1.66494375,1.0,2610.742080865702,0.562828068798068,1.273843667914317,0.9834008152792436,0.2829806375,0.7608725942067387
0.074,1.6631,1.0,2608.7808591270177,0.5652802561325754,1.273029237757721,0.9835055800840574,0.2829032,0.7622928422494829
0.0745,1.6612437500000001,1.0,2606.8304568307403,0.5677186902288773,1.272209068661949,0.9836080410553162,0.2828252375,0.7637188231447525
0.075,1.659375,1.0,2604.8901282407182,0.5701434470088309,1.2713831674604326,0.9837082516504955,0.28274675,0.7651504350100218
