Time [s],Phi [rad],STIM [ ],Fsee [N],Gamma [ ],Lcerel [ ],q [ ],Lmtc [m],fisomrel [ ]
0.0,1.8,1.0,18.38999076108238,0.0006624569096817875,1.3792926503017628,0.005113127671338875,0.288653,0.5412534611832419
0.0005,1.79999375,1.0,18.900120418647425,0.006267950359142776,1.3792337234053913,0.01485068396584014,0.2886527375,0.5413959918114897
0.001,1.799975,1.0,22.726184952683205,0.011842001422292475,1.378826569811252,0.039089172211861305,0.28865195,0.542380197720155
0.0015,1.79994375,1.0,33.25496597454604,0.017384786466894054,1.377863151766938,0.0753130738388392,0.2886506375,0.5447048422728189
0.002,1.7999,1.0,57.89780001743415,0.02289648086969507,1.3760935906903544,0.1202634369474298,0.2886488,0.5489592188827683
0.0025,1.79984375,1.0,104.04771230263448,0.0283772590241069,1.3736070377788727,0.17058602066083114,0.28864643749999996,0.5549036394199489
0.003,1.7997750000000001,1.0,169.75896944988796,0.033827294348316744,1.3708893052886195,0.22346775917283948,0.28864354999999997,0.5613556225208074
0.0035,1.79969375,1.0,247.51013729437898,0.03924675928338655,1.3682851081990282,0.2767569437647009,0.2886401375,0.5674938746136164
0.004,1.7996,1.0,331.85500054058093,0.04463582530520158,1.365883135506923,0.32885785166126585,0.2886362,0.5731171273967559
0.0045000000000000005,1.7994937500000001,1.0,419.98287514895566,0.04999466292808569,1.3636729144565294,0.3786701251739976,0.2886317375,0.5782589645749168
0.005,1.799375,1.0,510.30691889295133,0.05532344167650257,1.3616281069134946,0.4255167730416905,0.28862675,0.5829882407211804
0.0055,1.79924375,1.0,601.7666861384494,0.06062233026713505,1.3597253722757265,0.4690499480512948,0.2886212375,0.5873649762152103
0.006,1.7991000000000001,1.0,693.4827568966506,0.06589149622827173,1.3579479007265118,0.5091598755549048,0.2886152,0.5914327180021787
0.006500000000000001,1.79894375,1.0,784.7627249940837,0.071131106325713,1.356282148249491,0.545896107913527,0.2886086375,0.5952265013990046
0.007,1.798775,1.0,875.0283153634786,0.07634132639587644,1.3547174050097164,0.5794084248200874,0.28860155,0.5987741153800155
0.0075,1.79859375,1.0,963.7870016152089,0.0815223211124887,1.3532450508507108,0.6099037277376212,0.2885939375,0.6020980039843074
0.008,1.7984,1.0,1050.6785405506814,0.08667425479404968,1.3518570788210913,0.6376156534028391,0.2885858,0.6052187375111235
0.0085,1.79819375,1.0,1135.3828978776157,0.09179729007811614,1.35054702355822,0.6627856650224743,0.2885771375,0.6081530110793136
0.009000000000000001,1.797975,1.0,1217.6613711280218,0.09689158900295304,1.3493089283569193,0.6856501626344725,0.28856795,0.6109160477364178
0.0095,1.79774375,1.0,1297.3564706385757,0.10195731323135027,1.3481371155090833,0.7064331516495244,0.2885582375,0.6135221581792576
0.01,1.7975,1.0,1374.3346962811015,0.1069946227222301,1.3470267533888882,0.7253427327061115,0.288548,0.615983521786887
0.0105,1.79724375,1.0,1448.5086365649797,0.11200367670441755,1.3459733623132346,0.7425692160726033,0.2885372375,0.6183113283471788
0.011,1.796975,1.0,1519.8417564751228,0.11698463371598673,1.3449726300023517,0.758284832223221,0.28852595000000003,0.6205162134861626
0.0115,1.79669375,1.0,1588.3295631479787,0.12193765206783003,1.3440205462933652,0.7726444474685497,0.2885141375,0.6226079838265771
0.012,1.7964,1.0,1653.9574662653283,0.12686288763936782,1.3431138021990083,0.7857868368269109,0.28850180000000003,0.6245947663920275
0.0125,1.79609375,1.0,1716.7510344201742,0.1317604962800153,1.3422490958366011,0.7978356937263432,0.2884889375,0.6264845548438426
0.013000000000000001,1.7957750000000001,1.0,1776.7510342891112,0.13663063278590373,1.3414233722601592,0.8089011551153366,0.28847555,0.6282846966661377
0.0135,1.79544375,1.0,1834.0412742257122,0.14147345278906318,1.3406334578991055,0.8190810543250218,0.2884616375,0.6300027020398544
0.014,1.7951000000000001,1.0,1888.6627435997975,0.14628910837620207,1.3398769755169204,0.8284625968548301,0.2884472,0.6316442650301999
0.0145,1.79474375,1.0,1940.674551767755,0.1510777513821913,1.3391516032551127,0.8371232787612369,0.2884322375,0.6332148916118834
0.015,1.794375,1.0,1990.156807926162,0.15583953364190178,1.3384550192551905,0.8451319889661102,0.28841675,0.6347200253219663
0.0155,1.79399375,1.0,2037.1890192235423,0.16057460573600657,1.3377851096603426,0.8525500849272458,0.2884007375,0.6361646036088977
0.016,1.7936,1.0,2081.8757384511878,0.16528311899068635,1.3371396726256983,0.8594321875359929,0.2883842,0.6375537026206536
0.0165,1.7931937500000001,1.0,2124.284250848284,0.16996522122860544,1.3365170496738785,0.8658271676999517,0.2883671375,0.6388911839247079
0.017,1.792775,1.0,2164.4898763832257,0.174621060008343,1.33591562343345,0.8717786746125045,0.28834955,0.6401807842261373
0.0175,1.7923437500000001,1.0,2202.5788397617803,0.17925078288847815,1.3353337765329802,0.8773257407155739,0.2883314375,0.6414262063652081
0.018000000000000002,1.7919,1.0,2238.633278142181,0.18385453611778224,1.3347700327058452,0.8825033611036086,0.2883128,0.642630820159845
0.0185,1.79144375,1.0,2272.7531583819796,0.18843246729419322,1.3342228244296679,0.8873429044678035,0.2882936375,0.6437981620862736
0.019,1.790975,1.0,2305.0101969307498,0.19298472027155203,1.3336909444707576,0.8918726428949609,0.28827395,0.6449309744203244
0.0195,1.79049375,1.0,2335.4754001445,0.19751143817596423,1.3331732561454135,0.8961180342038936,0.2882537375,0.6460318284102764
0.02,1.79,1.0,2364.225522329108,0.2020127641335354,1.332668622769935,0.9001020242785482,0.288233,0.647103276225621
0.0205,1.78949375,1.0,2391.3404974333425,0.2064888408905852,1.3321759278858738,0.9038453330837646,0.2882117375,0.6481478090980828
0.021,1.788975,1.0,2416.8945189917504,0.21093981002675108,1.3316941564737252,0.9073667184834319,0.28818995000000003,0.649167686738469
0.021500000000000002,1.78844375,1.0,2440.9684960573145,0.21536581468429175,1.3312222686694564,0.910683165155587,0.2881676375,0.6501652064332222
0.022,1.7879,1.0,2463.620686842865,0.21976699319187784,1.330759477842455,0.9138101293808046,0.2881448,0.6511421167646254
0.0225,1.78734375,1.0,2484.9123633599916,0.22414348387818012,1.330304997362108,0.9167616526788506,0.28812143749999997,0.6521001553495468
0.023,1.786775,1.0,2504.9075611638295,0.2284954250718692,1.3298580405978033,0.9195505108882496,0.28809755,0.6530410492760776
0.0235,1.78619375,1.0,2523.67284281802,0.2328229551016158,1.329417820918928,0.9221883457743622,0.28807313749999996,0.6539665155007177
0.024,1.7856,1.0,2541.2649068191045,0.23712620926027758,1.3289836663227754,0.9246858005971714,0.2880482,0.6548780207041606
0.0245,1.78499375,1.0,2557.752201919034,0.24140532819874075,1.3285548126652247,0.9270525884150796,0.2880227375,0.6557772164366044
0.025,1.784375,1.0,2573.1836092743397,0.24566044627475137,1.3281306966443749,0.929297629719738,0.28799675,0.6566653249989707
0.025500000000000002,1.78374375,1.0,2587.6048394575796,0.2498916964388854,1.3277107982475334,0.9314291055493529,0.2879702375,0.6575434716580502
0.026000000000000002,1.7831000000000001,1.0,2601.062895150889,0.25409921164171884,1.3272945974620076,0.9334545227787722,0.2879432,0.6584127757403775
0.0265,1.78244375,1.0,2613.605960431194,0.2582831248338276,1.3268815742751048,0.9353807787712222,0.2879156375,0.659274350763486
0.027,1.781775,1.0,2625.283296050863,0.2624435689657877,1.3264712086741326,0.937214219041552,0.28788755,0.6601293045499075
0.0275,1.7810937500000001,1.0,2636.139384823127,0.26658067523971146,1.3260630338836308,0.938960696053788,0.2878589375,0.660978628617992
0.028,1.7804,1.0,2646.2151520829925,0.2706945748965854,1.3256566237348308,0.9406256133021286,0.2878298,0.6618232251837717
0.0285,1.77969375,1.0,2655.5649251561617,0.2747854028477443,1.3252514352965308,0.9422139447440989,0.2878001375,0.6626642341758503
0.029,1.778975,1.0,2664.2197670260316,0.27885328604814813,1.3248471465401375,0.9437303165943185,0.28776995,0.6635023322217171
0.029500000000000002,1.7782437500000001,1.0,2672.211262762492,0.2828983514527569,1.3244434354370571,0.9451790101256281,0.2877392375,0.6643381926077812
0.03,1.7775,1.0,2679.57147394193,0.2869207260165304,1.3240399799586962,0.946563991799958,0.287708,0.6651724852945402
0.0305,1.77674375,1.0,2686.332895367377,0.2909205366944288,1.3236364580764612,0.9478889404096362,0.2876762375,0.6660058769251369
0.031,1.775975,1.0,2692.5284140869194,0.29489791044141195,1.3232325477617584,0.9491572715582299,0.28764395,0.6668390308273042
0.0315,1.7751937500000001,1.0,2698.1912707119363,0.29885297421243984,1.3228279269859944,0.9503721597705441,0.2876111375,0.6676726070086909
0.032,1.7744,1.0,2703.3485718283996,0.3027858513339059,1.3224223326425104,0.9515365645648659,0.2875778,0.6685071409864871
0.0325,1.77359375,1.0,2708.032283566583,0.30669667028742176,1.3220154596577693,0.9526532385172322,0.2875439375,0.6693432517263889
0.033,1.772775,1.0,2712.2691905388006,0.31058555561353335,1.3216070524726817,0.9537247520888796,0.28750955,0.6701814534433475
0.0335,1.7719437500000002,1.0,2716.0807503328565,0.314452628225637,1.321196905934473,0.9547535083150636,0.2874746375,0.6710221543945194
0.034,1.7711000000000001,1.0,2719.4885888658014,0.3182980090371291,1.3207848148903691,0.9557417512809214,0.2874392,0.6718657606369631
0.0345,1.7702437500000001,1.0,2722.514483084826,0.32212181896140607,1.3203705741875953,0.9566915785091473,0.2874032375,0.6727126760035411
0.035,1.7693750000000001,1.0,2725.1803446009644,0.32592417891186415,1.3199539786733774,0.9576049522439413,0.28736675,0.6735633020761351
0.035500000000000004,1.76849375,1.0,2727.5082042566737,0.32970520980189977,1.319534823194941,0.9584837097410986,0.2873297375,0.6744180381561791
0.036000000000000004,1.7676,1.0,2729.520197625571,0.3334650325449092,1.3191129025995116,0.9593295726621158,0.2872922,0.6752772812325083
0.0365,1.76669375,1.0,2731.2244135644596,0.33720375641868006,1.3186881402015784,0.9601441660502017,0.2872541375,0.6761411648433007
0.037,1.765775,1.0,2732.6562248750934,0.3409215166211325,1.318260212036856,0.9609289962255281,0.28721555,0.6770103234510696
0.0375,1.76484375,1.0,2733.8295626525246,0.34461842871018455,1.3178289896285957,0.9616854929834021,0.2871764375,0.6778849915550573
0.038,1.7639,1.0,2734.756712092764,0.348294606728268,1.3173943599028552,0.9624150015153347,0.28713679999999997,0.6787653708605128
0.0385,1.76294375,1.0,2735.450001296032,0.3519501647178146,1.3169562097856935,0.9631187872587688,0.28709663750000003,0.6796516616016819
0.039,1.761975,1.0,2735.921795798021,0.35558521672125615,1.3165144262031687,0.963798041489459,0.28705595,0.6805440625168331
0.0395,1.7609937500000001,1.0,2736.1844933852117,0.3591998767810244,1.3160688960813394,0.9644538864636544,0.2870147375,0.6814427708224602
0.04,1.76,1.0,2736.2505191928003,0.3627942589395511,1.315619506346264,0.9650873801507638,0.286973,0.6823479821866731
0.0405,1.7589937500000001,1.0,2736.1323210868773,0.366368477239268,1.315166143924001,0.9656995205931174,0.2869307375,0.6832598907017726
0.041,1.757975,1.0,2735.842365329567,0.36992264572260697,1.3147086957406087,0.9662912499258265,0.28688795,0.6841786888560109
0.0415,1.75694375,1.0,2735.3931325279086,0.3734568784319997,1.3142470487221456,0.9668634580865235,0.2868446375,0.6851045675045327
0.042,1.7559,1.0,2734.7949601789273,0.37697128455648277,1.313781109351908,0.9674169870716689,0.28680079999999997,0.6860376767024423
0.0425,1.75484375,1.0,2734.057672525503,0.38046597609004745,1.3133107888495037,0.9679526340988654,0.2867564375,0.686978155581957
0.043000000000000003,1.753775,1.0,2733.1932949585484,0.3839410722218387,1.3128359784937766,0.9684711531435454,0.28671155,0.6879261816321471
0.043500000000000004,1.75269375,1.0,2732.2087220129606,0.38739667980718373,1.3123566161951539,0.9689732599481082,0.28666613750000003,0.6888818377522747
0.044,1.7516,1.0,2731.110851556963,0.3908329057014099,1.3118726398640626,0.969459632683588,0.2866202,0.6898452056894795
0.0445,1.75049375,1.0,2729.906583330752,0.3942498567598445,1.3113839874109297,0.969930914289668,0.2865737375,0.6908163660206315
0.045,1.7493750000000001,1.0,2728.6028175690976,0.39764763983781487,1.3108905967461826,0.9703877146467488,0.28652675,0.6917953981339365
0.0455,1.74824375,1.0,2727.2064537103874,0.40102636179064827,1.310392405780248,0.9708306125936486,0.2864792375,0.6927823802102993
0.046,1.7471,1.0,2725.7243891909625,0.404386129473672,1.3098893524235538,0.9712601578032996,0.2864312,0.693777389204434
0.0465,1.7459437500000001,1.0,2724.16351832451,0.40772704974221335,1.3093813745865264,0.9716768725277007,0.28638263750000004,0.6947805008257382
0.047,1.744775,1.0,2722.5307312672257,0.41104922945159966,1.308868410179593,0.9720812532224066,0.28633355,0.6957917895189114
0.0475,1.74359375,1.0,2720.8329130689035,0.41435277545715826,1.308350397113181,0.9724737720599254,0.28628393750000003,0.6968113284443356
0.048,1.7424,1.0,2719.0687071982125,0.4176377670558806,1.3078273482996992,0.97285488015362,0.2862338,0.6978390422154838
0.0485,1.74119375,1.0,2717.2508063815394,0.4209043409398709,1.3072991487003855,0.9732250052580841,0.2861831375,0.6988751058929157
0.049,1.739975,1.0,2715.385011389273,0.4241526060222028,1.3067657459477462,0.973584555628718,0.28613195,0.6999195698760294
0.0495,1.73874375,1.0,2713.474291992269,0.4273826607405789,1.3062271134237347,0.9739339207987108,0.2860802375,0.7009724330490024
0.05,1.7375,1.0,2711.5216150482443,0.43059460353270185,1.3056832245103052,0.9742734721625648,0.286028,0.7020336934087448
0.0505,1.73624375,1.0,2709.5299442647483,0.43378853283627433,1.3051340525894115,0.9746035639805126,0.2859752375,0.703103348056002
0.051000000000000004,1.734975,1.0,2707.502239977446,0.436964547088999,1.3045795710430075,0.9749245343186561,0.28592195,0.704181393186408
0.051500000000000004,1.73369375,1.0,2705.441458944312,0.44012274472857843,1.304019753253047,0.9752367059294748,0.2858681375,0.7052678240814936
0.052000000000000005,1.7324,1.0,2703.350554155296,0.4432632241927153,1.303454572601484,0.9755403870769745,0.2858138,0.7063626350996517
0.0525,1.73109375,1.0,2701.232474658164,0.4463860839191122,1.302884002470272,0.9758358723104138,0.28575893750000003,0.7074658196670546
0.053,1.729775,1.0,2699.0901653994874,0.44949142234547185,1.302308016241365,0.9761234431902268,0.28570355000000003,0.7085773702685288
0.0535,1.72844375,1.0,2696.926567081668,0.4525793379094969,1.301726587296717,0.9764033689694829,0.2856476375,0.7096972784383822
0.054,1.7271,1.0,2694.744616035837,0.4556499290488899,1.3011396890182818,0.9766759072339617,0.2855912,0.7108255347511879
0.0545,1.7257437500000001,1.0,2692.5472441098445,0.4587032942013536,1.3005472947880132,0.9769413045036898,0.2855342375,0.7119621288125226
0.055,1.724375,1.0,2690.3373785725394,0.4617395318045905,1.2999493779878653,0.9771997967985563,0.28547675,0.7131070492496581
0.0555,1.72299375,1.0,2688.117942033795,0.4647587402963034,1.2993459119997914,0.9774516101704428,0.2854187375,0.7142602837022103
0.056,1.7216,1.0,2685.8915412037677,0.46776101223708433,1.2987368730570843,0.977696960825244,0.2853602,0.7154218133803428
0.0565,1.72019375,1.0,2683.658698517017,0.47074641931680355,1.298122256460424,0.9779360552023726,0.28530113749999997,0.7165915822797997
0.057,1.718775,1.0,2681.422525400998,0.47371509854946525,1.2975020337599559,0.9781690958032256,0.28524155,0.7177695787904659
0.0575,1.71734375,1.0,2679.1839125604,0.47666713925673543,1.2968761968327058,0.9783962737108075,0.2851814375,0.7189557517670553
0.058,1.7159,1.0,2676.9437492284724,0.47960263076028004,1.2962447375557,0.9786177722864393,0.2851208,0.7201500493321251
0.0585,1.71444375,1.0,2674.702923162022,0.4825216623817651,1.2956076478059642,0.9788337675411946,0.2850596375,0.7213524188731666
0.059000000000000004,1.7129750000000001,1.0,2672.462320637874,0.48542432344285646,1.2949649194605246,0.9790444284866223,0.28499795,0.7225628070396883
0.059500000000000004,1.71149375,1.0,2670.222826451187,0.48831070326522014,1.2943165443964073,0.9792499174660657,0.2849357375,0.7237811597402986
0.06,1.71,1.0,2667.9853239148347,0.4911808911705221,1.2936625144906384,0.9794503904677889,0.284873,0.7250074221397819
0.0605,1.7084937500000001,1.0,2665.7506948606197,0.4940349764804284,1.2930028216202436,0.9796459974210502,0.2848097375,0.7262415386561726
0.061,1.7069750000000001,1.0,2663.519819641482,0.49687304851660485,1.2923374576622493,0.9798368824761672,0.28474595,0.7274834529578209
0.0615,1.7054437500000001,1.0,2661.2935771355064,0.4996951966007176,1.2916664144936811,0.9800231842695598,0.2846816375,0.7287331079604598
0.062,1.7039,1.0,2659.072844751646,0.5025015100544324,1.2909896839915656,0.9802050361746817,0.2846168,0.7299904458242628
0.0625,1.70234375,1.0,2656.8584984360978,0.5052920781994155,1.2903072580329285,0.9803825665396934,0.2845514375,0.7312554079509015
0.063,1.7007750000000001,1.0,2654.6514126808593,0.5080669903573325,1.2896191284947958,0.9805558989126695,0.28448555,0.7325279349805962
0.0635,1.69919375,1.0,2652.4524605338092,0.5108263358498497,1.2889252872541936,0.980725152255083,0.28441913750000003,0.7338079667891636
0.064,1.6976,1.0,2650.262513609147,0.5135702039986328,1.288225726188148,0.9808904411442582,0.2843522,0.7350954424850598
0.0645,1.69599375,1.0,2648.082442101084,0.516298684125348,1.287520437173685,0.9810518759654381,0.2842847375,0.7363903004064192
0.065,1.694375,1.0,2645.9119097535213,0.5190118646599722,1.2868094232128948,0.9812095635857494,0.28421675,0.737692457768771
0.0655,1.69274375,1.0,2643.7518886124726,0.5217098278770381,1.2860926752299051,0.9813636059945424,0.2841482375,0.7390018532519007
0.066,1.6911,1.0,2641.6033360137853,0.5243926577584281,1.2853701842703822,0.9815141016599277,0.2840792,0.7403184245200514
0.0665,1.6894437500000001,1.0,2639.4648308749624,0.5270604388657014,1.2846419633505282,0.9816611466640611,0.2840096375,0.741642068558535
0.067,1.687775,1.0,2637.3352122413617,0.5297132557116735,1.2839080231027054,0.9818048335880459,0.28393955,0.7429726862816126
0.0675,1.68609375,1.0,2635.219297885906,0.5323511923990344,1.2831683188688194,0.9819452490913051,0.2838689375,0.744310278026169
0.068,1.6844000000000001,1.0,2633.1155728056956,0.5349743326587602,1.2824228645263047,0.982082479576095,0.2837978,0.7456547372218002
0.0685,1.68269375,1.0,2631.0222629566856,0.5375827590156311,1.281671676373761,0.9822166085030717,0.2837261375,0.7470059525790664
0.069,1.680975,1.0,2628.9375971551285,0.5401765539944279,1.2809147707097874,0.9823477164775812,0.28365395,0.7483638124906491
0.0695,1.6792495923021842,1.0,2627.1408711977,0.5427557997579293,1.2801521981613933,0.9824758829486885,0.2835814828766917,0.7497281437032508
0.07,1.6775241777295498,1.0,2625.9139523671397,0.5453205783639706,1.2793843474146163,0.9826012003970124,0.2835090154646411,0.751098170981215
0.07050000000000001,1.6757987631569153,1.0,2625.21313424924,0.5478709705373463,1.278611622964266,0.9827237589866971,0.28343654805259044,0.7524730980523525
0.07100000000000001,1.6740733485842807,1.0,2624.9960782442577,0.5504070568151166,1.2778344152848196,0.9828436453747083,0.2833640806405398,0.753852160980046
0.07150000000000001,1.6723479340116463,1.0,2625.2258213062823,0.5529289166410389,1.2770530664067696,0.9829609412283756,0.28329161322848917,0.7552346887583102
0.07200000000000001,1.6706225194390119,1.0,2625.858079733881,0.5554366313131891,1.276267987260902,0.9830757289031181,0.2832191458164385,0.7566198954553894
0.0725,1.6688971048663772,1.0,2626.854984999766,0.5579302811681195,1.2754795300642576,0.983188085534603,0.28314667840438784,0.7580071062358922
0.073,1.6671716902937428,1.0,2628.191259383476,0.5604099439278412,1.274687930890362,0.9832980805574897,0.2830742109923372,0.7593958565789913
0.0735,1.6654462757211084,1.0,2629.841668321963,0.5628756973143656,1.2738934258127401,0.9834057812816971,0.28300174358028657,0.7607856865324012
0.074,1.6637208611484737,1.0,2631.7810045817796,0.5653276190497036,1.2730962509049173,0.9835112529773522,0.2829292761682359,0.7621761407579033
0.0745,1.6619954465758393,1.0,2633.9840736672777,0.5677657868558668,1.2722966422404192,0.983614558955867,0.28285680875618524,0.7635667685733201
