Time [s],Phi [rad],STIM [ ],Fsee [N],Gamma [ ],Lcerel [ ],q [ ],Lmtc [m],fisomrel [ ]
0.0,1.8,1.0,17.96789875910468,1.0049431765185337e-05,1.3793396632495578,0.005000026914859692,0.288653,0.5411397317784187
0.0005,1.79999375,1.0,18.27717884164443,0.005619202371194599,1.3793023395035742,0.012940650253109177,0.2886527375,0.541230023109424
0.001,1.799975,1.0,21.618794495999225,0.011196892397556349,1.3789382599383406,0.03560883103030489,0.28865195,0.5421103161827252
0.0015,1.79994375,1.0,31.069630845258903,0.016743295993775945,1.3780461700899858,0.07060205235284626,0.2886506375,0.5442636903070586
0.002,1.7999,1.0,53.582682450017664,0.022258588651130173,1.3763681125741738,0.11471824754641338,0.2886488,0.5483005224405423
0.0025,1.79984375,1.0,97.11904785157876,0.027742944876805967,1.3739351619490423,0.16457512165432533,0.28864643749999996,0.5541214753129576
0.003,1.7997750000000001,1.0,160.95824966876827,0.03319653820162183,1.3712143406551962,0.2172806903245191,0.28864354999999997,0.5605864582013009
0.0035,1.79969375,1.0,237.68338444477567,0.03861954117961639,1.3685847326036387,0.27061312374355695,0.2886401375,0.5667898434040313
0.004,1.7996,1.0,321.46681723815703,0.044012125398831294,1.3661560911804698,0.32291602969725264,0.2886362,0.5724799645772944
0.0045000000000000005,1.7994937500000001,1.0,409.26781064278134,0.04937446148649563,1.3639228127615886,0.3730347245004643,0.2886317375,0.5776791656622888
0.005,1.799375,1.0,499.4135640742753,0.054706719100112454,1.361858341073805,0.42024766446094985,0.28862675,0.5824570822554651
0.0055,1.79924375,1.0,590.7904862167968,0.06000906697495146,1.3599388336883627,0.46417388768153006,0.2886212375,0.5868751148056799
0.006,1.7991000000000001,1.0,682.5181782967003,0.06528167286714326,1.3581464134755543,0.5046801372144711,0.2886152,0.5909794212837924
0.006500000000000001,1.79894375,1.0,773.8814087229117,0.0705247036093391,1.356467251041965,0.5418009207632359,0.2886086375,0.5948058001740582
0.007,1.798775,1.0,864.2859118887262,0.07573832509429013,1.3548903933699825,0.5756769290473716,0.28860155,0.5983826807834791
0.0075,1.79859375,1.0,953.2434035294383,0.08092270228458784,1.3534067762976834,0.6065100511015374,0.2885939375,0.6017335792948955
0.008,1.7984,1.0,1040.3443004722137,0.08607799878363508,1.3520088547361973,0.6345323072279553,0.2885858,0.604878080954435
0.0085,1.79819375,1.0,1125.3141869735027,0.09120437874637032,1.3506892420723977,0.6599845522174934,0.2885771375,0.607834998388671
0.009000000000000001,1.797975,1.0,1207.9007982596486,0.0963020041319457,1.3494420266107385,0.6831042970546863,0.28856795,0.6106194835401145
0.0095,1.79774375,1.0,1287.8936620151744,0.10137103541594644,1.3482621045327532,0.7041175673513922,0.2885582375,0.6132445999566891
0.01,1.7975,1.0,1365.1680808996166,0.10641163307395783,1.3471443720199747,0.7232343119104353,0.288548,0.6157231663739076
0.0105,1.79724375,1.0,1439.6587246389988,0.11142395710238182,1.3460839560815805,0.740646748267387,0.2885372375,0.6180672683128912
0.011,1.796975,1.0,1511.3211307364807,0.11640816629679182,1.3450765668778457,0.7565292109574139,0.28852595000000003,0.6202875095401776
0.0115,1.79669375,1.0,1580.1205644152926,0.12136441783607765,1.3441184884113018,0.7710386824201074,0.2885141375,0.6223930673900535
0.012,1.7964,1.0,1646.0578873833015,0.1262928683961213,1.343206154696989,0.7843156498104682,0.28850180000000003,0.6243926510781459
0.0125,1.79609375,1.0,1709.1742688875345,0.13119367465182205,1.3423360314143291,0.7964853846205194,0.2884889375,0.6262947754958147
0.013000000000000001,1.7957750000000001,1.0,1769.5064362248559,0.13606699156228147,1.3415050740867558,0.8076595486490749,0.28847555,0.6281067741485953
0.0135,1.79544375,1.0,1827.0907300822894,0.14091297263774982,1.3407106039471717,0.8179375210869144,0.2884616375,0.6298350904271477
0.014,1.7951000000000001,1.0,1881.9911349570343,0.1457317713884774,1.3399499422284795,0.8274075843730443,0.2884472,0.6314860866672622
0.0145,1.79474375,1.0,1934.281180327306,0.15052354014215275,1.339220579426982,0.836148231815566,0.2884322375,0.6330656839707354
0.015,1.794375,1.0,1984.0559591888054,0.15528843194472705,1.338520012347996,0.8442292394170512,0.28841675,0.6345797233415584
0.0155,1.79399375,1.0,2031.374686093912,0.16002659635002642,1.3378463280409791,0.8517128723563188,0.2884007375,0.6360327124656477
0.016,1.7936,1.0,2076.311534734863,0.16473818285117348,1.3371976226300155,0.8586545792608002,0.2883842,0.6374290921322247
0.0165,1.7931937500000001,1.0,2118.9549355372005,0.16942334092127884,1.3365719942871794,0.8651037980787633,0.2883671375,0.6387732546605576
0.017,1.792775,1.0,2159.38915633319,0.17408221833485066,1.3359677185689462,0.871104717979547,0.28834955,0.6400691711721216
0.0175,1.7923437500000001,1.0,2197.7204631289155,0.17871496474289253,1.3353829637796049,0.8766968204889886,0.2883314375,0.6413210063979855
0.018000000000000002,1.7919,1.0,2234.0150320019784,0.18332172517948572,1.3348164091166634,0.8819155958362401,0.2883128,0.6425317990632113
0.0185,1.79144375,1.0,2268.3472535353185,0.18790264467871143,1.3342667337776295,0.8867928719274939,0.2882936375,0.6437045621480719
0.019,1.790975,1.0,2300.7990538666213,0.19245786827465097,1.3337326169600108,0.8913572385517413,0.28827395,0.6448422843655062
0.0195,1.79049375,1.0,2331.452185148596,0.19698754006075625,1.3332128073874716,0.8956344350592853,0.2882537375,0.6459477837785706
0.02,1.79,1.0,2360.3936817966764,0.2014918046205016,1.3327060619589848,0.8996476599624325,0.288233,0.6470238403563271
0.0205,1.78949375,1.0,2387.7034661168927,0.20597080527435305,1.3322112607574605,0.9034178809209318,0.2882117375,0.6480729535265899
0.021,1.788975,1.0,2413.4430751453497,0.21042468221493793,1.3317275079047555,0.9069641018656017,0.28818995000000003,0.6490971316941977
0.021500000000000002,1.78844375,1.0,2437.6779497508146,0.2148535756348835,1.331253907522727,0.9103035305178291,0.2881676375,0.6500983697414688
0.022,1.7879,1.0,2460.4771119500115,0.21925762572681706,1.3307895637332317,0.9134517729213234,0.2881448,0.6510786496338593
0.0225,1.78734375,1.0,2481.9114863725167,0.22363697245188385,1.3303335937520102,0.9164230071641339,0.28812143749999997,0.6520399133892918
0.023,1.786775,1.0,2502.040574211661,0.2279917534342009,1.329885251413686,0.9192301566993126,0.28809755,0.6529838038894424
0.0235,1.78619375,1.0,2520.9486330417144,0.2323221101481618,1.3294435798980233,0.921884958069349,0.28807313749999996,0.6539123968876746
0.024,1.7856,1.0,2538.6838904015744,0.23662817762619573,1.329007986318235,0.9243981838446126,0.2880482,0.6548269927896051
0.0245,1.78499375,1.0,2555.296400002441,0.24091009090073195,1.3285778777875343,0.9267796766218303,0.2880227375,0.6557288846576536
0.025,1.784375,1.0,2570.8378915225135,0.24516798500419967,1.3281526614191344,0.9290384420601333,0.28799675,0.6566193584296524
0.025500000000000002,1.78374375,1.0,2585.36162819499,0.24940199496902815,1.3277317443262482,0.9311827314790366,0.2879702375,0.6574996931150341
0.026000000000000002,1.7831000000000001,1.0,2598.9196680377227,0.253612255210008,1.3273145578802088,0.9332201189759552,0.2879432,0.6583711103306233
0.0265,1.78244375,1.0,2611.5577253886563,0.2577988983813758,1.3269006039875748,0.9351575732069436,0.2879156375,0.6592346782925982
0.027,1.781775,1.0,2623.338574463039,0.26196206068795613,1.3264892362435141,0.9370014827823764,0.28788755,0.6600917685495116
0.0275,1.7810937500000001,1.0,2634.2987533970695,0.2661018717783755,1.326080061186269,0.9387577675751889,0.2878589375,0.6609432196962979
0.028,1.7804,1.0,2644.475577184115,0.27021846130126076,1.3256726853540817,0.9404318862779651,0.2878298,0.6617898661169048
0.0285,1.77969375,1.0,2653.907071016291,0.2743119589052384,1.3252667152851945,0.942028878381563,0.2878001375,0.6626325380343758
0.029,1.778975,1.0,2662.6319070585755,0.27838249423893513,1.3248617575178496,0.9435534018265491,0.28776995,0.6634720615510648
0.029500000000000002,1.7782437500000001,1.0,2670.6893446553245,0.2824301969509776,1.3244574185902893,0.9450097668205999,0.2877392375,0.6643092586789725
0.03,1.7775,1.0,2678.1145676419965,0.28645519399428504,1.3240533473102813,0.9464019709616621,0.287708,0.6651448600031957
0.0305,1.77674375,1.0,2684.945419881192,0.2904576161646078,1.3236491722715265,0.9477337202005974,0.2876762375,0.6659796342090427
0.031,1.775975,1.0,2691.2115087998936,0.29443758949320675,1.32324460130928,0.9490084635335554,0.28764395,0.6668141827946577
0.0315,1.7751937500000001,1.0,2696.9402054535553,0.2983952383148908,1.322839365808642,0.9502294084967358,0.2876111375,0.6676490557534245
0.032,1.7744,1.0,2702.1591768500207,0.3023306869644691,1.3224331971547114,0.9513995388340755,0.2875778,0.6684848002952519
0.0325,1.77359375,1.0,2706.8963570871756,0.30624405977675057,1.3220258267325884,0.9525216328528036,0.2875439375,0.6693219608328858
0.033,1.772775,1.0,2711.1799200896503,0.31013548108654426,1.321616985927372,0.9535982800621,0.28750955,0.6701610789636242
0.0335,1.7719438780873342,1.0,2715.0514396902618,0.3140050713144355,1.3212063437979902,0.9546318880613354,0.28747464287966806,0.6710028211222173
0.034,1.7711081675518787,1.0,2718.9059187443677,0.31785295200539015,1.320793809737394,0.9556247324560418,0.2874395430371789,0.6718473585273237
0.0345,1.7702724570164234,1.0,2722.9277232085637,0.32167925718588636,1.3203797777769637,0.9565789962573807,0.2874044431946898,0.6726938711466306
0.035,1.769436746480968,1.0,2727.103574024503,0.325484104459939,1.3199643719885008,0.9574966871138497,0.28736934335220066,0.6735420939349626
0.035500000000000004,1.7686010359455124,1.0,2731.420163677923,0.329267611431563,1.3195477164438072,0.9583796841842646,0.28733424350971154,0.6743917631235593
0.036000000000000004,1.767765325410057,1.0,2735.8641525898624,0.33302989570477315,1.3191299352146844,0.959229747840624,0.28729914366722237,0.6752426162304572
0.0365,1.7669296148746017,1.0,2740.4221658496035,0.3367710748835843,1.318711152372934,0.9600485285333721,0.28726404382473325,0.6760943920698866
0.037,1.7660939043391461,1.0,2745.0807902885954,0.3404912665720114,1.3182914919903579,0.9608375748999032,0.28722894398224413,0.6769468307606886
0.0375,1.7652581938036906,1.0,2749.826571895779,0.34419058837406935,1.3178710781387575,0.961598341188572,0.287193844139755,0.6777996737337498
0.038,1.7644224832682351,1.0,2754.646013574311,0.3478691578937729,1.3174500348899345,0.9623321940628857,0.28715874429726584,0.6786526637384547
0.0385,1.7635867727327796,1.0,2759.525573239762,0.351527092735137,1.3170284863156907,0.9630404188438307,0.2871236444547767,0.6795055448481566
0.039,1.7627510621973244,1.0,2764.451662258824,0.35516451050217646,1.3166065564878275,0.9637242252423155,0.2870885446122876,0.6803580624646686
0.0395,1.7619153516618689,1.0,2769.4179035740485,0.3587815216340996,1.3161843039706853,0.9643847452931096,0.2870534447697985,0.6812100954163689
0.04,1.7610796411264134,1.0,2774.4129151712286,0.3623782479706872,1.3157618322491427,0.9650230522303535,0.2870183449273094,0.6820614326998223
0.0405,1.7602439305909579,1.0,2779.429554476877,0.36595480397355207,1.3153392062523783,0.9656401535430247,0.2869832450848202,0.6829119419646684
0.041,1.7594082200555023,1.0,2784.46362393269,0.3695113002688861,1.3149164641736424,0.9662369971926341,0.2869481452423311,0.6837615452562851
0.0415,1.758572509520047,1.0,2789.5109107403323,0.37304784748288117,1.3144936442061848,0.9668144785894097,0.28691304539984197,0.6846101650316125
0.042,1.7577367989845916,1.0,2794.5671867796054,0.37656455624172913,1.3140707845432553,0.96737344405113,0.28687794555735285,0.6854577241593881
0.0425,1.756901088449136,1.0,2799.628208558633,0.3800615371716218,1.3136479233781038,0.9679146940001897,0.28684284571486374,0.6863041459202907
0.043000000000000003,1.7560653779136806,1.0,2804.689717196216,0.38353890089875103,1.3132250989039804,0.9684389859211753,0.28680774587237456,0.6871493540069888
0.043500000000000004,1.755229667378225,1.0,2809.747438437198,0.3869967580493088,1.312802349314135,0.9689470370991344,0.28677264602988545,0.6879932725241005
0.044,1.7543939568427698,1.0,2814.797082699206,0.39043521924948676,1.3123797128018173,0.9694395271568437,0.28673754618739633,0.6888358259880554
0.0445,1.7535582463073143,1.0,2819.836266920509,0.39385438805870887,1.3119572103742112,0.9699170980308149,0.2867024463449072,0.6896769735189419
0.045,1.7527225357718588,1.0,2824.863222012082,0.39725437070172376,1.3115348574786463,0.9703803586661907,0.2866673465024181,0.6905166855094373
0.0455,1.7518868252364033,1.0,2829.8712472207776,0.40063529352892735,1.3111127135335325,0.9708298932087894,0.2866322466599289,0.6913548452736038
0.046,1.7510511147009478,1.0,2834.859575264161,0.40399725960641586,1.3106907848279215,0.9712662491317223,0.2865971468174398,0.6921914420376601
0.0465,1.7502154041654925,1.0,2839.8274366792884,0.40734037200028544,1.310269077650865,0.971689946675021,0.2865620469749507,0.6930264650946477
0.047,1.749379693630037,1.0,2844.774059853159,0.4106647337766323,1.3098475982914146,0.9721014804598663,0.2865269471324615,0.6938599038043436
0.0475,1.7485439830945815,1.0,2849.698671054513,0.4139704480015527,1.3094263530386223,0.9725013209924301,0.2864918472899724,0.6946917475931693
0.048,1.747708272559126,1.0,2854.600494465396,0.4172576177411427,1.3090053481815394,0.9728899160658396,0.2864567474474833,0.6955219859540996
0.0485,1.7468725620236705,1.0,2859.4787522146144,0.42052634606149847,1.308584590009218,0.9732676920680627,0.28642164760499417,0.6963506084465654
0.049,1.7460368514882152,1.0,2864.3326644117237,0.42377673602871635,1.3081640848107094,0.9736350552028342,0.28638654776250505,0.697177604696358
0.0495,1.7452011409527597,1.0,2869.1614491815976,0.42700889070889236,1.3077438388750657,0.9739923926301574,0.2863514479200159,0.698002964395528
0.05,1.7443654304173042,1.0,2873.9643227005436,0.43022291316812283,1.3073238584913383,0.9743400735323615,0.28631634807752676,0.6988266773022829
0.0505,1.7435297198818487,1.0,2878.740499232487,0.4334189064725038,1.306904149948579,0.9746784501112041,0.28628124823503764,0.6996487332408807
0.051000000000000004,1.7426940093463932,1.0,2883.489191166577,0.4365969736881316,1.3064847195358396,0.9750078585210629,0.2862461483925485,0.7004691221015236
0.051500000000000004,1.741858298810938,1.0,2888.210097396637,0.4397572075065114,1.3060655692270196,0.9753286183347805,0.2862110485500594,0.7012878422632032
0.052000000000000005,1.7410225882754824,1.0,2892.903948915568,0.4428996951195472,1.3056466918815626,0.9756410337050302,0.28617594870757024,0.7021049098911262
0.0525,1.740186877740027,1.0,2897.5692982724822,0.44602457387307876,1.3052280996049053,0.9759454018288024,0.2861408488650811,0.7029203036083483
0.053,1.7393511672045714,1.0,2902.206409088276,0.4491319378912331,1.3048097893850175,0.9762420013530695,0.286105749022592,0.7037340315531291
0.0535,1.738515456669116,1.0,2906.8155466090707,0.45222188129813723,1.3043917582098692,0.9765310988317671,0.2860706491801029,0.7045461018300527
0.054,1.7376797461336606,1.0,2911.396977687681,0.45529449821791806,1.3039740030674305,0.9768129493536885,0.28603554933761377,0.7053565225100822
0.0545,1.736844035598205,1.0,2915.950970764706,0.4583498827747025,1.3035565209456714,0.9770877971326443,0.2860004494951246,0.7061653016306126
0.055,1.7360083250627496,1.0,2920.477795850911,0.46138812909261756,1.3031393088325616,0.9773558760624549,0.2859653496526355,0.7069724471955257
0.0555,1.735172614527294,1.0,2924.9777245080745,0.4644093312957902,1.3027223637160714,0.9776174102391453,0.28593024981014636,0.7077779671752378
0.056,1.7343369039918388,1.0,2929.4510298319424,0.46741358350834733,1.3023056825841708,0.9778726144525405,0.28589514996765725,0.7085818695067557
0.0565,1.7335011934563833,1.0,2933.897986434021,0.470400979854416,1.3018892624248297,0.9781216946492916,0.28586005012516813,0.7093841620937255
0.057,1.7326654829209278,1.0,2938.3188704241843,0.4733716144581231,1.3014731002260178,0.9783648483692103,0.28582495028267896,0.7101848528064841
0.0575,1.7318297723854723,1.0,2942.7139593934858,0.4763255814435956,1.3010571929757055,0.9786022651566603,0.28578985044018984,0.7109839494821071
0.058,1.7309940618500168,1.0,2947.083532396754,0.4792629749349605,1.3006415376618625,0.9788341269486154,0.2857547505977007,0.7117814599244607
0.0585,1.7301583513145615,1.0,2951.4278699357747,0.4821838890563447,1.300226131272459,0.9790606084408898,0.28571965075521155,0.7125773919042482
0.059000000000000004,1.729322640779106,1.0,2955.7472539428027,0.4850884179318752,1.2998109707954648,0.9792818774339288,0.28568455091272243,0.7133717531590591
0.059500000000000004,1.7284869302436505,1.0,2960.0419677635955,0.4879766556856789,1.29939605321885,0.9794980951594533,0.2856494510702333,0.714164551393417
0.06,1.727651219708195,1.0,2964.3122961414697,0.4908486964418828,1.2989813755305846,0.9797094165891631,0.2856143512277442,0.7149557942788252
0.0605,1.7268155091727395,1.0,2968.5580602384666,0.4937045759972918,1.2985669387712275,0.9799159863092847,0.2855792513852551,0.715745481737175
0.061,1.7259797986372842,1.0,2972.780319604321,0.49654443696556905,1.2981527331956595,0.9801179512789701,0.2855441515427659,0.7165336342090494
0.0615,1.7251440881018287,1.0,2976.9797139879,0.4993683956726298,1.297738752743401,0.9803154509635758,0.2855090517002768,0.7173202650344512
0.062,1.7243083775663732,1.0,2981.1565622477483,0.5021765358569513,1.2973249941649958,0.9805086172195205,0.2854739518577877,0.7181053821581161
0.0625,1.7234726670309177,1.0,2985.3111846203824,0.5049689412570108,1.2969114542109876,0.9806975770039551,0.28543885201529856,0.71888899348953
0.063,1.7226369564954622,1.0,2989.4439027043168,0.5077456956112854,1.2964981296319205,0.9808824525934973,0.28540375217280944,0.7196711069029749
0.0635,1.721801245960007,1.0,2993.5550394446377,0.5105068826582523,1.2960850171783376,0.9810633617916356,0.28536865233032027,0.7204517302375751
0.064,1.7209655354245514,1.0,2997.644919117397,0.5132525861363887,1.2956721136007832,0.9812404181254629,0.28533355248783115,0.7212308712973392
0.0645,1.720129824889096,1.0,3001.7138673145155,0.515982889784172,1.295259415649801,0.9814137310323672,0.28529845264534204,0.7220085378512056
0.065,1.7192941143536404,1.0,3005.762210928713,0.5186978773400791,1.2948469200759347,0.9815834060372569,0.28526335280285287,0.7227847376330847
0.0655,1.7184584038181852,1.0,3009.7902781393636,0.5213976325425874,1.294434623629728,0.9817495449208711,0.2852282529603638,0.7235594783419019
0.066,1.7176226932827297,1.0,3013.79839839703,0.524082239130174,1.2940225230617248,0.9819122458796802,0.28519315311787463,0.7243327676416375
0.0665,1.7167869827472741,1.0,3017.7869024103065,0.5267517808413162,1.2936106151224689,0.9820716036778551,0.2851580532753855,0.7251046131613694
0.067,1.7159512722118186,1.0,3021.7561221311335,0.5294063414144913,1.293198896562504,0.9822277097917532,0.2851229534328964,0.7258750224953125
0.0675,1.7151155616763631,1.0,3025.706390741171,0.5320460045881762,1.2927873641323742,0.9823806525473379,0.2850878535904072,0.7266440032028589
0.068,1.7142798511409079,1.0,3029.638042638658,0.5346708541008482,1.2923760145826226,0.9825305172509269,0.2850527537479181,0.7274115628086162
0.0685,1.7134441406054524,1.0,3033.5514134244227,0.5372809736909848,1.2919648446637935,0.9826773863136335,0.285017653905429,0.7281777088024457
0.069,1.7126084300699969,1.0,3037.446839889414,0.5398764470970628,1.2915538511264306,0.9828213393698514,0.2849825540629399,0.7289424486394998
0.0695,1.7117727195345414,1.0,3041.32466000167,0.5424573580575597,1.2911430307210776,0.9829624533901028,0.28494745422045076,0.7297057897402603
0.07,1.7109370089990859,1.0,3045.185212893555,0.5450237903109525,1.2907323801982782,0.9831008027885574,0.2849123543779616,0.7304677394905734
0.07050000000000001,1.7101012984636306,1.0,3049.0288388498852,0.5475758275957185,1.2903218963085763,0.9832364595255076,0.28487725453547247,0.7312283052416846
0.07100000000000001,1.709265587928175,1.0,3052.8558792952203,0.5501135536503349,1.2899115758025157,0.9833694932050685,0.28484215469298335,0.7319874943102749
