Time [s],Phi [rad],STIM [ ],Fsee [N],Gamma [ ],Lcerel [ ],q [ ],Lmtc [m],fisomrel [ ]
0.0,1.8,1.0,17.967299075104844,1.6079963582493642e-05,1.379339730433397,0.005000068654395319,0.288653,0.54113956924336
0.0005,1.79999375,1.0,18.27866732503823,0.005625199076499953,1.379302174167375,0.01295740214179546,0.2886527375,0.5412304230609131
0.001,1.799975,1.0,21.624811144261166,0.011202855466085852,1.3789376454748965,0.035640266649340044,0.28865195,0.5421118011541508
0.0015,1.79994375,1.0,31.085193383969827,0.016749225614208794,1.378044844389539,0.07064508203150986,0.2886506375,0.5442668865768152
0.002,1.7999,1.0,53.61728739164076,0.02226448501107541,1.3763658679524027,0.11476920810948527,0.2886488,0.5483059102054675
0.0025,1.79984375,1.0,97.17794009126017,0.02774880816283791,1.3739323245042663,0.1646305625054287,0.28864643749999996,0.5541282419988397
0.003,1.7997750000000001,1.0,161.0352871596742,0.033202368599254344,1.371211457414288,0.21733788638930843,0.28864354999999997,0.5605932840700265
0.0035,1.79969375,1.0,237.7706580609568,0.038625338873324144,1.3685820445924204,0.2706700123368554,0.2886401375,0.5667961620027775
0.004,1.7996,1.0,321.55981172827137,0.044017890572059216,1.3661536282899025,0.32297111406824297,0.2886362,0.5724857158486605
0.0045000000000000005,1.7994937500000001,1.0,409.3642086130457,0.049380194321671546,1.3639205500671854,0.3730870144958553,0.2886317375,0.5776844172155524
0.005,1.799375,1.0,499.5119982827133,0.0547124197786748,1.361856249458234,0.42029658594436997,0.28862675,0.5824619092092485
0.0055,1.79924375,1.0,590.8898663815576,0.06001473567711434,1.3599368921227062,0.46421918130567846,0.2886212375,0.5868795717125235
0.006,1.7991000000000001,1.0,682.6177437607616,0.06528730977232916,1.3581446037065281,0.504721761441672,0.2886152,0.5909835549613964
0.006500000000000001,1.79894375,1.0,773.9827567186552,0.07053030889648983,1.3564655210219898,0.5418389537505071,0.2886086375,0.5948097331713054
0.007,1.798775,1.0,864.3874920751038,0.07574389893930977,1.3548887525727826,0.5757115741363712,0.28860155,0.5983863944430303
0.0075,1.79859375,1.0,953.3438290759963,0.08092824486907074,1.353405231689826,0.6065415555448705,0.2885939375,0.6017370606322081
0.008,1.7984,1.0,1040.4546169391465,0.08608351068774373,1.352007230580485,0.6345608290785847,0.2885858,0.6048817271015855
0.0085,1.79819375,1.0,1125.4127980667263,0.09120985960350225,1.350687846132434,0.6600105356658056,0.2885771375,0.6078381204559766
0.009000000000000001,1.797975,1.0,1207.973095698946,0.09630745367956745,1.3494410387672058,0.6831280882311032,0.28856795,0.6106216850296435
0.0095,1.79774375,1.0,1287.9628036313454,0.1013764543541519,1.3482611896170678,0.7041392113604917,0.2885582375,0.6132466320360485
0.01,1.7975,1.0,1365.2479499340507,0.10641702192341561,1.3471433455023805,0.7232539325682441,0.288548,0.6157254390096139
0.0105,1.79724375,1.0,1439.7306985455596,0.11142931546256879,1.346083055283921,0.7406646679297443,0.2885372375,0.6180692565221511
0.011,1.796975,1.0,1511.3918319507745,0.11641349467130288,1.3450757032417318,0.7565455653068293,0.28852595000000003,0.6202894101792866
0.0115,1.79669375,1.0,1580.1990291816358,0.12136971673550369,1.3441175510402013,0.7710535833190653,0.2885141375,0.6223951245730054
0.012,1.7964,1.0,1646.1392784025413,0.12629813786052138,1.3432052020413452,0.7843292711635151,0.28850180000000003,0.6243947362619879
0.0125,1.79609375,1.0,1709.241461087491,0.13119891425170618,1.3423352596071794,0.7964979381894587,0.2884889375,0.6262964605538428
0.013000000000000001,1.7957750000000001,1.0,1769.5562065026531,0.13607220103016265,1.341504512226496,0.8076711547229649,0.28847555,0.6281079978601503
0.0135,1.79544375,1.0,1827.1436781377963,0.1409181533224292,1.3407100157076632,0.8179481866331839,0.2884616375,0.6298363686112368
0.014,1.7951000000000001,1.0,1882.0485629565976,0.14573692342754418,1.3399493135928866,0.8274173964542395,0.2884472,0.6314874495782055
0.0145,1.79474375,1.0,1934.3392505126014,0.15052866362279202,1.339219952412564,0.8361572878885429,0.2884322375,0.6330670404503118
0.015,1.794375,1.0,1984.0927532601759,0.1552935252336786,1.3385196200769507,0.8442376888636093,0.28841675,0.6345805702262659
0.0155,1.79399375,1.0,2031.4063454490513,0.160031660704217,1.3378459944665646,0.8517207173531285,0.2884007375,0.6360334311954656
0.016,1.7936,1.0,2076.3577443160666,0.1647432198630796,1.3371971410474721,0.8586618125752468,0.2883842,0.6374301277723572
0.0165,1.7931937500000001,1.0,2119.013965540386,0.16942835054918481,1.3365713853166163,0.8651104806189,0.2883671375,0.6387745618177736
0.017,1.792775,1.0,2159.4543077471894,0.17408720060145116,1.3359670527709406,0.8711109190361718,0.28834955,0.640070597743648
0.0175,1.7923437500000001,1.0,2197.7693164770317,0.17871991785879715,1.3353824689073888,0.8767026443686978,0.2883314375,0.6413220648902564
0.018000000000000002,1.7919,1.0,2234.0269997699215,0.18332664866938217,1.3348162888744641,0.8819211308551782,0.2883128,0.6425320558173833
0.0185,1.79144375,1.0,2268.3685507206237,0.18790754083958255,1.33426652142688,0.8867980236866687,0.2882936375,0.6437050148379245
0.019,1.790975,1.0,2300.851306449074,0.19246273836797043,1.3337320996470892,0.8913619857558469,0.28827395,0.6448433854118155
0.0195,1.7904972613072927,1.0,2331.675825955182,0.1969923843392179,1.3332121936857924,0.8956388610395398,0.2882538849749063,0.6459490879435651
0.02,1.7900191305485806,1.0,2361.286687181595,0.20149662183799716,1.3327059736936906,0.8996519363531301,0.2882338034830404,0.6470240276420066
0.0205,1.7895409997898688,1.0,2389.7607743801236,0.20597559394898038,1.3322126098214846,0.9034222286706745,0.28821372199117445,0.6480700952665754
0.021,1.789062869031157,1.0,2417.147968506298,0.2104294427425895,1.331731391108696,0.906968762726992,0.2881936404993086,0.649088916304494
0.021500000000000002,1.7885847382724451,1.0,2443.4818089794458,0.21485830959808647,1.3312617894594578,0.9103088023489326,0.2881735590074427,0.6500817182529268
0.022,1.788106607513733,1.0,2468.7990452631275,0.2192623338452941,1.330803266298074,0.9134579983145222,0.2881534775155768,0.6510497417299922
0.0225,1.7876284767550212,1.0,2493.1381360508417,0.22364165466177072,1.3303552858350003,0.9164305652642645,0.2881333960237109,0.651994212757893
0.023,1.7871503459963094,1.0,2516.5285617787536,0.2279964069885801,1.3299174149523576,0.9192394502145006,0.28811331453184497,0.6529161330075061
0.0235,1.7866722152375976,1.0,2539.024136393245,0.2323267347927886,1.329489005830945,0.9218964122629736,0.2880932330399791,0.6538169484583403
0.024,1.7861940844788855,1.0,2560.6655285477377,0.23663277690445014,1.3290695513213835,0.9244122027613847,0.2880731515481132,0.6546978009985439
0.0245,1.7857159537201737,1.0,2581.4811756316735,0.24091466695762287,1.3286586723289808,0.9267966645785871,0.2880530700562473,0.6555595570884938
0.025,1.7852378229614618,1.0,2601.500674339586,0.24517253858636498,1.328255989759045,0.9290588030416576,0.2880329885643814,0.6564030777656563
0.025500000000000002,1.78475969220275,1.0,2620.7547101858877,0.24940652542473463,1.3278611245168843,0.9312068686460537,0.2880129070725155,0.6572292188473345
0.026000000000000002,1.784281561444038,1.0,2639.274990206945,0.2536167611067899,1.3274736975078065,0.933248430591647,0.2879928255806496,0.6580388311242527
0.0265,1.783803430685326,1.0,2657.094178848008,0.257803379266589,1.32709332963712,0.9351904422586883,0.2879727440887837,0.6588327605449695
0.027,1.7833252999266143,1.0,2674.245837037823,0.26196651353819006,1.3267196418101326,0.9370392995929501,0.28795266259691776,0.6596118483911311
0.0275,1.7828471691679022,1.0,2690.7584121623986,0.2661062943965027,1.326352309424261,0.9388009001348501,0.2879325811050519,0.6603768180275873
0.028,1.7823690384091904,1.0,2706.6625598134287,0.2702228547069275,1.32599099423704,0.9404806811103609,0.287912499613186,0.6611284173352874
0.0285,1.7818909076504785,1.0,2721.9918200789516,0.27431632890231383,1.3256353379969885,0.9420836600599698,0.2878924181213201,0.6618674319119485
0.029,1.7814127768917667,1.0,2736.766756390331,0.27838684383375517,1.3252851062962758,0.9436144892756458,0.2878723366294542,0.6625943865491727
0.029500000000000002,1.7809346461330546,1.0,2751.00841285793,0.2824345263523448,1.3249400647270717,0.945077473742372,0.2878522551375883,0.6633098033646889
0.03,1.7804565153743428,1.0,2764.738286688484,0.286459503309176,1.3245999788815455,0.9464766015265863,0.2878321736457224,0.6640142018816972
0.0305,1.779978384615631,1.0,2777.9783018197168,0.2904619015553422,1.3242646143518662,0.9478155711447208,0.2878120921538565,0.6647080991047052
0.031,1.7795002538569191,1.0,2790.7507837737303,0.2944418479419366,1.3239337367302035,0.9490978162448191,0.2877920106619906,0.6653920095918597
0.0315,1.779022123098207,1.0,2803.078435729,0.2983994693200527,1.3236071116087265,0.9503265278942248,0.2877719291701247,0.6660664455237795
0.032,1.7785439923394952,1.0,2814.9834294527623,0.30233489178789763,1.3232845125129833,0.9515046754692205,0.2877518476782588,0.6667319004121262
0.0325,1.7780658615807834,1.0,2826.4784921525356,0.3062482343005649,1.3229658002441906,0.9526350324121527,0.2877317661863929,0.667388685818334
0.033,1.7775877308220716,1.0,2837.5951454780156,0.3101396328344017,1.3226506701031269,0.9537201693845435,0.287711684694527,0.6680374524298571
0.0335,1.7771096000633595,1.0,2848.3467242234437,0.31400920735774507,1.322338982405957,0.9547624992365527,0.2876916032026611,0.668678508997105
0.034,1.7766314693046477,1.0,2858.7467628059744,0.3178570778389321,1.322030597468846,0.955764275178626,0.2876715217107952,0.6693121629268435
0.0345,1.7761533385459358,1.0,2868.808984820291,0.3216833642462997,1.3217253756079586,0.9567276032373702,0.2876514402189293,0.6699387203122384
0.035,1.775675207787224,1.0,2878.5472930265864,0.325488186548185,1.3214231771394598,0.9576544536004201,0.2876313587270634,0.6705584859616565
0.035500000000000004,1.775197077028512,1.0,2887.9757597706125,0.32927166471292507,1.3211238623795143,0.9585466709610421,0.2876112772351975,0.6711717634262206
0.036000000000000004,1.7747189462698,1.0,2897.1086178364935,0.3330339187088569,1.3208272916442871,0.9594059839610898,0.2875911957433316,0.671778855026121
0.0365,1.7742408155110883,1.0,2905.96025173262,0.3367750685043176,1.3205333252499432,0.960234013820246,0.2875711142514657,0.6723800618756829
0.037,1.7737626847523764,1.0,2914.5451894090215,0.3404952340676442,1.320241823512647,0.9610322822300569,0.2875510327595998,0.6729756839071896
0.0375,1.7732845539936644,1.0,2922.870260186588,0.3441945248353055,1.319952715562782,0.961802223034323,0.28753095126773387,0.6735658794770458
0.038,1.7728064232349525,1.0,2930.9550218133145,0.34787307062317774,1.3196658196253812,0.9625451777930047,0.287510869775868,0.6741510324082693
0.0385,1.7723282924762407,1.0,2938.810899196155,0.3515309891169421,1.3193810264722192,0.9632624129063978,0.2874907882840021,0.6747313773263763
0.039,1.7718501617175286,1.0,2946.445907618952,0.35516839295881414,1.3190982575545074,0.9639551224628495,0.2874707067921362,0.6753070855410628
0.0395,1.7713720309588168,1.0,2953.8681368998223,0.3587853947910097,1.3188174343234573,0.9646244314537559,0.2874506253002703,0.6758783277149489
0.04,1.770893900200105,1.0,2961.0857479344263,0.3623821072557442,1.3185384782302807,0.965271400513317,0.2874305438084044,0.6764452738735236
0.0405,1.7704157694413931,1.0,2968.1069693762074,0.3659586429952335,1.3182613107261885,0.9658970302846963,0.2874104623165385,0.6770080934146956
0.041,1.769937638682681,1.0,2974.9400944522313,0.3695151146516931,1.3179858532623927,0.9665022654456683,0.2873903808246726,0.6775669551179466
0.0415,1.7694595079239692,1.0,2981.5934779175623,0.37305163486733883,1.3177120272901044,0.9670879984236057,0.2873702993328067,0.6781220271530994
0.042,1.7689813771652574,1.0,2988.075533144971,0.37656831628438625,1.3174397542605356,0.9676550728267634,0.28735021784094084,0.6786734770886823
0.0425,1.7685032464065455,1.0,2994.394729352252,0.380065271545051,1.3171689556248973,0.9682042866162297,0.2873301363490749,0.6792214718999104
0.043000000000000003,1.7680251156478335,1.0,3000.559588966242,0.3835426132915487,1.3168995528344014,0.9687363950406015,0.287310054857209,0.6797661779762642
0.043500000000000004,1.7675469848891217,1.0,3006.5705645190737,0.38700043474311596,1.316631537670114,0.9692521159333558,0.2872899733653431,0.6803076191092446
0.044,1.7670688541304098,1.0,3012.443474021031,0.3904388713303278,1.3163647691114206,0.9697521255784243,0.2872698918734772,0.6808460869422115
0.0445,1.766590723371698,1.0,3018.1832619371103,0.39385802935941766,1.3160992007745758,0.9702370680847858,0.2872498103816113,0.6813816813446252
0.045,1.766112592612986,1.0,3023.7942972219903,0.3972580135668522,1.315834791507182,0.9707075547016015,0.2872297288897454,0.68191449130617
0.0455,1.765634461854274,1.0,3029.2809756747865,0.4006389286890979,1.3155715001568415,0.9711641656602863,0.2872096473978795,0.6824446055126294
0.046,1.7651563310955622,1.0,3034.647718900174,0.4040008794626215,1.315309285571157,0.9716074520480559,0.28718956590601363,0.682972112348873
0.0465,1.7646782003368504,1.0,3039.8989733068875,0.4073439706238895,1.3150481065977306,0.9720379375509459,0.2871694844141477,0.6834970999017378
0.047,1.7642000695781384,1.0,3045.03920914463,0.4106683069093686,1.3147879220841652,0.9724561200765567,0.2871494029222818,0.6840196559627983
0.0475,1.7637219388194265,1.0,3050.0729195774247,0.4139739930555254,1.314528690878063,0.9728624732658878,0.2871293214304159,0.6845398680310331
0.048,1.7632438080607147,1.0,3055.004619795136,0.41726113379882657,1.3142703718270263,0.9732574479028188,0.28710923993855003,0.6850578233153783
0.0485,1.7627656773020026,1.0,3059.8388461626096,0.42052983387573867,1.3140129237786577,0.9736414732290543,0.2870891584466841,0.6855736087371775
0.049,1.7622875465432908,1.0,3064.580155406082,0.42378019802272826,1.3137563055805597,0.9740149581716971,0.2870690769548182,0.6860873109325206
0.0495,1.761809415784579,1.0,3069.233123837174,0.4270123309762621,1.3135004760803346,0.9743782924900021,0.2870489954629523,0.6865990162544756
0.05,1.761331285025867,1.0,3073.8007306722952,0.4302263292585725,1.3132454079668356,0.9747318478168822,0.28702891397108643,0.6871087831240137
0.0505,1.760853154267155,1.0,3078.284304269868,0.433422284726016,1.3129910881738764,0.9750759791207984,0.2870088324792205,0.6876166413384335
0.051000000000000004,1.7603750235084432,1.0,3082.6926283198436,0.436600328645982,1.3127374399395078,0.9754110254861881,0.2869887509873546,0.68812274764057
0.051500000000000004,1.7598968927497314,1.0,3087.0278607465625,0.4397605571792922,1.3124844433797809,0.9757373104178388,0.2869686694954887,0.6886271449159074
0.052000000000000005,1.7594187619910195,1.0,3091.2921688939623,0.44290306648676797,1.3122320786107473,0.9760551429765885,0.28694858800362283,0.689129875913304
0.0525,1.7589406312323075,1.0,3095.48772924256,0.446027952729231,1.3119803257484584,0.9763648185496887,0.28692850651175694,0.6896309832458094
0.053,1.7584625004735956,1.0,3099.6167271352383,0.4491353120675029,1.311729164908965,0.9766666195736439,0.286908425019891,0.6901305093914517
0.0535,1.7579843697148838,1.0,3103.681356512073,0.45222524066240527,1.3114785762083194,0.9769608162128379,0.2868883435280251,0.6906284966939993
0.054,1.757506238956172,1.0,3107.6838196535086,0.45529783467475965,1.3112285397625723,0.9772476669970094,0.2868682620361592,0.6911249873637022
0.0545,1.75702810819746,1.0,3111.626326932476,0.4583531902653876,1.3109790356877749,0.977527419420399,0.2868481805442933,0.6916200234780028
0.055,1.756549977438748,1.0,3115.511096575624,0.46139140359511077,1.310730044099979,0.9778003105051772,0.2868280990524274,0.692113646982223
0.0555,1.7560718466800362,1.0,3119.340354432618,0.46441257082475074,1.3104815451152358,0.9780665673315633,0.2868080175605615,0.6926058996902289
0.056,1.7555937159213244,1.0,3123.116333754834,0.46741678811512904,1.3102335188495966,0.9783264075368643,0.2867879360686956,0.6930968232850669
0.0565,1.7551155851626123,1.0,3126.8412749825056,0.4704041516270673,1.3099859454191127,0.9785800397854992,0.28676785457682974,0.6935864593195755
0.057,1.7546374544039005,1.0,3130.5174255405973,0.473374757521387,1.3097388049398355,0.978827664211917,0.2867477730849638,0.6940748492169724
0.0575,1.7541593236451887,1.0,3134.147039643906,0.47632870195891,1.3094920775278165,0.9790694728381814,0.2867276915930979,0.6945620342714159
0.058,1.7536811928864768,1.0,3137.732168642125,0.4792660786709322,1.3092457450749195,0.9793056498591486,0.286707610101232,0.6950480521462306
0.0585,1.7532030621277648,1.0,3141.2701089862776,0.48218693061479295,1.3089998298114556,0.9795363700837965,0.28668752860936614,0.6955328608944245
0.059000000000000004,1.752724931369053,1.0,3144.7684221308523,0.4850914233674038,1.3087542670005785,0.9797618069097239,0.28666744711750025,0.6960165899519626
0.059500000000000004,1.752246800610341,1.0,3148.2280574722927,0.4879796434909021,1.308509048019036,0.9799821233950659,0.2866473656256343,0.6964992579412888
0.06,1.751768669851629,1.0,3151.64996744687,0.4908516775474252,1.308264164243575,0.9801974762760105,0.2866272841337684,0.696980883428604
0.0605,1.7512905390929172,1.0,3155.035107465243,0.4937076120991105,1.308019607050943,0.9804080162607044,0.28660720264190254,0.6974614849240521
0.061,1.7508124083342054,1.0,3158.3844358495116,0.49654753370809546,1.3077753678178865,0.9806138883073144,0.2865871211500366,0.6979410808819027
0.0615,1.7503342775754935,1.0,3161.6989137715645,0.49937152893651726,1.3075314379211536,0.9808152318872114,0.2865670396581707,0.698419689700726
0.062,1.7498561468167815,1.0,3164.979505193151,0.5021796843465134,1.3072878087374906,0.9810121812341801,0.2865469581663048,0.6988973297235694
0.0625,1.7493780160580696,1.0,3168.227176807313,0.5049720865002212,1.3070444716436456,0.9812048655804981,0.28652687667443894,0.6993740192381204
0.063,1.7488998852993578,1.0,3171.442897982035,0.507748821959778,1.306801418016365,0.9813934093806675,0.28650679518257305,0.6998497764768741
0.0635,1.748421754540646,1.0,3174.627640704872,0.5105099772873212,1.3065586392323967,0.9815779325235318,0.2864867136907071,0.7003246196172872
0.064,1.747943623781934,1.0,3177.7823795301406,0.513255639044988,1.3063161266684873,0.9817585505334625,0.2864666321988412,0.7007985667819364
0.0645,1.747465493023222,1.0,3180.908091526559,0.5159858937949161,1.3060738717013844,0.9819353747612575,0.28644655070697533,0.7012716360386622
0.065,1.7469873622645102,1.0,3184.005756227602,0.5187008280992427,1.3058318657078352,0.9821085125653428,0.28642646921510945,0.7017438454007164
0.0655,1.7465092315057984,1.0,3187.0763555828207,0.521400528520105,1.3055901000645864,0.9822780674838418,0.28640638772324356,0.7022152128269008
0.066,1.7460311007470863,1.0,3190.1208739111767,0.5240850816196406,1.305348566148386,0.9824441393980338,0.2863863062313776,0.702685756221699
0.0665,1.7455529699883745,1.0,3193.140297856054,0.5267545739599868,1.3051072553359806,0.982606824687688,0.28636622473951173,0.7031554934354105
0.067,1.7450748392296627,1.0,3196.135616341566,0.5294090921032809,1.3048661590041175,0.9827662163787354,0.28634614324764585,0.7036244422642735
0.0675,1.7445967084709508,1.0,3199.1078205306535,0.5320487226116604,1.3046252685295443,0.9829224042837069,0.2863260617557799,0.7040926204505837
0.068,1.7441185777122388,1.0,3202.0579037853304,0.5346735520472624,1.3043845752890078,0.9830754751353379,0.286305980263914,0.7045600456828137
0.0685,1.743640446953527,1.0,3204.985262815333,0.5372836258151603,1.3041440840705834,0.9832255107886432,0.28628589877204813,0.705026709581843
0.069,1.743162316194815,1.0,3207.891397363843,0.5398790575892377,1.30390378202294,0.9833725937288562,0.28626581728018224,0.7054926379851829
0.0695,1.742684185436103,1.0,3210.7777081987992,0.5424599524492161,1.3036636571496016,0.9835168031656841,0.28624573578831636,0.7059578549953099
0.07,1.7422060546773912,1.0,3213.644601860672,0.5450263872949727,1.3034237058061255,0.9836582143519762,0.2862256542964504,0.7064223684785644
