Time [s],Phi [rad],STIM [ ],Fsee [N],Gamma [ ],Lcerel [ ],q [ ],Lmtc [m],fisomrel [ ]
0.0,1.8,1.0,17.96822370193803,3.772953105233499e-05,1.3793396268460083,0.005000375437729812,0.288653,0.5411398198479949
0.0005,1.79999375,1.0,18.28683131639068,0.005646727207024447,1.3793012674557905,0.013017676230138015,0.2886527375,0.5412326164108128
0.001,1.799975,1.0,21.649089732669417,0.011224262840819395,1.3789351668386138,0.035753218909821576,0.28865195,0.5421177912404078
0.0015,1.79994375,1.0,31.143789866413385,0.016770512910505533,1.3780398558017712,0.07079961228225769,0.2886506375,0.5442789139839797
0.002,1.7999,1.0,53.744383705723024,0.022285652902453063,1.376357630161269,0.11495216973867656,0.2886488,0.5483256830975558
0.0025,1.79984375,1.0,97.39217181464814,0.027769857319095453,1.3739220100047733,0.16482958100431438,0.28864643749999996,0.5541528393941014
0.003,1.7997750000000001,1.0,161.31438668282158,0.033223299686385654,1.3712010174769131,0.21754318970256786,0.28864354999999997,0.5606179994391085
0.0035,1.79969375,1.0,238.08619708102518,0.03864615255359299,1.3685723301627788,0.27087420156726827,0.2886401375,0.5668189969336084
0.004,1.7996,1.0,321.8956196291613,0.044038587504031175,1.366144737628612,0.32316882017339155,0.2886362,0.5725064767438612
0.0045000000000000005,1.7994937500000001,1.0,409.7120096731921,0.0494007751602584,1.3639123885456876,0.3732746862266285,0.2886317375,0.5777033592569276
0.005,1.799375,1.0,499.866923886171,0.054732885175272174,1.3618487094014007,0.42047216465277154,0.28862675,0.5824793096445813
0.0055,1.79924375,1.0,591.2479868555869,0.06003508627862776,1.3599298969656541,0.4643817382392112,0.2886212375,0.5868956290506812
0.006,1.7991000000000001,1.0,682.9763634608889,0.06530754622292956,1.358138086286578,0.5048711483596847,0.2886152,0.5909984411702413
0.006500000000000001,1.79894375,1.0,774.3359991843378,0.07055043179795119,1.3564594920245578,0.5419755782301137,0.2886086375,0.5948234392397773
0.007,1.798775,1.0,864.7405503617915,0.07576390905584202,1.3548830504677798,0.5758360409893376,0.28860155,0.5983993000340666
0.0075,1.79859375,1.0,953.6813401375782,0.08094814268910971,1.3534000411542018,0.6066548489517183,0.2885939375,0.6017487592863793
0.008,1.7984,1.0,1040.789987094684,0.0861032969180185,1.3520022935566134,0.6346637265078633,0.2885858,0.6048928103663386
0.0085,1.79819375,1.0,1125.7435746936721,0.09122953484852221,1.3506831641006294,0.6601039812094809,0.2885771375,0.6078485918889382
0.009000000000000001,1.797975,1.0,1208.2878450695387,0.09632701823631754,1.3494367385011072,0.6832130599222268,0.28856795,0.6106312684493266
0.0095,1.79774375,1.0,1288.271061225434,0.10139590923420284,1.3482571109005774,0.7042164709739012,0.2885582375,0.6132556910305578
0.01,1.7975,1.0,1365.5599904843393,0.10643636812648474,1.3471393352857541,0.7233241874042539,0.288548,0.6157343172747601
0.0105,1.79724375,1.0,1440.0450225584834,0.11144855361579535,1.3460791215896435,0.740728642271396,0.2885372375,0.6180779387746835
0.011,1.796975,1.0,1511.6802986734335,0.11643262440476679,1.3450721797452512,0.7566040652605508,0.28852595000000003,0.620297164431955
0.0115,1.79669375,1.0,1580.4588635401922,0.12138873851845909,1.3441144471224167,0.7711071826848214,0.2885141375,0.6224019364848008
0.012,1.7964,1.0,1646.3959930766675,0.12631705327423323,1.3432021974331159,0.7843783394955539,0.28850180000000003,0.6244013127457926
0.0125,1.79609375,1.0,1709.4980614906585,0.1312177238825002,1.3423323122911623,0.7965429207083075,0.2884889375,0.6263028952850322
0.013000000000000001,1.7957750000000001,1.0,1769.8028826590019,0.13609090535839855,1.3415017275981764,0.8077125070526494,0.28847555,0.6281140626513422
0.0135,1.79544375,1.0,1827.363808684785,0.14093675180277315,1.3407075702043203,0.8179863387129712,0.2884616375,0.629841682415396
0.014,1.7951000000000001,1.0,1882.2656434479636,0.14575541783711754,1.339946937407949,0.8274525680456501,0.2884472,0.631492601233916
0.0145,1.79474375,1.0,1934.5587706332403,0.1505470548736353,1.3392175822230767,0.8361897469474,0.2884322375,0.6330721680826856
0.015,1.794375,1.0,1984.3103312099468,0.1553118141060568,1.33851730049689,0.8442677106957353,0.28841675,0.6345855780111553
0.0155,1.79399375,1.0,2031.6042334894942,0.16004984654131488,1.3378439095055084,0.8517485907052079,0.2884007375,0.6360379235013836
0.016,1.7936,1.0,2076.528857010002,0.16476130227572125,1.3371953578084113,0.858687757848961,0.2883842,0.6374339626034997
0.0165,1.7931937500000001,1.0,2119.178790628755,0.1694463316122611,1.336569684978303,0.8651346104504777,0.2883671375,0.6387782115867533
0.017,1.792775,1.0,2159.6213336781607,0.17410508148914888,1.335965345938565,0.8711333709940092,0.28834955,0.640074254873662
0.0175,1.7923437500000001,1.0,2197.9345066848587,0.17873769884459909,1.3353807956125776,0.8767235771743872,0.2883314375,0.641325643923069
0.018000000000000002,1.7919,1.0,2234.2061536248953,0.1833443306168262,1.334814488923722,0.8819406328389444,0.2883128,0.6425358992562082
0.0185,1.79144375,1.0,2268.5162615587187,0.1879251219714547,1.3342650486537173,0.8868163330245891,0.2882936375,0.6437081544914796
0.019,1.790975,1.0,2300.9666297605154,0.19248022048054345,1.3337309579398255,0.8913792057477847,0.28827395,0.6448458154099694
0.0195,1.79049375,1.0,2331.6256420389177,0.19700976900029493,1.333211101471638,0.8956550143200014,0.2882537375,0.6459514089797762
0.02,1.79,1.0,2360.5622804185437,0.2015139097888957,1.332704414018885,0.8996669869244059,0.288233,0.6470273370291784
0.0205,1.78949375,1.0,2387.8506529232245,0.20599278510453226,1.3322098303512981,0.9034360897910393,0.2882117375,0.6480759841133983
0.021,1.788975,1.0,2413.569561806766,0.21044653720539122,1.3317262852386083,0.9069812782570049,0.28818995000000003,0.649099718373066
0.021500000000000002,1.78844375,1.0,2437.7875333239717,0.21487530621783937,1.3312528535247188,0.9103197456645579,0.2881676375,0.6501005964022041
0.022,1.7879,1.0,2460.589528769814,0.21927923532667382,1.3307884875058233,0.9134670621000325,0.2881448,0.6510809200689087
0.0225,1.78734375,1.0,2482.034939718865,0.22365846284248275,1.3303324169817083,0.916437423901239,0.28812143749999997,0.652042392509639
0.023,1.786775,1.0,2502.179340675155,0.2280131259882105,1.3298839340105202,0.9192437569274282,0.28809755,0.6529865755157613
0.0235,1.78619375,1.0,2521.080716623927,0.2323433619868014,1.329442330650405,0.9218978373041795,0.28807313749999996,0.6539150216059604
0.024,1.7856,1.0,2538.7992608852483,0.23664930806119977,1.3290068989595092,0.9244104095723108,0.2880482,0.6548292743528294
0.0245,1.78499375,1.0,2555.3945766019174,0.24093110089724637,1.3285769554910556,0.9267912953436084,0.2880227375,0.6557308173476686
0.025,1.784375,1.0,2570.9185096514143,0.24518887532396136,1.3281519063628242,0.9290494960461462,0.28799675,0.656620938617488
0.025500000000000002,1.78374375,1.0,2585.4428083684197,0.2494227698762458,1.327730986144554,0.9311932321586734,0.2879702375,0.6575012778084124
0.026000000000000002,1.7831000000000001,1.0,2599.008722574811,0.2536329164355285,1.3273137283288476,0.9332300922448852,0.2879432,0.6583728419881038
0.0265,1.78244375,1.0,2611.6586215461407,0.2578194468832381,1.3268996664083068,0.935167047531487,0.2879156375,0.6592366329787556
0.027,1.781775,1.0,2623.4359001547996,0.26198249310080346,1.326488333875533,0.9370105104075849,0.28788755,0.6600936474591149
0.0275,1.7810937500000001,1.0,2634.3848898375445,0.26612218696965334,1.3260792642231287,0.9387663866687731,0.2878589375,0.6609448770526245
0.028,1.7804,1.0,2644.5507743888943,0.27023866037121647,1.3256719909436956,0.9404401222422697,0.2878298,0.6617913084016884
0.0285,1.77969375,1.0,2653.974595285538,0.27433204228693564,1.3252660928392337,0.9420367504099543,0.2878001375,0.6626338292381984
0.029,1.778975,1.0,2662.699129577665,0.2784024659808842,1.3248611388695066,0.9435609237595128,0.28776995,0.6634733432793596
0.029500000000000002,1.7782437500000001,1.0,2670.757741040505,0.2824500591985998,1.3244567900891635,0.9450169581746573,0.2877392375,0.6643105591997338
0.03,1.7775,1.0,2678.182546230193,0.2864749484824179,1.324052723514854,0.9464088534358608,0.287708,0.665146149179227
0.0305,1.77674375,1.0,2685.0060994075884,0.2904772603746742,1.323648616163228,0.9477403188113772,0.2876762375,0.6659807820651389
0.031,1.775975,1.0,2691.2613512484804,0.2944571214177043,1.323244145050935,0.9490147978141102,0.28764395,0.6668151233746498
0.0315,1.7751937500000001,1.0,2696.981609866981,0.2984146581538437,1.3228389871946244,0.9502354905578354,0.2876111375,0.6676498352906541
0.032,1.7744,1.0,2702.1908683869797,0.302349991847022,1.3224329076377963,0.9514053831158302,0.2875778,0.6684853956385086
0.0325,1.77359375,1.0,2706.9217457718096,0.30626325141006255,1.3220255949980608,0.9525272490836224,0.2875439375,0.6693224367542887
0.033,1.772775,1.0,2711.210574380872,0.31015456711383527,1.3216167063524196,0.9536036702827273,0.28750955,0.6701616524075942
0.0335,1.7719437500000002,1.0,2715.0768310565086,0.314024058947725,1.3212060545414155,0.9546370704084357,0.2874746375,0.6710034136668916
0.034,1.7711000000000001,1.0,2718.540154684012,0.31787184690111653,1.3207934524055924,0.9556297125947092,0.2874392,0.6718480895845055
0.0345,1.7702437500000001,1.0,2721.620330471605,0.3216980509633948,1.3203787127854936,0.9565837119451682,0.2874032375,0.6726960471744586
0.035,1.7693750000000001,1.0,2724.337275006346,0.32550279112394465,1.319961648521662,0.9575010469462125,0.28736675,0.6735476513880752
0.035500000000000004,1.76849375,1.0,2726.7110220871623,0.32928618737215093,1.3195420724546416,0.958383569873691,0.2873297375,0.6744032650873488
0.036000000000000004,1.7676,1.0,2728.761709334291,0.3330483596973985,1.3191197974249753,0.9592330162923283,0.2872922,0.6752632490160801
0.0365,1.76669375,1.0,2730.5095655752607,0.3367894280890722,1.3186946362732068,0.960051013736386,0.2872541375,0.6761279617687768
0.037,1.765775,1.0,2731.974899007839,0.3405095125365569,1.3182664018398793,0.9608390896505363,0.28721555,0.6769977597573229
0.0375,1.76484375,1.0,2733.1689842394776,0.344208726500484,1.3178349896427486,0.9615986853571924,0.2871764375,0.6778728295879908
0.038,1.7639,1.0,2734.1136231311807,0.3478871929120954,1.3174002000611482,0.9623311484262659,0.28713679999999997,0.6787535491107879
0.0385,1.76294375,1.0,2734.82883328667,0.35154503168886214,1.3169618501444165,0.9630377473925267,0.28709663750000003,0.6796402600543
0.039,1.761975,1.0,2735.3257236161107,0.355182355699955,1.316519838206427,0.9637196825189953,0.28705595,0.680533137824545
0.0395,1.7609937500000001,1.0,2735.615434175124,0.3587992778145446,1.3160740625610536,0.9643780844414519,0.2870147375,0.6814323564290534
0.04,1.76,1.0,2735.709131807897,0.3623959109018017,1.3156244215221697,0.9650140189485489,0.286973,0.6823380884527925
0.0405,1.7589937500000001,1.0,2735.6180060204338,0.3659723678308969,1.3151708134036493,0.9656284913848979,0.2869307375,0.683250505033425
0.041,1.757975,1.0,2735.353265082208,0.369528761471001,1.3147131365193658,0.9662224507105253,0.28688795,0.6841697758359152
0.0415,1.75694375,1.0,2734.926132357759,0.3730652046912847,1.314251289183193,0.9667967932468259,0.2868446375,0.6850960690264707
0.042,1.7559,1.0,2734.3478428671483,0.37658181036091853,1.3137851697090042,0.9673523661362332,0.28680079999999997,0.6860295512458274
0.0425,1.75484375,1.0,2733.629640076068,0.38007869134907335,1.3133146764106736,0.9678899705402034,0.2867564375,0.6869703875818716
0.043000000000000003,1.753775,1.0,2732.7734442573915,0.38355595315695884,1.3128397923451693,0.9684103703203651,0.28671155,0.6879185724662988
0.043500000000000004,1.75269375,1.0,2731.7966576268173,0.387013713810689,1.3123603599887583,0.9689142794311716,0.28666613750000003,0.6888743798076955
0.044,1.7516,1.0,2730.710638750669,0.39045208411397136,1.3118762767075094,0.9694023775238655,0.2866202,0.6898379720250671
0.0445,1.75049375,1.0,2729.5213027455848,0.3938711702382786,1.31138748932862,0.9698753120585478,0.2865737375,0.6908094116378145
0.045,1.7493750000000001,1.0,2728.2345657494197,0.39727107835508335,1.3108939446792875,0.9703336971653009,0.28652675,0.6917887600821176
0.0455,1.74824375,1.0,2726.8563438432525,0.40065191463585825,1.3103955895867094,0.970778115680871,0.2864792375,0.6927760776948949
0.046,1.7471,1.0,2725.39255203594,0.404013785252076,1.3098923708780832,0.9712091210418684,0.2864312,0.6937714236975783
0.0465,1.7459437500000001,1.0,2723.8491033116225,0.40735679637520916,1.309384235380606,0.9716272390458733,0.28638263750000004,0.6947748561797124
0.047,1.744775,1.0,2722.231907739097,0.4106810541767305,1.3088711299214757,0.9720329694908342,0.28633355,0.6957864320823689
0.0475,1.74359375,1.0,2720.546871645322,0.4139866648281125,1.3083530013278895,0.9724267877022499,0.28628393750000003,0.6968062071813859
0.048,1.7424,1.0,2718.7998968498646,0.417273734500828,1.3078297964270447,0.9728091459567961,0.2862338,0.6978342360704217
0.0485,1.74119375,1.0,2716.9927984858423,0.42054235853912086,1.3073014992305083,0.973180476061866,0.2861831375,0.6988704992687561
0.049,1.739975,1.0,2715.1345694603465,0.4237926538515664,1.3067680283317986,0.9735411874344303,0.28613195,0.6999151045708571
0.0495,1.73874375,1.0,2713.2298433483656,0.4270247234624881,1.3062293419714446,0.973891671204924,0.2860802375,0.7009680807261992
0.05,1.7375,1.0,2711.2820218327006,0.43023866684332746,1.3056854095782848,0.9742323005930342,0.286028,0.7020294335808555
0.0505,1.73624375,1.0,2709.294502896465,0.43343458346552627,1.3051362005811582,0.9745634315786403,0.2859752375,0.7030991680321913
0.051000000000000004,1.734975,1.0,2707.270680562845,0.43661257280052607,1.3045816844089033,0.9748854038488305,0.28592195,0.7041772880186072
0.051500000000000004,1.73369375,1.0,2705.2139446558485,0.4397727343197685,1.3040218304903592,0.9751985416847767,0.2858681375,0.7052637965092197
0.052000000000000005,1.7324,1.0,2703.127680581181,0.4429151674946953,1.3034566082543646,0.9755031547927832,0.2858138,0.7063586954934857
0.0525,1.73109375,1.0,2701.015269128827,0.4460399717967479,1.3028859871297582,0.975799539083479,0.28575893750000003,0.7074619859707652
0.053,1.729775,1.0,2698.8800862951753,0.4491472466973682,1.3023099365453787,0.9760879774028136,0.28570355000000003,0.7085736679398249
0.0535,1.72844375,1.0,2696.7255031267805,0.45223709166799775,1.301728425930065,0.9763687402182252,0.2856476375,0.7096937403882821
0.054,1.7271,1.0,2694.5548855846505,0.4553096061800781,1.3011414247126556,0.9766420862630892,0.2855912,0.7108222012819898
0.0545,1.7257437500000001,1.0,2692.361238937644,0.45836486007112165,1.3005489970963782,0.9769082659682378,0.2855342375,0.7119588658940091
0.055,1.724375,1.0,2690.155087023537,0.4614029828640054,1.2999510469938635,0.9771675153246244,0.28547675,0.7131038565283325
0.0555,1.72299375,1.0,2687.941696127402,0.4644240797157484,1.2993475263188554,0.9774200607990781,0.2854187375,0.7142572018073411
0.056,1.7216,1.0,2685.7220348646188,0.46742824182650083,1.298738426287688,0.9776661203525406,0.2853602,0.7154188541427156
0.0565,1.72019375,1.0,2683.497070298028,0.470415560396413,1.2981237381166948,0.9779059029043998,0.28530113749999997,0.7165887652146952
0.057,1.718775,1.0,2681.267767926168,0.4733861266256352,1.2975034530222098,0.9781396087790243,0.28524155,0.717766885968947
0.0575,1.71734375,1.0,2679.035091672404,0.47634003171431744,1.2968775622205668,0.9783674301267465,0.2851814375,0.7189531666134359
0.058,1.7159,1.0,2676.800003876978,0.47927736686261013,1.2962460569280998,0.9785895513209558,0.2851208,0.720147556615284
0.0585,1.71444375,1.0,2674.5634652901126,0.4821982232706635,1.2956089283611425,0.9788061493328294,0.2850596375,0.7213500046976306
0.059000000000000004,1.7129750000000001,1.0,2672.3264350665054,0.48510269213862767,1.294966167736029,0.9790173940851322,0.28499795,0.7225604588364825
0.059500000000000004,1.71149375,1.0,2670.0898707624087,0.487990864666653,1.2943177662690928,0.9792234487864084,0.2849357375,0.7237788662575628
0.06,1.71,1.0,2667.8547283335092,0.49086283205488956,1.293663715176668,0.9794244702467946,0.284873,0.7250051734331533
0.0605,1.7084937500000001,1.0,2665.6219621353684,0.4937186855034877,1.2930040056750882,0.9796206091766019,0.2848097375,0.7262393260789314
0.061,1.7069750000000001,1.0,2663.39252492472,0.4965585162125976,1.2923386289806877,0.9798120104687312,0.28474595,0.727481269150803
0.0615,1.7054437500000001,1.0,2661.1673678630377,0.49938241538236955,1.2916675763098,0.9799988134659127,0.2846816375,0.7287309468417316
0.062,1.7039,1.0,2658.947440522071,0.5021904742129537,1.2909908388787592,0.9801811522136953,0.2846168,0.7299883025785587
0.0625,1.70234375,1.0,2656.7336908901484,0.5049827839045004,1.290308407903899,0.9803591557000466,0.2845514375,0.7312532790188249
0.063,1.7007750000000001,1.0,2654.5270678013603,0.5077594356109913,1.289620274579243,0.9805329480777618,0.28448555,0.7325258180887877
0.0635,1.69919375,1.0,2652.3313627360903,0.5105204839572771,1.2889264038725827,0.9807026448465935,0.28441913750000003,0.7338059092642131
0.064,1.6976,1.0,2650.145438420635,0.5132660618698879,1.28822680616039,0.9808683652910142,0.2843522,0.7350934573041483
0.0645,1.69599375,1.0,2647.9694599942204,0.5159962519335012,1.287521479817398,0.9810302200547435,0.2842847375,0.7363883885319312
0.065,1.694375,1.0,2645.80359235211,0.5187111367327949,1.2868104232183402,0.981188315769932,0.28421675,0.7376906286138922
0.0655,1.69274375,1.0,2643.6480001489685,0.5214107988524465,1.2860936347379497,0.9813427552299915,0.2841482375,0.7390001025587648
0.066,1.6911,1.0,2641.5028478021763,0.5240953208771335,1.2853711127509597,0.9814936375537711,0.2840792,0.7403167347170888
0.0665,1.6894437500000001,1.0,2639.3682994945707,0.5267647853915337,1.2846428556321041,0.9816410583415707,0.2840096375,0.7416404487806159
0.067,1.687775,1.0,2637.244519177817,0.5294192749803246,1.2839088617561156,0.9817851098234499,0.28393955,0.7429711677817182
0.0675,1.68609375,1.0,2635.1316705759036,0.5320588722281838,1.2831691294977279,0.9819258810002687,0.2838689375,0.7443088140927903
0.068,1.6844000000000001,1.0,2633.029917188123,0.5346836597197889,1.282423657231674,0.9820634577778576,0.2837978,0.7456533094256566
0.0685,1.68269375,1.0,2630.939422292681,0.5372937200398178,1.2816724433326874,0.9821979230947057,0.2837261375,0.7470045748309759
0.069,1.680975,1.0,2628.860348950047,0.5398891357729477,1.2809154861755014,0.9823293570435112,0.28365395,0.7483625306976456
0.0695,1.67924375,1.0,2626.792860006496,0.5424699895038564,1.2801527841348492,0.9824578369869422,0.28358123749999997,0.7497270967522085
0.07,1.6775,1.0,2624.7371180977657,0.5450363638172215,1.2793843355854642,0.9825834376679073,0.283508,0.7510981920582549
0.07050000000000001,1.67574375,1.0,2622.6932856525186,0.5475883412977207,1.2786101389020796,0.9827062313146441,0.2834342375,0.7524757350158288
0.07100000000000001,1.673975,1.0,2620.661524895896,0.5501260045300316,1.2778301924594289,0.9828262877408913,0.28335995,0.7538596433608313
0.07150000000000001,1.67219375,1.0,2618.641997853772,0.5526494360988317,1.2770444946322452,0.9829436744414153,0.2832851375,0.7552498341644255
0.07200000000000001,1.6704,1.0,2616.634335910831,0.5551587175129444,1.2762530487196966,0.983058456842177,0.2832098,0.7566462151564827
0.0725,1.66859375,1.0,2614.6393245188183,0.5576539253460006,1.2754558473087123,0.9831706974510801,0.2831339375,0.7580487123196409
0.073,1.6667750000000001,1.0,2612.656981975459,0.5601351375608866,1.2746528901029883,0.9832804571398716,0.28305755,0.7594572383867213
0.0735,1.66494375,1.0,2610.685935277126,0.562602431979818,1.2738441897374972,0.9833877953791026,0.2829806375,0.7608716828667526
0.074,1.6631,1.0,2608.7248135424425,0.5650558864250099,1.2730297588472117,0.9834927697324287,0.2829032,0.762291934897428
0.0745,1.6612437500000001,1.0,2606.772247986306,0.5674955787186778,1.2722096100671045,0.983595435929112,0.2828252375,0.7637178832497287
0.075,1.6593800878269647,1.0,2605.0799071076412,0.5699215850097127,1.2713836994249255,0.9836958453594238,0.28274696368873253,0.7651495143062554
