Time [s],Phi [rad],STIM [ ],Fsee [N],Gamma [ ],Lcerel [ ],q [ ],Lmtc [m],fisomrel [ ]
0.0,1.8,1.0,18.412460467654405,0.0006806568625001185,1.3792901628113001,0.0051194020171111895,0.288653,0.5412594782990352
0.0005,1.79999375,1.0,18.92779553834859,0.006286048224618061,1.37923070146631,0.014906785395958192,0.2886527375,0.5414033005911045
0.001,1.799975,1.0,22.767467565188863,0.011859997773055554,1.3788224593156237,0.039188558210625196,0.28865195,0.5423901285652506
0.0015,1.79994375,1.0,33.327802658663614,0.01740268187234953,1.377857157008575,0.07544612029910956,0.2886506375,0.5447192885758838
0.002,1.7999,1.0,58.0318956036697,0.02291427589608026,1.376085226583278,0.120419078905971,0.2886488,0.5489792804394277
0.0025,1.79984375,1.0,104.25366444357658,0.028394954234493983,1.3735974543114755,0.17075412138613838,0.28864643749999996,0.5549264736351562
0.003,1.7997750000000001,1.0,170.0150697813463,0.03384489030253769,1.370879974519342,0.22364037115575988,0.28864354999999997,0.5613776929226153
0.0035,1.79969375,1.0,247.79300798458672,0.03926425653821393,1.3682765721912764,0.27692805485688265,0.2886401375,0.5675139233898074
0.004,1.7996,1.0,332.15220372267083,0.04465322441426893,1.3658753896504383,0.3290231277015178,0.2886362,0.5731352016841198
0.0045000000000000005,1.7994937500000001,1.0,420.28816247883896,0.05001196444188914,1.363665841492226,0.3788267331559434,0.2886317375,0.5782753690425737
0.005,1.799375,1.0,510.61656452784524,0.05534064614293053,1.3616215985657996,0.42566310128056867,0.28862675,0.5830032507994761
0.0055,1.79924375,1.0,602.0776183634746,0.0606394382295397,1.3597193538493388,0.4691853011426971,0.2886212375,0.5873787833744074
0.006,1.7991000000000001,1.0,693.7927881615684,0.06590850822860117,1.357942310537329,0.5092841869697888,0.2886152,0.5914454793596887
0.006500000000000001,1.79894375,1.0,785.0699396728144,0.07114802290225752,1.3562769408888085,0.5460097241554991,0.2886086375,0.5952383335169403
0.007,1.798775,1.0,875.3311097545836,0.07635814808386109,1.354712544446623,0.5795119390794004,0.28860155,0.5987851110082987
0.0075,1.79859375,1.0,964.0840584701517,0.08153904844373294,1.3532405072206533,0.6099978633344858,0.2885939375,0.6021082399824478
0.008,1.7984,1.0,1050.9688447222622,0.08669088829836058,1.3518528260135676,0.6377011849905814,0.2885858,0.6052282806960017
0.0085,1.79819375,1.0,1135.6656955541428,0.0918138302821582,1.3505430382216874,0.6628633681072147,0.2885771375,0.6081619207726677
0.009000000000000001,1.797975,1.0,1217.9360912414772,0.09690803642954053,1.3493051899198247,0.6857207831910872,0.28856795,0.6109243759409285
0.0095,1.79774375,1.0,1297.622613338337,0.10197366839978045,1.348133606778651,0.7064973893410955,0.2885582375,0.6135299484416061
0.01,1.7975,1.0,1374.5919747142943,0.10701088615198465,1.347023457867147,0.7254012311210578,0.288548,0.6159908153377822
0.0105,1.79724375,1.0,1448.756919354938,0.11201984890904665,1.3459702645027771,0.742622560362895,0.2885372375,0.6183181635200206
0.011,1.796975,1.0,1520.0808478112117,0.11700071520359366,1.3449697177101196,0.7583335511821956,0.28852595000000003,0.6205226207366084
0.0115,1.79669375,1.0,1588.5595215069156,0.1219536433534003,1.3440178062934423,0.7726890143877604,0.2885141375,0.6226139953859937
0.012,1.7964,1.0,1654.178448738345,0.12687878923081966,1.3431112219089238,0.7858276743593017,0.28850180000000003,0.624600412628078
0.0125,1.79609375,1.0,1716.9631956923326,0.1317763086742353,1.3422466642686377,0.797873178805427,0.2884889375,0.626489862235301
0.013000000000000001,1.7957750000000001,1.0,1776.9541911707836,0.1366463564828168,1.3414210835372662,0.8089356249119586,0.28847555,0.6282896802175992
0.0135,1.79544375,1.0,1834.2356042818872,0.1414890882811248,1.3406313030776158,0.8191128071914896,0.2884616375,0.6300073831748898
0.014,1.7951000000000001,1.0,1888.848873254349,0.14630465617064847,1.3398749416850755,0.8284918963750205,0.2884472,0.6316486735158372
0.0145,1.79474375,1.0,1940.8528948444084,0.15109321197271855,1.3391496807951684,0.8371503603270241,0.2884322375,0.6332190497976256
0.015,1.794375,1.0,1990.3275414961531,0.15585490750866587,1.3384532018434174,0.8451570630240145,0.28841675,0.6347239482204686
0.0155,1.79399375,1.0,2037.3521532050743,0.1605898933770779,1.3377833933040104,0.852573339603804,0.2884007375,0.6361683010460084
0.016,1.7936,1.0,2082.0313245263837,0.16529832086898394,1.3371380533433281,0.859453790443293,0.2883842,0.6375571842725487
0.0165,1.7931937500000001,1.0,2124.432713683457,0.16998033782907704,1.3365155200268566,0.8658472673782577,0.2883671375,0.6388944667763211
0.017,1.792775,1.0,2164.6315838820683,0.17463609181505485,1.3359141770104357,0.8717974040969767,0.28834955,0.6401838829190105
0.0175,1.7923437500000001,1.0,2202.7140956513863,0.17926573038461507,1.3353324079499054,0.8773432193564468,0.2883314375,0.6414291332223159
0.018000000000000002,1.7919,1.0,2238.7620405152334,0.18386939978913827,1.3347687403603674,0.8825196969092747,0.2883128,0.6426335793288678
0.0185,1.79144375,1.0,2272.875951655309,0.18844724760404233,1.3342216012790087,0.8873581929566816,0.2882936375,0.6438007692554061
0.019,1.790975,1.0,2305.127368122925,0.19299941765626855,1.3336897855165348,0.8918869704479211,0.28827395,0.6449334408224776
0.0195,1.79049375,1.0,2335.5873964098682,0.19752605309392102,1.3331721556250986,0.8961314784565378,0.2882537375,0.6460341668243785
0.02,1.79,1.0,2364.332890925378,0.20202729706510392,1.3326675741568517,0.9001146551094623,0.288233,0.6471055009712869
0.0205,1.78949375,1.0,2391.443077238929,0.20650329222442024,1.332174931737838,0.9038572151754052,0.2882117375,0.64814991940358
0.021,1.788975,1.0,2416.993586094378,0.21095418046130862,1.3316931995362977,0.9073779075768291,0.28818995000000003,0.649169711037544
0.021500000000000002,1.78844375,1.0,2441.064356139306,0.21538010454141845,1.3312213472872452,0.9106937135392272,0.2881676375,0.650167152746244
0.022,1.7879,1.0,2463.7134538742876,0.2197812028460071,1.330758590298178,0.913820084971194,0.2881448,0.6511439889794708
0.0225,1.78734375,1.0,2485.0019551532005,0.22415761375633206,1.330304143876594,0.9167710594730489,0.28812143749999997,0.6521019532460152
0.023,1.786775,1.0,2504.9936955577336,0.2285094756536507,1.3298572233299908,0.9195594093637128,0.28809755,0.6530427685491983
0.0235,1.78619375,1.0,2523.755034424204,0.23283692691922053,1.3294170439658661,0.9221967732427714,0.28807313749999996,0.6539681477831334
0.024,1.7856,1.0,2541.3427007175296,0.23714010276766967,1.328982933490446,0.9246937910315387,0.2880482,0.6548795582653726
0.0245,1.78499375,1.0,2557.826245853624,0.24141914403616854,1.3285541174096338,0.9270601711485987,0.2880227375,0.6557786732563029
0.025,1.784375,1.0,2573.253127910336,0.24567418459741616,1.3281300458402472,0.9293048336704495,0.28799675,0.6566666869160628
0.025500000000000002,1.78374375,1.0,2587.6696625827612,0.24990535752053622,1.327710193093899,0.9314359563495921,0.2879702375,0.65754473642334
0.026000000000000002,1.7831000000000001,1.0,2601.123464670655,0.2541127958746525,1.3272940334822025,0.9334610430978224,0.2879432,0.6584139529558384
0.0265,1.78244375,1.0,2613.6633361737026,0.25829663272888886,1.3268810413167713,0.9353869886033258,0.2879156375,0.6592754618229058
0.027,1.781775,1.0,2625.3391605151032,0.262457001152369,1.3264706909092179,0.9372201359632567,0.28788755,0.6601303825805418
0.0275,1.7810937500000001,1.0,2636.1910117952298,0.2665940311242964,1.3260625563788526,0.9389663419126439,0.2878589375,0.6609796215806364
0.028,1.7804,1.0,2646.267526702974,0.27070785686411747,1.3256561402381042,0.9406309990109805,0.2878298,0.6618242293533808
0.0285,1.77969375,1.0,2655.615973765925,0.2747986108318791,1.3252509648711468,0.9422190887499967,0.2878001375,0.6626652099821047
0.029,1.778975,1.0,2664.26794315349,0.2788664200987031,1.3248467033069422,0.9437352353286034,0.28776995,0.6635032504802663
0.029500000000000002,1.7782437500000001,1.0,2672.255551937485,0.2829114117357113,1.3244430285744533,0.9451837181819035,0.2877392375,0.6643390344688664
0.03,1.7775,1.0,2679.6113977284876,0.28693371281402535,1.3240396137026418,0.9465685020946785,0.287708,0.6651732421921004
0.0305,1.77674375,1.0,2686.3685146826147,0.2909334504047671,1.3236361317204701,0.9478932643271394,0.2876762375,0.6660065505261815
0.031,1.775975,1.0,2692.5603318786248,0.2949107515790583,1.3232322556569005,0.9491614190818287,0.28764395,0.6668396329813524
0.0315,1.7751937500000001,1.0,2698.2206340651774,0.2988657434080206,1.3228276585408953,0.9503761396011187,0.2876111375,0.6676731596970762
0.032,1.7744,1.0,2703.3762058380057,0.30279854848000165,1.3224220802484392,0.9515403849341936,0.2875778,0.6685076599753477
0.0325,1.77359375,1.0,2708.0605271292225,0.3067092967101828,1.3220152019195615,0.9526569058749589,0.2875439375,0.6693437810354084
0.033,1.772775,1.0,2712.298061890524,0.310598111463913,1.3216067892114283,0.9537282745749822,0.28750955,0.6701819934091708
0.0335,1.7719437500000002,1.0,2716.110144412743,0.3144651137144363,1.3211966380949063,0.9547568936768664,0.2874746375,0.6710227030501588
0.034,1.7711000000000001,1.0,2719.5182770071647,0.31831042443499696,1.3207845445408624,0.9557450069022803,0.2874392,0.6718663137235699
0.0345,1.7702437500000001,1.0,2722.54411279497,0.3221341645988389,1.320370304520163,0.9566947114371359,0.2874032375,0.6727132269823282
0.035,1.7693750000000001,1.0,2725.2094394182586,0.32593645517920644,1.3199537140036748,0.9576079692132801,0.28736675,0.6735638421404805
0.035500000000000004,1.76849375,1.0,2727.536163675303,0.32971741714934355,1.3195345689622646,0.9584866171965539,0.2873297375,0.6744185562439405
0.036000000000000004,1.7676,1.0,2729.546297077705,0.3334771714824944,1.319112665366799,0.9593323767790637,0.2872922,0.6752777640385756
0.0365,1.76669375,1.0,2731.247900491892,0.3372158258122459,1.3186879267821476,0.9601468722793274,0.2872541375,0.6761415986074506
0.037,1.765775,1.0,2732.6787403535677,0.34093351824769463,1.3182600074983104,0.9609316081747836,0.28721555,0.6770107386070645
0.0375,1.76484375,1.0,2733.8514220203633,0.3446303632465125,1.317828791092997,0.9616880149696013,0.2871764375,0.6778853939807525
0.038,1.7639,1.0,2734.7780765096936,0.34830647476127946,1.3173941658954862,0.9624174377112905,0.28713679999999997,0.6787657635698616
0.0385,1.76294375,1.0,2735.470877574871,0.35196196674457525,1.3169560202350565,0.9631211417043114,0.28709663750000003,0.6796520447600588
0.039,1.761975,1.0,2735.942036305812,0.3555969531489799,1.3165142424409868,0.9638003181015152,0.28705595,0.6805444334566588
0.0395,1.7609937500000001,1.0,2736.2037960072466,0.35921154792707305,1.3160687208425557,0.9644560890454887,0.2870147375,0.6814431240591539
0.04,1.76,1.0,2736.2684273525633,0.36280586503143475,1.3156193437690418,0.96508951240046,0.286973,0.6823483094349472
0.0405,1.7589937500000001,1.0,2736.1482238145613,0.3663800184146448,1.315165999549724,0.9657015861113784,0.2869307375,0.6832601808922939
0.041,1.757975,1.0,2735.8554973727632,0.36993412202928305,1.3147085765138808,0.9662932522231572,0.28688795,0.6841789281524452
0.0415,1.75694375,1.0,2735.4025744966157,0.37346828982792935,1.3142469629907911,0.9668654005898573,0.2868446375,0.685104739320996
0.042,1.7559,1.0,2734.8012227243407,0.3769826346427969,1.3137810524829028,0.9674188725473941,0.28680079999999997,0.6860377905061282
0.0425,1.75484375,1.0,2734.0581979992544,0.3804772590232324,1.313310784077129,0.967954465914268,0.2867564375,0.6869781651179039
0.043000000000000003,1.753775,1.0,2733.191056047538,0.38395228986222235,1.3128359988308815,0.9684729316641121,0.28671155,0.6879261410570303
0.043500000000000004,1.75269375,1.0,2732.206138955065,0.38740783373154625,1.3123566396625383,0.9689749858551633,0.28666613750000003,0.6888817910035944
0.044,1.7516,1.0,2731.1097921890973,0.3908439972029833,1.311872649490477,0.9694613069576804,0.2866202,0.6898451865426978
0.0445,1.75049375,1.0,2729.9083632794514,0.39426088684831306,1.3113839712330762,0.9699325381950814,0.2865737375,0.6908163981477002
0.045,1.7493750000000001,1.0,2728.6082005706535,0.39765860923931473,1.310890547808713,0.9703892897170621,0.28652675,0.6917954951632601
0.0455,1.74824375,1.0,2727.215652046932,0.40103727094776764,1.3103923221357656,0.9708321406182806,0.2864792375,0.6927825457881605
0.046,1.7471,1.0,2725.7370642293827,0.40439697854545126,1.3098892371326116,0.9712616408149707,0.2864312,0.6937776170579337
0.0465,1.7459437500000001,1.0,2724.178781145181,0.4077378386041448,1.3093812357176295,0.971678312790755,0.28638263750000004,0.6947807748272722
0.047,1.744775,1.0,2722.547143369133,0.4110599576956277,1.3088682608091966,0.9720826532219378,0.28633355,0.6957920837522389
0.0475,1.74359375,1.0,2720.848487137896,0.41436344239167927,1.308350255325691,0.9724751344916561,0.28628393750000003,0.6968116072722615
0.048,1.7424,1.0,2719.087886846059,0.4176483933439578,1.3078271736301699,0.9728562061621392,0.2862338,0.6978393851239199
0.0485,1.74119375,1.0,2717.2683708440472,0.4209149004941437,1.307298988686866,0.9732262962245023,0.2861831375,0.6988754194898896
0.049,1.739975,1.0,2715.4016120668175,0.4241631005419404,1.3067655946624153,0.973585812632709,0.28613195,0.6999198658527256
0.0495,1.73874375,1.0,2713.4904958177735,0.427393091801362,1.306226965703009,0.9739351449005499,0.2860802375,0.7009727215444137
0.05,1.7375,1.0,2711.5379045742516,0.4306049725864226,1.3056830759548388,0.9742746644050349,0.286028,0.7020339830190951
0.0505,1.73624375,1.0,2709.5467177594264,0.43379884121113627,1.3051338995640962,0.9746047253906648,0.2859752375,0.7031036458444135
0.051000000000000004,1.734975,1.0,2707.5198115297476,0.43697479598951716,1.3045794106769728,0.9749256659094386,0.28592195,0.7041817046928187
0.051500000000000004,1.73369375,1.0,2705.460058576778,0.4401329352355794,1.3040195834396602,0.9752378087012386,0.2858681375,0.70526815333283
0.052000000000000005,1.7324,1.0,2703.3703279436513,0.44327335726333694,1.3034543919983497,0.9755414620188714,0.2858138,0.7063629846202549
0.0525,1.73109375,1.0,2701.2534848570035,0.44639616038680396,1.302883810499233,0.9758369204016939,0.28575893750000003,0.7074661904893644
0.053,1.729775,1.0,2699.1123905729755,0.44950144291999455,1.3023078130885017,0.9761244654014437,0.28570355000000003,0.708577761944029
0.0535,1.72844375,1.0,2696.9499022386217,0.4525893031769228,1.3017263739123475,0.9764043662636167,0.2856476375,0.7096976890488084
0.054,1.7271,1.0,2694.7688727679074,0.4556598394716029,1.3011394671169616,0.9766768805674677,0.2855912,0.7108259609200014
0.0545,1.7257437500000001,1.0,2692.572150732466,0.45871315011804875,1.3005470668485357,0.9769422548274757,0.2855342375,0.7119625657166512
0.055,1.724375,1.0,2690.3625802670754,0.46174933343027463,1.2999491472532616,0.9772007250588984,0.28547675,0.7131074906315089
0.0555,1.72299375,1.0,2688.143000990474,0.4647684877222945,1.2993456824773304,0.9774525173098453,0.2854187375,0.7142607218819557
0.056,1.7216,1.0,2685.9155141943834,0.46777070256164266,1.2987366533903015,0.9776978477434343,0.2853602,0.7154222318914631
0.0565,1.72019375,1.0,2683.680056723687,0.47075605105599694,1.2981220606717085,0.9779369232115478,0.28530113749999997,0.7165919545307848
0.057,1.718775,1.0,2681.441577513578,0.4737246736756915,1.2975018590381464,0.9781699455171661,0.28524155,0.7177699102960678
0.0575,1.71734375,1.0,2679.2009374458817,0.4766766595241713,1.296876040636808,0.9783971057114829,0.2851814375,0.7189560474994015
0.058,1.7159,1.0,2676.9589959777554,0.4796120977048815,1.296244597614886,0.978618587126083,0.2851208,0.7201503137244716
0.0585,1.71444375,1.0,2674.716611137298,0.4825310773212672,1.2956075221195726,0.9788345657442418,0.2850596375,0.7213526558237449
0.059000000000000004,1.7129750000000001,1.0,2672.474639520299,0.48543368747677335,1.294964806298061,0.9790452105515179,0.28499795,0.7225630199156485
0.059500000000000004,1.71149375,1.0,2670.2339362894622,0.48832001727484514,1.294316442297543,0.9792506838669541,0.2849357375,0.7237813513817507
0.06,1.71,1.0,2667.9953551732706,0.49119015581892755,1.293662422265212,0.9794511416560954,0.284873,0.7250075948639296
0.0605,1.7084937500000001,1.0,2665.759748468172,0.49404419221246576,1.29300273834826,0.9796467338269573,0.2848097375,0.7262416942615467
0.061,1.7069750000000001,1.0,2663.5279670404716,0.49688221555890477,1.29233738269388,0.9798376045099989,0.28474595,0.7274835927286096
0.0615,1.7054437500000001,1.0,2661.3008603303747,0.4997043149616897,1.2916663474492645,0.9800238923230757,0.2846816375,0.7287332326709342
0.062,1.7039,1.0,2659.079276357815,0.5025105795242656,1.2909896247616057,0.9802057306222912,0.2846168,0.7299905557433033
0.0625,1.70234375,1.0,2656.8640617283554,0.5053010983500775,1.2903072067780967,0.9803832477395913,0.2845514375,0.7312555028466179
0.063,1.7007750000000001,1.0,2654.656061641783,0.5080759605425705,1.28961908564593,0.9805565672079026,0.28448555,0.7325280141250494
0.0635,1.69919375,1.0,2652.4561199015225,0.5108352552051898,1.288925253512298,0.9807258079745509,0.28441913750000003,0.7338080289631836
0.064,1.6976,1.0,2650.265078924898,0.5135790714413803,1.2882257025243933,0.9808910846036513,0.2843522,0.7350954859831631
0.0645,1.69599375,1.0,2648.083779755927,0.5163074983545871,1.2875204248294088,0.9810525074681202,0.2842847375,0.736390323041825
0.065,1.694375,1.0,2645.913062078446,0.5190206250482554,1.2868094125745368,0.9812101829319084,0.28421675,0.7376924772278352
0.0655,1.69274375,1.0,2643.753244364562,0.521718497509621,1.2860926627083793,0.9813642107500261,0.2841482375,0.7390018760983084
0.066,1.6911,1.0,2641.6041063674393,0.5244012381732926,1.2853701771526165,0.9815146926681649,0.2840792,0.7403184374741208
0.0665,1.6894437500000001,1.0,2639.465827326778,0.5270689522768945,1.2846419541399754,0.9816617254289227,0.2840096375,0.741642085278623
0.067,1.687775,1.0,2637.3385037405387,0.5297217193749354,1.2839079926659518,0.9818054006549642,0.28393955,0.7429727413915493
0.0675,1.68609375,1.0,2635.2222319893826,0.5323596190219243,1.283168291726041,0.9819458067676848,0.2838689375,0.744310327043864
0.068,1.6844000000000001,1.0,2633.117108338305,0.5349827307723701,1.282422850315738,0.9820830291198691,0.2837978,0.7456547628173924
0.0685,1.68269375,1.0,2631.02322893852,0.5375911341807821,1.2816716674305384,0.9822171501219551,0.2837261375,0.7470059686444521
0.069,1.680975,1.0,2628.940689830079,0.5401849088016689,1.2809147420659375,0.9823482493622464,0.28365395,0.7483638638074868
0.0695,1.67924375,1.0,2626.8695869436738,0.5427641341895396,1.2801520732174307,0.982476403721409,0.28358123749999997,0.7497283669386969
0.07,1.6775,1.0,2624.8100161030397,0.5453288898989033,1.2793836598805135,0.9826016874815571,0.283508,0.7510993960196733
0.07050000000000001,1.67574375,1.0,2622.7620730270582,0.5478792554842687,1.278609501050681,0.9827241724302191,0.2834342375,0.7524768683810286
0.07100000000000001,1.673975,1.0,2620.725853331886,0.550415310500145,1.2778295957234287,0.9828439279594557,0.28335995,0.7538607007020286
0.07150000000000001,1.67219375,1.0,2618.701452533297,0.5529371345010412,1.277043942894252,0.9829610211603902,0.2832851375,0.7552508090102248
0.07200000000000001,1.6704,1.0,2616.6889660490783,0.5554448070414661,1.276252541558646,0.9830755169133861,0.2832098,0.7566471086810859
0.0725,1.66859375,1.0,2614.688489201063,0.5579384076759287,1.2754553907121065,0.983187477974107,0.2831339375,0.75804951443763
0.073,1.6667750000000001,1.0,2612.7001172177656,0.560418015958938,1.2746524893501283,0.9832969650556656,0.28305755,0.7594579403500563
0.0735,1.66494375,1.0,2610.7239452362987,0.5628837114450032,1.2738438364682072,0.9834040369070673,0.2829806375,0.7608722998353756
0.074,1.6631,1.0,2608.760068304989,0.5653355736886329,1.2730294310618384,0.9835087503881387,0.2829032,0.7622925056570434
0.0745,1.6612437500000001,1.0,2606.808581385818,0.5677736822443362,1.2722092721265172,0.983611160541117,0.2828252375,0.7637184699245908
0.075,1.659375,1.0,2604.8695793567326,0.5701981166666222,1.271383358657739,0.9837113206590714,0.28274675,0.7651501040932558
0.0755,1.65749375,1.0,2602.9431570140346,0.5726089565099998,1.2705516896509992,0.9838092823513167,0.2826677375,0.7665873189636142
