Time [s],Phi [rad],STIM [ ],Fsee [N],Gamma [ ],Lcerel [ ],q [ ],Lmtc [m],fisomrel [ ]
0.0,1.8,1.0,17.966119993510446,2.3847097314876478e-05,1.3793398625316167,0.0050001505285223085,0.288653,0.5411392496635656
0.0005,1.79999375,1.0,18.28021999563177,0.005632922642757721,1.379302001708631,0.012979004121888685,0.2886527375,0.541230840241791
0.001,1.799975,1.0,21.63222260547729,0.011210535709243087,1.3789368886806004,0.035680778682554905,0.28865195,0.5421136300926859
0.0015,1.79994375,1.0,31.10491416961056,0.016756862777278343,1.3780431649439429,0.07070052334410214,0.2886506375,0.5442709357116289
0.002,1.7999,1.0,53.66154319308321,0.022272079335691593,1.37636299839062,0.11483485947081724,0.2886488,0.5483127979669074
0.0025,1.79984375,1.0,97.25348209509943,0.027756359889302782,1.3739286861275943,0.16470197947841367,0.28864643749999996,0.5541369186571781
0.003,1.7997750000000001,1.0,161.13421215576224,0.03320987796650366,1.3712077560126597,0.21741155970579343,0.28864354999999997,0.5606020467986154
0.0035,1.79969375,1.0,237.8827904755365,0.03863280611895543,1.3685785916588116,0.2707432861295973,0.2886401375,0.5668042786058898
0.004,1.7996,1.0,321.67933922011616,0.04402531593234376,1.3661504632153134,0.3230420614649676,0.2886362,0.5724931067831996
0.0045000000000000005,1.7994937500000001,1.0,409.48814468523983,0.049387578031570775,1.3639176413780771,0.37315436102351335,0.2886317375,0.577691168028754
0.005,1.799375,1.0,499.63858131148703,0.05471976207187919,1.3618535600149673,0.42035959275539114,0.28862675,0.582468115766883
0.0055,1.79924375,1.0,591.0176835863901,0.060022036785726846,1.3599343952296647,0.46427751492967123,0.2886212375,0.5868853033503045
0.006,1.7991000000000001,1.0,682.7458157065928,0.065294569927442,1.3581422759785295,0.5047753686873945,0.2886152,0.5909888716738483
0.006500000000000001,1.79894375,1.0,774.1096890553997,0.07053752832371679,1.3564633544346267,0.5418879730772009,0.2886086375,0.5948146586263192
0.007,1.798775,1.0,864.5147239721131,0.0757510778829395,1.354886697566456,0.5757562277023958,0.28860155,0.5983910455687973
0.0075,1.79859375,1.0,953.468250401613,0.0809353835207633,1.3534033181246756,0.6065821742741004,0.2885939375,0.6017413735282823
0.008,1.7984,1.0,1040.5808134117287,0.08609060934725435,1.3520053727338737,0.6345976976707081,0.2885858,0.6048858978523173
0.0085,1.79819375,1.0,1125.535536802425,0.09121691838108406,1.3506861087266702,0.6600440309467457,0.2885771375,0.607842006205823
0.009000000000000001,1.797975,1.0,1208.095029445302,0.09631447292978874,1.3494393727798322,0.6831585082597802,0.28856795,0.6106253978036911
0.0095,1.79774375,1.0,1288.0726245376093,0.10138343397119802,1.348259736463597,0.7041669375164872,0.2885582375,0.6132498595609245
0.01,1.7975,1.0,1365.3556681468326,0.10642396255305525,1.3471419611004873,0.7232791681110177,0.288548,0.6157285039646293
0.0105,1.79724375,1.0,1439.8483991091234,0.11143621779218515,1.3460815822375716,0.7406875925737634,0.2885372375,0.6180725077676625
0.011,1.796975,1.0,1511.4933253396725,0.11642035791450371,1.3450744635054657,0.7565665674554702,0.28852595000000003,0.6202921385089766
0.0115,1.79669375,1.0,1580.2769541642124,0.12137654073466506,1.3441166201406038,0.7710728977472905,0.2885141375,0.6223971675478551
0.012,1.7964,1.0,1646.2176979218548,0.12630492385366857,1.343204284188427,0.7843469469173914,0.28850180000000003,0.6243967452637417
0.0125,1.79609375,1.0,1709.3283017649533,0.13120566266266132,1.3423342621291119,0.7965141036733622,0.2884889375,0.6262986383052185
0.013000000000000001,1.7957750000000001,1.0,1769.6408034701092,0.1360789118294347,1.3415035572233507,0.8076860105361509,0.28847555,0.6281100778182322
0.0135,1.79544375,1.0,1827.2113547032036,0.14092482556659694,1.3407092638505433,0.817961923797939,0.2884616375,0.629838002316393
0.014,1.7951000000000001,1.0,1882.116144628837,0.14574355814803625,1.3399485738224013,0.8274300571322256,0.2884472,0.6314890534314904
0.0145,1.79474375,1.0,1934.4193331634353,0.15053526183077287,1.3392190877333856,0.8361689291256484,0.2884322375,0.6330689110884236
0.015,1.794375,1.0,1984.182521745908,0.15530008743261142,1.33851866304733,0.8442484190613581,0.28841675,0.6345826363796181
0.0155,1.79399375,1.0,2031.4858083582376,0.16003818577135664,1.3378451572280674,0.8517306897423578,0.2884007375,0.6360352351324694
0.016,1.7936,1.0,2076.410857111923,0.16474970661351857,1.3371965875282936,0.8586711481278854,0.2883842,0.6374313181099294
0.0165,1.7931937500000001,1.0,2119.0606860388866,0.16943480071766306,1.3365709033404725,0.86511917625322,0.2883671375,0.6387755963793953
0.017,1.792775,1.0,2159.5091661265888,0.17409361547928834,1.3359664921677257,0.871118989666904,0.28834955,0.6400717989174538
0.0175,1.7923437500000001,1.0,2197.8301489202354,0.17872629745271737,1.3353818526976193,0.8767101509059899,0.2883314375,0.6413233829117104
0.018000000000000002,1.7919,1.0,2234.107148214281,0.18333299319227314,1.3348154836177186,0.8819280854986096,0.2883128,0.6425337752864579
0.0185,1.79144375,1.0,2268.4265081709486,0.18791384852961734,1.3342659435476745,0.8868045801229216,0.2882936375,0.6437062467607874
0.019,1.790975,1.0,2300.878030542347,0.19246900947599616,1.3337318350745173,0.8913682000916633,0.28827395,0.6448439485261326
0.0195,1.79049375,1.0,2331.5436541237937,0.19699862071784338,1.3332119077994267,0.8956446820663758,0.2882537375,0.6459496954740638
0.02,1.79,1.0,2360.4895274356268,0.20150282423016147,1.3327051251239908,0.8996572679885624,0.288233,0.6470258281767527
0.0205,1.78949375,1.0,2387.7868450922715,0.20598176198795287,1.3322104504497982,0.9034269362134247,0.2882117375,0.648074670318693
0.021,1.788975,1.0,2413.511427870222,0.21043557596622,1.3317268471784378,0.9069726527657859,0.28818995000000003,0.6490985295314202
0.021500000000000002,1.78844375,1.0,2437.7349550934387,0.21486440661424622,1.331253359230316,0.9103116081041394,0.2881676375,0.6500995280568599
0.022,1.7879,1.0,2460.5365656416775,0.21926839625576583,1.3307889945476157,0.913459386953731,0.2881448,0.6510798504023517
0.0225,1.78734375,1.0,2481.98233432048,0.22364768451227252,1.3303329184183286,0.9164301759009039,0.28812143749999997,0.6520413361263708
0.023,1.786775,1.0,2502.1276122049676,0.22800240836659533,1.3298844250993325,0.9192369042078127,0.28809755,0.6529855423369991
0.0235,1.78619375,1.0,2521.0301561940273,0.23233270480156337,1.3294428088475054,0.9218913510622075,0.28807313749999996,0.6539140168962565
0.024,1.7856,1.0,2538.749927548788,0.23663871080000579,1.3290073639197253,0.9244042637636832,0.2880482,0.6548282987455148
0.0245,1.78499375,1.0,2555.348901473798,0.24092056334475168,1.3285773845728701,0.9267854623413821,0.2880227375,0.6557299181991462
0.025,1.784375,1.0,2570.8789904792143,0.245178396176438,1.3281522764914977,0.92904394988993,0.28799675,0.6566201640097182
0.025500000000000002,1.78374375,1.0,2585.4059806421433,0.24941234866849576,1.3277313300953855,0.9311879589190928,0.2879702375,0.6575005589091503
0.026000000000000002,1.7831000000000001,1.0,2598.975056557259,0.2536225537484579,1.3273140419292864,0.9332250735914795,0.2879432,0.6583721873594177
0.0265,1.78244375,1.0,2611.6278775664127,0.2578091429034841,1.3268999520953453,0.9351622674613073,0.2879156375,0.6592360373726434
0.027,1.781775,1.0,2623.4071218423337,0.26197224762073407,1.326488600695708,0.9370059550303764,0.28788755,0.6600930918869853
0.0275,1.7810937500000001,1.0,2634.3563985590295,0.26611199938736746,1.3260795278325193,0.9387620440136637,0.2878589375,0.6609443288537031
0.028,1.7804,1.0,2644.520164752361,0.27022852969054395,1.3256722736079247,0.9404359820837185,0.2878298,0.6617907213107304
0.0285,1.7796937951450504,1.0,2653.9466504815546,0.2743219691928804,1.325266370824563,0.9420327973590545,0.2878001393960921,0.6626332525848787
0.029,1.7789823575132826,1.0,2663.019836753055,0.2783924454154048,1.3248615102591852,0.9435571584791919,0.28777025901555786,0.6634725738269175
0.029500000000000002,1.778270919881515,1.0,2671.9841030889115,0.2824400939719873,1.324457792561967,0.9450134445258458,0.2877403786350236,0.6643084848399734
0.03,1.7775594822497471,1.0,2680.8366501749524,0.28646504034187387,1.3240552376608632,0.9464056962465811,0.28771049825448936,0.6651409532670965
0.0305,1.7768480446179793,1.0,2689.574673227239,0.2904674100043102,1.3236538654838284,0.94773766003911,0.28768061787395516,0.665969946930408
0.031,1.7761366069862115,1.0,2698.1953625099036,0.2944473284385423,1.3232536959588173,0.9490128130934145,0.28765073749342085,0.6667954338296063
0.0315,1.7754251693544436,1.0,2706.6959038626414,0.298404921123816,1.3228547490137845,0.9502343860934556,0.28762085711288665,0.6676173821404534
0.032,1.774713731722676,1.0,2715.0734792358267,0.30234031353937707,1.322457044576685,0.9514053837415516,0.2875909767323524,0.6684357602132327
0.0325,1.7740022940909081,1.0,2723.3252672356207,0.30625363116447146,1.3220606025754729,0.9525286033375814,0.28756109635181815,0.669250536571184
0.033,1.7732908564591403,1.0,2731.450255206837,0.31014499372637444,1.321665426477859,0.9536066480591573,0.2875312159712839,0.6700617136760751
0.0335,1.7725794188273725,1.0,2739.4479571922657,0.31401452666394014,1.3212715150486873,0.9546419472107407,0.28750133559074964,0.6708693036298503
0.034,1.7718679811956046,1.0,2747.3162038355536,0.31786236275572144,1.3208788824082196,0.9556367725448313,0.2874714552102154,0.6716732870677677
0.0345,1.771156543563837,1.0,2755.056816411678,0.32168862023468037,1.320487506588872,0.9565932391076786,0.28744157482968113,0.6724737184963259
0.035,1.7704451059320692,1.0,2762.6716404790623,0.3254934173337789,1.320097365623061,0.9575133252611459,0.2874116944491469,0.6732706521721187
0.035500000000000004,1.7697336683003013,1.0,2770.1625452728535,0.329276872285979,1.3197084375432029,0.958398883106479,0.28738181406861263,0.674064142103584
0.036000000000000004,1.7690222306685335,1.0,2777.5314231089606,0.33303910332424275,1.3193207003817145,0.9592516479988445,0.28735193368807843,0.6748542420527148
0.0365,1.7683107930367656,1.0,2784.7801887982005,0.33678022868153196,1.318934132171012,0.9600732472413299,0.2873220533075441,0.6756410055367458
0.037,1.767599355404998,1.0,2791.9107790724347,0.34050036659080885,1.3185487109435117,0.9608652080376068,0.2872921729270099,0.6764244858298056
0.0375,1.7668879177732302,1.0,2798.925152019548,0.34419963528503533,1.3181644147316305,0.9616289647740212,0.2872622925464757,0.6772047359645378
0.038,1.7661764801414623,1.0,2805.8252865310824,0.3478781529971734,1.3177812215677842,0.9623658656944696,0.2872324121659414,0.6779818087336953
0.0385,1.7654650425096945,1.0,2812.61318175908,0.35153603796018495,1.3173991094843898,0.9630771790248044,0.28720253178540717,0.6787557566916975
0.039,1.7647536048779267,1.0,2819.289780001484,0.3551733863673181,1.3170180661425033,0.9637640951730345,0.2871726514048729,0.6795266126889905
0.0395,1.764042167246159,1.0,2825.8592287574165,0.3587903310587919,1.3166380506969397,0.9644277401239449,0.28714277102433866,0.6802944669988591
0.04,1.7633307296143912,1.0,2832.325238652468,0.3623870037943065,1.3162590264549883,0.9650691753583761,0.2871128906438044,0.6810594011024969
0.0405,1.7626192919826233,1.0,2838.690119171831,0.36596351350495787,1.3158809694395823,0.96568939908674,0.2870830102632702,0.6818214704907833
0.041,1.7619078543508555,1.0,2844.9561981974325,0.3695199691218419,1.3155038556736545,0.9662893536685426,0.2870531298827359,0.6825807304051589
0.0415,1.7611964167190877,1.0,2851.1258215007565,0.3730564795760545,1.315127661180138,0.9668699293210574,0.2870232495022017,0.6833372358390823
0.042,1.76048497908732,1.0,2857.2013522467123,0.3765731537986916,1.3147523619819654,0.9674319675447779,0.28699336912166745,0.6840910415394572
0.0425,1.7597735414555522,1.0,2863.185170512414,0.3800701007208492,1.31437793410207,0.9679762642899665,0.2869634887411332,0.6848422020080183
0.043000000000000003,1.7590621038237844,1.0,2869.079672816807,0.3835474292736232,1.3140043535633847,0.9685035728863267,0.28693360836059895,0.6855907715026814
0.043500000000000004,1.7583506661920165,1.0,2874.8872716642786,0.3870052483881095,1.3136315963888425,0.9690146067557323,0.2869037279800647,0.6863368040388591
0.044,1.7576392285602487,1.0,2880.6103951003743,0.39044366699540406,1.3132596386013764,0.969510041926107,0.28687384759953044,0.6870803533907368
0.0445,1.756927790928481,1.0,2886.2514862805656,0.39386279402660285,1.3128884562239194,0.9699905193628682,0.2868439672189962,0.6878214730925143
0.045,1.7562163532967132,1.0,2891.8130030516977,0.39726273841280174,1.3125180252794042,0.97045664713285,0.28681408683846193,0.68856021643961
0.0455,1.7555049156649454,1.0,2897.297417545945,0.4006436090850967,1.3121483217907641,0.9709090024142754,0.2867842064579277,0.6892966364898264
0.046,1.7547934780331775,1.0,2902.7072157879884,0.4040055149745837,1.311779321780932,0.9713481333651172,0.2867543260773935,0.6900307860644838
0.0465,1.7540820404014097,1.0,2908.0448973142934,0.4073485650123586,1.3114110012728406,0.9717745608611071,0.2867244456968592,0.6907627177495117
0.047,1.753370602769642,1.0,2913.3121645967813,0.4106728585423679,1.3110433434178075,0.9721887793694952,0.286694565316325,0.691492469755969
0.0475,1.7526591651378742,1.0,2918.506399247691,0.41397844307891174,1.310676369436091,0.9725912553368383,0.2866646849357907,0.6922200047002854
0.048,1.7519477275061064,1.0,2923.6376671092194,0.41726551802641887,1.310309989097935,0.9729824442166072,0.2866348045552565,0.6929455059503808
0.0485,1.7512362898743385,1.0,2928.7073244911385,0.4205341808669164,1.3099441889394716,0.9733627720538159,0.2866049241747222,0.6936690042814193
0.049,1.7505248522425707,1.0,2933.716735291505,0.4237845290824312,1.3095789554968331,0.9737326447651229,0.28657504379418797,0.6943905303363833
0.0495,1.749813414610803,1.0,2938.6672708253386,0.4270166601549903,1.309214275306151,0.9740924492733722,0.2865451634136537,0.6951101146265684
0.05,1.7491019769790352,1.0,2943.560309657634,0.4302306715666207,1.3088501349035575,0.9744425545682556,0.28651528303311946,0.6958277875320611
0.0505,1.7483905393472674,1.0,2948.3972374399727,0.43342666079934944,1.3084865208251846,0.9747833126985216,0.2864854026525852,0.6965435793022097
0.051000000000000004,1.7476791017154996,1.0,2953.1794467516756,0.4366047253352034,1.3081234196071638,0.9751150597007338,0.28645552227205096,0.6972575200560831
0.051500000000000004,1.7469676640837317,1.0,2957.90833694449,0.4397649626562097,1.3077608177856277,0.9754381164691581,0.28642564189151676,0.6979696397829135
0.052000000000000005,1.746256226451964,1.0,2962.585313991504,0.4429074702443952,1.307398701896708,0.9757527895710004,0.2863957615109825,0.6986799683425348
0.0525,1.7455447888201963,1.0,2967.2117903402823,0.44603234558178695,1.3070370584765363,0.9760593720108783,0.28636588113044825,0.6993885354658037
0.053,1.7448333511884284,1.0,2971.7891847695832,0.449139686150412,1.306675874061245,0.9763581439480988,0.286336000749914,0.7000953707550109
0.0535,1.7441219135566606,1.0,2976.318922250426,0.4522295894322973,1.306315135186966,0.9766493733700432,0.28630612036937975,0.7008005036842818
0.054,1.7434104759248927,1.0,2980.8024338112577,0.4553021529094698,1.305954828389831,0.9769333167246937,0.2862762399888455,0.7015039635999651
0.0545,1.7426990382931251,1.0,2985.2411564065474,0.45835747406395655,1.305594940205972,0.9772102195151104,0.28624635960831124,0.7022057797210087
0.055,1.7419876006613573,1.0,2989.6365327901935,0.4613956503777845,1.3052354571715212,0.9774803168584487,0.286216479227777,0.7029059811393255
0.0555,1.7412761630295894,1.0,2993.9900113923654,0.46441677933298076,1.3048763658226106,0.977743834011911,0.28618659884724273,0.7036045968201459
0.056,1.7405647253978216,1.0,2998.303046200844,0.46742095841157216,1.3045176526953717,0.9780009868678501,0.28615671846670854,0.7043016556023629
0.0565,1.7398532877660537,1.0,3002.5770966454565,0.47040828509558574,1.3041593043259367,0.9782519824200689,0.28612683808617423,0.7049971861988591
0.057,1.7391418501342861,1.0,3006.8136274881763,0.4733788568670485,1.3038013072504375,0.9784970192032213,0.28609695770564003,0.705691217196828
0.0575,1.7384304125025183,1.0,3011.01410871525,0.4763327712079875,1.3034436480050062,0.9787362877070652,0.2860670773251058,0.70638377705808
0.058,1.7377189748707504,1.0,3015.1796508101797,0.4792701182228884,1.3030863162791597,0.9789699703096852,0.2860371969445715,0.7070748880240089
0.0585,1.7370075372389826,1.0,3019.3088435950285,0.4821909453089469,1.3027293235817137,0.9791982397346215,0.2860073165640373,0.7077645301140245
0.059000000000000004,1.7362960996072148,1.0,3023.405801970426,0.48509541421921604,1.3023726336789556,0.9794212688753968,0.285977436183503,0.7084527755167478
0.059500000000000004,1.7355846619754471,1.0,3027.4711721796893,0.4879836114114228,1.302016240378074,0.9796392191847638,0.28594755580296877,0.709139638226701
0.06,1.7348732243436793,1.0,3031.505602987266,0.4908556233432942,1.3016601374862569,0.9798522458620738,0.2859176754224345,0.7098251321803974
0.0605,1.7341617867119115,1.0,3035.5097456382273,0.49371153647255717,1.3013043188106925,0.9800604981438659,0.28588779504190026,0.7105092712564558
0.061,1.7334503490801436,1.0,3039.484253819032,0.4965514372569387,1.3009487781585691,0.9802641195787936,0.285857914661366,0.7111920692757154
0.0615,1.7327389114483758,1.0,3043.429783618988,0.4993754121541657,1.300593509337075,0.9804632482878471,0.2858280342808318,0.711873540001345
0.062,1.7320274738166082,1.0,3047.3469934920277,0.5021835476219652,1.3002385061533985,0.9806580172107655,0.28579815390029756,0.712553697138953
0.0625,1.7313160361848403,1.0,3051.23654422039,0.5049759301180641,1.2998837624147277,0.9808485543394639,0.2857682735197633,0.7132325543366937
0.063,1.7306045985530725,1.0,3055.099098878407,0.5077526461001894,1.2995292719282505,0.9810349829392613,0.28573839313922905,0.7139101251853704
0.0635,1.7298931609213046,1.0,3058.9353227970587,0.5105137820260681,1.2991750285011556,0.981217421758624,0.2857085127586948,0.7145864232185355
0.064,1.7291817232895368,1.0,3062.74588352987,0.5132594243534271,1.298821025940631,0.9813959852281084,0.28567863237816055,0.7152614619125917
0.0645,1.7284702856577692,1.0,3066.531450819344,0.5159896595399933,1.298467258053865,0.9815707836491281,0.2856487519976263,0.7159352546868865
0.065,1.7277588480260013,1.0,3070.292696564316,0.5187045740434939,1.2981137186480458,0.981741923373142,0.28561887161709204,0.7166078149038067
0.0655,1.7270474103942335,1.0,3074.0302947881896,0.5214042543216557,1.2977604015303614,0.9819095069718119,0.2855889912365578,0.717279155868871
0.066,1.7263359727624656,1.0,3077.74492160789,0.5240887868322056,1.2974073005080002,0.9820736333986473,0.28555911085602353,0.7179492908308165
0.0665,1.7256245351306978,1.0,3081.4372552038662,0.5267582580328707,1.2970544093881506,0.9822343981426208,0.2855292304754893,0.7186182329816869
0.067,1.7249130974989302,1.0,3085.1079757908883,0.5294127543813779,1.2967017219780006,0.9823918933742096,0.2854993500949551,0.7192859954569173
0.0675,1.7242016598671623,1.0,3088.757765589332,0.5320523623354542,1.2963492320847385,0.9825462080842825,0.28546946971442083,0.7199525913354139
0.068,1.7234902222353945,1.0,3092.387308798229,0.5346771683528265,1.2959969335155523,0.9826974282162361,0.2854395893338866,0.7206180336396355
0.0685,1.7227787846036267,1.0,3095.996931699019,0.5372872447807314,1.2956448231489952,0.9828456360490024,0.2854097089533523,0.7212823295446408
0.069,1.7220673469718588,1.0,3099.5864146141566,0.5398826508208004,1.2952929025298159,0.9829909105001072,0.2853798285728181,0.721945477409173
0.0695,1.7213559093400912,1.0,3103.157428159372,0.5424635206406551,1.2949411570867935,0.9831333317192269,0.2853499481922838,0.7226075059193349
0.07,1.7206444717083234,1.0,3106.710283234126,0.5450299311173297,1.2945895838687849,0.9832729742060652,0.28532006781174957,0.723268421798521
0.07050000000000001,1.7199330340765555,1.0,3110.2452917300566,0.5475819591278588,1.2942381799246476,0.983409910010124,0.2852901874312153,0.7239282317430826
