Time [s],Phi [rad],STIM [ ],Fsee [N],Gamma [ ],Lcerel [ ],q [ ],Lmtc [m],fisomrel [ ]
0.0,1.8,1.0,17.967517339364097,1.015568816166454e-05,1.3793397059806707,0.005000027484752083,0.288653,0.5411396284008239
0.0005,1.79999375,1.0,18.27686848078319,0.005619308031576905,1.379302373978361,0.012940946017573056,0.2886527375,0.5412299397142207
0.001,1.799975,1.0,21.61858410349006,0.011196997465267335,1.378938281426686,0.035609387230943514,0.28865195,0.5421102642518807
0.0015,1.79994375,1.0,31.069590930617764,0.016743400472140336,1.3780461734905556,0.0706028146034569,0.2886506375,0.5442636821082549
0.002,1.7999,1.0,53.58297189695947,0.022258692543453328,1.3763680937964247,0.11471915056383669,0.2886488,0.5483005675129009
0.0025,1.79984375,1.0,97.11977092904135,0.02774304818637547,1.3739351271057498,0.16457610365749514,0.28864643749999996,0.5541215584069092
0.003,1.7997750000000001,1.0,160.95931627000343,0.03319664093170629,1.3712143007313733,0.2172817027410405,0.28864354999999997,0.5605865527184872
0.0035,1.79969375,1.0,237.68466193851205,0.038619643333466125,1.3685846932535097,0.2706141301106178,0.2886401375,0.5667899359031128
0.004,1.7996,1.0,321.46822458201586,0.04401222697967861,1.3661560539053499,0.3229170036872183,0.2886362,0.5724800516213728
0.0045000000000000005,1.7994937500000001,1.0,409.2693032876549,0.04937456249755512,1.3639227777235583,0.3730356487424635,0.2886317375,0.5776792469833214
0.005,1.799375,1.0,499.4151160142599,0.054706819544583556,1.3618583080952367,0.42024852888880676,0.28862675,0.5824571583624132
0.0055,1.79924375,1.0,590.7920728416683,0.060009166856002376,1.359938802689583,0.4641746878219622,0.2886212375,0.5868751859642523
0.006,1.7991000000000001,1.0,682.5197870155425,0.06528177218793803,1.3581463842333465,0.5046808723524688,0.2886152,0.5909794880758295
0.006500000000000001,1.79894375,1.0,773.8830276019618,0.0705248023730226,1.3564672234066548,0.5418015927433121,0.2886086375,0.5948058629998407
0.007,1.798775,1.0,864.287513105943,0.07573842330399282,1.354890367505207,0.5756775414304206,0.28860155,0.5983827393240404
0.0075,1.79859375,1.0,953.2449793407452,0.0809227999434216,1.3534067520600894,0.6065106080616106,0.2885939375,0.6017336339232733
0.008,1.7984,1.0,1040.346818756831,0.08607809593850307,1.3520088176593001,0.6345328049277259,0.2885858,0.604878164190375
0.0085,1.79819375,1.0,1125.3169646441165,0.09120447536768686,1.3506892027508177,0.6599850017594235,0.2885771375,0.607835086332895
0.009000000000000001,1.797975,1.0,1207.9019335068244,0.09630210014960063,1.349442011098943,0.6831047173218753,0.28856795,0.6106195181094588
0.0095,1.79774375,1.0,1287.8931206635084,0.10137113084056419,1.34826211169628,0.704117961076674,0.2885582375,0.6132445840460706
0.01,1.7975,1.0,1365.1679629899033,0.10641172799689746,1.3471443735354327,0.7232346677151466,0.288548,0.6157231630187883
0.0105,1.79724375,1.0,1439.6615116363134,0.11142405153495322,1.3460839212001776,0.7406470546077699,0.2885372375,0.6180673453020066
0.011,1.796975,1.0,1511.3243379917424,0.11640826020410779,1.3450765276998427,0.7565294877323337,0.28852595000000003,0.6202875957609048
0.0115,1.79669375,1.0,1580.122307637095,0.12136451118530137,1.3441184675858326,0.7710389429569887,0.2885141375,0.6223931130943184
0.012,1.7964,1.0,1646.0569641911786,0.1262929610668895,1.34320616550279,0.7843159015045271,0.28850180000000003,0.6243926274262483
0.0125,1.79609375,1.0,1709.1743818900115,0.1311937668813407,1.3423360301163068,0.796485610790128,0.2884889375,0.6262947783297421
0.013000000000000001,1.7957750000000001,1.0,1769.5078808049234,0.13606708341439827,1.341505057778676,0.8076597507016441,0.28847555,0.6281068096670381
0.0135,1.79544375,1.0,1827.0933447308187,0.14091306405866613,1.3407105748988877,0.8179377020550432,0.2884616375,0.62983515354614
0.014,1.7951000000000001,1.0,1881.9942722430787,0.14573186220674822,1.3399499078859307,0.8274077486767322,0.2884472,0.6314861611235563
0.0145,1.79474375,1.0,1934.282103196968,0.15052363036318153,1.3392205694621977,0.8361483916781214,0.2884322375,0.633065705528515
0.015,1.794375,1.0,1984.0529119606663,0.1552885214863611,1.3385200448354406,0.8442294014944617,0.28841675,0.6345796532034799
0.0155,1.79399375,1.0,2031.3739738539712,0.16002668553702584,1.3378463355454266,0.8517130149333387,0.2884007375,0.6360326962963234
0.016,1.7936,1.0,2076.31564275791,0.1647382717226957,1.337197579817201,0.8586546959988454,0.2883842,0.637429184200964
0.0165,1.7931937500000001,1.0,2118.962536225426,0.1694234292508906,1.3365719158758085,0.8651038952515242,0.2883671375,0.638773422970943
0.017,1.792775,1.0,2159.399583620988,0.17408230630423271,1.3359676120093036,0.8711047996161795,0.28834955,0.6400693994922387
0.0175,1.7923437500000001,1.0,2197.7264892575217,0.17871505186447875,1.3353829027361295,0.8766969081178527,0.2883314375,0.6413211369652039
0.018000000000000002,1.7919,1.0,2234.0187018600836,0.1833218117518686,1.3348163722449407,0.881915683684473,0.2883128,0.6425318777957185
0.0185,1.79144375,1.0,2268.349828721723,0.18790273085841597,1.3342667081008142,0.8867929568381984,0.2882936375,0.6437046168859857
0.019,1.790975,1.0,2300.800982212397,0.19245795407613459,1.3337325978688273,0.8913573196582931,0.28827395,0.6448423249991189
0.0195,1.79049375,1.0,2331.454555564531,0.19698762554571148,1.33321278407445,0.8956345101054726,0.2882537375,0.6459478333206439
0.02,1.79,1.0,2360.3955706132965,0.20149188960023037,1.3327060434967246,0.8996477314003894,0.288233,0.6470238795304706
0.0205,1.78949375,1.0,2387.70453433357,0.2059708896894049,1.332211250376047,0.9034179497438999,0.2882117375,0.6480729755216308
0.021,1.788975,1.0,2413.4434698826435,0.21042476605379776,1.3317275040890308,0.906964167959301,0.28818995000000003,0.6490971397667795
0.021500000000000002,1.78844375,1.0,2437.6783147248807,0.21485365893397157,1.3312539040122897,0.9103035927965974,0.2881676375,0.650098377157579
0.022,1.7879,1.0,2460.478596315024,0.219257708570489,1.3307895495224373,0.9134518294480819,0.2881448,0.6510786796133385
0.0225,1.78734375,1.0,2481.903340092608,0.22363705446604767,1.3303336714042375,0.9164230787209031,0.28812143749999997,0.6520397497978228
0.023,1.786775,1.0,2502.02083321947,0.2279918354608833,1.3298854388311416,0.9192302464626705,0.28809755,0.6529834095892383
0.0235,1.78619375,1.0,2520.9511451399876,0.23232219190122338,1.3294435561382716,0.9218850040314825,0.28807313749999996,0.6539124468079385
0.024,1.7856,1.0,2538.7157797386626,0.23662825891266367,1.329007685760996,0.9243981764084648,0.2880482,0.6548276234381176
0.0245,1.784995255019076,1.0,2555.4100162450495,0.24091017162079992,1.3285774901346838,0.9267796526948605,0.2880228007108012,0.6557296969923205
0.025,1.784388888980023,1.0,2571.5108190488922,0.2451680651512279,1.3281526316947039,0.9290384798201032,0.28799733333716093,0.6566194206372451
0.025500000000000002,1.78378252294097,1.0,2587.126658985585,0.24940207462954342,1.3277327728764248,0.931182945734879,0.28797186596352076,0.6574975433122761
0.026000000000000002,1.7831761569019173,1.0,2602.2881046352813,0.253612334916905,1.3273175839087807,0.9332206545267961,0.2879463985898805,0.6583647935718058
0.0265,1.7825697908628644,1.0,2617.004019718104,0.2577989795517467,1.3269069417545478,0.9351586234125555,0.2879209312162403,0.6592214650277063
0.027,1.7819634248238114,1.0,2631.2815758821803,0.261962140788337,1.3265007417194192,0.9370033079918488,0.28789546384260006,0.6600678114051948
0.0275,1.7813570587847585,1.0,2645.133648829558,0.2661019496728092,1.3260988288068898,0.938760644443877,0.28786999646895983,0.6609041895751748
0.028,1.7807506927457055,1.0,2658.5734155575383,0.2702185372512964,1.3257010480204545,0.9404361057711751,0.28784452909531966,0.6617309544591121
0.0285,1.7801443267066526,1.0,2671.5906653130996,0.2743119900737296,1.3253074618758585,0.9420347576948441,0.2878190617216794,0.6625480078057617
0.029,1.7795379606675996,1.0,2684.2308297082704,0.2783824956849046,1.3249176233247335,0.9435612494310537,0.2877935943480392,0.6633563075669853
0.029500000000000002,1.7789315946285467,1.0,2696.510790011062,0.28243019045347134,1.32453135154443,0.9450198994554153,0.28776812697439896,0.6641562559462553
0.03,1.7783252285894937,1.0,2708.439833803425,0.2864551964623238,1.3241485374478987,0.9464147123380073,0.28774265960075873,0.6649481048162889
0.0305,1.7777188625504408,1.0,2720.027435312417,0.2904576357943559,1.3237690719480908,0.9477494015750242,0.2877171922271185,0.6657321047508673
0.031,1.7771124965113878,1.0,2731.2832471794736,0.2944376305324617,1.3233928459579574,0.9490274144130673,0.28769172485347827,0.6665085050485104
0.0315,1.7765061304723349,1.0,2742.217092493468,0.29839530275953513,1.323019750390449,0.9502519542658528,0.2876662574798381,0.6672775537553954
0.032,1.775899764433282,1.0,2752.8389570868467,0.3023307745584701,1.3226496761585174,0.9514260009828188,0.2876407901061978,0.6680394976875124
0.0325,1.775293398394229,1.0,2763.1589820971217,0.3062441680121606,1.3222825141751129,0.952552329198609,0.28761532273255763,0.6687945824520669
0.033,1.774687032355176,1.0,2773.1874567905243,0.3101356052035006,1.3219181553531867,0.9536335249657211,0.2875898553589174,0.6695430524681172
0.0335,1.774080666316123,1.0,2782.934811650752,0.3140052082153841,1.32155649060569,0.9546720008493131,0.28756438798527717,0.6702851509864566
0.034,1.7734743002770703,1.0,2792.4116117309945,0.31785309913070503,1.3211974108455737,0.9556700096427159,0.28753892061163694,0.6710211201087364
0.0345,1.7728679342380174,1.0,2801.6285502697333,0.32167940003235734,1.3208408069857887,0.9566296568442988,0.2875134532379967,0.6717512008058288
0.035,1.7722615681989644,1.0,2810.596442570915,0.32548423300323504,1.320486569939286,0.957552912020607,0.28748798586435653,0.6724756329354309
0.035500000000000004,1.7716552021599115,1.0,2819.3262201469647,0.3292677201262321,1.320134590619017,0.9584416191668645,0.28746251849071625,0.6731946552589109
0.036000000000000004,1.7710488361208585,1.0,2827.8289251272417,0.3330299834842425,1.319784759937932,0.9592975061637629,0.28743705111707607,0.6739085054573954
0.0365,1.7704424700818056,1.0,2836.115704928199,0.33677114516016005,1.3194369688089826,0.9601221934187383,0.28741158374343584,0.6746174201470951
0.037,1.7698361040427526,1.0,2844.1978071896565,0.3404913272368789,1.3190911081451195,0.9609172017704618,0.2873861163697956,0.6753216348938764
0.0375,1.7692297380036996,1.0,2852.07981748627,0.3441906381591992,1.31874712894781,0.9616839626830024,0.2873606489961554,0.676021262077577
0.038,1.7686233719646467,1.0,2859.7716573273638,0.34786920390071147,1.3184049353178633,0.9624238209672348,0.28733518162251515,0.6767165088176892
0.0385,1.7680170059255937,1.0,2867.2818203647616,0.35152714348854136,1.3180644447296286,0.9631380415025261,0.2873097142488749,0.6774075542054625
0.039,1.7674106398865408,1.0,2874.6160960212214,0.35516456928305246,1.3177255992179708,0.9638278160182634,0.2872842468752347,0.678094526790757
0.0395,1.7668042738474878,1.0,2881.7803255664003,0.3587815936446084,1.3173883408177542,0.9644942672597057,0.2872587795015945,0.6787775545693657
0.04,1.7661979078084349,1.0,2888.7804000397905,0.3623783289335727,1.3170526115638435,0.9651384537216962,0.2872333121279543,0.6794567649889879
0.0405,1.765591541769382,1.0,2895.622258248523,0.36595488751030897,1.3167183534911029,0.9657613740091432,0.28720784475431405,0.6801322849549898
0.041,1.764985175730329,1.0,2902.3118848393597,0.36951138173518083,1.316385508634397,0.966363970857333,0.2871823773806738,0.68080424083595
0.0415,1.764378809691276,1.0,2908.8553084448804,0.3730479239685518,1.31605401902859,0.9669471348419046,0.2871569100070336,0.6814727584689911
0.042,1.7637724436522233,1.0,2915.258599905008,0.37656462657078554,1.315723826708547,0.9675117078054198,0.2871314426333934,0.6821379631648962
0.0425,1.7631660776131703,1.0,2921.5278705618434,0.3800616019022456,1.3153948737091314,0.9680584860248846,0.2871059752597531,0.6827999797130135
0.043000000000000003,1.7625597115741174,1.0,2927.669270630627,0.38353896232329554,1.3150671020652087,0.9685882231422547,0.28708050788611295,0.6834589323859419
0.043500000000000004,1.7619533455350644,1.0,2933.6870613115416,0.386996812795832,1.3147404707009365,0.9691016330806961,0.2870550405124727,0.6841149110425796
0.044,1.7613469794960115,1.0,2939.5838151409002,0.39043525418714337,1.314414953577171,0.969599392945882,0.2870295731388325,0.6847679750225301
0.0445,1.7607406134569585,1.0,2945.371046317181,0.3938544231393062,1.3140904465913024,0.9700821440110806,0.28700410576519225,0.6854183397961615
0.045,1.7601342474179056,1.0,2951.0519206878485,0.3972544233984409,1.3137669190924786,0.9705504953747476,0.286978638391552,0.6860660729694325
0.0455,1.7595278813788526,1.0,2956.629624122977,0.4006353587106681,1.3134443404298461,0.9710050252325284,0.2869531710179118,0.6867112418765904
0.046,1.7589215153397997,1.0,2962.1073618596192,0.4039973328221083,1.3131226799525528,0.9714462827437405,0.28692770364427156,0.687353913582051
0.0465,1.7583151493007467,1.0,2967.488357867859,0.40734044947888204,1.3128019070097456,0.9718747897678308,0.2869022362706314,0.6879941548822273
0.047,1.7577087832616938,1.0,2972.7758542366337,0.4106648124271099,1.3124819909505723,0.9722910424810186,0.28687676889699115,0.6886320323072911
0.0475,1.7571024172226408,1.0,2977.9731105817214,0.41397052541291235,1.3121629011241795,0.9726955128824548,0.2868513015233509,0.6892676121228818
0.048,1.7564960511835879,1.0,2983.083403473429,0.41725769218241004,1.311844606879715,0.9730886501984175,0.2868258341497107,0.6899009603317476
0.0485,1.755889685144535,1.0,2988.110025885447,0.4205264164817234,1.3115270775663257,0.9734708821923356,0.28680036677607046,0.6905321426753332
0.049,1.755283319105482,1.0,2993.056286664885,0.4237768020569731,1.3112102825331593,0.973842616387771,0.28677489940243023,0.6911612246353035
0.0495,1.754676953066429,1.0,2997.9255100226483,0.42700895265427957,1.3108941911293628,0.9742042412108933,0.28674943202879,0.6917882714350103
0.05,1.7540705870273763,1.0,3002.7210350450973,0.4302229720197634,1.3105787727040834,0.9745561270584292,0.2867239646551498,0.6924133480408969
0.0505,1.7534642209883233,1.0,3007.44621522574,0.43341896389954515,1.3102639966064686,0.9748986272965863,0.2866984972815096,0.6930365191638432
0.051000000000000004,1.7528578549492704,1.0,3012.104418018962,0.43659703203974537,1.3099498321856657,0.975232079195987,0.28667302990786936,0.6936578492604517
0.051500000000000004,1.7522514889102174,1.0,3016.693827827345,0.4397572433007379,1.3096362937211639,0.975556803678163,0.28664756253422913,0.6942773138093786
0.052000000000000005,1.7516451228711645,1.0,3021.2222767815815,0.4428997421581524,1.3093233121181571,0.9758731104228198,0.2866220951605889,0.6948950528707052
0.0525,1.7510387568321115,1.0,3025.692138226478,0.4460246294003368,1.3090108656353827,0.9761812936525214,0.28659662778694867,0.6955111126252278
0.053,1.7504323907930586,1.0,3030.1049601000764,0.4491319994478341,1.3086989397334408,0.9764816344731253,0.28657116041330843,0.6961255248962038
0.0535,1.7498260247540056,1.0,3034.4622970874884,0.45222194672118693,1.308387519872932,0.9767744017864725,0.28654569303966826,0.696738321385912
0.054,1.7492196587149527,1.0,3038.765710455525,0.4552945656409382,1.3080765915144563,0.9770598529239208,0.28652022566602803,0.6973495336761315
0.0545,1.7486132926758997,1.0,3043.0167678920916,0.4583499506276306,1.3077661401186145,0.977338234241811,0.2864947582923878,0.6979591932286013
0.055,1.7480069266368468,1.0,3047.2170433498773,0.46138819610180715,1.3074561511460066,0.9776097816814554,0.28646929091874757,0.6985673313854719
0.0555,1.7474005605977938,1.0,3051.368116895017,0.4644093964840105,1.307146610057233,0.9778747212960388,0.28644382354510733,0.6991739793697385
0.056,1.7467941945587409,1.0,3055.471574560471,0.4674136461947835,1.3068375023128942,0.978133269746651,0.2864183561714671,0.6997791682856653
0.0565,1.746187828519688,1.0,3059.529008203709,0.47040103965466895,1.3065288133735902,0.9783856347694936,0.2863928887978269,0.7003829291191924
0.057,1.745581462480635,1.0,3063.5420153697123,0.47337167128420976,1.3062205286999216,0.9786320156161599,0.2863674214241867,0.7009852927383308
0.0575,1.744975096441582,1.0,3067.512199157784,0.4763256355039487,1.3059126337524887,0.978872603468749,0.2863419540505464,0.701586289893545
0.058,1.7443687304025293,1.0,3071.4411680945523,0.4792630267344285,1.3056051139918918,0.9791075818314402,0.28631648667690623,0.7021859512181212
0.0585,1.7437623643634763,1.0,3075.3305360093905,0.4821839393961921,1.3052979548787313,0.9793371269000415,0.286291019303266,0.7027843072285208
0.059000000000000004,1.7431559983244234,1.0,3079.181921916895,0.48508846790978216,1.3049911418736073,0.9795614079109184,0.28626555192962577,0.7033813883247231
0.059500000000000004,1.7425496322853704,1.0,3082.996949902416,0.48797670669574167,1.3046846604371205,0.9797805874706058,0.28624008455598554,0.7039772247905504
0.06,1.7419432662463175,1.0,3086.7764368796948,0.4908487364779198,1.3043785029715107,0.9799948211415153,0.2862146171823453,0.7045718333189479
0.0605,1.7413369002072645,1.0,3090.51935514133,0.49370461336261423,1.3040726776608658,0.9802042574090376,0.28618914980870513,0.7051651999367068
0.061,1.7407305341682116,1.0,3094.2306954977616,0.4965444974304696,1.3037671412948253,0.9804090445243505,0.28616368243506485,0.7057574102983726
0.0615,1.7401241681291586,1.0,3097.911133405164,0.499368473036352,1.3034618875906674,0.9806093211256072,0.28613821506142467,0.7063484782522613
0.062,1.7395178020901056,1.0,3101.5613466089467,0.5021766245351278,1.30315691026567,0.980805220652848,0.28611274768778444,0.7069384175962135
0.0625,1.7389114360510527,1.0,3105.182015105414,0.5049690362816631,1.3028522030371106,0.980996871581986,0.2860872803141442,0.7075272420777066
0.063,1.7383050700119997,1.0,3108.7738211033175,0.5077457926308242,1.3025477596222674,0.9811843976465692,0.286061812940504,0.7081149653939627
0.0635,1.7376987039729468,1.0,3112.337448986916,0.5105069779374772,1.3022435737384184,0.9813679180480465,0.28603634556686375,0.7087016011920576
0.064,1.7370923379338938,1.0,3115.873585279524,0.5132526765564883,1.3019396391028413,0.981547547655214,0.28601087819322357,0.7092871630690241
0.0645,1.7364859718948409,1.0,3119.382918607935,0.5159829728427239,1.301635949432814,0.9817233971934711,0.2859854108195833,0.7098716645719543
0.065,1.735879605855788,1.0,3122.8661396684233,0.51869795115105,1.3013324984456145,0.981895573424481,0.2859599434459431,0.7104551191980987
0.0655,1.7352732398167352,1.0,3126.323941192286,0.5213976958363329,1.3010292798585208,0.9820641793167837,0.2859344760723029,0.7110375403949629
0.066,1.7346668737776822,1.0,3129.757017913593,0.5240822912534387,1.3007262873888106,0.9822293142078837,0.28590900869866265,0.7116189415604035
0.0665,1.7340605077386293,1.0,3133.1660665371137,0.5267518217572338,1.3004235147537617,0.9823910739582926,0.2858835413250224,0.7121993360427179
0.067,1.7334541416995763,1.0,3136.5517857071154,0.5294063717025843,1.3001209556706523,0.982549551097981,0.2858580739513822,0.7127787371407346
0.0675,1.7328477756605234,1.0,3139.9148759774243,0.5320460254443563,1.2998186038567603,0.9827048349656663,0.285832606577742,0.7133571581039
0.068,1.7322414096214704,1.0,3143.2560397816583,0.5346708673374162,1.2995164530293635,0.9828570118413317,0.2858071392041017,0.7139346121323632
0.0685,1.7316350435824175,1.0,3146.5759814056732,0.53728098173663,1.2992144969057395,0.9830061650723525,0.28578167183046155,0.7145111123770573
0.069,1.7310286775433645,1.0,3149.875406958877,0.539876452996864,1.2989127292031666,0.9831523751935796,0.2857562044568213,0.7150866719397782
0.0695,1.7304223115043116,1.0,3153.15502434839,0.5424573654729846,1.2986111436389225,0.9832957200417073,0.2857307370831811,0.7156613038732615
0.07,1.7298159454652586,1.0,3156.415543252883,0.5450238035198577,1.2983097339302854,0.983436274864239,0.28570526970954085,0.7162350211812575
0.07050000000000001,1.7292095794262057,1.0,3159.657675097786,0.5475758514923497,1.2980084937945326,0.9835741124233358,0.2856798023359006,0.7168078368186033
