Time [s],Phi [rad],STIM [ ],Fsee [N],Gamma [ ],Lcerel [ ],q [ ],Lmtc [m],fisomrel [ ]
0.0,1.8,1.0,17.9707660202946,5.186752034899353e-05,1.379339342039849,0.005000707741946928,0.288653,0.5411405088672656
0.0005,1.79999375,1.0,18.293945947084147,0.005660785893385472,1.3793004774536373,0.013057152658673656,0.2886527375,0.5412345274344479
0.001,1.799975,1.0,21.666645086949416,0.011238242669066284,1.3789333754527617,0.03582706847610816,0.28865195,0.542122120433598
0.0015,1.79994375,1.0,31.183801700591378,0.01678441432297464,1.378036452106386,0.0709005792734423,0.2886506375,0.5442871201492864
0.002,1.7999,1.0,53.82923382551583,0.022299476338978594,1.3763521359926663,0.11507167115752573,0.2886488,0.5483388703244823
0.0025,1.79984375,1.0,97.53388654411677,0.027783603217080535,1.3739151931750462,0.16495954516453665,0.28864643749999996,0.5541690953854206
0.003,1.7997750000000001,1.0,161.49827317685543,0.0332369684807498,1.3711941439925814,0.21767724331915167,0.28864354999999997,0.5606342712551491
0.0035,1.79969375,1.0,238.29367380699813,0.03865974467682025,1.3685659461305453,0.27100751784140387,0.2886401375,0.5668340030385715
0.004,1.7996,1.0,322.11615731147657,0.04405210338618963,1.3661389013195249,0.3232978966144755,0.2886362,0.5725201050399593
0.0045000000000000005,1.7994937500000001,1.0,409.9402343784018,0.04941421522902838,1.363907034892687,0.37339720673847276,0.2886317375,0.5777157842972345
0.005,1.799375,1.0,500.09968310527523,0.05474624985606138,1.361843766106479,0.4205867871055983,0.28862675,0.5824907172508917
0.0055,1.79924375,1.0,591.4826954599895,0.060048375993857046,1.359925313558298,0.4644878581877514,0.2886212375,0.5869061500636505
0.006,1.7991000000000001,1.0,683.2112731614995,0.0653207613932915,1.3581338180532418,0.504968669994062,0.2886152,0.5910081899445392
0.006500000000000001,1.79894375,1.0,774.5727628217143,0.0705635728803205,1.3564554518096918,0.5420647089899701,0.2886086375,0.5948326239641214
0.007,1.798775,1.0,864.9717167333054,0.07577697634391084,1.3548793176215477,0.5759172929890143,0.28860155,0.5984077484836247
0.0075,1.79859375,1.0,953.914235325756,0.08096113665340714,1.353396460027068,0.6067286940058705,0.2885939375,0.6017568304857682
0.008,1.7984,1.0,1041.022480202371,0.08611621813100695,1.3519988714648048,0.6347307844198933,0.2885858,0.6049004926259689
0.0085,1.79819375,1.0,1125.9653371718673,0.09124238350565159,1.3506800255125622,0.6601649396838281,0.2885771375,0.6078556113090203
0.009000000000000001,1.797975,1.0,1208.5055393967903,0.09633979500142825,1.3494337645780585,0.6832684423240681,0.28856795,0.6106378959592027
0.0095,1.79774375,1.0,1288.4846158094444,0.1014086144609788,1.3482542855349744,0.7042668244166703,0.2885582375,0.6132619662197849
0.01,1.7975,1.0,1365.753531558114,0.10644900168162767,1.3471368482058124,0.723370120920459,0.288548,0.6157398233983891
0.0105,1.79724375,1.0,1440.2234145292587,0.11146111610382352,1.3460768892452455,0.74077057348082,0.2885372375,0.6180828658492796
0.011,1.796975,1.0,1511.858758464431,0.1164451165423114,1.3450700001042712,0.7566423145847869,0.28852595000000003,0.6203019611863465
0.0115,1.79669375,1.0,1580.6468776357276,0.12140116113303968,1.3441122013110576,0.7711420771933841,0.2885141375,0.6224068651430428
0.012,1.7964,1.0,1646.5718311924218,0.12632940593829728,1.3432001395454998,0.7844103328802859,0.28850180000000003,0.6244058170151451
0.0125,1.79609375,1.0,1709.6581851569085,0.1312300069508103,1.3423304732204522,0.7965723237553485,0.2884889375,0.626306910410272
0.013000000000000001,1.7957750000000001,1.0,1769.9538779280624,0.13610311922999552,1.3415000231688174,0.807739549308491,0.28847555,0.6281177747949527
0.0135,1.79544375,1.0,1827.5284379408656,0.14094889821988188,1.340705741379518,0.8180111592426458,0.2884616375,0.6298456562214062
0.014,1.7951000000000001,1.0,1882.421628954174,0.14576749602870462,1.3399452300594787,0.8274754741890006,0.2884472,0.6314963028055105
0.0145,1.79474375,1.0,1934.696851304643,0.15055906476469888,1.3392160914156253,0.836210958815841,0.2884322375,0.6330753932548029
0.015,1.794375,1.0,1984.436341411579,0.15532375630622167,1.3385159571709746,0.8442873685616996,0.28841675,0.6345884781269735
0.0155,1.79399375,1.0,2031.7255532808565,0.16006172159242527,1.3378426313226328,0.8517668149317349,0.2884007375,0.6360406774904324
0.016,1.7936,1.0,2076.660022123089,0.16477311192323837,1.3371939909300363,0.8587046348690188,0.2883842,0.6374369020429675
0.0165,1.7931937500000001,1.0,2119.304194052522,0.1694580749760119,1.3365683913588202,0.8651503102880632,0.2883671375,0.6387809883231379
0.017,1.792775,1.0,2159.7346525287617,0.1741167584280967,1.3359641879746191,0.8711480172271401,0.28834955,0.6400767359647793
0.0175,1.7923437500000001,1.0,2198.0391023353804,0.17874930995684363,1.3353797361430675,0.8767372530458764,0.2883314375,0.641327910027444
0.018000000000000002,1.7919,1.0,2234.302063974561,0.18335587587666985,1.3348135253464009,0.881953421651072,0.2883128,0.6425379567765146
0.0185,1.79144375,1.0,2268.622083961487,0.18793660399451315,1.3342639935649891,0.8868282637737367,0.2882936375,0.6437104037180641
0.019,1.790975,1.0,2301.0730584099806,0.1924916385431657,1.333729904315601,0.8913903723158144,0.28827395,0.644848057925701
0.0195,1.79049375,1.0,2331.724504486202,0.19702112250886966,1.3332101292064855,0.8956654982136087,0.2882537375,0.6459534751090473
0.02,1.79,1.0,2360.6517183718156,0.20152519887786724,1.3327035398458922,0.8996768473651955,0.288233,0.6470291918814185
0.0205,1.78949375,1.0,2387.9352900339227,0.20600401063640061,1.332209007842071,0.9034453664219871,0.2882117375,0.6480777267493203
0.021,1.788975,1.0,2413.6465902076407,0.21045769879064255,1.331725540669721,0.906990022030596,0.28818995000000003,0.6491012935822107
0.021500000000000002,1.78844375,1.0,2437.8731848353405,0.2148864071493717,1.3312520297268422,0.9103279662413838,0.2881676375,0.6501023367405844
0.022,1.7879,1.0,2460.6771591317984,0.21929027491158515,1.3307876485897192,0.9134748112495652,0.2881448,0.6510826898612387
0.0225,1.78734375,1.0,2482.1161770798767,0.2236694400921027,1.3303316426345908,0.9164447516689175,0.28812143749999997,0.65204402383397
0.023,1.786775,1.0,2502.250628907066,0.22802404070574409,1.3298832572376957,0.9192507003226195,0.28809755,0.652987999343904
0.0235,1.78619375,1.0,2521.143402822202,0.2323542147673291,1.3294417377752723,0.9219044217280371,0.28807313749999996,0.6539162672564054
0.024,1.7856,1.0,2538.855507584336,0.23666009952317457,1.32900636884727,0.9244166568419807,0.2880482,0.6548303866643308
0.0245,1.78499375,1.0,2555.443778132112,0.2409418312422358,1.3285764932857642,0.9267972298490541,0.2880227375,0.6557317859057084
0.025,1.784375,1.0,2570.980153459789,0.2451995484494434,1.3281513290249072,0.9290551094568766,0.28799675,0.6566221468724079
0.025500000000000002,1.78374375,1.0,2585.5075302671885,0.24943338386479388,1.3277303816833357,0.931198559473089,0.2879702375,0.6575025412043849
0.026000000000000002,1.7831000000000001,1.0,2599.070070044112,0.2536434702082839,1.3273131568796874,0.9332351615149067,0.2879432,0.6583740348643277
0.0265,1.78244375,1.0,2611.713093680115,0.25782994019991023,1.3268991602325992,0.9351718805324555,0.2879156375,0.6592376882628235
0.027,1.781775,1.0,2623.482981492772,0.2619929265596693,1.3264878973607088,0.9370151232402085,0.28788755,0.6600945563679314
0.0275,1.7810937500000001,1.0,2634.427078675267,0.2661325620075579,1.326078873882653,0.9387707903001535,0.2878589375,0.6609456887991738
0.028,1.7804,1.0,2644.5880526169854,0.2702489753531618,1.325671646700667,0.9404443289499294,0.2878298,0.6617920233905481
0.0285,1.77969375,1.0,2654.0138586727053,0.2743423021578154,1.325265730908758,0.9420407650049154,0.2878001375,0.6626345800267582
0.029,1.778975,1.0,2662.7376795657055,0.27841266996925457,1.3248607840977766,0.943564760866902,0.28776995,0.6634740783015873
0.029500000000000002,1.7782437500000001,1.0,2670.792771927737,0.28246020602247485,1.3244564681900035,0.9450206312963201,0.2877392375,0.6643112252859351
0.03,1.7775,1.0,2678.2128861409933,0.2864850375524719,1.3240524451077198,0.9464123733439301,0.287708,0.6651467245526411
0.0305,1.77674375,1.0,2685.0322205615657,0.2904872917942414,1.3236483767732068,0.9477436937785709,0.2876762375,0.6659812761864425
0.031,1.775975,1.0,2691.2853782774646,0.2944670959827788,1.3232439251087453,0.949018033822833,0.28764395,0.6668155767866448
0.0315,1.7751937500000001,1.0,2697.001131768704,0.2984245732349959,1.3228388086816767,0.950238597264811,0.2876111375,0.6676502028348079
0.032,1.7744,1.0,2702.2069843712397,0.3023598480938652,1.3224327604114434,0.9514083666260238,0.2875778,0.6684856983847473
0.0325,1.77359375,1.0,2706.946718461224,0.30627305737964045,1.3220253670615782,0.9525301052301383,0.2875439375,0.669322904875178
0.033,1.772775,1.0,2711.2403382152997,0.31016432137356975,1.3216164349001724,0.9536064096581881,0.28750955,0.6701622091903799
0.0335,1.7719437500000002,1.0,2715.108030884841,0.31403376035690117,1.3212057701953175,0.9546397022665437,0.2874746375,0.6710039961518907
0.034,1.7711000000000001,1.0,2718.5701495737085,0.3178814946108827,1.3207931792151049,0.9556322449515544,0.2874392,0.671848648498296
0.0345,1.7702437500000001,1.0,2721.6471968485375,0.3217076444167625,1.3203784682276256,0.9565861516719306,0.2874032375,0.6726965468626285
0.035,1.7693750000000001,1.0,2724.359809180643,0.32551233005578845,1.3199614435009712,0.9575033998540392,0.28736675,0.6735480697473687
0.035500000000000004,1.76849375,1.0,2726.7287422207232,0.3292956718092087,1.319541911303233,0.9583858407914395,0.2873297375,0.6744035934970561
0.036000000000000004,1.7676,1.0,2728.7748569051805,0.33305778995827134,1.3191196779025025,0.9592352091378178,0.2872922,0.6752634922685047
0.0365,1.76669375,1.0,2730.5191063949474,0.33679880478422425,1.3186945495668707,0.960053131581719,0.2872541375,0.6761281379986268
0.037,1.765775,1.0,2731.982523846057,0.34051883656831566,1.3182663325644293,0.9608411347820128,0.28721555,0.6769979003698601
0.0375,1.76484375,1.0,2733.17189388254,0.34421799661884583,1.3178349632129573,0.9616006634433352,0.2871764375,0.6778728831614096
0.038,1.7639,1.0,2734.1148157018133,0.34789641172139074,1.317400189230283,0.9623330605600379,0.28713679999999997,0.6787535710350148
0.0385,1.76294375,1.0,2734.8288518789855,0.35155419937503185,1.3169618499755842,0.9630395961925896,0.28709663750000003,0.6796402603955845
0.039,1.761975,1.0,2735.325039098407,0.35519147244508076,1.3165198444218051,0.9637214705097894,0.28705595,0.6805331252780493
0.0395,1.7609937500000001,1.0,2735.6144450371826,0.35880834379684906,1.3160740715418895,0.9643798140597842,0.2870147375,0.6814323383256777
0.04,1.76,1.0,2735.708164045095,0.36240492629564824,1.3156244303087807,0.96501569254966,0.286973,0.6823380707661276
0.0405,1.7589937500000001,1.0,2735.6173130520424,0.3659813328067899,1.315170819695423,0.9656301112480544,0.2869307375,0.6832504923868468
0.041,1.757975,1.0,2735.353027701171,0.3695376761955856,1.31471313867476,0.9662240190441789,0.28688795,0.6841697715098257
0.0415,1.75694375,1.0,2734.9264587081766,0.37307406932734694,1.314251286219735,0.9667983121933871,0.2868446375,0.6850960749656956
0.042,1.7559,1.0,2734.348768447316,0.37659062506738544,1.3137851613032923,0.9673538377764861,0.28680079999999997,0.6860295680671775
0.0425,1.75484375,1.0,2733.631127763689,0.3800874562810127,1.3133146628983752,0.967891396897399,0.2867564375,0.6869704145818799
0.043000000000000003,1.753775,1.0,2732.7789133501356,0.3835646691043724,1.3128397426629905,0.9684117508577627,0.28671155,0.6879186715897764
0.043500000000000004,1.75269375,1.0,2731.804962170513,0.38702237962215535,1.312360284535389,0.9689156166411974,0.28666613750000003,0.6888745301178917
0.044,1.7516,1.0,2730.720894115245,0.39046070079215084,1.311876183510874,0.9694036739192559,0.2866202,0.6898381573937871
0.0445,1.75049375,1.0,2729.5327742214213,0.393879738616495,1.311387385057756,0.9698765698949681,0.2865737375,0.6908096187082041
0.045,1.7493750000000001,1.0,2728.2466685139316,0.39727959909732385,1.3108938346443437,0.9703349184575591,0.28652675,0.691788978252983
0.0455,1.74824375,1.0,2726.8686428924384,0.40066038823677347,1.3103954777389477,0.9707793022179244,0.2864792375,0.6927762991046251
0.046,1.7471,1.0,2725.404762084688,0.40402221203697986,1.3098922598098774,0.9712102744007074,0.2864312,0.6937716432076767
0.0465,1.7459437500000001,1.0,2723.861088665278,0.4073651765000792,1.3093841263254429,0.9716283606043804,0.28638263750000004,0.6947750713579159
0.047,1.744775,1.0,2722.243682140602,0.4106893876282074,1.3088710227539535,0.9720340604396964,0.28633355,0.6957866431853532
0.0475,1.74359375,1.0,2720.5585980998426,0.4139949514235006,1.3083528945637193,0.972427849055999,0.28628393750000003,0.6968064171370403
0.048,1.7424,1.0,2718.81188743145,0.4172819738880949,1.30782968722305,0.9728101785640445,0.2862338,0.6978344504596915
0.0485,1.74119375,1.0,2717.007252385121,0.4205505531241291,1.3073013675481548,0.9731814798736049,0.2861831375,0.698870757343858
0.049,1.739975,1.0,2715.1500475143584,0.4238007960561134,1.3067678872706432,0.9735421634577213,0.28613195,0.6999153805468941
0.0495,1.73874375,1.0,2713.2475783479454,0.4270328167574992,1.3062291802846473,0.9738926200792086,0.2860802375,0.7009683964993398
0.05,1.7375,1.0,2711.3028627780686,0.43024671407763304,1.305685219506956,0.9742332230774737,0.286028,0.7020298041294138
0.0505,1.73624375,1.0,2709.3189155049445,0.43344258686586146,1.3051359778543579,0.9745643285490602,0.2859752375,0.7030996014632169
0.051000000000000004,1.734975,1.0,2707.298747810235,0.43662053397153117,1.3045814282436419,0.9748862762947759,0.28592195,0.7041777856156354
0.051500000000000004,1.73369375,1.0,2705.245367346176,0.4397806542439887,1.3040215435915974,0.9751993907066808,0.2858681375,0.7052643527811941
0.052000000000000005,1.7324,1.0,2703.161777941485,0.4429230465325807,1.3034562968150125,0.9755039815992521,0.2858138,0.7063592982248694
0.0525,1.73109375,1.0,2701.0509794230466,0.4460478096866537,1.3028856608306767,0.9758003449886918,0.28575893750000003,0.7074626162728452
0.053,1.729775,1.0,2698.9159674541834,0.4491550425555544,1.3023096085553783,0.9760887638240394,0.28570355000000003,0.7085743003032334
0.0535,1.72844375,1.0,2696.759733389158,0.4522448439886294,1.3017281129059066,0.9763695086734561,0.2856476375,0.7096943427367362
0.054,1.7271,1.0,2694.5852641438123,0.45531731283522525,1.3011411467990501,0.9766428383687886,0.2855912,0.7108227350272734
0.0545,1.7257437500000001,1.0,2692.395542082461,0.45837254794468857,1.300548683151598,0.9769090006112826,0.2855342375,0.7119594676525522
0.055,1.724375,1.0,2690.193528315848,0.4614106428710598,1.2999506950323743,0.9771682320401824,0.28547675,0.7131045298137615
0.0555,1.72299375,1.0,2687.9820329487666,0.464431672207715,1.2993471568502866,0.9774207575888518,0.2854187375,0.7142579071608736
0.056,1.7216,1.0,2685.7628230117557,0.4674357733000036,1.2987380525308256,0.9776667992168039,0.2853602,0.7154195662311533
0.0565,1.72019375,1.0,2683.537065604106,0.4704230366425669,1.2981233714729994,0.977906565594015,0.28530113749999997,0.7165894623136864
0.057,1.718775,1.0,2681.305925942019,0.4733935527300464,1.2975031030758153,0.9781402568081683,0.28524155,0.7177675499370562
0.0575,1.71734375,1.0,2679.070567343351,0.47634741205708336,1.2968772367382813,0.9783680647848093,0.2851814375,0.7189537828655692
0.058,1.7159,1.0,2676.8321512155603,0.4792847051183192,1.2962457618594048,0.9785901736836633,0.2851208,0.7201481140954746
0.0585,1.71444375,1.0,2674.591837045856,0.4822055224083953,1.295608667838194,0.9788067602726467,0.2850596375,0.7213504958511745
0.059000000000000004,1.7129750000000001,1.0,2672.350782393768,0.485109954421953,1.294965944073656,0.9790179942809931,0.28499795,0.7225608795814311
0.059500000000000004,1.71149375,1.0,2670.1101428862153,0.48799809165363356,1.294317579964799,0.9792240387328165,0.2849357375,0.7237792159555617
0.06,1.71,1.0,2667.871072215192,0.49087002459807844,1.2936635649106307,0.9794250502623375,0.284873,0.7250054548596294
0.0605,1.7084937500000001,1.0,2665.6347221380115,0.49372584374992906,1.2930038883101584,0.9796211794119166,0.2848097375,0.7262395453926282
0.061,1.7069750000000001,1.0,2663.4022424795853,0.49656563960382666,1.2923385395623903,0.9798125709139552,0.28474595,0.7274814358626556
0.0615,1.7054437500000001,1.0,2661.1747811377827,0.4993895026544127,1.2916675080663338,0.979999363957656,0.2846816375,0.7287310737830839
0.062,1.7039,1.0,2658.953484091146,0.5021975233963285,1.2909907832209968,0.9801816924415615,0.2846168,0.7299884058687208
0.0625,1.70234375,1.0,2656.7394954084534,0.5049897923242154,1.2903083544253868,0.9803596852127345,0.2845514375,0.7312533780319643
0.063,1.7007750000000001,1.0,2654.5339572618104,0.5077663999327148,1.2896202110785118,0.9805334662933765,0.28448555,0.7325259353789486
0.0635,1.69919375,1.0,2652.3380099415817,0.510527436716468,1.288926342579379,0.9807031550956361,0.28441913750000003,0.7338060222056864
0.064,1.6976,1.0,2650.150125594981,0.513272938274981,1.2882267629226047,0.9808688638747961,0.2843522,0.7350935367830249
0.0645,1.69599375,1.0,2647.9724101798515,0.516003049479203,1.2875214525916314,0.9810307070143256,0.2842847375,0.7363884384553516
0.065,1.694375,1.0,2645.805641256245,0.518717869741001,1.286810404302304,0.9811887920543801,0.28421675,0.7376906632141227
0.0655,1.69274375,1.0,2643.6498588934783,0.5214174799009329,1.2860936175705238,0.9813432216800101,0.2841482375,0.7390001338820501
0.066,1.6911,1.0,2641.5051031332086,0.5241019607995564,1.2853710919121915,0.9814940949085452,0.2840792,0.7403167726429961
0.0665,1.6894437500000001,1.0,2639.371413990503,0.5267713932774295,1.2846428268432077,0.9816415072451722,0.2840096375,0.7416405010417975
0.067,1.687775,1.0,2637.2488314540706,0.5294258581751098,1.283908821879474,0.98178555083084,0.28393955,0.7429712399840851
0.0675,1.68609375,1.0,2635.137395488473,0.5320654363331551,1.2831690765368908,0.9819263145829208,0.2838689375,0.7443089097361112
0.068,1.6844000000000001,1.0,2633.0371460342058,0.5346902085921232,1.2824235903313594,0.9820638843290298,0.2837978,0.7456534299245678
0.0685,1.68269375,1.0,2630.948123009114,0.5373002557925721,1.2816723627787805,0.9821983429343797,0.2837261375,0.7470047195364129
0.069,1.680975,1.0,2628.870366309352,0.5398956587750593,1.280915393395055,0.982329770423027,0.28365395,0.748362696918691
0.0695,1.67924375,1.0,2626.803915810424,0.5424764983801428,1.280152681696084,0.9824582440933409,0.28358123749999997,0.7497272797783567
0.07,1.6775,1.0,2624.748811368283,0.5450428554483802,1.2793842271977682,0.9825838386280086,0.283508,0.7510983851820977
0.07050000000000001,1.67574375,1.0,2622.7050928202216,0.5475948108203295,1.278610029416009,0.9827066261988677,0.2834342375,0.7524759295561563
0.07100000000000001,1.673975,1.0,2620.672799986013,0.5501324453365483,1.2778300878667068,0.9828266765668471,0.28335995,0.7538598286861542
0.07150000000000001,1.67219375,1.0,2618.6519726690353,0.5526558398375945,1.2770444020657628,0.9829440571772694,0.2832851375,0.7552499977169133
0.07200000000000001,1.6704,1.0,2616.6426506572657,0.5551650751640258,1.2762529715290776,0.9830588332507646,0.2832098,0.756646351152279
0.0725,1.66859375,1.0,2614.6448737242204,0.5576602321564,1.2754557957725527,0.9831710678700203,0.2831339375,0.7580488028549417
0.073,1.6667750000000001,1.0,2612.6586816304093,0.5601413916552751,1.2746528743120886,0.9832808220625889,0.28305755,0.759457266046263
0.0735,1.66494375,1.0,2610.6841141239306,0.5626086345012088,1.2738442066635862,0.9833881548799523,0.2829806375,0.7608716533060941
0.074,1.6631,1.0,2608.721210941813,0.5650620415347587,1.2730297923429468,0.9834931234730377,0.2829032,0.7622918765726
0.0745,1.6612437500000001,1.0,2606.7700118110974,0.5675016935964827,1.272209630866071,0.9835957831643641,0.2828252375,0.7637178471420834
0.075,1.659375,1.0,2604.832234608388,0.5699276130169656,1.271383706134272,0.9836961835531735,0.28274675,0.7651495026939639
0.0755,1.65749375,1.0,2602.906506665475,0.5723399402170022,1.2705520307925928,0.9837943804976033,0.2826677375,0.7665867303380227
