Time [s],Phi [rad],STIM [ ],Fsee [N],Gamma [ ],Lcerel [ ],q [ ],Lmtc [m],fisomrel [ ]
0.0,1.8,1.0,18.01836320515556,0.00022839564050938126,1.379334013624526,0.005013563375567056,0.288653,0.5411533995775125
0.0005,1.79999375,1.0,18.398725725504605,0.005836323830422971,1.3792888605435805,0.013557935081774823,0.2886527375,0.5412626284041849
0.001,1.799975,1.0,21.90249099285347,0.011412795977086181,1.378909379232813,0.03675570115884796,0.28865195,0.5421801094687635
0.0015,1.79994375,1.0,31.703857028125995,0.0169579885250081,1.3779924095088358,0.07216602729563083,0.2886506375,0.5443932983217621
0.002,1.7999,1.0,54.914261482542926,0.022472076926850194,1.376282256950255,0.11656669547316081,0.2886488,0.5485065787768566
0.0025,1.79984375,1.0,99.3280017103929,0.027955235652233557,1.3738293162710173,0.16658368846996255,0.28864643749999996,0.5543738593633409
0.003,1.7997750000000001,1.0,163.81356630491754,0.03340763819361511,1.371107933292101,0.21935130659826624,0.28864354999999997,0.5608383349734232
0.0035,1.79969375,1.0,240.89912155139575,0.038829457067451244,1.3684860121927651,0.272671527947297,0.2886401375,0.567021871231739
0.004,1.7996,1.0,324.8818982293958,0.04422086382444959,1.3660658776967203,0.3249083817630772,0.2886362,0.5726906032720978
0.0045000000000000005,1.7994937500000001,1.0,412.80005773081916,0.04958202905493113,1.3638400756001126,0.374925471564906,0.2886317375,0.577871171515639
0.005,1.799375,1.0,503.01449970493644,0.05491312238067321,1.3617819589330324,0.4220162509752894,0.28862675,0.5826333360668929
0.0055,1.79924375,1.0,594.4207643997206,0.060214312493086695,1.359868015484421,0.4658110966923139,0.2886212375,0.5870376640028845
0.006,1.7991000000000001,1.0,686.1497816172384,0.06548576711998952,1.3580804881759323,0.5061845859926966,0.2886152,0.5911299872056315
0.006500000000000001,1.79894375,1.0,777.4884313285401,0.0707276530384886,1.3564057483873595,0.5431764210287346,0.2886086375,0.5949456075141779
0.007,1.798775,1.0,867.8486974866724,0.07594013616579368,1.3548329021567027,0.5769303871163861,0.28860155,0.598512791922997
0.0075,1.79859375,1.0,956.7402112828344,0.08112338127915147,1.3533530410204933,0.6076501002047295,0.2885939375,0.6018546824029644
0.008,1.7984,1.0,1043.7863863870343,0.08627755265307907,1.3519582184604717,0.6355680051927413,0.2885858,0.6049917489098562
0.0085,1.79819375,1.0,1128.6656948772077,0.09140281310953136,1.350641832315747,0.6609254637351324,0.2885771375,0.6079410249689272
0.009000000000000001,1.797975,1.0,1211.1319358929297,0.09649932475028128,1.3493979064528725,0.6839595852959643,0.28856795,0.6107178028263704
0.0095,1.79774375,1.0,1291.0283079920498,0.10156724931562414,1.3482206500162346,0.704895449222923,0.2885582375,0.6133366674179562
0.01,1.7975,1.0,1368.2150385940156,0.10660674671234191,1.347105232218939,0.7239424984628087,0.288548,0.615809814305601
0.0105,1.79724375,1.0,1442.6023879803925,0.11161797629071517,1.3460471326794377,0.7412924279923291,0.2885372375,0.6181485394271036
0.011,1.796975,1.0,1514.155758471077,0.11660109699014837,1.3450419568829157,0.75711881468124,0.28852595000000003,0.6203636734388014
0.0115,1.79669375,1.0,1582.8552511053547,0.12155626658328765,1.3440858324812035,0.7715779039530688,0.2885141375,0.6224647317784349
0.012,1.7964,1.0,1648.6926887733605,0.12648364129656745,1.3431753271461098,0.7848096306187822,0.28850180000000003,0.6244601238461752
0.0125,1.79609375,1.0,1711.6935711777592,0.13138337687459836,1.3423071036721117,0.7969387841479387,0.2884889375,0.626357929769165
0.013000000000000001,1.7957750000000001,1.0,1771.91604398456,0.1362556293549857,1.3414778809138435,0.808076415868534,0.28847555,0.6281659975975477
0.0135,1.79544375,1.0,1829.4099801537518,0.14110055292793452,1.3406848456502367,0.8183214025677633,0.2884616375,0.6298910584957729
0.014,1.7951000000000001,1.0,1884.2207764540365,0.14591829991987085,1.3399255424964183,0.8277617119678,0.2884472,0.6315389845615935
0.0145,1.79474375,1.0,1936.4177392340441,0.15070902265722064,1.3391975160675147,0.8364754969540125,0.2884322375,0.6331155774669264
0.015,1.794375,1.0,1986.0835609486887,0.1554728728109181,1.338498400984655,0.8445322582679482,0.28841675,0.6346263792437237
0.0155,1.79399375,1.0,2033.308922666023,0.16021000224258664,1.3378259529946144,0.8519938675875098,0.2884007375,0.636076611872706
0.016,1.7936,1.0,2078.171529406091,0.1649205608493258,1.3371782425489063,0.8589155239264838,0.2883842,0.6374707677029048
0.0165,1.7931937500000001,1.0,2120.7408726695153,0.16960469658424585,1.3365535737961165,0.8653465134955831,0.2883671375,0.6388127932559374
0.017,1.792775,1.0,2161.098775363117,0.17426255740045715,1.3359502508848309,0.871330840174644,0.28834955,0.6401065973546531
0.0175,1.7923437500000001,1.0,2199.336870061131,0.17889429108695135,1.335366592899671,0.876907853860169,0.2883314375,0.6413560215780179
0.018000000000000002,1.7919,1.0,2235.5391713052427,0.18350004391541727,1.334801098420418,0.8821128406945512,0.2883128,0.6425644913790869
0.0185,1.79144375,1.0,2269.8058716816827,0.18807996385651185,1.3342521924379027,0.8869774317303676,0.2882936375,0.6437355607476252
0.019,1.790975,1.0,2302.202092331452,0.19263419419717367,1.3337187285855678,0.8915301478461102,0.28827395,0.6448718437220412
0.0195,1.79049375,1.0,2332.7992935625457,0.19716287822434134,1.3331995604968563,0.8957966504550378,0.2882537375,0.6459759339435645
0.02,1.79,1.0,2361.6747534498973,0.20166615922495335,1.332693541805211,0.8998000660894714,0.288233,0.6470504057433173
0.0205,1.78949375,1.0,2388.908879232799,0.20614418011433555,1.332199547483701,0.903561275514109,0.2882117375,0.6480977699350265
0.021,1.788975,1.0,2414.575305026356,0.21059708237860514,1.331716564498202,0.9070991818746748,0.28818995000000003,0.6491202832828767
0.021500000000000002,1.78844375,1.0,2438.758570189584,0.21502500948235476,1.3312435149213764,0.9104308910456191,0.2881676375,0.6501203246891962
0.022,1.7879,1.0,2461.5163337829404,0.21942809973997382,1.3307796156336258,0.9135719761012379,0.2881448,0.6510996361009911
0.0225,1.78734375,1.0,2482.9092800176318,0.22380649146585177,1.3303240835153514,0.9165365829537975,0.28812143749999997,0.6520599485004566
0.023,1.786775,1.0,2503.0008681613085,0.228160322974378,1.3298761354469546,0.9193375808941198,0.28809755,0.6530029823424186
0.0235,1.78619375,1.0,2521.857096041424,0.23248973257994188,1.3294349883088366,0.9219866954752809,0.28807313749999996,0.6539304479526682
0.024,1.7856,1.0,2539.536084988146,0.2367948561847012,1.3289999550266491,0.9244946421918471,0.2880482,0.6548438443637208
0.0245,1.78499375,1.0,2556.1042251209597,0.2410758333860773,1.328570289395327,0.9268712040080502,0.2880227375,0.6557447861182112
0.025,1.784375,1.0,2571.6138478134944,0.24533279948620457,1.3281453944297918,0.929125356581816,0.28799675,0.6566345666916975
0.025500000000000002,1.78374375,1.0,2586.110380672152,0.24956588744389724,1.3277247518087782,0.9312653362431146,0.2879702375,0.657514308201131
0.026000000000000002,1.7831000000000001,1.0,2599.640549377208,0.2537752302179695,1.327307843211021,0.9332986998159256,0.2879432,0.6583851268257324
0.0265,1.78244375,1.0,2612.252266919161,0.2579609607672355,1.3268941503152545,0.9352323898510763,0.2879156375,0.6592481329389918
0.027,1.781775,1.0,2623.9945287917726,0.26212321205050954,1.3264831548002138,0.9370727928012038,0.28788755,0.660104431223532
0.0275,1.7810937500000001,1.0,2634.912034346973,0.2662621154599796,1.3260743871897496,0.9388257976970128,0.2878589375,0.6609550191926954
0.028,1.7804,1.0,2645.0459244250414,0.27037780224973706,1.3256674187153574,0.9404968412058723,0.2878298,0.661800804806365
0.0285,1.77969375,1.0,2654.4501994410894,0.27447040704506653,1.3252617088933714,0.9420909280451242,0.2878001375,0.6626429232390426
0.029,1.778975,1.0,2663.156267657512,0.2785400569460798,1.3248569320382628,0.943612711813707,0.28776995,0.6634820590136719
0.029500000000000002,1.7782437500000001,1.0,2671.196066482271,0.28258687905288843,1.3244527624645028,0.9450664987599757,0.2877392375,0.6643188932689825
0.03,1.7775,1.0,2678.602016144439,0.28661100046560417,1.3240488744865626,0.9464562781534664,0.287708,0.6651541037754847
0.0305,1.77674375,1.0,2685.406975721603,0.2906125482843388,1.3236449424189136,0.9477857496403443,0.2876762375,0.6659883649447006
0.031,1.775975,1.0,2691.6442015192138,0.29459164960920387,1.3232406405760266,0.9490583479148594,0.28764395,0.6668223478316326
0.0315,1.7751937500000001,1.0,2697.347307801137,0.29854843154031113,1.3228356432723734,0.9502772649992648,0.2876111375,0.6676567201304621
0.032,1.7744,1.0,2702.5435150687285,0.30248301675438743,1.3224296861610552,0.9514454765306147,0.2875778,0.668492020032154
0.0325,1.77359375,1.0,2707.2676278324498,0.30639553535880604,1.3220224380772159,0.9525657476005294,0.2875439375,0.6693289202002732
0.033,1.772775,1.0,2711.5431417062346,0.3102861100651695,1.321613673355191,0.953640665737776,0.28750955,0.6701678734406264
0.0335,1.7719437500000002,1.0,2715.3916263003443,0.3141548620780814,1.3212031856646687,0.9546726467383632,0.2874746375,0.6710092905576162
0.034,1.7711000000000001,1.0,2718.8348214309453,0.31800191260214533,1.3207907686753353,0.9556639464431991,0.2874392,0.6718535801424985
0.0345,1.7702437500000001,1.0,2721.8946196494444,0.3218273828419649,1.3203762160568784,0.9566166732162118,0.2874032375,0.6727011485493508
0.035,1.7693750000000001,1.0,2724.593049715484,0.3256313940021436,1.3199593214789849,0.9575327993096393,0.28736675,0.6735523998683279
0.035500000000000004,1.76849375,1.0,2726.952261014152,0.3294140672872851,1.3195398786113421,0.9584141712273768,0.2873297375,0.6744077358962013
0.036000000000000004,1.7676,1.0,2728.9887098369236,0.3331755181692533,1.3191177338399913,0.9592625233005124,0.2872922,0.6752674488164173
0.0365,1.76669375,1.0,2730.723453349686,0.33691586804325346,1.3186926925116713,0.9600794791411345,0.2872541375,0.6761319124351446
0.037,1.765775,1.0,2732.1836217090004,0.3406352456126705,1.3182645055251545,0.9608665587265302,0.28721555,0.6770016088100412
0.0375,1.76484375,1.0,2733.3818875751244,0.34433376511910324,1.3178330557688815,0.9616251994975317,0.2871764375,0.6778767495555327
0.038,1.7639,1.0,2734.3309739335823,0.3480115408041507,1.3173982261312938,0.9623567525935971,0.28713679999999997,0.6787575447981764
0.0385,1.76294375,1.0,2735.043648061533,0.35166868690941183,1.316959899500832,0.9630624889783864,0.28709663750000003,0.6796442031518574
0.039,1.761975,1.0,2735.5327157976208,0.35530531767648554,1.316517958765937,0.9637436050664188,0.28705595,0.6805369316921065
0.0395,1.7609937500000001,1.0,2735.811016116545,0.3589215473469708,1.31607228681505,0.9644012278963952,0.2870147375,0.6814359359295432
0.04,1.76,1.0,2735.8914160070194,0.36251749016246654,1.3156227665366123,0.9650364198921749,0.286973,0.6823414197824462
0.0405,1.7589937500000001,1.0,2735.78680565464,0.3660932603645718,1.315169280819064,0.965650183248312,0.2869307375,0.6832535855484501
0.041,1.757975,1.0,2735.510093927948,0.3696489721948854,1.314711712550847,0.9662434639733961,0.28688795,0.6841726338753606
0.0415,1.75694375,1.0,2735.0742041691406,0.3731847398950064,1.3142499446204017,0.9668171556212112,0.2868446375,0.6850987637311049
0.042,1.7559,1.0,2734.488215224963,0.3767006710722102,1.3137838949252552,0.9673721045658701,0.28680079999999997,0.6860321023135728
0.0425,1.75484375,1.0,2733.7627412310253,0.380196880512479,1.3133134675003724,0.9679091113090792,0.2867564375,0.686972803198001
0.043000000000000003,1.753775,1.0,2732.9103830038075,0.38367348628551934,1.312838548385011,0.9684289324205696,0.28671155,0.6879210543506351
0.043500000000000004,1.75269375,1.0,2731.937912329814,0.38713059522346527,1.3123590765933069,0.9689322867566237,0.28666613750000003,0.688876936446992
0.044,1.7516,1.0,2730.852104459327,0.39056831415845095,1.3118749911393963,0.9694198554077487,0.2866202,0.6898405290236016
0.0445,1.75049375,1.0,2729.659736670831,0.39398674992261035,1.3113862310374156,0.9698922840527083,0.2865737375,0.6908119104601826
0.045,1.7493750000000001,1.0,2728.3675869173067,0.39738600934807766,1.3108927353015007,0.9703501851434733,0.28652675,0.6917911579615785
0.0455,1.74824375,1.0,2726.982432555313,0.4007661992669868,1.3103944429457877,0.9707941399347713,0.2864792375,0.6927783475394584
0.046,1.7471,1.0,2725.5110491563723,0.404127426511472,1.3098912929844126,0.9712247003706896,0.2864312,0.6937735539937784
0.0465,1.7459437500000001,1.0,2723.960209400615,0.40746979791366716,1.3093832244315118,0.9716423908396746,0.28638263750000004,0.6947768508940078
0.047,1.744775,1.0,2722.3366820534147,0.4107934203057064,1.3088701763012214,0.9720477098082854,0.28633355,0.6957883105601161
0.0475,1.74359375,1.0,2720.647231024287,0.41409840051972385,1.3083520876076773,0.9724411313431379,0.28628393750000003,0.6968080040433269
0.048,1.7424,1.0,2718.8900693578794,0.4173848289820103,1.3078289751885392,0.9728231099487452,0.2862338,0.6978358483238958
0.0485,1.74119375,1.0,2717.074130836824,0.42065282146833705,1.3073007582560972,0.9731940746961768,0.2861831375,0.6988719514516191
0.049,1.739975,1.0,2715.211687349424,0.42390249644750344,1.306767325512387,0.9735544324449256,0.28613195,0.6999164795853864
0.0495,1.73874375,1.0,2713.3055338819217,0.4271339525534213,1.3062286519181665,0.9739045743534264,0.2860802375,0.7009694283940766
0.05,1.7375,1.0,2711.35846269567,0.4303472884200024,1.305684712434193,0.9742448733511032,0.286028,0.7020307926786502
0.0505,1.73624375,1.0,2709.373263109858,0.43354260268115863,1.3051354820212238,0.9745756851486398,0.2859752375,0.7031005663637611
0.051000000000000004,1.734975,1.0,2707.3527212978374,0.4367199939708018,1.3045809356400162,0.9748973491835494,0.28592195,0.704178742489325
0.051500000000000004,1.73369375,1.0,2705.2996200974208,0.4398795609228438,1.3040210482513277,0.975210189505721,0.2858681375,0.7052653132020532
0.052000000000000005,1.7324,1.0,2703.216738834913,0.4430214021711964,1.303455794815916,0.9755145156072484,0.2858138,0.706360269746941
0.0525,1.73109375,1.0,2701.1068531636965,0.4461456163497715,1.302885150294538,0.9758106232005035,0.28575893750000003,0.7074636024587218
0.053,1.729775,1.0,2698.9727349156456,0.4492523020924809,1.3023090896479514,0.9760987949481015,0.28570355000000003,0.7085753007532745
0.0535,1.72844375,1.0,2696.817151967249,0.4523415580332365,1.3017275878369137,0.9763793011481244,0.2856476375,0.7096953531189973
0.054,1.7271,1.0,2694.6428681197062,0.4554134828059501,1.301140619822182,0.9766524003776963,0.2855912,0.710823747108138
0.0545,1.7257437500000001,1.0,2692.452642992234,0.4584681750445335,1.3005481605645137,0.9769183400977824,0.2855342375,0.7119604693280844
0.055,1.724375,1.0,2690.249231929666,0.46150573338289863,1.2999501850246666,0.9771773572218473,0.28547675,0.7131055054326156
0.0555,1.72299375,1.0,2688.0353859242846,0.46452625645495726,1.2993466681633976,0.9774296786508196,0.2854187375,0.7142588401131146
0.056,1.7216,1.0,2685.8119587969254,0.4675298212988541,1.2987376022852406,0.977675520784381,0.2853602,0.715420424046127
0.0565,1.72019375,1.0,2683.582620187067,0.47051654582205743,1.298122953869806,0.9779150933202923,0.28530113749999997,0.716590256300834
0.057,1.718775,1.0,2681.349033932761,0.4734865279958427,1.2975027077362964,0.978148596526948,0.28524155,0.7177683000305224
0.0575,1.71734375,1.0,2679.112216038364,0.47643985815957807,1.296876854622467,0.978376222149281,0.2851814375,0.7189545063439753
0.058,1.7159,1.0,2676.8731808344805,0.47937662665263175,1.2962453852660718,0.9785981541761688,0.2851208,0.7201488256012649
0.0585,1.71444375,1.0,2674.6329409708146,0.48229692381437184,1.2956082904048665,0.9788145692138933,0.2850596375,0.7213512074104341
0.059000000000000004,1.7129750000000001,1.0,2672.3925074112444,0.4852008399841665,1.294965560776605,0.9790256368387517,0.28499795,0.7225616006241802
0.059500000000000004,1.71149375,1.0,2670.152889430804,0.48808846550138396,1.2943171871190429,0.9792315199301388,0.2849357375,0.7237799533365252
0.06,1.71,1.0,2667.915094614303,0.4909598907053922,1.2936631601699344,0.9794323749853245,0.284873,0.7250062128794881
0.0605,1.7084937500000001,1.0,2665.6801288573724,0.49381520593555955,1.2930034706670346,0.9796283524170668,0.2848097375,0.7262403258197456
0.061,1.7069750000000001,1.0,2663.448996368725,0.4966545015312541,1.292338109348098,0.9798195968351207,0.28474595,0.727482237955292
0.0615,1.7054437500000001,1.0,2661.2226996747786,0.499477867831844,1.2916670669508794,0.9800062473126306,0.2846816375,0.7287318943120894
0.062,1.7039,1.0,2659.002239626403,0.5022853951766975,1.290990334213134,0.980188437638327,0.2846168,0.7299892391407163
0.0625,1.70234375,1.0,2656.7886154067946,0.5050771739051825,1.290307901872616,0.9803662965553824,0.2845514375,0.7312542159130088
0.063,1.7007750000000001,1.0,2654.5828245418966,0.5078532943566674,1.2896197606670805,0.9805399479877316,0.28448555,0.7325267673186959
0.0635,1.69919375,1.0,2652.373592274138,0.5106138461975793,1.2889260144796277,0.9807095169864084,0.28441913750000003,0.7338066267758863
0.064,1.6976,1.0,2650.1716268322307,0.5133589149720514,1.2882265645805948,0.9808751134490173,0.2843522,0.7350939013713911
0.0645,1.69599375,1.0,2648.010157654129,0.5160885873509523,1.2875211042406804,0.9810368328523423,0.2842847375,0.7363890772200885
0.065,1.6943778751511094,1.0,2645.9909116085664,0.5188029485935649,1.286809992322017,0.9811948002406687,0.2842168707563466,0.7376914167864939
0.0655,1.692761353286384,1.0,2644.5139103994507,0.5215020839591716,1.2860935876867372,0.9813491362517216,0.28414897683802814,0.7390001884073061
0.066,1.6911448314216588,1.0,2643.5714829956096,0.5241860787070552,1.2853722491969737,0.9814999573140843,0.2840810829197097,0.7403146664166466
0.0665,1.6895283095569336,1.0,2643.1244929048444,0.5268550180964986,1.284646335714859,0.9816473758345126,0.2840131890013912,0.7416341312630861
0.067,1.6879117876922083,1.0,2643.1376530517473,0.5295089864034552,1.2839161720229415,0.9817914986587001,0.28394529508307276,0.7429579313260188
0.0675,1.6862952658274828,1.0,2643.565103418544,0.5321480688517581,1.2831821817224878,0.9819324338232716,0.28387740116475424,0.7442852422030992
0.068,1.6846787439627575,1.0,2644.371675045794,0.5347723490346782,1.2824446905177092,0.9820702809784666,0.28380950724643583,0.7456154234641439
0.0685,1.6830622220980322,1.0,2645.530245815537,0.5373819090403349,1.2817039504211623,0.9822051328695829,0.28374161332811737,0.7469479729499724
0.069,1.681445700233307,1.0,2647.0137436797695,0.5399768309568476,1.2809602134454035,0.9823370791713966,0.2836737194097989,0.7482823930507441
0.0695,1.6798291783685817,1.0,2648.7951292108687,0.5425571968723354,1.280213731602989,0.9824662066176422,0.28360582549148045,0.7496181907561483
0.07,1.6782126565038564,1.0,2650.8473795605355,0.5451230888749178,1.2794647569064754,0.98259259912424,0.283537931573162,0.7509548777015453
0.07050000000000001,1.676596134639131,1.0,2653.148101239086,0.5476745876805293,1.2787134987060482,0.982716335851691,0.28347003765484347,0.752292046042837
0.07100000000000001,1.6749796127744057,1.0,2655.671819678552,0.5502117758127543,1.2779601947213899,0.9828374948381611,0.28340214373652506,0.7536292415511704
0.07150000000000001,1.6733630909096804,1.0,2658.401330702383,0.5527347329128892,1.2772050063244706,0.9829561479979793,0.28333424981820654,0.754966149453604
0.07200000000000001,1.671746569044955,1.0,2661.321157958523,0.5552435380158395,1.2764480788811798,0.9830723642102821,0.28326635589988813,0.7563024862337531
0.0725,1.6701300471802298,1.0,2664.4158117177653,0.5577382701565101,1.2756895577574066,0.983186210190855,0.2831984619815696,0.7576379711209362
0.073,1.6685135253155046,1.0,2667.669783504029,0.5602190083698066,1.2749295883190401,0.9832977505779553,0.2831305680632512,0.7589723261056222
0.0735,1.6668970034507793,1.0,2671.0678448563604,0.5626858314855447,1.2741683131417427,0.9834070478782274,0.28306267414493275,0.7603052808323064
0.074,1.6652804815860538,1.0,2674.604130032017,0.5651388124427384,1.2734057885780885,0.9835141585336016,0.2829947802266143,0.7616367180229386
