Time [s],Phi [rad],STIM [ ],Fsee [N],Gamma [ ],Lcerel [ ],q [ ],Lmtc [m],fisomrel [ ]
0.0,1.8,1.0,18.310337503773024,0.0005954287223210546,1.3793014805151278,0.005091474053992668,0.288653,0.5412321010173218
0.0005,1.79999375,1.0,18.80128115550136,0.006201298146908115,1.3792445340975372,0.01464538541560283,0.2886527375,0.5413698448888454
0.001,1.799975,1.0,22.5773952557859,0.011775723076259093,1.3788414158147428,0.03872422306842066,0.28865195,0.5423443292840597
0.0015,1.79994375,1.0,32.99069112480012,0.017318879890007237,1.377884957985883,0.07482385094665507,0.2886506375,0.5446522912245138
0.002,1.7999,1.0,57.40861963670875,0.022830943976572954,1.376124185350979,0.11969069009590091,0.2886488,0.5488858328892299
0.0025,1.79984375,1.0,103.29347838270812,0.028312089741059206,1.3736422153913268,0.1699671412904582,0.28864643749999996,0.5548198178490478
0.003,1.7997750000000001,1.0,168.81927003812666,0.033762490613480245,1.370923602769908,0.22283207443246375,0.28864354999999997,0.5612744926919371
0.0035,1.79969375,1.0,246.47107725274824,0.03918231904629056,1.368316505191083,0.27612664810069154,0.2886401375,0.5674201275632236
0.004,1.7996,1.0,330.76258209883275,0.044571746526889514,1.365911636504989,0.3282489520222094,0.2886362,0.5730506194841862
0.0045000000000000005,1.7994937500000001,1.0,418.8602003930348,0.04993094358082379,1.3636989469680076,0.37809309299416555,0.2886317375,0.5781985841019208
0.005,1.799375,1.0,509.16883726884805,0.055260079746522694,1.3616520448881846,0.42497755877296245,0.28862675,0.582933030702151
0.0055,1.79924375,1.0,600.622864157871,0.06055932374503848,1.3597475255674467,0.4685511557210553,0.2886212375,0.5873141513013369
0.006,1.7991000000000001,1.0,692.342041295191,0.0658288431227929,1.3579684797910834,0.5087017540817605,0.2886152,0.5913857381251937
0.006500000000000001,1.79894375,1.0,783.6325116764749,0.07106880465612393,1.3563013144076297,0.5454773863499673,0.2886086375,0.5951829507378681
0.007,1.798775,1.0,873.9142720080882,0.07627937418815271,1.354735295272262,0.5790269263844228,0.28860155,0.5987336425003225
0.0075,1.79859375,1.0,962.6940211072078,0.08146071640812529,1.3532617745535733,0.6095567905809187,0.2885939375,0.6020603272935597
0.008,1.7984,1.0,1049.610568252801,0.08661299564502753,1.351872729127236,0.6373004235040652,0.2885858,0.6051836176548173
0.0085,1.79819375,1.0,1134.3424058143632,0.09173637454164182,1.350561691004607,0.6624992886016647,0.2885771375,0.6081202193877246
0.009000000000000001,1.797975,1.0,1216.6504722111936,0.09683101515262359,1.3493226884702376,0.6853898911009938,0.28856795,0.6108853932395578
0.0095,1.79774375,1.0,1296.3770306839695,0.10189707915722936,1.348150031196455,0.7061964065498357,0.2885582375,0.613493481434654
0.01,1.7975,1.0,1373.387764671775,0.1069347265126526,1.3470388854493025,0.7251271422020948,0.288548,0.6159566708740623
0.0105,1.79724375,1.0,1447.5947924925274,0.11194411646435581,1.3459847665820721,0.7423726228592147,0.2885372375,0.6182861648378479
0.011,1.796975,1.0,1518.9614529586343,0.11692540756935056,1.344983354662257,0.7581052888342054,0.28852595000000003,0.6204926180037482
0.0115,1.79669375,1.0,1587.482682334905,0.12187875812688452,1.3440306387586418,0.7724802087012093,0.2885141375,0.622585840546304
0.012,1.7964,1.0,1653.1436233790234,0.12680432403863498,1.3431233064788637,0.7856363436990565,0.28850180000000003,0.6245739685937877
0.0125,1.79609375,1.0,1715.9697148071716,0.13170226117955716,1.3422580517908724,0.7976975565720159,0.2884889375,0.6264650063275399
0.013000000000000001,1.7957750000000001,1.0,1776.002491887919,0.13657272434825965,1.3414318063115842,0.8087741330647521,0.28847555,0.6282663317564059
0.0135,1.79544375,1.0,1833.3246438607973,0.1414158691842383,1.3406414052147393,0.8189640483244428,0.2884616375,0.6299854370322953
0.014,1.7951000000000001,1.0,1887.976317537126,0.14623184775412107,1.3398844769355394,0.8283546326703937,0.2884472,0.6316280049051493
0.0145,1.79474375,1.0,1940.017086986136,0.1510208119299636,1.3391586911995421,0.8370234876873864,0.2884322375,0.63319956053512
0.015,1.794375,1.0,1989.5275944476482,0.15578291358382151,1.3384617177323053,0.8450395956262422,0.28841675,0.6347055664212287
0.0155,1.79399375,1.0,2036.58796008506,0.16051830325349087,1.3377914340840324,0.8524643962224805,0.2884007375,0.6361509791436633
0.016,1.7936,1.0,2081.3022774034703,0.16522713234959732,1.3371456415189222,0.8593525868817212,0.2883842,0.6375408686377372
0.0165,1.7931937500000001,1.0,2123.7368584286387,0.1699095486397749,1.3365226900468483,0.8657531074248686,0.2883671375,0.638879078710564
0.017,1.792775,1.0,2163.967251966314,0.17456569969653396,1.335920958323983,0.8717096641769819,0.28834955,0.6401693550978853
0.0175,1.7923437500000001,1.0,2202.0799393746684,0.1791957330923849,1.3353388250064984,0.8772613400047542,0.2883314375,0.6414154095767254
0.018000000000000002,1.7919,1.0,2238.157597704163,0.183799795053388,1.33477480727584,0.8824431738223331,0.2883128,0.6426206263183167
0.0185,1.79144375,1.0,2272.299473439482,0.18837803326700248,1.3342273438973338,0.8872865765711753,0.2882936375,0.6437885286713437
0.019,1.790975,1.0,2304.577377125572,0.19293059162685425,1.3336952257984156,0.891819855605305,0.28827395,0.6449218631356647
0.0195,1.79049375,1.0,2335.062032492411,0.1974576132133804,1.3331773182905462,0.8960685008577215,0.2882537375,0.6460231969920921
0.02,1.79,1.0,2363.8299130259206,0.20195924110701807,1.332672486685186,0.9000554866979794,0.288233,0.6470950784524705
0.0205,1.78949375,1.0,2390.9623963159015,0.20643561833117982,1.3321795997939254,0.9038015548504416,0.2882117375,0.6481400302319755
0.021,1.788975,1.0,2416.528315144339,0.21088688558547602,1.33169769398542,0.9073254962668884,0.28818995000000003,0.6491602034590394
0.021500000000000002,1.78844375,1.0,2440.6180786708346,0.21531318700797397,1.331225636944321,0.9106442956460407,0.2881676375,0.6501580912972861
0.022,1.7879,1.0,2463.2884074180247,0.21971466081047292,1.3307626570475926,0.9137734310248337,0.2881448,0.6511354104043899
0.0225,1.78734375,1.0,2484.599003101369,0.22409144520477217,1.3303079826721986,0.9167269633365647,0.28812143749999997,0.6520938666550464
0.023,1.786775,1.0,2504.612303359613,0.22844367840267096,1.3298608421951035,0.9195176857646955,0.28809755,0.6530351555686769
0.0235,1.78619375,1.0,2523.3932496861485,0.2327714986159686,1.3294204639932712,0.922157255591169,0.28807313749999996,0.6539609626991643
0.024,1.7856,1.0,2541.000556271175,0.237075041924156,1.328986156635674,0.9246563242004793,0.2880482,0.6548727957336984
0.0245,1.78499375,1.0,2557.4990069958462,0.24135444743077195,1.328557190183621,0.9270246202056741,0.2880227375,0.6557722346257777
0.025,1.784375,1.0,2572.941634353929,0.24560985063041724,1.3281329619800055,0.9292710668184515,0.28799675,0.6566605843821054
0.025500000000000002,1.78374375,1.0,2587.3740995622666,0.24984138445603463,1.327712952371903,0.9314038536568628,0.2879702375,0.6575389695398307
0.026000000000000002,1.7831000000000001,1.0,2600.8433561430834,0.25404918184056696,1.3272966417063883,0.9334304953483892,0.2879432,0.6584085086980871
0.0265,1.78244375,1.0,2613.397539271991,0.25823337571695704,1.326883510330537,0.9353578962714107,0.2879156375,0.6592703146491892
0.027,1.781775,1.0,2625.085861114027,0.2623940990181477,1.3264730385914245,0.9371924082975082,0.28788755,0.6601254944926092
0.0275,1.7810937500000001,1.0,2635.9504223214713,0.2665314825706245,1.3260647816629896,0.938939892769504,0.2878589375,0.6609749941296778
0.028,1.7804,1.0,2646.034616059017,0.2706456587561483,1.325658290391265,0.9406057552356447,0.2878298,0.6618197637099442
0.0285,1.77969375,1.0,2655.3915150679877,0.2747367612867515,1.3252530333465375,0.9421949755435783,0.2878001375,0.6626609193203958
0.029,1.778975,1.0,2664.0524833983154,0.2788049172439717,1.3248486856251547,0.9437121837892245,0.28776995,0.6634991436467138
0.029500000000000002,1.7782437500000001,1.0,2672.0494103295805,0.2828502537093465,1.3244449223234642,0.9451616647847307,0.2877392375,0.6643351160029377
0.03,1.7775,1.0,2679.4146643253694,0.2868728977644135,1.3240414185378144,0.9465473882237967,0.287708,0.6651695123469419
0.0305,1.77674375,1.0,2686.181049328337,0.2908729764907104,1.3236378493645526,0.9478730358535569,0.2876762375,0.666003005289181
0.031,1.775975,1.0,2692.381763395326,0.2948506169697749,1.3232338899000269,0.9491420259825911,0.28764395,0.6668362640946981
0.0315,1.7751937500000001,1.0,2698.0503596730578,0.29880594628314444,1.322829215240585,0.9503575356151011,0.2876111375,0.667669954678406
0.032,1.7744,1.0,2703.213854184426,0.3027390869218017,1.3224235630989511,0.9515225267044992,0.2875778,0.6685046108372981
0.0325,1.77359375,1.0,2707.9069690451342,0.30665016916467536,1.3220166032386442,0.9526397517510301,0.2875439375,0.6693409031844566
0.033,1.772775,1.0,2712.153003707367,0.3105393156192925,1.3216081119277474,0.9537117867266603,0.28750955,0.6701792804281552
0.0335,1.7719437500000002,1.0,2715.973427787795,0.31440664742146623,1.321197883872407,0.9547410366938457,0.2874746375,0.6710201511348461
0.034,1.7711000000000001,1.0,2719.3898795646937,0.31825228570701,1.3207857137787686,0.9557297476023344,0.2874392,0.6718639216691515
0.0345,1.7702437500000001,1.0,2722.4241486553465,0.322076351611737,1.3203713963529788,0.9566800186917096,0.2874032375,0.6727109961697786
0.035,1.7693750000000001,1.0,2725.0981596279544,0.32587896627146057,1.3199547263011833,0.9575938137886784,0.28736675,0.6735617765227517
0.035500000000000004,1.76849375,1.0,2727.433956547802,0.3296602508219939,1.3195354983295284,0.9584729716091667,0.2873297375,0.6744166623319514
0.036000000000000004,1.7676,1.0,2729.44877816774,0.3334203215580662,1.31911355177724,0.9593192186467261,0.2872922,0.6752759600513862
0.0365,1.76669375,1.0,2731.1615507364113,0.33715929740392,1.3186887114238066,0.9601341731894173,0.2872541375,0.6761400038617147
0.037,1.765775,1.0,2732.6015307194407,0.34087730902392055,1.318260708901362,0.96091934742791,0.28721555,0.6770093149540897
0.0375,1.76484375,1.0,2733.781189538147,0.34457447054707163,1.3178294289755608,0.961676173173218,0.2871764375,0.6778841010110619
0.038,1.7639,1.0,2734.713048093868,0.3482508961023769,1.3173947564120572,0.9624059963377555,0.28713679999999997,0.6787645682465909
0.0385,1.76294375,1.0,2735.4096708658076,0.35190669981884015,1.3169565759765054,0.9631100830278722,0.28709663750000003,0.6796509213815363
0.039,1.761975,1.0,2735.8836603029254,0.35554199582546503,1.3165147724345598,0.963789625140513,0.28705595,0.6805433636182998
0.0395,1.7609937500000001,1.0,2736.1476515111053,0.3591568982512553,1.3160692305518746,0.9644457455092844,0.2870147375,0.6814420966146235
0.04,1.76,1.0,2736.214307233648,0.3627515212252146,1.315619835094104,0.965079502640637,0.286973,0.682347320456539
0.0405,1.7589937500000001,1.0,2736.0963131269687,0.3663259788763467,1.3151664708269024,0.9656918950768201,0.2869307375,0.6832592336304697
0.041,1.757975,1.0,2735.8063733303143,0.3698803853336553,1.3147090225159241,0.9662838654186433,0.28688795,0.6841780329944884
0.0415,1.75694375,1.0,2735.357206330094,0.3734148547261441,1.3142473749268233,0.9668563040378559,0.2868446375,0.6851039137487263
0.042,1.7559,1.0,2734.7588953509794,0.3769294964889869,1.3137814368511425,0.9674100537368948,0.28680079999999997,0.6860370213253588
0.0425,1.75484375,1.0,2734.0206546801064,0.38042442090439993,1.3133111250482963,0.9679459124350327,0.2867564375,0.6869774838041163
0.043000000000000003,1.753775,1.0,2733.1570926223794,0.3838997494602207,1.3128363073380171,0.9684646330559478,0.28671155,0.6879255255456431
0.043500000000000004,1.75269375,1.0,2732.174744495401,0.3873555888387929,1.312356924885777,0.9689669320934862,0.28666613750000003,0.6888812228185622
0.044,1.7516,1.0,2731.0801490140007,0.3907920457224602,1.311872918857047,0.969453488425073,0.2866202,0.6898446507767404
0.0445,1.75049375,1.0,2729.8798469197213,0.39420922679356635,1.3113842304172993,0.9699249456549316,0.2865737375,0.6908158834420479
0.045,1.7493750000000001,1.0,2728.5803796862856,0.39760723873445514,1.310890800732005,0.9703819142891118,0.28652675,0.6917949936869029
0.0455,1.74824375,1.0,2727.1882883021444,0.40098618822747023,1.3103925709666358,0.9708249737559191,0.2864792375,0.692782053216588
0.046,1.7471,1.0,2725.710112129769,0.4043461819549553,1.3098894822866634,0.971254674284132,0.2864312,0.6937771325513513
0.0465,1.7459437500000001,1.0,2724.1523878416906,0.4076873265992542,1.309381475857559,0.9716715386502863,0.28638263750000004,0.6947803010082865
0.047,1.744775,1.0,2722.521648433058,0.41100972884271053,1.3088684928447947,0.9720760638053182,0.28633355,0.695791626682988
0.0475,1.74359375,1.0,2720.8244223115976,0.4143134953676681,1.308350474413842,0.9724687223899606,0.28628393750000003,0.6968111764309906
0.048,1.7424,1.0,2719.0636656775196,0.4175987229827704,1.3078273942130556,0.9728499651924063,0.2862338,0.6978389520790819
0.0485,1.74119375,1.0,2717.2426340340357,0.42086551248399806,1.3072992231512364,0.9732202217083842,0.2861831375,0.6988749599829294
0.049,1.739975,1.0,2715.374507393428,0.4241139920659576,1.3067658416730232,0.9735798981363672,0.28613195,0.6999193825977094
0.0495,1.73874375,1.0,2713.4622015913906,0.42734426022160193,1.3062272236450798,0.9739293842929448,0.2860802375,0.7009722177889869
0.05,1.7375,1.0,2711.508629583393,0.4305564154438837,1.3056833429340702,0.9742690518403528,0.286028,0.7020334625403433
0.0505,1.73624375,1.0,2709.5167012152365,0.4337505562257556,1.3051341734066582,0.9745992552919047,0.2859752375,0.7031031129446285
0.051000000000000004,1.734975,1.0,2707.489323009239,0.43692678106017035,1.3045796889295076,0.9749203329530743,0.28592195,0.7041811641951671
0.051500000000000004,1.73369375,1.0,2705.4293979652684,0.44008518844008077,1.304019863369282,0.9752326078028778,0.2858681375,0.7052676105769229
0.052000000000000005,1.7324,1.0,2703.339825376758,0.44322587685843956,1.3034546705926455,0.9755363883198365,0.2858138,0.7063624454576181
0.0525,1.73109375,1.0,2701.2235006624783,0.4463489448081993,1.302884084466262,0.9758319692564571,0.28575893750000003,0.7074656612788084
0.053,1.729775,1.0,2699.0833152127393,0.449454490782313,1.302308078856795,0.9761196323658591,0.28570355000000003,0.7085772495469194
0.0535,1.72844375,1.0,2696.9221562512503,0.45254261327373313,1.3017266276309085,0.9763996470838865,0.2856476375,0.7096972008242317
0.054,1.7271,1.0,2694.7429067119324,0.4556134107754126,1.3011397046552662,0.9766722711697948,0.2855912,0.7108255047198312
0.0545,1.7257437500000001,1.0,2692.548445130706,0.458666981780304,1.3005472837965322,0.9769377513083525,0.2855342375,0.7119621498805062
0.055,1.724375,1.0,2690.341645552649,0.46170342478136017,1.29994933892137,0.9771963236759885,0.28547675,0.7131071239816105
0.0555,1.72299375,1.0,2688.1253774544293,0.46472283827153377,1.2993458438964436,0.9774482144734143,0.2854187375,0.7142604137178764
0.056,1.7216,1.0,2685.898986742748,0.46772531906469317,1.2987368048328005,0.9776936421582553,0.2853602,0.7154219433618918
0.0565,1.72019375,1.0,2683.667398963065,0.47071095935188295,1.2981221767041415,0.9779328127352436,0.28530113749999997,0.7165917339195937
0.057,1.718775,1.0,2681.4324386693525,0.4736798526995542,1.2975019428479557,0.9781659254862706,0.28524155,0.7177697512809047
0.0575,1.71734375,1.0,2679.192775596255,0.476632092598917,1.2968761155181563,0.9783931731977294,0.2851814375,0.7189559057233748
0.058,1.7159,1.0,2676.9470817263586,0.4795677725411815,1.2962447069686565,0.9786147408566483,0.2851208,0.7201501071207107
0.0585,1.714449863532626,1.0,2674.99223478875,0.4824869854761011,1.2956077522933394,0.9788308072536099,0.2850598942683703,0.7213522218880093
0.059000000000000004,1.7129997263120724,1.0,2673.6002126489375,0.4853898245228831,1.294965634494764,0.9790415632874689,0.284998988505107,0.7225614619486649
0.059500000000000004,1.711549589091519,1.0,2672.7285131270773,0.4882763810187398,1.294318740289588,0.9792471924325972,0.2849380827418438,0.7237770379921877
0.06,1.7100994518709658,1.0,2672.3374530175442,0.4911467459058032,1.2936674318825447,0.9794478696871473,0.28487717697858056,0.7249982125367058
0.0605,1.7086493146504125,1.0,2672.387497639463,0.4940010101262053,1.2930120714783677,0.9796437633256492,0.28481627121531733,0.7262242537243493
0.061,1.7071991774298592,1.0,2672.8421337951886,0.49683926402916523,1.2923529945800936,0.9798350337507992,0.2847553654520541,0.7274544852042468
0.0615,1.7057490402093058,1.0,2673.665604144045,0.49966159816920414,1.291690530531643,0.9800218350080501,0.2846944596887908,0.7286882474431398
0.062,1.7042989029887523,1.0,2674.830136992542,0.502468101273138,1.291024935897811,0.9802043114386357,0.2846335539255276,0.7299250213191169
0.0625,1.702848765768199,1.0,2676.3091176276234,0.5052588618035224,1.2903564570319468,0.9803826014827854,0.28457264816226435,0.7311643107775996
0.063,1.7013986285476457,1.0,2678.07596028772,0.5080339682229128,1.289685340287401,0.9805568384938103,0.2845117423990011,0.7324056237964692
0.0635,1.6999484913270924,1.0,2680.114826182842,0.5107935047805944,1.2890117335628537,0.9807271456329242,0.2844508366357379,0.7336486538998535
0.064,1.698498354106539,1.0,2682.3863441548338,0.5135375658904716,1.2883360006957214,0.98089365327758,0.28438993087247466,0.7348926999451433
0.0645,1.6970482168859857,1.0,2684.873469769628,0.5162662373471575,1.2876583005955002,0.981056476245611,0.28432902510921143,0.7361374429161633
0.065,1.6955980796654322,1.0,2687.561885851832,0.5189796038528096,1.2869787671439368,0.9812157239477085,0.28426811934594814,0.7373826122721496
0.0655,1.6941479424448789,1.0,2690.43726946366,0.5216777501095857,1.2862975342227774,0.9813715019335426,0.2842072135826849,0.7386279397256301
0.066,1.6926978052243256,1.0,2693.485286660881,0.5243607608196434,1.2856147357137686,0.981523912059188,0.2841463078194217,0.7398731592575067
0.0665,1.6912476680037722,1.0,2696.6915876473663,0.5270287206851404,1.2849305054986573,0.9816730526461787,0.2840854020561584,0.7411180071309937
0.067,1.689797530783219,1.0,2700.0418023266707,0.5296817144082342,1.28424497745919,0.981819018632661,0.28402449629289517,0.7423622219044151
0.0675,1.6883473935626654,1.0,2703.521536250553,0.5323198266910826,1.283558285477113,0.9819619017170882,0.28396359052963194,0.7436055444428574
0.068,1.686897256342112,1.0,2707.118282463287,0.5349431407336591,1.2828705459511909,0.9821017895632482,0.2839026847663687,0.7448477494683521
0.0685,1.6854471191215588,1.0,2710.822427874261,0.5375517391818009,1.2821818486481653,0.9822387655940893,0.2838417790031055,0.7460886616502038
0.069,1.6839969819010054,1.0,2714.619897639794,0.5401457088562766,1.2814923238154303,0.9823729126161275,0.28378087323984225,0.7473280345439698
0.0695,1.6825468446804521,1.0,2718.5042243088806,0.5427251300005237,1.2808020320942117,0.9825043070359084,0.283719967476579,0.7485657486344429
0.07,1.6810967074598988,1.0,2722.4689255232843,0.54529008285798,1.2801110341257356,0.9826330227440792,0.28365906171331573,0.7498016854624076
0.07050000000000001,1.6796465702393453,1.0,2726.507503027446,0.547840647672083,1.2794193905512277,0.9827591312168471,0.2835981559500525,0.7510357276274888
0.07100000000000001,1.678196433018792,1.0,2730.6134417593685,0.5503769046862703,1.2787271620119138,0.9828827016127037,0.28353725018678927,0.7522677587907665
0.07150000000000001,1.6767462957982386,1.0,2734.780209023424,0.5528989341439797,1.2780344091490201,0.9830038008646691,0.28347634442352604,0.7534976636771533
0.07200000000000001,1.6752961585776853,1.0,2739.001253744732,0.5554068162886487,1.2773411926037723,0.9831224937682903,0.28341543866026275,0.7547253280775423
0.0725,1.673846021357132,1.0,2743.2700058049995,0.557900631363715,1.2766475730173967,0.983238843065615,0.2833545328969995,0.7559506388507148
0.073,1.6723958841365787,1.0,2747.585001980493,0.5603804498912767,1.275953564586573,0.9833529068888476,0.2832936271337363,0.7571735656631509
0.0735,1.6709457469160252,1.0,2751.936733571294,0.5628463609604751,1.2752592543042922,0.983464745843563,0.28323272137047306,0.7583939506372608
