Time [s],Phi [rad],STIM [ ],Fsee [N],Gamma [ ],Lcerel [ ],q [ ],Lmtc [m],fisomrel [ ]
0.0,1.8,1.0,18.881276214138083,0.000975381492043604,1.3792386049141998,0.005244432940668306,0.288653,0.5413841854041183
0.0005,1.79999375,1.0,19.476094466513125,0.006579119682025748,1.379171280018288,0.015836302718721367,0.2886527375,0.541547003856164
0.001,1.799975,1.0,23.535297883203025,0.012151425332096615,1.3787466750411814,0.04081486914919185,0.28865195,0.542573201993781
0.0015,1.79994375,1.0,34.619500159203746,0.017692474752417264,1.377751913163765,0.07761230341416996,0.2886506375,0.5449728702203933
0.002,1.7999,1.0,60.32729761486598,0.02320244326706728,1.3759435230901165,0.12294609647010561,0.2886488,0.5493190926230582
0.0025,1.79984375,1.0,107.70079427389278,0.028681505215618887,1.3734384338173689,0.17347897786031602,0.28864643749999996,0.5553052810842813
0.003,1.7997750000000001,1.0,174.25651992589292,0.03412983395849492,1.3707264511863755,0.2264353220006058,0.28864354999999997,0.5617407474195024
0.0035,1.79969375,1.0,252.45635965044713,0.0395476018840008,1.368136545126106,0.27969649315845185,0.2886401375,0.5678427428017044
0.004,1.7996,1.0,337.0339295956683,0.04493498041220345,1.3657486521355904,0.3316956672745291,0.2886362,0.5734308783832873
0.0045000000000000005,1.7994937500000001,1.0,425.29010506960503,0.05029214001745436,1.3635503191270035,0.3813580786242349,0.2886317375,0.5785432572150955
0.005,1.799375,1.0,515.685705929385,0.05561925017529,1.3615153310663843,0.4280275295136669,0.28862675,0.5832482952932478
0.0055,1.79924375,1.0,607.1595704146886,0.06091647949157026,1.3596212065959965,0.4713719499638033,0.2886212375,0.5876039150715548
0.006,1.7991000000000001,1.0,698.8490474589291,0.06618399547635188,1.3578513165470223,0.5112922349727935,0.2886152,0.5916531736146775
0.006500000000000001,1.79894375,1.0,790.0781879145476,0.07142196495006643,1.3561921931593923,0.5478448187130489,0.2886086375,0.5954308722331063
0.007,1.798775,1.0,880.2536670841613,0.07663055343773927,1.3546336434148705,0.5811838827525104,0.28860155,0.5989635808619085
0.0075,1.79859375,1.0,968.9235041061952,0.08180992599058327,1.353166583885038,0.6115181685220289,0.2885939375,0.6022747577390704
0.008,1.7984,1.0,1055.6943518033704,0.08696024632608997,1.3517836821706681,0.6390825449061442,0.2885858,0.6053834214236172
0.0085,1.79819375,1.0,1140.2585836591795,0.09208167723159681,1.350478382113836,0.6641183818385774,0.2885771375,0.6083064530321045
0.009000000000000001,1.797975,1.0,1222.4043790095056,0.09717438127942477,1.3492444438085038,0.6868613739488626,0.28856795,0.6110596889951811
0.0095,1.79774375,1.0,1301.949141041712,0.10223851926372664,1.3480766177689325,0.7075349342313842,0.2885582375,0.6136564673550398
0.01,1.7975,1.0,1378.7657335882461,0.10727425121027291,1.3469700385247583,0.7263461660137324,0.288548,0.6161090317797442
0.0105,1.79724375,1.0,1452.7829243433769,0.11228173653666562,1.3459200692645474,0.7434842844083358,0.2885372375,0.6184289084184016
0.011,1.796975,1.0,1523.9714534556992,0.11726113440954182,1.3449223596807942,0.7591205145905423,0.28852595000000003,0.620626804184416
0.0115,1.79669375,1.0,1592.2949364249534,0.1222126015839121,1.3439733258200586,0.7734089782238844,0.2885141375,0.6227115788402036
0.012,1.7964,1.0,1657.759609723983,0.12713629465563064,1.34306943067628,0.7864874652189586,0.28850180000000003,0.6246918550237662
0.0125,1.79609375,1.0,1720.3926311126183,0.13203236938668259,1.342207380529975,0.7984788764200993,0.2884889375,0.6265756017564186
0.013000000000000001,1.7957750000000001,1.0,1780.2625856900484,0.13690098192339864,1.3413838302544385,0.8094925183413061,0.28847555,0.6283707922219666
0.0135,1.79544375,1.0,1837.404306532989,0.14174228535691974,1.3405961831341842,0.8196258148395024,0.2884616375,0.6300836735791623
0.014,1.7951000000000001,1.0,1891.8706438540082,0.14655643240674943,1.339841936917984,0.8289653433847421,0.2884472,0.631720210178039
0.0145,1.79474375,1.0,1943.7371578182797,0.15134357567726142,1.339118601964961,0.8375880306365138,0.2884322375,0.63328626849914
0.015,1.794375,1.0,1993.0879550648997,0.15610386681460625,1.3384238288132597,0.8455623109441702,0.28841675,0.6347873472301451
0.0155,1.79399375,1.0,2040.0089740412086,0.16083745741402972,1.3377554501722595,0.8529491345116783,0.2884007375,0.636228494511908
0.016,1.7936,1.0,2084.566656153108,0.16554449609785807,1.3371116750696082,0.8598029047004242,0.2883842,0.6376138983793461
0.0165,1.7931937500000001,1.0,2126.841177037786,0.17022513148841759,1.336490712532953,0.8661721366948381,0.2883671375,0.6389477052903877
0.017,1.792775,1.0,2166.920928930246,0.17487951176034197,1.3358908159876381,0.8721001677343575,0.28834955,0.6402339277269089
0.0175,1.7923437500000001,1.0,2204.8945016139487,0.1795077844841253,1.3353103513665558,0.8776257869431366,0.2883314375,0.6414763018700156
0.018000000000000002,1.7919,1.0,2240.8606861015373,0.18411009796404923,1.3347476821834305,0.882783738057609,0.2883128,0.6426785372220056
0.0185,1.79144375,1.0,2274.884878304491,0.18868659618698566,1.3342015949384187,0.8876052969935834,0.2882936375,0.6438434118004372
0.019,1.790975,1.0,2307.0395426286727,0.19323742313980663,1.3336708761316776,0.8921185646580013,0.28827395,0.6449736811910673
0.0195,1.79049375,1.0,2337.4036302758527,0.197762722809384,1.3331543122633631,0.8963488306299641,0.2882537375,0.6460720797842014
0.02,1.79,1.0,2366.0608464657375,0.20226263904227187,1.332650701390147,0.9003188944046072,0.288233,0.6471412974000105
0.0205,1.78949375,1.0,2393.082399825422,0.20673731356189723,1.3321590152453315,0.9040493795864192,0.2882117375,0.6481836370894503
0.021,1.788975,1.0,2418.566150536187,0.21118689082715372,1.331678011995534,0.9075588916663927,0.28818995000000003,0.649201837878477
0.021500000000000002,1.78844375,1.0,2442.567042249664,0.2156115098345859,1.3312069062225187,0.9108643775724262,0.2881676375,0.6501976571125884
0.022,1.7879,1.0,2465.1432912756436,0.22001130958073825,1.3307449125080504,0.913981210302702,0.2881448,0.6511728407207975
0.0225,1.78734375,1.0,2486.356122762712,0.22438642906215536,1.3302912454338935,0.9169233568552757,0.28812143749999997,0.6521291236917331
0.023,1.7867773331325032,1.0,2506.380600861625,0.22873700727538177,1.3298451195818128,0.9197035262844553,0.2880976479915651,0.6530682305103941
0.0235,1.786209970429969,1.0,2525.711905901594,0.2330631812173724,1.3294058748500381,0.9223333227931746,0.2880738187580587,0.653991612290437
0.024,1.7856426077274348,1.0,2544.406491895223,0.23736509055061578,1.3289733231475636,0.9248234242607954,0.28804998952455224,0.6548997214835738
0.0245,1.7850752450249006,1.0,2562.48149211368,0.24164287071174637,1.328547230104981,0.9271835762412025,0.28802616029104583,0.6557931045610481
0.025,1.7845078823223663,1.0,2579.955657868222,0.2458966556496137,1.3281273521841948,0.9294226936711099,0.28800233105753936,0.6566723238156551
0.025500000000000002,1.783940519619832,1.0,2596.8483577016373,0.2501265793130672,1.327713445847109,0.9315489452191422,0.28797850182403295,0.6575379381728763
0.026000000000000002,1.7833731569172977,1.0,2613.1795444859617,0.2543327756509564,1.3273052675556278,0.9335698258645414,0.2879546725905265,0.6583905032855194
0.0265,1.7828057942147635,1.0,2628.969723836608,0.25851537861213075,1.326902573771656,0.9354922215363465,0.28793084335702007,0.659230571624576
0.027,1.7822384315122293,1.0,2644.2231885760107,0.26267450443133805,1.3265052755075208,0.9373224827966457,0.2879070141235136,0.6600583707454015
0.0275,1.781671068809695,1.0,2658.9861969443145,0.26681031239749775,1.3261129001278276,0.9390664196761846,0.2878831848900072,0.6608749246499285
0.028,1.7811037061071606,1.0,2673.2739031393153,0.27092292999377654,1.325725267499402,0.9407294201138907,0.2878593556565007,0.6616806444912087
0.0285,1.7805363434046264,1.0,2687.10072771741,0.275012483584406,1.325342207539109,0.9423164599372497,0.2878355264229943,0.6624759183468728
0.029,1.7799689807020922,1.0,2700.4814251377575,0.2790790995336179,1.3249635501638133,0.9438321388407466,0.28781169718948785,0.6632611322223559
0.029500000000000002,1.779401617999558,1.0,2713.4310668397306,0.28312290420564407,1.32458912529038,0.9452807136751451,0.28778786795598144,0.6640366700995726
0.03,1.7788342552970238,1.0,2725.9650249609754,0.28714402396471606,1.3242187628356743,0.9466661283941673,0.287764038722475,0.6648029139837526
0.0305,1.7782668925944893,1.0,2738.098956697824,0.29114258517506564,1.3238522927165606,0.9479920410305608,0.28774020948896856,0.6655602439484285
0.031,1.7776995298919551,1.0,2749.848789306418,0.29511871420092456,1.323489544849904,0.9492618480284997,0.2877163802554621,0.6663090381785777
0.0315,1.777132167189421,1.0,2761.2307057453627,0.29907253740652445,1.3231303491525694,0.9504787062200831,0.2876925510219557,0.6670496730119215
0.032,1.7765648044868867,1.0,2772.261130959811,0.3030041811560971,1.322774535541422,0.9516455526995182,0.28766872178844927,0.667782522978378
0.0325,1.7759974417843525,1.0,2782.9567188069577,0.30691377181387425,1.3224219339333263,0.9527651228187863,0.2876448925549428,0.6685079608376715
0.033,1.775430079081818,1.0,2793.3327323696985,0.3108014335799432,1.3220723886865804,0.9538399675722,0.28762106332143633,0.6692263279519142
0.0335,1.7748627163792838,1.0,2803.39694131131,0.31466728238726566,1.3217258131000351,0.9548724728729168,0.2875972340879299,0.6699378226566368
0.034,1.7742953536767496,1.0,2813.172337992475,0.3185114556661297,1.3213819853346342,0.9558648576595301,0.2875734048544235,0.6706429193315336
0.0345,1.7737279909742154,1.0,2822.6683172804846,0.32233407143017684,1.321040807104854,0.9568192046103349,0.28754957562091704,0.6713418372878313
0.035,1.7731606282716812,1.0,2831.894395959555,0.32613524769304875,1.3207021801251702,0.9577374623014312,0.2875257463874106,0.6720347948436318
0.035500000000000004,1.772593265569147,1.0,2840.86020706395,0.32991510246838707,1.3203660061100586,0.9586214554008158,0.28750191715390416,0.6727220093402102
0.036000000000000004,1.7720259028666125,1.0,2849.575494425373,0.33367375376983344,1.3200321867739953,0.959472893975628,0.28747808792039775,0.6734036971576998
0.0365,1.7714585401640783,1.0,2858.0501074348717,0.3374113196110294,1.3197006238314561,0.9602933819988773,0.2874542586868913,0.6740800737301588
0.037,1.7708911774615441,1.0,2866.293996018894,0.34112791800561665,1.3193712189969171,0.9610844251327308,0.2874304294533848,0.6747513535600229
0.0375,1.77032381475901,1.0,2874.3172058293144,0.34482366696723676,1.319043873984854,0.9618474378572774,0.2874066002198784,0.6754177502319407
0.038,1.7697564520564757,1.0,2882.129873647403,0.3484986845095314,1.3187184905097429,0.9625837500064566,0.287382770986372,0.6760794764259915
0.0385,1.7691890893539413,1.0,2889.7422230025486,0.35215308864614225,1.3183949702860596,0.9632946127664298,0.2873589417528655,0.6767367439302909
0.039,1.768621726651407,1.0,2897.1601528420574,0.3557869878915954,1.3180732539113074,0.9639812059168873,0.28733511251935906,0.6773896847776563
0.0395,1.7680543639488728,1.0,2904.3935502984277,0.35940050220220227,1.3177532473392635,0.9646446401514596,0.28731128328585265,0.6780385006548242
0.04,1.7674870012463386,1.0,2911.455025027332,0.3629937576327988,1.3174348332085064,0.9652859617401146,0.28728745405234624,0.6786834396233665
0.0405,1.7669196385438044,1.0,2918.350056700627,0.36656686407601263,1.3171179575592342,0.9659061604464555,0.28726362481883977,0.6793246205148589
0.041,1.7663522758412702,1.0,2925.0841701307995,0.3701199314244714,1.316802566431646,0.9665061707867254,0.28723979558533336,0.6799621616783242
0.0415,1.7657849131387358,1.0,2931.6629334628174,0.3736530695708028,1.3164886058659397,0.9670868756899734,0.2872159663518269,0.6805961809854396
0.042,1.7652175504362015,1.0,2938.0919564303044,0.3771663884076344,1.3161760219023142,0.9676491098792745,0.2871921371183205,0.6812267958355464
0.0425,1.7646501877336673,1.0,2944.376888676336,0.38065999782759385,1.3158647605809675,0.9681936629979185,0.287168307884814,0.6818541231604851
0.043000000000000003,1.7640828250311331,1.0,2950.5234181387577,0.3841340077233088,1.3155547679420985,0.9687212825022093,0.2871444786513076,0.6824782794292359
0.043500000000000004,1.763515462328599,1.0,2956.537269500058,0.38758852798740684,1.3152459900259055,0.9692326763404933,0.28712064941780113,0.6830993806523811
0.044,1.7629480996260645,1.0,2962.424202702141,0.3910236685125156,1.314938372872587,0.969728515436201,0.2870968201842947,0.6837175423863756
0.0445,1.7623807369235303,1.0,2968.1900115248327,0.3944395391912628,1.3146318625223412,0.9702094359910547,0.28707299095078825,0.6843328797376358
0.045,1.761813374220996,1.0,2973.8405222299366,0.397836249916276,1.3143264050153671,0.9706760416231167,0.28704916171728184,0.6849455073664394
0.0455,1.7612460115184618,1.0,2979.380836943996,0.40121390751833724,1.3140219529632673,0.9711289054163661,0.2870253324837754,0.6855555263301516
0.046,1.7606786488159276,1.0,2984.81084916676,0.4045726004427501,1.3137185044884665,0.9715685725549541,0.28700150325026896,0.686162946242092
0.0465,1.7601112861133932,1.0,2990.142625140246,0.4079124685627334,1.3134159520650062,0.9719955604254158,0.2869776740167625,0.6867679878545464
0.047,1.759543923410859,1.0,2995.379023491105,0.41123361313487117,1.3131142684934198,0.9724103615500057,0.2869538447832561,0.6873707106691027
0.0475,1.7589765607083248,1.0,3000.5229189380557,0.4145361354157477,1.312813426574242,0.9728134445045709,0.2869300155497496,0.6879711739632697
0.048,1.7584091980057905,1.0,3005.5772017768118,0.417820136661947,1.312513399108006,0.9732052553062324,0.2869061863162432,0.6885694367919648
0.0485,1.7578418353032563,1.0,3010.544777380206,0.42108571813005335,1.3122141588952465,0.9735862187082176,0.2868823570827368,0.689165557988947
0.049,1.757274472600722,1.0,3015.4285657153005,0.42433298107665085,1.3119156787364972,0.9739567394088567,0.2868585278492303,0.6897595961682088
0.0495,1.7567071098981877,1.0,3020.2315008772125,0.42756202675832367,1.311617931432292,0.9743172031811691,0.28683469861572386,0.6903516097253168
0.05,1.7561397471956535,1.0,3024.9565306385493,0.4307729564316559,1.3113208897831647,0.9746679779289329,0.28681086938221745,0.6909416568387072
0.0505,1.7555723844931193,1.0,3029.6066160156943,0.43396587135323184,1.3110245265896499,0.9750094146746418,0.28678704014871104,0.6915297954709317
0.051000000000000004,1.755005021790585,1.0,3034.1847308516653,0.4371408727796355,1.310728814652281,0.9753418484843178,0.28676321091520457,0.6921160833698607
0.051500000000000004,1.7544376590880508,1.0,3038.6938614150695,0.44029806196745114,1.3104337267715924,0.9756655993337355,0.2867393816816981,0.6927005780698352
0.052000000000000005,1.7538702963855164,1.0,3043.137006015633,0.4434375401732628,1.3101392357481179,0.9759809729202635,0.2867155524481917,0.6932833368927722
0.0525,1.7533029336829822,1.0,3047.517174635852,0.4465594086536547,1.3098453143823916,0.9762882614241748,0.2866917232146853,0.693864416949225
0.053,1.752735570980448,1.0,3051.837388579398,0.449663768665211,1.3095519354749472,0.976587744222992,0.2866678939811788,0.6944438751393947
0.0535,1.7521682082779138,1.0,3056.096672478085,0.45275068969526133,1.3092591062529344,0.9768796874777692,0.28664406474767234,0.695021700253942
0.054,1.7516008455753795,1.0,3060.3006498799864,0.4558203018207487,1.3089667772933005,0.9771643485234098,0.28662023551416593,0.6955979927582656
0.0545,1.751033482872845,1.0,3064.4524532336927,0.4588727121591729,1.3086749206938726,0.9774419726996834,0.2865964062806595,0.6961728103782892
0.055,1.750466120170311,1.0,3068.553444902949,0.4619080127689842,1.3083835238158008,0.9777127944265749,0.28657257704715305,0.6967461806088948
0.0555,1.7498987574677767,1.0,3072.604992625681,0.4649262957086324,1.3080925740202354,0.9779770383206668,0.2865487478136466,0.6973181308468934
0.056,1.7493313947652425,1.0,3076.6084693864923,0.4679276530365676,1.3078020586683268,0.9782349196858238,0.2865249185801402,0.6978886883913901
0.0565,1.7487640320627083,1.0,3080.56525329315,0.4709121768112397,1.307511965121225,0.9784866449754338,0.28650108934663376,0.6984578804441406
0.057,1.748196669360174,1.0,3084.476727456894,0.4738799590910988,1.3072222807400804,0.9787324122280667,0.2864772601131273,0.6990257341098955
0.0575,1.7476293066576396,1.0,3088.3442798758697,0.47683109193459494,1.3069329928860431,0.9789724114782867,0.28645343087962083,0.6995922763967353
0.058,1.7470619439551054,1.0,3092.169303322242,0.47976566740017795,1.3066440889202637,0.9792068251442212,0.2864296016461144,0.7001575342163948
0.0585,1.7464945812525712,1.0,3095.953195232849,0.482683777546298,1.306355556203892,0.9794358283933781,0.286405772412608,0.700721534384579
0.059000000000000004,1.745927218550037,1.0,3099.69735760333,0.48558551443140496,1.3060673820980784,0.979659589488095,0.28638194317910154,0.7012843036212656
0.059500000000000004,1.7453598558475028,1.0,3103.4031968859686,0.48847097011394897,1.3057795539639734,0.9798782701119048,0.2863581139455951,0.7018458685509996
0.06,1.7447924931449683,1.0,3107.0721238909364,0.49134023665237986,1.3054920591627268,0.9800920256780141,0.28633428471208866,0.7024062557031794
0.0605,1.744225130442434,1.0,3110.705553691258,0.4941934061051477,1.305204885055489,0.9803010056210062,0.28631045547858225,0.7029654915123271
0.061,1.7436577677398999,1.0,3114.304905530716,0.4970305705307026,1.3049180190034104,0.9805053536728013,0.2862866262450758,0.7035236023183541
0.0615,1.7430904050373657,1.0,3117.8716027364585,0.49985182198749445,1.3046314483676411,0.9807052081238408,0.28626279701156937,0.704080614366815
0.062,1.7425230423348315,1.0,3121.40707263371,0.5026572525339733,1.3043451605093312,0.9809007020703898,0.2862389677780629,0.7046365538091499
0.0625,1.741955679632297,1.0,3124.909846374026,0.5054469008942006,1.3040591674261992,0.9810919609720368,0.2862151385445565,0.7051913989288474
0.063,1.7413883169297628,1.0,3128.383307129924,0.5082209071752762,1.303773439898305,0.9812791110138253,0.28619130931105,0.7057452079475475
0.0635,1.7408209542272286,1.0,3131.829251445229,0.5109793771896225,1.303487962238542,0.9814622718958521,0.2861674800775436,0.7062980126795195
0.064,1.7402535915246944,1.0,3135.2482656018533,0.5137223930249849,1.3032027290623194,0.981641557777027,0.28614365084403715,0.7068498249016637
0.0645,1.7396862288221602,1.0,3138.640937670487,0.5164500367691093,1.3029177349850467,0.9818170787075021,0.28611982161053073,0.7074006563505391
0.065,1.7391188661196257,1.0,3142.007857481379,0.5191623905097414,1.3026329746221332,0.9819889408064048,0.28609599237702427,0.7079505187224466
0.0655,1.7385515034170915,1.0,3145.3496165964657,0.521859536334627,1.3023484425889884,0.9821572464306462,0.28607216314351785,0.7084994236735114
0.066,1.7379841407145573,1.0,3148.666808281334,0.5245415563315117,1.3020641335010212,0.9823220943353111,0.2860483339100114,0.7090473828197617
0.0665,1.737416778012023,1.0,3151.960027478704,0.5272085325881412,1.3017800419736414,0.9824835798261101,0.286024504676505,0.7095944077372043
0.067,1.7368494153094889,1.0,3155.229870781891,0.5298605471922613,1.301496162622258,0.9826417949043319,0.28600067544299856,0.7101405099619034
0.0675,1.7362820526069547,1.0,3158.4769364090785,0.5324976822316178,1.3012124900622806,0.9827968284047285,0.2859768462094921,0.7106857009900527
0.068,1.7357146899044202,1.0,3161.701824178737,0.5351200197939562,1.3009290189091185,0.9829487661267078,0.28595301697598563,0.7112299922780466
0.0685,1.735147327201886,1.0,3164.905135484902,0.5377276419670224,1.3006457437781809,0.9830976909592196,0.2859291877424792,0.7117733952425525
0.069,1.7345799644993518,1.0,3168.0874732733814,0.5403206308385621,1.3003626592848772,0.9832436829996654,0.2859053585089728,0.7123159212605765
0.0695,1.7340126017968176,1.0,3171.249442018778,0.542899068496321,1.3000797600446166,0.9833868196671668,0.28588152927546634,0.7128575816695324
0.07,1.7334452390942834,1.0,3174.3916477023045,0.5454630370280448,1.2997970406728088,0.9835271758104911,0.2858577000419599,0.7133983877673031
