Time [s],Phi [rad],STIM [ ],Fsee [N],Gamma [ ],Lcerel [ ],q [ ],Lmtc [m],fisomrel [ ]
0.0,1.8,1.0,17.96756288277899,1.0418324763193728e-05,1.3793397008783392,0.005000028918874337,0.288653,0.5411396407446816
0.0005,1.79999375,1.0,18.276998274189328,0.005619569194994881,1.3793023595609146,0.012941675093107358,0.2886527375,0.5412299745903145
0.001,1.799975,1.0,21.61890713600307,0.011197257163765026,1.378938248433947,0.03561075552761481,0.28865195,0.542110343985371
0.0015,1.79994375,1.0,31.07032907973699,0.016743658713934892,1.378046110603518,0.07060468757326357,0.2886506375,0.5442638337294409
0.002,1.7999,1.0,53.584540324100665,0.022258949336715392,1.376367992046253,0.11472136881940734,0.2886488,0.5483008117444885
0.0025,1.79984375,1.0,97.12239601591361,0.02774330353923053,1.3739350006104762,0.16457851709806604,0.28864643749999996,0.5541218600715662
0.003,1.7997750000000001,1.0,160.96272720379878,0.033196894852233705,1.3712141730580074,0.2172841927773152,0.28864354999999997,0.5605868549772313
0.0035,1.79969375,1.0,237.68851291263232,0.0386198958297,1.3685845746341323,0.27061660691954076,0.2886401375,0.5667902147378054
0.004,1.7996,1.0,321.4723191680672,0.044012478059608166,1.366155945455995,0.3229194020625359,0.2886362,0.572480304869982
0.0045000000000000005,1.7994937500000001,1.0,409.27354124451415,0.04937481216912526,1.3639226782430034,0.373037925536595,0.2886317375,0.5776794778712993
0.005,1.799375,1.0,499.41943814794337,0.05470706781569563,1.3618582162506017,0.4202506590794625,0.28862675,0.5824573703186633
0.0055,1.79924375,1.0,590.7964327422825,0.06000941373450627,1.3599387175079745,0.46417666008908753,0.2886212375,0.5868753815010032
0.006,1.7991000000000001,1.0,682.5241514016478,0.06528201768164732,1.3581463049006484,0.5046826848796101,0.2886152,0.5909796692793745
0.006500000000000001,1.79894375,1.0,773.887612925174,0.07052504648936136,1.3564671451323844,0.5418032473220735,0.2886086375,0.5948060409476008
0.007,1.798775,1.0,864.2918519463991,0.07573866605112439,1.3548902974191877,0.5756790511934061,0.28860155,0.598382897951915
0.0075,1.79859375,1.0,953.2483554740227,0.08092304132942764,1.3534067001317647,0.6065119896244172,0.2885939375,0.6017337509629368
0.008,1.7984,1.0,1040.3627755152886,0.08607833633963105,1.3520085827277672,0.6345339506600991,0.2885858,0.6048786916007292
0.0085,1.79819375,1.0,1125.3245015421512,0.09120471428518931,1.3506890960563607,0.6599861078552347,0.2885771375,0.6078353249590964
0.009000000000000001,1.797975,1.0,1207.8841772685894,0.09630233706316337,1.3494422537175466,0.6831059117214253,0.28856795,0.6106189774132711
0.0095,1.79774375,1.0,1287.8784612338968,0.10137136650214623,1.3482623056802197,0.7041190286144517,0.2885582375,0.613244153196101
0.01,1.7975,1.0,1365.1713379550529,0.10641196283918766,1.3471443301580486,0.7232355235122743,0.288548,0.6157232590533157
0.0105,1.79724375,1.0,1439.6640170860026,0.11142428508871849,1.3460838898425875,0.7406478396452401,0.2885372375,0.6180674145134686
0.011,1.796975,1.0,1511.311746260727,0.11640849187076698,1.3450766815134942,0.7565302904129114,0.28852595000000003,0.6202872572564875
0.0115,1.79669375,1.0,1580.115170901439,0.121364741751136,1.3441185528452042,0.7710396492224477,0.2885141375,0.6223929259812577
0.012,1.7964,1.0,1646.0694312940655,0.126293191195295,1.3432060195778013,0.7843164504731971,0.28850180000000003,0.6243929468289602
0.0125,1.79609375,1.0,1709.1822697235168,0.13119399552557054,1.3423359395114611,0.7964861345901725,0.2884889375,0.6262949761441494
0.013000000000000001,1.7957750000000001,1.0,1769.497260793385,0.13606731000563302,1.341505177669727,0.8076603139691592,0.28847555,0.6281065485483678
0.0135,1.79544375,1.0,1827.0771949699324,0.14091328894856966,1.3407107543202155,0.8179382446441662,0.2884616375,0.6298347636816002
0.014,1.7951000000000001,1.0,1881.99035162624,0.14573208661414236,1.3399499508032764,0.8274082022705351,0.2884472,0.63148606807669
0.0145,1.79474375,1.0,1934.289722162724,0.15052385439593033,1.3392204871956894,0.8361487680671542,0.2884322375,0.6330658835035686
0.015,1.794375,1.0,1984.049278377157,0.15528874368751272,1.3385200835742348,0.844229789309817,0.28841675,0.6345795695691744
0.0155,1.79399375,1.0,2031.3513357038578,0.1600269050294668,1.3378465740707983,0.8517134384493169,0.2884007375,0.6360321823616856
0.016,1.7936,1.0,2076.2922246900357,0.16473848974205263,1.3371978238751603,0.8586550931502939,0.2883842,0.6374286593554095
0.0165,1.7931937500000001,1.0,2118.957297907341,0.16942364735068327,1.3365719699161238,0.8651042107820845,0.2883671375,0.63877330697315
0.017,1.792775,1.0,2159.413287942001,0.17408252470722435,1.3359674719610473,0.8711050388805663,0.28834955,0.6400696995666548
0.0175,1.7923437500000001,1.0,2197.737640421968,0.17871526866354165,1.335382789777289,0.8766971372006711,0.2883314375,0.6413213785752641
0.018000000000000002,1.7919,1.0,2234.0176182455302,0.18332202607150083,1.334816383132207,0.8819159290286663,0.2883128,0.6425318545480456
0.0185,1.79144375,1.0,2268.34000569669,0.18790294270991184,1.3342668060448697,0.8867932079358661,0.2882936375,0.6437044080885251
0.019,1.790975,1.0,2300.797338083956,0.19245816505285965,1.3337326339467643,0.8913575401635897,0.28827395,0.6448422482109535
0.0195,1.79049375,1.0,2331.467319782661,0.1969878372187217,1.3332126585386703,0.8956346793102136,0.2882537375,0.6459481000943608
0.02,1.79,1.0,2360.4165343799896,0.20149210122627015,1.3327058385866384,0.8996478716648624,0.288233,0.6470243143187555
0.0205,1.78949375,1.0,2387.7166267407315,0.20597109909427713,1.3322111328567194,0.9034180994593942,0.2882117375,0.6480732245091043
0.021,1.788975,1.0,2413.443881000506,0.2104249728415148,1.3317275001149644,0.9069643321827916,0.28818995000000003,0.6490971481743504
0.021500000000000002,1.78844375,1.0,2437.670389816501,0.21485386298304318,1.3312539802366494,0.9103037635401692,0.2881676375,0.6500982161268414
0.022,1.7879,1.0,2460.4749671300256,0.21925791177304818,1.3307895842669997,0.9134519825523737,0.2881448,0.65107860631526
0.0225,1.78734375,1.0,2481.923689388928,0.2236372588235528,1.3303334774302689,0.9164231790460093,0.28812143749999997,0.6520401584465116
0.023,1.786775,1.0,2502.0718525318825,0.22799204113232652,1.3298849544644118,0.9192302853088108,0.28809755,0.652984428628868
0.0235,1.78619375,1.0,2520.977157849622,0.23232239569713897,1.3294433101073824,0.921885083238986,0.28807313749999996,0.6539129637292447
0.024,1.7856,1.0,2538.6995106400236,0.23662845951575973,1.3290078390971356,0.9243983225679389,0.2880482,0.6548273016984482
0.0245,1.78499375,1.0,2555.3008298913073,0.24091036958595838,1.3285778361716256,0.9267798255098723,0.2880227375,0.6557289718647078
0.025,1.784375,1.0,2570.8335047820565,0.24516825960549632,1.3281527025049733,0.9290385962298959,0.28799675,0.6566192724447784
0.025500000000000002,1.78374375,1.0,2585.3626603388243,0.24940226905309035,1.327731734686473,0.9311828700915041,0.2879702375,0.6574997132633779
0.026000000000000002,1.7831000000000001,1.0,2598.9329422465808,0.2536125306748009,1.3273144342288075,0.933220233483194,0.2879432,0.6583713684485832
0.0265,1.78244375,1.0,2611.586448786359,0.25779917599765695,1.3269003370730668,0.9351576606161252,0.2879156375,0.6592352347624851
0.027,1.781775,1.0,2623.3663022107544,0.26196233654868756,1.3264889791603407,0.9370015665922722,0.28788755,0.6600923038483375
0.0275,1.7810937500000001,1.0,2634.316560090613,0.2661021438549218,1.3260798964317198,0.938757859676176,0.2878589375,0.6609435623184914
0.028,1.7804,1.0,2644.4821314359488,0.27021872944338865,1.3256726248282937,0.9404319880446742,0.2878298,0.6617899918286015
0.0285,1.77969375,1.0,2653.9052691399097,0.27431222347957956,1.3252667318951927,0.9420289856688666,0.2878001375,0.6626325035785103
0.029,1.778975,1.0,2662.6222270477956,0.278382754504864,1.3248618466035602,0.943553513506502,0.28776995,0.6634718769812658
0.029500000000000002,1.7782437500000001,1.0,2670.6841521238757,0.28243045758031776,1.3244574663053013,0.9450098688658259,0.2877392375,0.6643091599449755
0.03,1.7775,1.0,2678.1192155865233,0.28645545816731854,1.324053304658856,0.9464020584156237,0.287708,0.6651449481494727
0.0305,1.77674375,1.0,2684.955998366688,0.29045788172724407,1.3236490753226648,0.9477337977193818,0.2876762375,0.6659798343201021
0.031,1.775975,1.0,2691.2234547896874,0.2944378537214722,1.3232444919551678,0.9490085360477598,0.28764395,0.666814408229099
0.0315,1.7751937500000001,1.0,2696.950878074936,0.29839549961138045,1.3228392682148051,0.9502294787850044,0.2876111375,0.6676492566917382
0.032,1.7744,1.0,2702.167867653193,0.3023309448583468,1.3224331177600175,0.9513996076886239,0.2875778,0.6684849635572535
0.0325,1.77359375,1.0,2706.9042983025306,0.3062443149237488,1.3220257542492446,0.9525216992311272,0.2875439375,0.6693221096945317
0.033,1.772775,1.0,2711.1856288893755,0.31013573336723294,1.321616933861543,0.9535983456589728,0.28750955,0.6701611857573335
0.0335,1.7719437500000002,1.0,2715.0367244308545,0.3140053234851065,1.3212064200638558,0.954631966066142,0.2874746375,0.671002664890822
0.034,1.7711000000000001,1.0,2718.493338192092,0.3178532123148864,1.320793878808581,0.9556248093704575,0.2874392,0.6718472172160252
0.0345,1.7702437500000001,1.0,2721.573035063662,0.32167951918214777,1.3203791433066225,0.9565789939153287,0.2874032375,0.6726951675194982
0.035,1.7693750000000001,1.0,2724.2935032403598,0.3254843634124656,1.3199620467688842,0.9574965011846058,0.28736675,0.6735468387355433
0.035500000000000004,1.76849375,1.0,2726.672541768129,0.3292678643314152,1.3195424224062693,0.9583791862297556,0.2873297375,0.6744025519219814
0.036000000000000004,1.7676,1.0,2728.728048707804,0.33303014126457153,1.3191201034296818,0.9592287871879769,0.2872922,0.6752626262341492
0.0365,1.76669375,1.0,2730.4780099157906,0.3367713135375097,1.3186949230500256,0.9600469339798949,0.2872541375,0.6761273788971247
0.037,1.765775,1.0,2731.940488441402,0.340491500475805,1.3182667144782039,0.96083515626598,0.28721555,0.6769971251761782
0.0375,1.7648480858991866,1.0,2733.3535105964056,0.3441908190560177,1.3178352716703614,0.9615948863886785,0.28717661960776586,0.6778722579152665
0.038,1.763920997310218,1.0,2735.090716523372,0.34786938765074127,1.3174008095968839,0.9623275114796562,0.28713768188702915,0.6787523152654422
0.0385,1.7629939087212492,1.0,2737.118204968582,0.35152732601789044,1.3169637175792377,0.9630343526397407,0.28709874416629244,0.6796364851350423
0.039,1.7620668201322804,1.0,2739.415306207445,0.35516474764731465,1.3165241860781867,0.963716633193011,0.2870598064455558,0.6805243610572114
0.0395,1.7611397315433117,1.0,2741.961357027371,0.3587817660288634,1.3160824055544948,0.9643755052334801,0.2870208687248191,0.6814155385806245
0.04,1.760212642954343,1.0,2744.735690828646,0.36237849465238625,1.3156385664689256,0.9650120545394446,0.2869819310040824,0.6823096152979644
0.0405,1.7592855543653743,1.0,2747.7176285290675,0.3659550470077327,1.3151928592822428,0.9656273050990752,0.2869429932833457,0.68320619087208
0.041,1.7583584657764055,1.0,2750.886470273609,0.36951153658475216,1.3147454744552103,0.9662222232817499,0.286904055562609,0.684104867059836
0.0415,1.7574313771874368,1.0,2754.2214879476096,0.3730480768732943,1.3142966024485916,0.9667977216862389,0.28686511784187235,0.6850052477336479
0.042,1.756504288598468,1.0,2757.706644322249,0.37656477825244034,1.3138463909873923,0.9673546585882297,0.28682618012113564,0.6859070244393778
0.0425,1.7555772000094994,1.0,2761.3242603580775,0.3800617545745081,1.3133950023767629,0.9678938473761678,0.286787242400399,0.6868098612412907
0.043000000000000003,1.7546501114205306,1.0,2765.057389099658,0.3835391193382769,1.3129425919766988,0.9684160570449276,0.2867483046796623,0.6877134379046728
0.043500000000000004,1.7537230228315621,1.0,2768.8968491329424,0.38699698033386387,1.3124892447154228,0.9689220091331198,0.2867093669589256,0.688617576330308
0.044,1.7527959342425934,1.0,2772.8334391429985,0.39043544535138636,1.3120350455211578,0.9694123872636058,0.2866704292381889,0.6895220993833195
0.0445,1.7518688456536247,1.0,2776.8579362308305,0.3938546221809615,1.3115800793221257,0.9698878395142019,0.28663149151745226,0.6904268308980162
0.045,1.750941757064656,1.0,2780.961094388134,0.39725461861270667,1.3111244310465497,0.9703489806177602,0.28659255379671555,0.6913315956822728
0.0455,1.7500146684756872,1.0,2785.133643133758,0.40063554243673893,1.310668185622652,0.9707963940054465,0.28655361607597885,0.6922362195214585
0.046,1.7490875798867185,1.0,2789.366286309157,0.40399750144317564,1.3102114279786554,0.9712306337058132,0.2865146783552422,0.6931405291818988
0.0465,1.7481604912977498,1.0,2793.6507896496782,0.40734060161926355,1.3097542332619425,0.9716522251505108,0.2864757406345055,0.69404437173567
0.047,1.747233402708781,1.0,2797.984650496953,0.41066494148737615,1.309296624945692,0.9720616631162717,0.28643680291376883,0.6949476970574103
0.0475,1.7463063141198123,1.0,2802.352404518142,0.4139706431026264,1.3088387427160675,0.9724594295930711,0.2863978651930321,0.6958502263952764
0.048,1.7453792255308436,1.0,2806.7507579909598,0.4172578077279716,1.3083806167370033,0.9728459728154971,0.2863589274722954,0.6967518980258465
0.0485,1.7444521369418748,1.0,2811.176407071939,0.42052653662636913,1.3079222771724348,0.9732217195881258,0.28631998975155876,0.6976526505769842
0.049,1.7435250483529061,1.0,2815.6260376434375,0.42377693106077635,1.3074637541862968,0.9735870765083732,0.28628105203082205,0.6985524230282796
0.0495,1.7425979597639376,1.0,2820.0963251813146,0.42700909229415057,1.3070050779425242,0.9739424311087846,0.2862421143100854,0.6994511547114306
0.05,1.7416708711749689,1.0,2824.5839346418843,0.4302231215894491,1.3065462786050517,0.9742881529247609,0.2862031765893487,0.7003487853105678
0.0505,1.7407437825860002,1.0,2829.0855203697383,0.43341912020962936,1.3060873863378146,0.974624594493215,0.286164238868612,0.7012452548625173
0.051000000000000004,1.7398166939970314,1.0,2833.5977260257087,0.43659718941764863,1.3056284313047475,0.9749520922872095,0.2861253011478753,0.702140503757013
0.051500000000000004,1.7388896054080627,1.0,2838.1171845341064,0.43975743047646426,1.3051694436697856,0.97527096759121,0.2860863634271386,0.7030344727368417
0.052000000000000005,1.737962516819094,1.0,2842.6405180518336,0.4428999446490336,1.3047104535968637,0.9755815273212225,0.28604742570640196,0.7039271028979388
0.0525,1.7370354282301252,1.0,2847.1643379556276,0.44602483319831393,1.3042514912499168,0.9758840647937358,0.28600848798566525,0.7048183356894191
0.053,1.7361083396411565,1.0,2851.6899752053264,0.4491321747828713,1.3037925447269938,0.976178855499412,0.28596955026492854,0.705708194414214
0.0535,1.7351812510521878,1.0,2856.211155978764,0.45222209506269645,1.3033336697377855,0.9764661719352751,0.2859306125441919,0.706596571439439
0.054,1.734254162463219,1.0,2860.7258484822664,0.4552946946438646,1.302874884152187,0.9767462699791867,0.2858916748234552,0.7074834328756354
0.0545,1.7333270738742503,1.0,2865.2333372537055,0.45835006696270153,1.302416194106015,0.9770193931739044,0.2858527371027185,0.7083687676735747
0.055,1.7323999852852816,1.0,2869.732904711971,0.4613883054555334,1.3019576057350863,0.9772857747725264,0.2858137993819818,0.7092525648556574
0.0555,1.7314728966963129,1.0,2874.223831170822,0.464409503558686,1.3014991251752177,0.9775456382592409,0.2857748616612451,0.710134813515875
0.056,1.7305458081073444,1.0,2878.7053948530015,0.4674137547084853,1.3010407585622261,0.9777991978395584,0.28573592394050845,0.7110155028197688
0.0565,1.7296187195183756,1.0,2883.176871905119,0.4704011523412573,1.3005825120319285,0.9780466589020512,0.2856969862197718,0.7118946220043862
0.057,1.728691630929407,1.0,2887.637536413871,0.4733717898933279,1.3001243917201413,0.9782882184534796,0.2856580484990351,0.7127721603782373
0.0575,1.7277645423404382,1.0,2892.086660422594,0.47632576080102307,1.2996664037626815,0.9785240655290394,0.2856191107782984,0.7136481073212422
0.058,1.7268374537514695,1.0,2896.5235139489873,0.47926315850066875,1.2992085542953662,0.9787543815793425,0.2855801730575617,0.714522452284684
0.0585,1.7259103651625007,1.0,2900.9473650033647,0.48218407642859085,1.2987508494540119,0.978979340835629,0.285541235336825,0.7153951847911555
0.059000000000000004,1.724983276573532,1.0,2905.357479608153,0.48508860802111536,1.2982932953744357,0.9791991106545948,0.28550229761608836,0.7162662944345015
0.059500000000000004,1.7240561879845633,1.0,2909.7531218177087,0.4879768467145682,1.297835898192454,0.9794138518441281,0.28546335989535165,0.7171357708797645
0.06,1.7231290993955946,1.0,2914.133553739419,0.49084888594527526,1.2973786640438842,0.9796237189711513,0.28542442217461494,0.7180036038631206
0.0605,1.7222020108066258,1.0,2918.498323024197,0.4937048113794218,1.2969215965375847,0.9798288598988887,0.2853854844538783,0.718869787976951
0.061,1.721274922217657,1.0,2922.848337830916,0.49654468645040306,1.2964646873227386,0.9800294144845408,0.2853465467331416,0.7197343404675729
0.0615,1.7203478336286886,1.0,2927.181819416554,0.4993686524641076,1.296007951658721,0.9802255245927364,0.28530760901240493,0.7205972339120161
0.062,1.7194207450397199,1.0,2931.4988151159946,0.502176793965816,1.29555138874511,0.9804173215204129,0.2852686712916682,0.7214584713355767
0.0625,1.7184936564507511,1.0,2935.7993727323187,0.5049691955008092,1.2950949977814836,0.9806049316856716,0.28522973357093157,0.7223180557536548
0.063,1.7175665678617824,1.0,2940.0835405333,0.5077459416143677,1.29463877796742,0.9807884768457096,0.28519079585019486,0.7231759901717647
0.0635,1.7166394792728137,1.0,2944.351367248943,0.5105071168517723,1.2941827285024972,0.9809680743034553,0.2851518581294582,0.7240322775855423
0.064,1.715712390683845,1.0,2948.602902067702,0.5132528057583036,1.293726848586293,0.9811438371035699,0.2851129204087215,0.7248869209807556
0.0645,1.7147853020948762,1.0,2952.838194634213,0.5159830928792424,1.2932711374183858,0.9813158742184366,0.2850739826879848,0.7257399233333108
0.065,1.7138582135059075,1.0,2957.0572950458854,0.5186980627598693,1.2928155941983535,0.981484290724718,0.28503504496724813,0.7265912876092641
0.0655,1.7129311249169388,1.0,2961.2602538497104,0.5213977999454651,1.2923602181257743,0.9816491879710266,0.2849961072465114,0.7274410167648269
0.066,1.71200403632797,1.0,2965.447122040069,0.5240823889813104,1.291905008400226,0.9818106637372135,0.28495716952577477,0.7282891137463776
0.0665,1.7110769477390013,1.0,2969.6179510546817,0.526751914412686,1.2914499642212869,0.9819688123857544,0.28491823180503806,0.7291355814904674
0.067,1.7101498591500326,1.0,2973.772792772657,0.5294064607848724,1.290995084788535,0.9821237250056764,0.28487929408430135,0.7299804229238308
0.0675,1.7092227705610639,1.0,2977.911699511078,0.5320461126431506,1.2905403693015483,0.9822754895494419,0.2848403563635647,0.7308236409633928
0.068,1.7082956819720954,1.0,2982.0347240219844,0.5346709545328011,1.2900858169599048,0.9824241909631874,0.284801418642828,0.7316652385162775
0.0685,1.7073685933831266,1.0,2986.141919489849,0.5372810709991047,1.2896314269631828,0.9825699113106752,0.28476248092209133,0.7325052184798166
0.069,1.706441504794158,1.0,2990.2333395282753,0.539876546587342,1.2891771985109601,0.9827127298913074,0.2847235432013546,0.7333435837415585
0.0695,1.7055144162051892,1.0,2994.3090381775023,0.5424574658427938,1.288723130802815,0.9828527233525305,0.2846846054806179,0.7341803371792747
0.07,1.7045873276162204,1.0,2998.3690699014073,0.5450239133107406,1.2882692230383255,0.9829899657969206,0.28464566775988126,0.73501548166097
0.07050000000000001,1.7036602390272517,1.0,3002.4134836788885,0.5475758979047289,1.2878154744682504,0.9831245243219766,0.28460673003914455,0.7358490199509435
0.07100000000000001,1.702733150438283,1.0,3006.4427021709425,0.5501135900698624,1.287361881110426,0.9832564733889215,0.2845677923184079,0.7366809607292011
0.07150000000000001,1.7018060618493143,1.0,3010.456879059032,0.5526370725943766,1.2869084413228071,0.9833858798955889,0.2845288545976712,0.737511308347313
