Time [s],Phi [rad],STIM [ ],Fsee [N],Gamma [ ],Lcerel [ ],q [ ],Lmtc [m],fisomrel [ ]
0.0,1.8,1.0,17.96756269536546,1.0002970553518018e-05,1.3793397008993356,0.005000026667543507,0.288653,0.541139640693886
0.0005,1.79999375,1.0,18.276858207057696,0.005619156170593692,1.379302375119568,0.01294052194549998,0.2886527375,0.5412299369536175
0.001,1.799975,1.0,21.61845755322667,0.011196846456104189,1.378938294351891,0.03560859113575294,0.28865195,0.5421102330155598
0.0015,1.79994375,1.0,31.069222550550382,0.016743250310019105,1.3780462048751863,0.07060172471246864,0.2886506375,0.5442636064396325
0.002,1.7999,1.0,53.58212191263097,0.022258543223623015,1.376368148938946,0.11471785970077414,0.2886488,0.5483004351539262
0.0025,1.79984375,1.0,97.11830541690385,0.02774289970411124,1.3739351977252454,0.16457469929259363,0.28864643749999996,0.5541213899942016
0.003,1.7997750000000001,1.0,160.95738919987244,0.033196493282310176,1.3712143728634008,0.21728025393878497,0.28864354999999997,0.5605863819503574
0.0035,1.79969375,1.0,237.68247308479724,0.03861949651226649,1.3685847606759607,0.2706126891237189,0.2886401375,0.5667897774153214
0.004,1.7996,1.0,321.4658884486197,0.04401208098202988,1.366156115780573,0.3229156084226064,0.2886362,0.5724799071316441
0.0045000000000000005,1.7994937500000001,1.0,409.2668788814087,0.04937441731883747,1.3639228346335903,0.37303432427454497,0.2886317375,0.5776791148987643
0.005,1.799375,1.0,499.41263812561857,0.054706675180201995,1.361858360750145,0.4202472897575267,0.28862675,0.5824570368469957
0.0055,1.79924375,1.0,590.7895695044099,0.06000902330139375,1.3599388515987054,0.4641735405907784,0.2886212375,0.5868750736919807
0.006,1.7991000000000001,1.0,682.5172774254611,0.06528162943855842,1.358146429851,0.5046798180741866,0.2886152,0.5909793838806847
0.006500000000000001,1.79894375,1.0,773.8805283773859,0.07052466042435421,1.3564672660700436,0.5418006288157409,0.2886086375,0.5948057660094028
0.007,1.798775,1.0,864.2850465337812,0.07573828215154167,1.3548904073482404,0.57567666295847,0.28860155,0.598382649146046
0.0075,1.79859375,1.0,953.2425564489747,0.08092265958271942,1.3534067893266581,0.6065098090640787,0.2885939375,0.6017335499292829
0.008,1.7984,1.0,1040.3440138564222,0.08607795634553607,1.3520088589560662,0.6345320826539338,0.2885858,0.6048780714810215
0.0085,1.79819375,1.0,1125.3140983684857,0.09120433655298732,1.3506892433267188,0.659984346669584,0.2885771375,0.6078349955833336
0.009000000000000001,1.797975,1.0,1207.899879606809,0.09630196214140442,1.3494420391630366,0.683104116496056,0.28856795,0.610619455566259
0.0095,1.79774375,1.0,1287.8919183686578,0.1013709936303086,1.3482621276058542,0.7041174090948138,0.2885582375,0.6132445487099609
0.01,1.7975,1.0,1365.1666978416827,0.10641159153922114,1.3471443897960058,0.7232341657985756,0.288548,0.6157231270190012
0.0105,1.79724375,1.0,1439.659031187019,0.11142391582452324,1.346083952244896,0.7406466048429212,0.2885372375,0.6180672767810989
0.011,1.796975,1.0,1511.32191231761,0.11640812525448452,1.3450765573304921,0.7565290772265574,0.28852595000000003,0.6202875305514528
0.0115,1.79669375,1.0,1580.1206648488755,0.12136437700673283,1.3441184872114675,0.7710385637327758,0.2885141375,0.6223930700232496
0.012,1.7964,1.0,1646.0567478363655,0.12629282772258457,1.3432061680351854,0.7843155473012474,0.28850180000000003,0.6243926218833038
0.0125,1.79609375,1.0,1709.1737065909765,0.13119363424824004,1.3423360378732456,0.7964852880274376,0.2884889375,0.6262947613942849
0.013000000000000001,1.7957750000000001,1.0,1769.5065076437386,0.13606695145005582,1.3415050732804972,0.8076594572021724,0.28847555,0.6281067759045991
0.0135,1.79544375,1.0,1827.091486396668,0.1409129327850483,1.3407105955446503,0.8179374340181998,0.2884616375,0.6298351086849799
0.014,1.7951000000000001,1.0,1881.992621728523,0.1457317317102339,1.3399499259534149,0.8274075009346618,0.2884472,0.6314861219523844
0.0145,1.79474375,1.0,1934.2788749280553,0.15052350063999528,1.3392206043197878,0.8361481691643703,0.2884322375,0.6330656301177231
0.015,1.794375,1.0,1984.0510137837716,0.15528839259985863,1.3385200650725064,0.8442291912132178,0.28841675,0.6345796095130932
0.0155,1.79399375,1.0,2031.3713067690503,0.16002655730032708,1.3378463636469216,0.8517128227664591,0.2884007375,0.6360326357479338
0.016,1.7936,1.0,2076.3114712425645,0.16473814410147447,1.3371976232917169,0.8586545226472567,0.2883842,0.6374290907092393
0.0165,1.7931937500000001,1.0,2118.9575558034203,0.1694233023633747,1.3365719672555763,0.8651037369607125,0.2883671375,0.6387733126840285
0.017,1.792775,1.0,2159.390819487974,0.17408218017241853,1.3359677015726419,0.8711046639874557,0.28834955,0.6400692075892738
0.0175,1.7923437500000001,1.0,2197.7184711168957,0.1787149266123102,1.3353829839583056,0.8766967802859856,0.2883314375,0.6413209632373181
0.018000000000000002,1.7919,1.0,2234.0112751274846,0.1833216871178223,1.3348164468626864,0.8819155630874631,0.2883128,0.6425317184637943
0.0185,1.79144375,1.0,2268.3435043329755,0.1879026067684637,1.3342667711604157,0.8867928414375166,0.2882936375,0.6437044824553262
0.019,1.790975,1.0,2300.7969563419506,0.19245783064374344,1.3337326377261238,0.8913572061256632,0.28827395,0.6448422401669764
0.0195,1.79049375,1.0,2331.4518144663048,0.19698750271428284,1.3332128110331303,0.895634400670475,0.2882537375,0.6459477760312482
0.02,1.79,1.0,2360.397187412562,0.20149176804958463,1.332706027693307,0.8996476192229275,0.288233,0.647023913062948
0.0205,1.78949375,1.0,2387.7047777994935,0.20597076878018997,1.332211248009935,0.903417847221298,0.2882117375,0.6480729805346984
0.021,1.788975,1.0,2413.4396591022787,0.21042464547733802,1.3317275409259162,0.9069640798473394,0.28818995000000003,0.6490970618343259
0.021500000000000002,1.78844375,1.0,2437.6708943214417,0.21485353871226792,1.3312539753841524,0.9103035171283509,0.2881676375,0.650098226378174
0.022,1.7879,1.0,2460.471200489013,0.21925758905621884,1.330789620327546,0.9134517583458396,0.2881448,0.6510785302409374
0.0225,1.78734375,1.0,2481.9046482099375,0.22363693479282357,1.3303336589349517,0.9164229946002874,0.28812143749999997,0.6520397760671142
0.023,1.786775,1.0,2502.050255384601,0.22799171797249504,1.3298851595026286,0.9192301157683477,0.28809755,0.6529839972574147
0.0235,1.78619375,1.0,2520.964129010462,0.23232207549778405,1.3294434333353278,0.9218849089327967,0.28807313749999996,0.6539127048221667
0.024,1.7856,1.0,2538.698012501104,0.23662814289889733,1.329007853217109,0.9243981389574607,0.2880482,0.6548272720710117
0.0245,1.78499375,1.0,2555.3055390678005,0.24091005570604151,1.3285777919320325,0.9267796415538354,0.2880227375,0.6557290645697385
0.025,1.784375,1.0,2570.842072108064,0.2451679494494233,1.328152622264158,0.9290384162285973,0.28799675,0.6566194403735869
0.025500000000000002,1.78374375,1.0,2585.364554316853,0.24940195965924944,1.3277317169975456,0.9311827088024859,0.2879702375,0.6574997502354615
0.026000000000000002,1.7831000000000001,1.0,2598.9195298622944,0.2536122183293219,1.327314559167337,0.9332201011397306,0.2879432,0.6583711076437878
0.0265,1.78244375,1.0,2611.5703247958504,0.25779886369902955,1.3269004869063785,0.9351575382625763,0.2879156375,0.6592349223863925
0.027,1.781775,1.0,2623.3582339955806,0.26196202715295047,1.3264890539662175,0.937001439386525,0.28788755,0.6600921480875137
0.0275,1.7810937500000001,1.0,2634.320865292967,0.26610183862955694,1.326079856598374,0.9387577223160837,0.2878589375,0.6609436451555607
0.028,1.7804,1.0,2644.4966176536914,0.27021842806732127,1.3256724910543676,0.9404318438647962,0.2878298,0.6617902696761571
0.0285,1.77969375,1.0,2653.924612438755,0.2743119254047157,1.3252665535857182,0.9420288418156562,0.2878001375,0.6626328734645062
0.029,1.778975,1.0,2662.644628279903,0.2783824605802126,1.3248616404439453,0.9435533725561034,0.28776995,0.6634723041073622
0.029500000000000002,1.7782437500000001,1.0,2670.6970395688713,0.2824301635322843,1.3244573478805686,0.9450097448805799,0.2877392375,0.6643094049946037
0.03,1.7775057483644787,1.0,2678.4035896849036,0.28645515728589227,1.3240532912326848,0.9464019505093906,0.28770824143130813,0.6651449758968904
0.0305,1.7767677362380168,1.0,2686.074065741504,0.29045757929178284,1.323649662118994,0.9477337717274007,0.2876772449219967,0.6659786231194549
0.031,1.7760297241115548,1.0,2693.70223411812,0.29443755402182803,1.3232465204634976,0.9490086971391399,0.28764624841268527,0.6668102264293421
0.0315,1.7752917119850928,1.0,2701.2826352949546,0.2983952051088079,1.322843914080487,0.9502299661303323,0.2876152519033739,0.6676396911390021
0.032,1.7745536998586309,1.0,2708.8097821586334,0.3023306561855025,1.3224418907842534,0.9514005914237934,0.2875842553940625,0.6684669230467971
0.0325,1.7738156877321691,1.0,2716.2781605949335,0.30624403088469176,1.3220404983890883,0.9525233777166785,0.2875532588847511,0.6692918284352921
0.033,1.7730776756057072,1.0,2723.682230132694,0.31013545283915583,1.3216397847092827,0.9536009385724424,0.2875222623754397,0.6701143140694079
0.0335,1.7723396634792452,1.0,2731.0164246371987,0.31400504568167464,1.3212397975591277,0.9546357117494846,0.2874912658661283,0.6709342871944218
0.034,1.7716016513527832,1.0,2738.2751530559594,0.31785293304502826,1.3208405847529148,0.955629973127699,0.2874602693568169,0.6717516555338257
0.0345,1.7708636392263213,1.0,2745.455299266746,0.32167923342363,1.3204421714555818,0.9565858455664042,0.2874292728475055,0.67256637357408
0.035,1.7701256270998595,1.0,2752.553829664863,0.3254840712809216,1.3200445819913087,0.9575053160112145,0.2873982763381941,0.6733783977615067
0.035500000000000004,1.7693876149733976,1.0,2759.566787066031,0.3292675733014461,1.3196478489480434,0.9583902458070712,0.2873672798288827,0.6741876679301302
0.036000000000000004,1.7686496028469356,1.0,2766.494309357981,0.33302985614178987,1.319251967818195,0.9592423725579335,0.2873362833195713,0.6749941997583231
0.0365,1.7679115907204737,1.0,2773.3365417750283,0.3367710364585391,1.318856934094172,0.96006332565803,0.2873052868102599,0.6757980088650026
0.037,1.767173578594012,1.0,2780.093636812632,0.3404912309082802,1.3184627432683835,0.9608546342565777,0.28727429030094853,0.6765991108098713
0.0375,1.76643556646755,1.0,2786.7657541432577,0.34419055614759947,1.3180693908332377,0.9616177345509795,0.2872432937916371,0.6773975210936642
0.038,1.765697554341088,1.0,2793.353060532499,0.3478691288330832,1.3176768722811436,0.9623539764719186,0.28721229728232567,0.6781932551583865
0.0385,1.764959542214626,1.0,2799.855729755113,0.35152706562131764,1.3172851831045096,0.9630646298171772,0.2871813007730143,0.6789863283875568
0.039,1.764221530088164,1.0,2806.2739425121426,0.3551644831688892,1.316894318795745,0.9637508898851544,0.2871503042637029,0.6797767561064438
0.0395,1.763483517961702,1.0,2812.607886348219,0.3587814981323842,1.3165042748472577,0.9644138826538586,0.2871193077543915,0.6805645535823073
0.04,1.7627455058352404,1.0,2818.858477114244,0.36237820729584413,1.3161150402976778,0.9650546652855371,0.2870883112450801,0.6813497490357066
0.0405,1.7620074937087784,1.0,2825.0269098380822,0.36595474033618897,1.3157266017791667,0.9656742409318149,0.2870573147357687,0.6821323754112867
0.041,1.7612694815823164,1.0,2831.114179675174,0.36951122719875873,1.3153389478041386,0.9662735566135402,0.2870263182264573,0.6829124617276108
0.0415,1.7605314694558545,1.0,2837.121799831802,0.3730477757102214,1.314952062352527,0.9668535025818903,0.28699532171714587,0.6836900459817918
0.042,1.7597934573293925,1.0,2843.051295112133,0.37656449369724493,1.3145659294042655,0.9674149203704044,0.2869643252078345,0.6844651660013732
0.0425,1.7590554452029308,1.0,2848.9042016473554,0.3800614889864972,1.3141805329392877,0.9679586059614588,0.28693332869852306,0.6852378594451056
0.043000000000000003,1.7583174330764688,1.0,2854.6820666318454,0.3835388694046463,1.313795856937527,0.9684853127158888,0.2869023321892117,0.6860081638037089
0.043500000000000004,1.7575794209500069,1.0,2860.386448063952,0.3869967427783601,1.313411885378917,0.9689957540857049,0.2868713356799003,0.6867761164006143
0.044,1.756841408823545,1.0,2866.0189144931105,0.39043521693430655,1.3130286022433915,0.9694906061279753,0.2868403391705889,0.6875417543926934
0.0445,1.7561033966970832,1.0,2871.581044772844,0.39385439969915365,1.3126459915108835,0.9699705098362951,0.2868093426612775,0.6883051147709713
0.045,1.7553653845706212,1.0,2877.074427818319,0.3972543988995693,1.3122640371613272,0.9704360733047462,0.28677834615196607,0.6890662343613179
0.0455,1.7546273724441592,1.0,2882.500662371162,0.4006353223622215,1.3118827231746557,0.9708878737379181,0.2867473496426547,0.689825149825131
0.046,1.7538893603176973,1.0,2887.8613567685316,0.4039972779137782,1.311502033530803,0.9713264593193287,0.2867163531333433,0.6905818976599952
0.0465,1.7531513481912353,1.0,2893.1581287188437,0.40734037338090734,1.3111219522097022,0.9717523509494941,0.2866853566240319,0.6913365142003309
0.047,1.7524133360647733,1.0,2898.392605082897,0.41066471659027687,1.3107424631912872,0.9721660438639078,0.28665436011472045,0.6920890356180215
0.0475,1.7516753239383116,1.0,2903.566421660576,0.4139704153685547,1.3103635504554914,0.972568009140286,0.2866233636054091,0.6928394979230283
0.048,1.7509373118118496,1.0,2908.67943075832,0.41725754495475903,1.3099852137631514,0.9729586921168834,0.2865923670960977,0.6935879057659865
0.0485,1.7501992996853877,1.0,2913.7338597244047,0.4205262166587767,1.309607432000781,0.9733385199699833,0.28656137058678627,0.6943343050060008
0.049,1.7494612875589257,1.0,2918.7338665213842,0.4237765801387936,1.3092301671764335,0.9737079030871616,0.2865303740774749,0.6950787745791933
0.0495,1.7487232754324638,1.0,2923.680570297317,0.4270087323255575,1.3088534081333176,0.9740672280214872,0.28649937756816346,0.6958213401927116
0.05,1.747985263306002,1.0,2928.575096228017,0.4302227701498164,1.3084771437146416,0.9744168634126507,0.2864683810588521,0.6965620274415062
0.0505,1.74724725117954,1.0,2933.418575392612,0.4334187905423181,1.3081013627636138,0.9747571609779708,0.2864373845495407,0.6973008618086864
0.051000000000000004,1.746509239053078,1.0,2938.2121446527713,0.4365968904338104,1.3077260541234423,0.9750884564400296,0.2864063880402293,0.6980378686658681
0.051500000000000004,1.7457712269266161,1.0,2942.9569465348363,0.4397571667550412,1.3073512066373356,0.9754110703955198,0.28637539153091784,0.6987730732735136
0.052000000000000005,1.7450332148001542,1.0,2947.654129113926,0.4428997164367583,1.3069768091485023,0.9757253091295128,0.28634439502160647,0.6995065007812626
0.0525,1.7442952026736924,1.0,2952.3048459014826,0.44602463640970963,1.3066028505001503,0.9760314653790265,0.2863133985122951,0.7002381762282603
0.053,1.7435571905472305,1.0,2956.9102557350298,0.44913202360464305,1.3062293195354884,0.9763298190494657,0.28628240200298366,0.7009681245434687
0.0535,1.7428191784207685,1.0,2961.4715226716844,0.4522219749523063,1.3058562050977245,0.9766206378872194,0.2862514054936723,0.701696370545978
0.054,1.7420811662943065,1.0,2965.989815882857,0.4552945873834474,1.3054834960300672,0.9769041781114579,0.28622040898436085,0.7024229389453058
0.0545,1.7413431541678446,1.0,2970.4663095533806,0.45834995782881416,1.3051111811757246,0.9771806850079271,0.2861894124750495,0.7031478543416907
0.055,1.7406051420413828,1.0,2974.9021827821057,0.4613881832191543,1.3047392493779053,0.9774503934873269,0.2861584159657381,0.7038711412263738
0.0555,1.7398671299149209,1.0,2979.298619485801,0.46440936048521586,1.3043676894798177,0.9777135286106674,0.28612741945642667,0.7045928239818791
0.056,1.739129117788459,1.0,2983.656808306294,0.4674135865577466,1.30399649032467,0.9779703060838142,0.2860964229471153,0.7053129268822795
0.0565,1.738391105661997,1.0,2987.9779425191336,0.4704009583674944,1.3036256407556703,0.9782209327232675,0.28606542643780386,0.7060314740934586
0.057,1.737653093535535,1.0,2992.2632199462887,0.4733715728452071,1.3032551296160273,0.9784656068950723,0.2860344299284925,0.7067484896733626
0.0575,1.7369150814090732,1.0,2996.513842870707,0.47632552692163255,1.302884945748949,0.978704518928615,0.2860034334191811,0.7074639975722454
0.058,1.7361770692826113,1.0,3000.731017954187,0.4792629175275186,1.3025150779976442,0.9789378515069338,0.2859724369098697,0.7081780216329058
0.0585,1.7354390571561493,1.0,3004.9143584193253,0.4821838040259479,1.3021455290466224,0.9791657776252388,0.28594144040055824,0.708890558919441
0.059000000000000004,1.7347010450296874,1.0,3009.065426610251,0.4850882998356405,1.3017762847050343,0.9793884670934375,0.28591044389124687,0.7096016389975323
0.059500000000000004,1.7339630329032254,1.0,3013.1862350149877,0.4879765265620953,1.3014073269324091,0.9796060834916969,0.2858794473819355,0.7103112986972572
0.06,1.7332250207767637,1.0,3017.2773686669207,0.4908485703972586,1.301038650083294,0.9798187818060883,0.28584845087262406,0.7110195508801915
0.0605,1.7324870086503017,1.0,3021.3394149033047,0.49370451753307665,1.300670248512235,0.9800267110692167,0.2858174543633127,0.7117264083532872
0.061,1.7317489965238397,1.0,3025.3729633295584,0.49654445416149573,1.3003021165737787,0.9802300146346812,0.28578645785400125,0.7124318838689689
0.0615,1.7310109843973778,1.0,3029.3786057860925,0.49936846647446204,1.2999342486224712,0.9804288304368561,0.2857554613446899,0.7131359901252348
0.062,1.730272972270916,1.0,3033.35693631412,0.5021766406639219,1.2995666390128593,0.9806232912368862,0.2857244648353785,0.7138387397657502
0.0625,1.729534960144454,1.0,3037.3085511234513,0.5049690629218214,1.299199282099489,0.9808135248557239,0.28569346832606707,0.7145401453799438
0.063,1.728796948017992,1.0,3041.2340485603704,0.507745819440107,1.2988321722369072,0.9809996543949862,0.28566247181675564,0.7152402195030978
0.0635,1.7280589358915301,1.0,3045.134029076432,0.5105069964107247,1.2984653037796599,0.9811817984463481,0.28563147530744426,0.7159389746164393
0.064,1.7273209237650682,1.0,3049.0090951977486,0.513252680025621,1.2980986710822935,0.9813600712901569,0.2856004787981329,0.7166364231472278
0.0645,1.7265829116386064,1.0,3052.859851494993,0.5159829564767419,1.2977322684993546,0.9815345830838863,0.28556948228882145,0.7173325774688399
0.065,1.7258448995121445,1.0,3056.686904554969,0.5186979119560338,1.2973660903853894,0.9817054400410299,0.2855384857795101,0.7180274499008559
0.0655,1.7251068873856825,1.0,3060.4908629510137,0.5213976326554429,1.2970001310949446,0.9818727446009813,0.28550748927019864,0.7187210527091381
0.066,1.7243688752592206,1.0,3064.2723372164396,0.5240822047669156,1.2966343849825663,0.9820365955904128,0.28547649276088727,0.719413398105914
0.0665,1.7236308631327586,1.0,3068.0319398165916,0.5267517144823979,1.2962688464028012,0.9821970883766442,0.2854454962515759,0.7201044982498515
0.067,1.7228928510062966,1.0,3071.770285122832,0.5294062479938361,1.2959035097101954,0.9823543150134448,0.28541449974226446,0.7207943652461362
0.0675,1.722154838879835,1.0,3075.487989387263,0.5320458914931766,1.2955383692592954,0.9825083643796991,0.28538350323295303,0.7214830111465445
0.068,1.721416826753373,1.0,3079.1856707172915,0.5346707311723655,1.2951734194046478,0.9826593223113294,0.28535250672364165,0.722170447949515
0.0685,1.720678814626911,1.0,3082.8639490516584,0.5372808532233492,1.2948086545007989,0.9828072717268489,0.2853215102143303,0.7228566876002188
0.069,1.719940802500449,1.0,3086.5223473236706,0.539876296574144,1.2944440782946927,0.9829522902482879,0.28529051370501884,0.7235417243532809
0.0695,1.719202790373987,1.0,3090.1620431211113,0.5424571830360307,1.2940796803911208,0.9830944573766487,0.28525951719570747,0.7242255790212253
0.07,1.7184647782475253,1.0,3093.7838873465935,0.5450236150979788,1.2937154532103818,0.9832338488888452,0.28522852068639604,0.7249082670453444
0.07050000000000001,1.7177267661210633,1.0,3097.3881654091892,0.5475756691084444,1.2933513940174421,0.9833705366999694,0.28519752417708466,0.7255897947322175
0.07100000000000001,1.7169887539946014,1.0,3100.9751636537812,0.5501134214158834,1.292987500077268,0.9835045903775057,0.2851665276677733,0.7262701683624775
