Time [s],Phi [rad],STIM [ ],Fsee [N],Gamma [ ],Lcerel [ ],q [ ],Lmtc [m],fisomrel [ ]
0.0,1.8,1.0,17.9669958209221,1.4491806242070211e-05,1.3793397644080172,0.005000055808415546,0.288653,0.5411394870499682
0.0005,1.79999375,1.0,18.277856454548612,0.005623619827465785,1.379302264235563,0.012952989755430654,0.2886527375,0.5412302051842319
0.001,1.799975,1.0,21.62283258349294,0.011201285075390092,1.3789378475303349,0.03563198962526809,0.28865195,0.5421113128478211
0.0015,1.79994375,1.0,31.080703006526537,0.01674766403216256,1.3780452268698848,0.07063375419145135,0.2886506375,0.5442659644161266
0.002,1.7999,1.0,53.60777356936135,0.02226293218827101,1.3763664849866364,0.11475579326235326,0.2886488,0.5483044291415944
0.0025,1.79984375,1.0,97.16203732331675,0.027747264050140722,1.3739330906193694,0.16461596810136253,0.28864643749999996,0.5541264149867553
0.003,1.7997750000000001,1.0,161.01463620805828,0.03320083314780865,1.3712122302387233,0.21732282932471658,0.28864354999999997,0.5605914544680902
0.0035,1.79969375,1.0,237.74734995144016,0.03862381203454794,1.3685827624295892,0.27065503562366156,0.2886401375,0.5667944746166231
0.004,1.7996,1.0,321.53503343181745,0.04401637229764183,1.3661542844900239,0.3229566118864717,0.2886362,0.572484183512751
0.0045000000000000005,1.7994937500000001,1.0,409.3385656619158,0.049378684563570446,1.363921151943495,0.373073247656421,0.2886317375,0.5776830203065038
0.005,1.799375,1.0,499.4858482994634,0.0547109184891108,1.3618568050956907,0.4202837056765444,0.28862675,0.5824606269322044
0.0055,1.79924375,1.0,590.8634898321221,0.06001324280861865,1.3599374074189,0.46420725600391577,0.2886212375,0.5868783888410742
0.006,1.7991000000000001,1.0,682.5913419980922,0.06528582527765373,1.3581450835899134,0.5047108020492209,0.2886152,0.5909824588659884
0.006500000000000001,1.79894375,1.0,773.9565766225669,0.07052883272913772,1.3564659679078817,0.5418289324410336,0.2886086375,0.5948087172305392
0.007,1.798775,1.0,864.3609956199432,0.07574243105103476,1.3548891805535417,0.5757024479791351,0.28860155,0.5983854257845527
0.0075,1.79859375,1.0,953.3160620214906,0.08092678521450829,1.3534056587563923,0.6065332715573896,0.2885939375,0.6017360980834197
0.008,1.7984,1.0,1040.4284642307741,0.08608205923901624,1.3520076156110508,0.6345532931444834,0.2885858,0.6048808627290265
0.0085,1.79819375,1.0,1125.389590186623,0.09120841626365941,1.3506881746579942,0.6600036706982221,0.2885771375,0.6078373856984827
0.009000000000000001,1.797975,1.0,1207.9543030816803,0.09630601845121017,1.3494412955392305,0.6831218207562562,0.28856795,0.6106211127929342
0.0095,1.79774375,1.0,1287.9433735655773,0.10137502721141586,1.3482614467227212,0.704133520074164,0.2885582375,0.6132460609904249
0.01,1.7975,1.0,1365.2179432540836,0.10641560248508157,1.347143731160025,0.7232488244691618,0.288548,0.6157245851922715
0.0105,1.79724375,1.0,1439.704648901209,0.11142790400535242,1.3460833813086241,0.7406599920974749,0.2885372375,0.6180685369323644
0.011,1.796975,1.0,1511.378364720168,0.11641209156546445,1.3450758677463548,0.756541228795158,0.28852595000000003,0.6202890481476411
0.0115,1.79669375,1.0,1580.186064371627,0.12136832156081896,1.3441177059213392,0.7710496179122819,0.2885141375,0.6223947846665648
0.012,1.7964,1.0,1646.1214015861372,0.1262967503868172,1.3432054112817,0.7843256664036211,0.28850180000000003,0.6243942782747423
0.0125,1.79609375,1.0,1709.2205958300947,0.13119753443886042,1.3423354992755594,0.7964946477721366,0.2884889375,0.6262959372951322
0.013000000000000001,1.7957750000000001,1.0,1769.5373022179415,0.13607082907462492,1.3415047256374004,0.8076681247567237,0.28847555,0.6281075330590684
0.0135,1.79544375,1.0,1827.126354891081,0.1409167889572633,1.3407102081636162,0.8179453924585509,0.2884616375,0.6298359504244431
0.014,1.7951000000000001,1.0,1882.0333846816113,0.14573556659468997,1.3399494797409404,0.8274148126576936,0.2884472,0.6314870893618112
0.0145,1.79474375,1.0,1934.327041771582,0.1505273144292122,1.3392200842359985,0.8361548912672979,0.2884322375,0.63306675526442
0.015,1.794375,1.0,1984.0766824970883,0.155292183684373,1.3385197914110363,0.8442354867414923,0.28841675,0.6345802003285348
0.0155,1.79399375,1.0,2031.3929407663295,0.16003032716028198,1.337846135702832,0.8517186692929852,0.2884007375,0.6360331268834938
0.016,1.7936,1.0,2076.34107841231,0.16474189360193536,1.337197314733958,0.8586599229492815,0.2883842,0.6374297542608677
0.0165,1.7931937500000001,1.0,2118.992817633568,0.16942703129360187,1.3365716034835564,0.865108738501256,0.2883671375,0.6387740935220271
0.017,1.792775,1.0,2159.4323725614677,0.17408588851955006,1.33596727693077,0.8711093003725983,0.28834955,0.6400701174480974
0.0175,1.7923437500000001,1.0,2197.748885981389,0.1787186128658803,1.3353826758625384,0.8767011316650044,0.2883314375,0.6413216222298581
0.018000000000000002,1.7919,1.0,2234.035239601334,0.18332535200675126,1.3348162060876643,0.8819196419581202,0.2883128,0.6425322325926746
0.0185,1.79144375,1.0,2268.3725856016777,0.18790625183262283,1.3342664811958533,0.8867966421346805,0.2882936375,0.6437051006024943
0.019,1.790975,1.0,2300.8309592239007,0.19246145612091906,1.3337323010887312,0.8913607524529777,0.28827395,0.6448429566646061
0.0195,1.79049375,1.0,2331.4869305488983,0.19699110864906383,1.3332124656679238,0.8956377225818035,0.2882537375,0.645948509960149
0.02,1.79,1.0,2360.4230566415636,0.20149535319448117,1.3327057748350564,0.8996507575688375,0.288233,0.6470244495899387
0.0205,1.78949375,1.0,2387.710854160508,0.20597433133151108,1.332211188957154,0.9034208384694166,0.2882117375,0.6480731056494711
0.021,1.788975,1.0,2413.4450397593896,0.21042818808180286,1.3317274889138355,0.9069668967634343,0.28818995000000003,0.6490971718715597
0.021500000000000002,1.78844375,1.0,2437.6864602902006,0.21485706292525839,1.3312538256657087,0.9103061517032286,0.2881676375,0.650098542671659
0.022,1.7879,1.0,2460.495592341137,0.2192610947851456,1.3307893868086993,0.9134542267472399,0.2881448,0.6510790228785865
0.0225,1.78734375,1.0,2481.936015155916,0.22364042258473252,1.3303333599387333,0.9164253128843112,0.28812143749999997,0.6520404059680718
0.023,1.786775,1.0,2502.074150116661,0.22799518524728704,1.3298849326517364,0.9192323198064785,0.28809755,0.6529844745196409
0.0235,1.78619375,1.0,2520.972627158947,0.23232552033910508,1.3294433529590308,0.9218870199433674,0.28807313749999996,0.6539128736961461
0.024,1.7856,1.0,2538.696598232081,0.2366315663439318,1.3290078665466116,0.924400154735603,0.2880482,0.6548272441021907
0.0245,1.78499375,1.0,2555.3086323008974,0.2409134609336378,1.3285777628731787,0.9267815463597736,0.2880227375,0.6557291254631924
0.025,1.784375,1.0,2570.855248241957,0.24517133777375585,1.3281524988579174,0.9290402091505824,0.28799675,0.656619698639364
0.025500000000000002,1.78374375,1.0,2585.384424402939,0.24940533052981867,1.3277315314200122,0.9311844022192218,0.2879702375,0.657500138115732
0.026000000000000002,1.7831000000000001,1.0,2598.945475625355,0.2536155728673589,1.3273143174786481,0.9332217029832827,0.2879432,0.6583716121603531
0.0265,1.78244375,1.0,2611.5889368061025,0.2578021984519093,1.32690031395301,0.9351590726408032,0.2879156375,0.6592352829637229
0.027,1.781775,1.0,2623.3658054134985,0.2619653406121099,1.3264889837664806,0.9370029153392883,0.28788755,0.6600922942574323
0.0275,1.7810937500000001,1.0,2634.321339249925,0.2661051314357636,1.3260798522131483,0.9387591383795386,0.2878589375,0.6609436542750363
0.028,1.7804,1.0,2644.4946824338704,0.2702217018381161,1.3256725089252601,0.940433198085555,0.2878298,0.6617902325584387
0.0285,1.77969375,1.0,2653.9232630701504,0.27431518123811005,1.3252665660243823,0.9420301344255163,0.2878001375,0.6626328476616905
0.029,1.778975,1.0,2662.6451511364844,0.27838569905468796,1.3248616356320815,0.9435546057762013,0.28776995,0.663472314076686
0.029500000000000002,1.7782466293003252,1.0,2670.845306447833,0.28243337897418996,1.3244572857829289,0.9450109145991736,0.28773935843061366,0.6643095334897157
0.03,1.7775176135509185,1.0,2678.9645628291055,0.2864583543550321,1.3240535025317417,0.9464031062577798,0.2877087397691386,0.6651445392120869
0.0305,1.7767885978015119,1.0,2687.0162610969214,0.2904607597924711,1.323650451076019,0.9477349550911176,0.2876781211076635,0.6659769946374026
0.031,1.776059582052105,1.0,2694.9968809855272,0.2944407186087723,1.3232481603309654,0.9490099424730443,0.2876475024461884,0.6668068457992554
0.0315,1.7753305663026984,1.0,2702.902887247722,0.29839835412620086,1.3228466592117862,0.950231302976224,0.28761688378471334,0.6676340390171835
0.032,1.7746015505532917,1.0,2710.73073015188,0.3023337896670222,1.322445976633686,0.95140204491833,0.28758626512323826,0.6684585208952436
0.0325,1.7738725348038848,1.0,2718.4768459975066,0.30624714855350144,1.3220461415118698,0.9525249689614937,0.2875556464617632,0.6692802383205252
0.033,1.7731435190544782,1.0,2726.1376576491402,0.31013855410790403,1.3216471827615426,0.9536026849702139,0.2875250278002881,0.6700991384616162
0.0335,1.7724145033050716,1.0,2733.7095750889816,0.31400812965249514,1.3212491292979092,0.9546376273093109,0.287494409138813,0.670915168767013
0.034,1.771685487555665,1.0,2741.188995988003,0.31785599850954016,1.3208520100361745,0.955632068742782,0.28746379047733794,0.6717282769634777
0.0345,1.770956471806258,1.0,2748.5723062955876,0.3216822840013043,1.3204558538915434,0.9565881330762631,0.2874331718158628,0.6725384110543424
0.035,1.7702274560568514,1.0,2755.856636038656,0.3254871078310149,1.3200606829477255,0.9575078055312831,0.2874025531543878,0.6733455332622307
0.035500000000000004,1.7694984403074447,1.0,2763.0423764226157,0.3292705904428949,1.3196664897668093,0.9583929410683545,0.28737193449291265,0.6741496661995101
0.036000000000000004,1.7687694245580379,1.0,2770.1293167549397,0.3330328532983358,1.3192732724379708,0.9592452784632762,0.28734131583143757,0.6749508211312159
0.0365,1.7680404088086312,1.0,2777.118232616003,0.33677401353467024,1.3188810202296504,0.9600664462662771,0.2873106971699625,0.6757490272235247
0.037,1.7673113930592246,1.0,2784.009911825737,0.3404941882892311,1.3184897224102887,0.9608579728424167,0.2872800785084874,0.6765443135172744
0.0375,1.7665823773098177,1.0,2790.805154215271,0.3441934946993512,1.3180993682483264,0.9616212936601096,0.28724945984701233,0.6773367089286213
0.038,1.765853361560411,1.0,2797.5047714010584,0.3478720499023632,1.317709947012204,0.9623577579719309,0.28721884118553725,0.6781262422496892
0.0385,1.7651243458110044,1.0,2804.109586561626,0.35152997103559996,1.3173214479703625,0.9630686349444982,0.2871882225240622,0.6789129421492108
0.039,1.7643953300615978,1.0,2810.620768874147,0.35516735476733136,1.3169338573935545,0.9637551150010312,0.2871576038625871,0.679696843232277
0.0395,1.763666314312191,1.0,2817.0396426288735,0.3587843314052971,1.316547160277883,0.9644183260373227,0.287126985201112,0.6804779825255363
0.04,1.7629372985627842,1.0,2823.367632247,0.3623810365744483,1.316161340840884,0.9650593320729209,0.28709636653963694,0.6812563984620355
0.0405,1.7622082828133776,1.0,2829.606508722066,0.3659575791140195,1.31577638032311,0.9656791315564045,0.28706574787816186,0.6820321352998553
0.041,1.7614792670639707,1.0,2835.75805729844,0.36951406786324487,1.3153922599651129,0.9662786670647697,0.2870351292166868,0.6828052370985289
0.0415,1.760750251314564,1.0,2841.8240771177375,0.37305061166135883,1.3150089610074451,0.9668588290139394,0.2870045105552117,0.6835757477200571
0.042,1.7600212355651574,1.0,2847.8063808734814,0.3765673193475958,1.3146264646906587,0.9674204590858833,0.2869738918937366,0.6843437108299034
0.0425,1.7592922198157506,1.0,2853.70679447316,0.38006429976119,1.314244752255306,0.9679643533966903,0.28694327323226154,0.6851091698979634
0.043000000000000003,1.758563204066344,1.0,2859.527156708389,0.3835416617413759,1.313863804941939,0.9684912654276269,0.2869126545707864,0.6858721681995166
0.043500000000000004,1.7578341883169373,1.0,2865.2693189330494,0.38699951412738776,1.3134836039911102,0.9690019087391355,0.2868820359093114,0.6866327488161506
0.044,1.7571051725675306,1.0,2870.9351447481117,0.3904379657584599,1.3131041306433715,0.9694969594858689,0.28685141724783625,0.6873909546366663
0.0445,1.7563761568181238,1.0,2876.52650969635,0.39385712547382684,1.3127253661392755,0.9699770587491904,0.2868207985863612,0.6881468283579595
0.045,1.755647141068717,1.0,2882.045300962337,0.39725710211272286,1.3123472917193741,0.970442814702064,0.2867901799248861,0.6889004124858806
0.0455,1.7549181253193105,1.0,2887.493417082701,0.40063800451438225,1.3119698886242197,0.9708948046199071,0.28675956126341107,0.6896517493360713
0.046,1.7541891095699036,1.0,2892.8727676618178,0.4039999415180394,1.3115931380943642,0.9713335767497606,0.28672894260193593,0.6904008810347784
0.0465,1.753460093820497,1.0,2898.1852730976434,0.4073430219629287,1.3112170213703602,0.9717596520490346,0.28669832394046085,0.6911478495196453
0.047,1.7527310780710903,1.0,2903.432864313384,0.41066735468828447,1.3108415196927596,0.9721735258040927,0.2866677052789858,0.6918926965404839
0.0475,1.7520020623216834,1.0,2908.6134122119815,0.41397298454179093,1.31046665014221,0.9725756634715861,0.2866370866175107,0.6926353926960287
0.048,1.7512730465722768,1.0,2913.7339302570304,0.4172600923632756,1.3100923493291834,0.9729665197589702,0.2866064679560356,0.6933760678810832
0.0485,1.7505440308228701,1.0,2918.796336709823,0.420528786106368,1.309718598893707,0.9733465214487348,0.28657584929456054,0.6941147624340531
0.049,1.7498150150734635,1.0,2923.801874429072,0.42377916349144196,1.3093453864892222,0.97371607429167,0.28654523063308546,0.6948515046487047
0.0495,1.7490859993240566,1.0,2928.751793044406,0.4270113222388714,1.30897269976917,0.9740755650507772,0.2865146119716104,0.6955863226956325
0.05,1.74835698357465,1.0,2933.6473488106103,0.4302253600690301,1.3086005263869918,0.9744253625617288,0.2864839933101353,0.6963192446226774
0.0505,1.7476279678252433,1.0,2938.4898044654806,0.43342137470229214,1.308228853996129,0.9747658187248851,0.2864533746486602,0.6970502983553346
0.051000000000000004,1.7468989520758365,1.0,2943.280429091197,0.43659946385903126,1.307857670250023,0.9750972694338584,0.28642275598718514,0.6977795116971558
0.051500000000000004,1.7461699363264298,1.0,2948.020497978564,0.4397597252596214,1.3074869628021153,0.9754200354452158,0.28639213732571006,0.6985069123301357
0.052000000000000005,1.7454409205770232,1.0,2952.711292495074,0.44290225662443644,1.3071167193058468,0.9757344231935353,0.286361518664235,0.6992325278150947
0.0525,1.7447119048276163,1.0,2957.35409995618,0.44602715567385026,1.3067469274146593,0.976040725555699,0.28633090000275985,0.6999563855920465
0.053,1.7439828890782096,1.0,2961.9502135003618,0.4491345201282368,1.3063775747819937,0.9763392225680032,0.2863002813412848,0.7006785129805608
0.0535,1.743253873328803,1.0,2966.5009319662304,0.4522244477079699,1.3060086490612914,0.9766301820993747,0.2862696626798097,0.7013989371801128
0.054,1.7425248575793963,1.0,2971.0075597752775,0.4552970361334235,1.305640137905994,0.9769138604837375,0.28623904401833467,0.7021176852704238
0.0545,1.7417958418299895,1.0,2975.471406815331,0.4583523831249714,1.3052720289695428,0.9771905031143344,0.28620842535685953,0.7028347842117941
0.055,1.7410668260805828,1.0,2979.893788330099,0.4613905864029876,1.3049043099053788,0.9774603450025949,0.2861778066953845,0.7035502608454234
0.0555,1.7403378103311762,1.0,2984.2760248095533,0.4644117436878459,1.3045369683669437,0.97772361130394,0.28614718803390937,0.7042641418937219
0.056,1.7396087945817693,1.0,2988.6194418858217,0.4674159526999202,1.3041699920076784,0.9779805178127474,0.2861165693724343,0.7049764539606151
0.0565,1.7388797788323627,1.0,2992.925370230987,0.47040331115958445,1.3038033684810246,0.9782312714285155,0.2860859507109592,0.7056872235318329
0.057,1.738150763082956,1.0,2997.195145459047,0.4733739167872125,1.3034370854404236,0.9784760705951335,0.28605533204948413,0.7063964769751948
0.0575,1.7374217473335491,1.0,3001.430108030853,0.4763278673031783,1.3030711305393166,0.9787151057150092,0.28602471338800906,0.7071042405408818
0.058,1.7366927315841425,1.0,3005.6284382921976,0.47926519555594754,1.3027055188453451,0.9789485554956411,0.285994094726534,0.7078104874380434
0.0585,1.7359637158347359,1.0,3009.7944289475,0.482186072597333,1.3023402124818464,0.9791766004188501,0.2859634760650589,0.7085152931008674
0.059000000000000004,1.735234700085329,1.0,3013.9287711132315,0.48509058663596577,1.3019752048368805,0.9793994084966134,0.2859328574035838,0.7092186723970795
0.059500000000000004,1.7345056843359223,1.0,3018.032098306813,0.4879788245546099,1.3016104898197458,0.9796171410962493,0.28590223874210874,0.7099206391284854
0.06,1.7337766685865157,1.0,3022.105046539963,0.4908508732360291,1.3012460613397405,0.9798299533340895,0.28587162008063366,0.7106212070385628
0.0605,1.733047652837109,1.0,3026.148254279346,0.49370681956298745,1.3008819133061629,0.9800379943660165,0.2858410014191586,0.7113203898125724
0.061,1.7323186370877022,1.0,3030.1623624084345,0.4965467504182488,1.3005180396283114,0.9802414076623387,0.2858103827576835,0.712018201077668
0.0615,1.7315896213382955,1.0,3034.148014190009,0.499370752684577,1.300154434215484,0.980440331267961,0.2857797640962084,0.712714654403006
0.062,1.7308606055888889,1.0,3038.1058552295212,0.502178913244736,1.2997910909769792,0.9806348980487423,0.28574914543473334,0.7134097632998488
0.0625,1.730131589839482,1.0,3042.0365334392814,0.5049713189814896,1.2994280038220953,0.9808252359248717,0.28571852677325826,0.7141035412216685
0.063,1.7294025740900754,1.0,3045.9406990033945,0.5077480567776018,1.2990651666601305,0.981011468092043,0.28568790811178313,0.7147960015642487
0.0635,1.7286735583406687,1.0,3049.819004343936,0.5105092135158364,1.298702573400383,0.9811937132311462,0.2856572894503081,0.7154871576657806
0.064,1.727944542591262,1.0,3053.67210408691,0.5132548760789576,1.298340217952151,0.9813720857071574,0.28562667078883297,0.7161770228069612
0.0645,1.7272155268418552,1.0,3057.5006550304897,0.5159851313497289,1.2979780942247332,0.9815466957578557,0.28559605212735795,0.7168656102110843
0.065,1.7264865110924486,1.0,3061.3053161126536,0.5187000662109144,1.2976161961274275,0.98171764967296,0.2855654334658828,0.7175529330441346
0.0655,1.725757495343042,1.0,3065.086748381033,0.521399767545278,1.2972545175695323,0.9818850499642369,0.2855348148044078,0.7182390044148745
0.066,1.725028479593635,1.0,3068.8456149619547,0.5240843222355834,1.2968930524603457,0.982048995527096,0.28550419614293265,0.7189238373749312
0.0665,1.7242994638442284,1.0,3072.582581032103,0.5267538171645948,1.2965317947091664,0.9822095817941584,0.2854735774814576,0.7196074449188802
0.067,1.7235704480948217,1.0,3076.29831378942,0.5294083392150759,1.2961707382252923,0.9823669008812482,0.2854429588199825,0.7202898399843285
0.0675,1.7228414323454149,1.0,3079.993482425993,0.5320479752697906,1.2958098769180217,0.9825210417262358,0.2854123401585074,0.7209710354519925
0.068,1.7221124165960082,1.0,3083.6686058253067,0.5346728058490073,1.2954492059988714,0.9826720898771486,0.28538172149703234,0.7216510416920806
0.0685,1.7213834008466016,1.0,3087.322916969082,0.5372828644558152,1.295088731683027,0.982820125537845,0.28535110283555726,0.7223298483217553
0.069,1.7206543850971947,1.0,3090.9585360058927,0.5398783080184001,1.294728435511997,0.9829652327812014,0.2853204841740822,0.7230074913923809
0.0695,1.719925369347788,1.0,3094.5757667812068,0.5424592135138825,1.2943683145777503,0.983107488600743,0.2852898655126071,0.7236839775913733
0.07,1.7191963535983814,1.0,3098.17491414356,0.5450256579193827,1.294008365972256,0.983246967439864,0.285259246851132,0.7243593135788391
0.07050000000000001,1.7184673378489748,1.0,3101.756283933493,0.5475777182120211,1.2936485867874838,0.9833837412936524,0.28522862818965694,0.7250335059876071
0.07100000000000001,1.717738322099568,1.0,3105.320182972426,0.5501154713689178,1.2932889741154028,0.9835178798059925,0.28519800952818186,0.7257065614232608
