Time [s],Phi [rad],STIM [ ],Fsee [N],Gamma [ ],Lcerel [ ],q [ ],Lmtc [m],fisomrel [ ]
0.0,1.8,1.0,17.96955519867246,4.8160478847666535e-05,1.3793394776810313,0.0050006105480990045,0.288653,0.5411401807164617
0.0005,1.79999375,1.0,18.291584499662644,0.005657099645454591,1.3793007396495869,0.013046793784222237,0.2886527375,0.5412338931800903
0.001,1.799975,1.0,21.661573769918643,0.011234577098071406,1.3789338928662185,0.03580770074748278,0.28865195,0.5421208700167515
0.0015,1.79994375,1.0,31.172841102048714,0.01678076931293359,1.3780373842767377,0.07087410573344655,0.2886506375,0.5442848727334253
0.002,1.7999,1.0,53.80650193061531,0.02229585177456458,1.376353607491004,0.11504034133476897,0.2886488,0.5483353384199847
0.0025,1.79984375,1.0,97.49625367825351,0.02777999898360488,1.373917002925957,0.16492547373269836,0.28864643749999996,0.554164779728539
0.003,1.7997750000000001,1.0,161.44962267407973,0.03323338446417459,1.3711959621165,0.2176421001673399,0.28864354999999997,0.5606299671824169
0.0035,1.79969375,1.0,238.23888623726447,0.03865618076374619,1.368567631666896,0.27097256807879944,0.2886401375,0.5668300410952019
0.004,1.7996,1.0,322.05798949342886,0.044048559463851104,1.3661404404785884,0.3232640583811735,0.2886362,0.5725165109889837
0.0045000000000000005,1.7994937500000001,1.0,409.88008904894104,0.049410691185286175,1.3639084456260726,0.3733650871810818,0.2886317375,0.5777125102105095
0.005,1.799375,1.0,500.03838486275015,0.05474274557937877,1.3618450678349994,0.4205567379940705,0.28862675,0.5824877132764181
0.0055,1.79924375,1.0,591.4209113724897,0.06004489137345443,1.3599265199944284,0.46446003804125874,0.2886212375,0.5869033807547843
0.006,1.7991000000000001,1.0,683.1494669869027,0.06531729631886991,1.358134940980316,0.5049431038082336,0.2886152,0.5910056251563314
0.006500000000000001,1.79894375,1.0,774.5110197157268,0.07056012723870127,1.3564565053554316,0.5420413367546876,0.2886086375,0.5948302289215344
0.007,1.798775,1.0,864.9114764475848,0.07577355003889576,1.3548802903262365,0.5758959862945452,0.28860155,0.5984055469960654
0.0075,1.79859375,1.0,953.853034282695,0.08095772955573657,1.3533974010463081,0.606709334269324,0.2885939375,0.6017547096100602
0.008,1.7984,1.0,1040.962100302275,0.08611283013971459,1.3519997601665064,0.6347131979420229,0.2885858,0.6048984975852105
0.0085,1.79819375,1.0,1125.908494513443,0.09123901453502889,1.3506808299730715,0.6601489467571116,0.2885771375,0.6078538121473143
0.009000000000000001,1.797975,1.0,1208.4504733724514,0.09633644494841545,1.349434516809921,0.6832539069287973,0.28856795,0.6106362195848756
0.0095,1.79774375,1.0,1288.4291470275843,0.10140528316216853,1.348255019374436,0.7042536191356391,0.2885582375,0.6132603363536708
0.01,1.7975,1.0,1365.6995970903686,0.10644568905566956,1.3471375412675082,0.7233580990041696,0.288548,0.6157382890393783
0.0105,1.79724375,1.0,1440.1721626551357,0.11145782202640055,1.3460775305818955,0.7407596072817809,0.2885372375,0.6180814503390855
0.011,1.796975,1.0,1511.812168851145,0.11644184105161282,1.345070569119932,0.7566322850590269,0.28852595000000003,0.6203007089516779
0.0115,1.79669375,1.0,1580.6001301838592,0.12139790397279544,1.3441127596926634,0.7711329147269367,0.2885141375,0.6224056397216176
0.012,1.7964,1.0,1646.5250590090425,0.1263261669917257,1.3432006869240374,0.7844019480836305,0.28850180000000003,0.6244046189249646
0.0125,1.79609375,1.0,1709.6125614335413,0.1312267859588223,1.3423309972145028,0.7965646315791455,0.2884889375,0.6263057664098345
0.013000000000000001,1.7957750000000001,1.0,1769.9174093966524,0.13609991666278826,1.3415004348176756,0.8077324448776946,0.28847555,0.6281168782504418
0.0135,1.79544375,1.0,1827.4929850830463,0.1409457136367997,1.3407061352093965,0.8180046189383172,0.2884616375,0.6298448004804733
0.014,1.7951000000000001,1.0,1882.383951742333,0.14576432918202667,1.339945642451122,0.8274694555872498,0.2884472,0.6314954087324424
0.0145,1.79474375,1.0,1934.6589511857674,0.15055591559963918,1.3392165006043089,0.8362054036773735,0.2884322375,0.6330745080285936
0.015,1.794375,1.0,1984.4000662988785,0.15532062455025564,1.3385163438757608,0.8442822255952407,0.28841675,0.6345876432684556
0.0155,1.79399375,1.0,2031.6984964683118,0.1600586078876221,1.3378429163804368,0.8517620202228668,0.2884007375,0.6360400633021721
0.016,1.7936,1.0,2076.6345872654083,0.1647700157410031,1.33719425598462,0.8587001808368512,0.2883842,0.6374363320503145
0.0165,1.7931937500000001,1.0,2119.2759702479993,0.16945499600318764,1.336568682502744,0.8651461795740898,0.2883671375,0.6387803633876501
0.017,1.792775,1.0,2159.7025760611814,0.17411369656696457,1.3359645157492432,0.8711441840998728,0.28834955,0.6400760336651037
0.0175,1.7923437500000001,1.0,2198.0055953981305,0.1787462653251229,1.3353800755385508,0.8767336846372643,0.2883314375,0.6413271840936097
0.018000000000000002,1.7919,1.0,2234.264368351333,0.1833528483244067,1.3348139040585123,0.8819501025599679,0.2883128,0.642537148115744
0.0185,1.79144375,1.0,2268.585579408984,0.1879335937693976,1.3342643575261794,0.8868251590557968,0.2882936375,0.6437096278303907
0.019,1.790975,1.0,2301.0360846126696,0.19248864514396888,1.3337302703466907,0.8913874678032239,0.28827395,0.644847278872209
0.0195,1.79049375,1.0,2331.6863546151158,0.19701814566948142,1.333210504389882,0.8956627790017446,0.2882537375,0.645952677819644
0.02,1.79,1.0,2360.612667939702,0.20152223856729615,1.3327039215255898,0.8996742979170405,0.288233,0.6470283820200707
0.0205,1.78949375,1.0,2387.8962424860188,0.2060010669900275,1.3322093873069993,0.9034429714481863,0.2882117375,0.6480769227841457
0.021,1.788975,1.0,2413.6088699478287,0.21045477192366277,1.3317259052783226,0.906987766799501,0.28818995000000003,0.6491005222170835
0.021500000000000002,1.78844375,1.0,2437.835761497524,0.2148834971447534,1.3312523896634418,0.9103258422657802,0.2881676375,0.6501015763464901
0.022,1.7879,1.0,2460.634994435991,0.2192873810367873,1.3307880522452349,0.9134728181640516,0.2881448,0.6510818383029457
0.0225,1.78734375,1.0,2482.0676900955987,0.22366656198325247,1.3303321048065788,0.9164428826453688,0.28812143749999997,0.6520430501723706
0.023,1.786775,1.0,2502.197761675143,0.22802117836763677,1.3298837591303514,0.9192489428258492,0.28809755,0.6529869434375903
0.0235,1.78619375,1.0,2521.091675849421,0.23235136857342814,1.3294422269994295,0.9219027581855439,0.28807313749999996,0.6539152393802818
0.024,1.7856,1.0,2538.8064989047266,0.23665726799917558,1.3290068307425063,0.924415077040306,0.2880482,0.6548294174897061
0.0245,1.78499375,1.0,2555.410457085497,0.24093901734525372,1.328576806307332,0.9267957079047189,0.2880227375,0.6557311299645219
0.025,1.784375,1.0,2570.952623472494,0.24519675103929212,1.3281515868618778,0.9290536567296944,0.28799675,0.6566216072705084
0.025500000000000002,1.78374375,1.0,2585.479121351052,0.2494306021313383,1.3277306470035455,0.9311971813689194,0.2879702375,0.6575019866538185
0.026000000000000002,1.7831000000000001,1.0,2599.0373859615042,0.2536407036714399,1.3273134613297368,0.933233858098214,0.2879432,0.6583733993378409
0.0265,1.78244375,1.0,2611.676051945981,0.2578271887096445,1.3268995044378533,0.9351706470743699,0.2879156375,0.6592369706577995
0.027,1.781775,1.0,2623.444846916055,0.2619901902959996,1.3264882509252969,0.9370139507088945,0.28788755,0.6600938201777435
0.0275,1.7810937500000001,1.0,2634.387366075072,0.26612983945337293,1.3260792413123441,0.9387696749135992,0.2878589375,0.6609449246975958
0.028,1.7804,1.0,2644.5457396816737,0.27024626808356755,1.3256720374365116,0.940443269250415,0.2878298,0.6617912118365796
0.0285,1.77969375,1.0,2653.9742421322817,0.2743396107797557,1.3252660960946179,0.9420397508399315,0.2878001375,0.6626338224852258
0.029,1.778975,1.0,2662.704066741013,0.2784099945820799,1.3248610934331366,0.9435637852337546,0.28776995,0.6634734374152643
0.029500000000000002,1.7782437500000001,1.0,2670.7669357656473,0.28245754653068234,1.3244567055985412,0.9450196895809287,0.2877392375,0.6643107340310637
0.03,1.7775,1.0,2678.195054296118,0.2864823936657055,1.3240526087373055,0.9464114631046562,0.287708,0.6651463863856724
0.0305,1.77674375,1.0,2685.021066468827,0.2904846630272917,1.3236484789959027,0.9477428145511027,0.2876762375,0.6659810651901746
0.031,1.775975,1.0,2691.2780140057184,0.2944644816555834,1.3232439925208066,0.9490171869440258,0.28764395,0.6668154378163544
0.0315,1.7751937500000001,1.0,2696.9992970791122,0.2984219765907229,1.3228388254584904,0.9502377799388688,0.2876111375,0.6676501682926734
0.032,1.7744,1.0,2702.211775359847,0.3023572712315047,1.322432716643815,0.951407576582792,0.2875778,0.6684857883854889
0.0325,1.77359375,1.0,2706.9479504053866,0.30627049409683627,1.322025355817121,0.9525293501942255,0.2875439375,0.6693229279682926
0.033,1.772775,1.0,2711.2352431101735,0.31016176992846395,1.3216164813684659,0.9536056902670542,0.28750955,0.6701621138780843
0.0335,1.7719437500000002,1.0,2715.095097802728,0.3140312196884672,1.3212058880634423,0.954639018009716,0.2874746375,0.6710037546982633
0.034,1.7711000000000001,1.0,2718.54912906684,0.3178789643389255,1.3207933706676438,0.9556315942545196,0.2874392,0.6718482568102414
0.0345,1.7702437500000001,1.0,2721.6191043429194,0.3217051248419181,1.3203787239466633,0.9565855319732128,0.2874032375,0.6726960243696036
0.035,1.7693750000000001,1.0,2724.3269274622826,0.32550982215952456,1.319961742666094,0.9575028076760033,0.28736675,0.67354745927958
0.035500000000000004,1.76849375,1.0,2726.6946231160896,0.3292931772538243,1.319542221591529,0.9583852718053232,0.2873297375,0.6744029611618312
0.036000000000000004,1.7676,1.0,2728.7443222577012,0.3330553110868967,1.3191199554885613,0.9592346582234488,0.2872922,0.6752629273245493
0.0365,1.76669375,1.0,2730.483972717109,0.3367963340958897,1.318694868860152,0.9600526036734893,0.2872541375,0.676127489037661
0.037,1.765775,1.0,2731.9482968362126,0.34051637951033775,1.3182666435346053,0.9608406250452755,0.28721555,0.6769972691747974
0.0375,1.76484375,1.0,2733.1525947142213,0.34421556388804786,1.3178351385175384,0.9616001608300893,0.2871764375,0.6778725278174017
0.038,1.7639,1.0,2734.1092455103985,0.3478940013806725,1.3174002398184965,0.9623325652182153,0.28713679999999997,0.6787534686325284
0.0385,1.76294375,1.0,2734.8306720524815,0.35155180613986403,1.3169618334470243,0.9630391120102144,0.28709663750000003,0.6796402938070817
0.039,1.761975,1.0,2735.329335289783,0.3551890923172748,1.316519805412667,0.963721000260826,0.28705595,0.6805332040227278
0.0395,1.7609937500000001,1.0,2735.6177290358323,0.3588059740645573,1.3160740417249697,0.9643793594679881,0.2870147375,0.6814323984299813
0.04,1.76,1.0,2735.7083749978237,0.3624025655333638,1.3156244283934768,0.9650152543481199,0.286973,0.6823380746214638
0.0405,1.7589937500000001,1.0,2735.6138180949206,0.36597898087534675,1.3151708514277338,0.9656296892346993,0.2869307375,0.6832504286043283
0.041,1.757975,1.0,2735.3466220643145,0.3695353342421585,1.3147131968372854,0.9662236121335172,0.28688795,0.6841696547718625
0.0415,1.75694375,1.0,2734.919365355387,0.3730717397854515,1.3142513506316769,0.9667979184647151,0.2868446375,0.6850959458742567
0.042,1.7559,1.0,2734.3403684011473,0.3765883053194294,1.3137852375888683,0.9673534567136136,0.28680079999999997,0.686029415405923
0.0425,1.75484375,1.0,2733.621383618671,0.3800851466705061,1.3133147514021,0.9678910280700752,0.2867564375,0.6869702377354601
0.043000000000000003,1.753775,1.0,2732.7747302853445,0.38356237980455377,1.3128397806626657,0.9684113902888213,0.28671155,0.6879185957746659
0.043500000000000004,1.75269375,1.0,2731.8072686156215,0.38702011179822315,1.3123602635795253,0.9689152634439984,0.28666613750000003,0.6888745718639333
0.044,1.7516,1.0,2730.7258623474945,0.390458449728165,1.3118761383616375,0.9694033297660462,0.2866202,0.6898382471958953
0.0445,1.75049375,1.0,2729.5373772799603,0.3938775006710301,1.311387343217962,0.9698762360014413,0.2865737375,0.6908097017973827
0.045,1.7493750000000001,1.0,2728.2486798946907,0.3972773717034692,1.3108938163574573,0.9703345956028904,0.28652675,0.6917890145111467
0.0455,1.74824375,1.0,2726.8666360616935,0.40065816990213315,1.3103954959890831,0.9707789907636897,0.2864792375,0.6927762629773313
0.046,1.7471,1.0,2725.398109831005,0.4040200023436727,1.3098923203217985,0.9712099743087492,0.2864312,0.6937715236147062
0.0465,1.7459437500000001,1.0,2723.8499623076,0.40736297610473854,1.3093842275645626,0.97162807145366,0.28638263750000004,0.6947748716016549
0.047,1.744775,1.0,2722.2290506118975,0.4106871982619815,1.3088711559263349,0.972033781442187,0.28633355,0.6957863808569189
0.0475,1.74359375,1.0,2720.5412251974453,0.4139927726080809,1.308353052736376,0.9724275793001637,0.28628393750000003,0.6968061060846866
0.048,1.7424,1.0,2718.7877820554054,0.4172797881843403,1.3078299067625503,0.9728099180922535,0.2862338,0.6978340194596926
0.0485,1.74119375,1.0,2716.983035216604,0.42054838009443546,1.3073015881790415,0.9731812266246018,0.2861831375,0.698870324944639
0.049,1.739975,1.0,2715.129938799834,0.42379864752547836,1.3067680705339728,0.9735419159564164,0.28613195,0.6999150220053045
0.0495,1.73874375,1.0,2713.231444340357,0.427030689664581,1.3062293273754673,0.9738923778018094,0.2860802375,0.7009681092320437
0.05,1.7375,1.0,2711.2905005358416,0.43024460569885553,1.3056853322516482,0.9742329856123328,0.286028,0.7020295843309932
0.0505,1.73624375,1.0,2709.3100530081642,0.43344049481541397,1.3051360587106382,0.974564095589525,0.2859752375,0.7030994441152358
0.051000000000000004,1.734975,1.0,2707.293044080437,0.4366184562013683,1.3045814803005606,0.9748860476325779,0.28592195,0.7041776844959158
0.051500000000000004,1.73369375,1.0,2705.2424125696757,0.43977858904383055,1.3040215705695386,0.9751991662258257,0.2858681375,0.7052643004733135
0.052000000000000005,1.7324,1.0,2703.161093595017,0.44292099252991285,1.303456303065695,0.9755037612703669,0.2858138,0.7063592861278735
0.0525,1.73109375,1.0,2701.0520184013794,0.44604576584672717,1.302885651337153,0.9758001288637975,0.28575893750000003,0.7074626346111882
0.053,1.729775,1.0,2698.918114198808,0.44915300818138565,1.3023095889320355,0.9760885520317144,0.28570355000000003,0.7085743381369378
0.0535,1.72844375,1.0,2696.7623040169947,0.4522428187210002,1.3017280893984657,0.9763693014143601,0.2856476375,0.7096943879717841
0.054,1.7271,1.0,2694.5875065756863,0.455315296652683,1.3011411262845667,0.9766426359115202,0.2855912,0.7108227744262203
0.0545,1.7257437500000001,1.0,2692.3966361704283,0.458370541163546,1.3005486731384615,0.9769088032885457,0.2855342375,0.7119594868453771
0.055,1.724375,1.0,2690.1926025735042,0.4614086514407012,1.2999507035082731,0.977168040746147,0.28547675,0.7131045135997833
0.0555,1.72299375,1.0,2687.979400038206,0.46442969072915563,1.2993471809665718,0.9774205714637613,0.2854187375,0.7142578611204291
0.056,1.7216,1.0,2685.759043459502,0.46743380130784057,1.29873808716414,0.9776666177653296,0.2853602,0.7154195002471642
0.0565,1.72019375,1.0,2683.532632455562,0.4704210744122075,1.2981234121122829,0.9779063884414808,0.28530113749999997,0.7165893850463327
0.057,1.718775,1.0,2681.301272312238,0.47339160050487084,1.2975031457540267,0.9781400836203167,0.28524155,0.7177674689619208
0.0575,1.71734375,1.0,2679.0660665124924,0.47634547004844496,1.2968772780323974,0.9783678952661871,0.2851814375,0.7189537046813604
0.058,1.7159,1.0,2676.8281167254163,0.4792827735055442,1.2962457988904208,0.9785900075760985,0.2851208,0.7201480441319399
0.0585,1.71444375,1.0,2674.5885227978774,0.48220360133878304,1.295608698271123,0.9788065973538131,0.2850596375,0.7213504384772071
0.059000000000000004,1.7129750000000001,1.0,2672.348382747757,0.48510804401077573,1.2949659661175301,0.9790178343630574,0.28499795,0.7225608381133677
0.059500000000000004,1.71149375,1.0,2670.108792760021,0.4879961919841368,1.2943175923726682,0.9792238816611624,0.2849357375,0.7237791926656758
0.06,1.71,1.0,2667.8708471847362,0.4908681357214804,1.2936635669795629,0.9794248959143635,0.284873,0.7250054509848208
0.0605,1.7084937500000001,1.0,2665.635638537396,0.4937239656854212,1.2930038798812404,0.9796210276959025,0.2848097375,0.7262395611433023
0.061,1.7069750000000001,1.0,2663.4042575015196,0.4965637723385734,1.2923385210207268,0.9798124217679949,0.28474595,0.7274814704318051
0.0615,1.7054437500000001,1.0,2661.1777929332366,0.49938764614355147,1.2916674803410482,0.97999921734865,0.2846816375,0.7287311253555622
0.062,1.7039,1.0,2658.9573318688886,0.5021956775629698,1.2909907477852303,0.9801815483642708,0.2846168,0.7299884716307159
0.0625,1.70234375,1.0,2656.7439595336473,0.5049879570594427,1.2903083132962991,0.9803595436888873,0.2845514375,0.7312534541806691
0.063,1.7007750000000001,1.0,2654.538759353437,0.5077645750955845,1.289620166817281,0.9805333273708281,0.28448555,0.7325260171324308
0.0635,1.69919375,1.0,2652.3428129689446,0.5105256221340096,1.2889262982912018,0.9807030188475786,0.28441913750000003,0.7338061038129576
0.064,1.6976,1.0,2650.1545268028904,0.5132711345527873,1.2882267223228094,0.980868730461365,0.2843522,0.7350936114127873
0.0645,1.69599375,1.0,2647.976351821674,0.5160012556656249,1.2875214162162425,0.9810305763202251,0.2842847375,0.73638850515627
0.065,1.694375,1.0,2645.809168191033,0.5187160858123291,1.2868103717407071,0.9811886639875661,0.28421675,0.7376907227740989
0.0655,1.69274375,1.0,2643.653013366921,0.5214157058313843,1.286093588435716,0.9813430961524404,0.2841482375,0.739000187040737
0.066,1.6911,1.0,2641.50792478221,0.524100196561275,1.2853710658407815,0.981493971836025,0.2840792,0.740316820092144
0.0665,1.6894437500000001,1.0,2639.3739398476537,0.5267696388404857,1.2846428034954163,0.9816413865472066,0.2840096375,0.7416405434256054
0.067,1.687775,1.0,2637.2510959524925,0.5294241135075007,1.2839088009391328,0.9817854324304954,0.28393955,0.7429712778995659
0.0675,1.68609375,1.0,2635.1394304661003,0.5320637014008047,1.2831690577114434,0.9819261984066917,0.2838689375,0.7443089437334607
0.068,1.6844000000000001,1.0,2633.0389807383776,0.5346884833588821,1.282423573351861,0.9820637703067124,0.2837978,0.7456534605075447
0.0685,1.68269375,1.0,2630.949784100855,0.5372985402202173,1.2816723473998977,0.9821982309989523,0.2837261375,0.7470047471627276
0.069,1.680975,1.0,2628.87187786784,0.5398939528232947,1.2809153793950663,0.9823296605105358,0.28365395,0.7483627220004017
0.0695,1.67924375,1.0,2626.805299337241,0.5424748020065989,1.2801526688768794,0.9824581361427914,0.28358123749999997,0.7497273026822755
0.07,1.6775,1.0,2624.7500857918176,0.5450411686086144,1.2793842153848491,0.9825837325812616,0.283508,0.7510984062302049
0.07050000000000001,1.67574375,1.0,2622.7062744997224,0.5475931334678256,1.2786100184584883,0.982706522000542,0.2834342375,0.752475949026023
0.07100000000000001,1.673975,1.0,2620.6739027158305,0.5501307774227169,1.2778300776373093,0.9828265741642247,0.28335995,0.7538598468113734
0.07150000000000001,1.67219375,1.0,2618.6530076827717,0.5526541813117729,1.2770443924608248,0.9829439565202075,0.2832851375,0.7552500146875398
0.07200000000000001,1.6704,1.0,2616.643626631783,0.555163425973478,1.2762529624685472,0.9830587342916095,0.2832098,0.7566463671152788
0.0725,1.66859375,1.0,2614.645796783785,0.5576585922463165,1.2754557871999892,0.9831709705635279,0.2831339375,0.7580488179146501
0.073,1.6667750000000001,1.0,2612.659555350471,0.5601397609687733,1.274652866194663,0.9832807263658471,0.28305755,0.7594572802648487
0.0735,1.66494375,1.0,2610.6849395351655,0.5626070129793325,1.2738441989920815,0.9833880607523076,0.2829806375,0.7608716667040347
0.074,1.6631,1.0,2608.721986534017,0.5650604291164787,1.2730297851317567,0.9834930308760252,0.2829032,0.762291889129167
0.0745,1.6612437500000001,1.0,2606.770733536839,0.5675000902186963,1.2722096241532017,0.9835956920616424,0.2828252375,0.7637178587958312
0.075,1.659375,1.0,2604.832880333632,0.569926018901746,1.2713837001260604,0.983696093932872,0.28274675,0.7651495130927568
0.0755,1.65749375,1.0,2602.907087236763,0.5723383551986075,1.2705520253886142,0.9837942923134909,0.2826677375,0.7665867396623681
