Time [s],Phi [rad],STIM [ ],Fsee [N],Gamma [ ],Lcerel [ ],q [ ],Lmtc [m],fisomrel [ ]
0.0,1.8,1.0,17.96975992082513,3.506274964471378e-05,1.3793394547468987,0.005000324427824563,0.288653,0.5411402362000179
0.0005,1.79999375,1.0,18.287321418841163,0.005644075384150166,1.37930121303033,0.013010236419987505,0.2886527375,0.5412327480667101
0.001,1.799975,1.0,21.647503059497108,0.011221625892575119,1.3789353287819175,0.03573928458562894,0.28865195,0.5421173998754467
0.0015,1.79994375,1.0,31.137959985076407,0.01676789075345429,1.3780403519160063,0.07078055124553766,0.2886506375,0.5442777178674176
0.002,1.7999,1.0,53.73013564340983,0.022283045453632393,1.3763585531691873,0.11492960486004823,0.2886488,0.548323467654324
0.0025,1.79984375,1.0,97.36716554791695,0.02776726449599901,1.373923213382841,0.1648050404925451,0.28864643749999996,0.5541499696857475
0.003,1.7997750000000001,1.0,161.28129058408845,0.0332207214069772,1.3712022549903071,0.21751787917740034,0.28864354999999997,0.56061506980265
0.0035,1.79969375,1.0,238.04848124362377,0.03864358873629554,1.3685734909730016,0.2708490324827917,0.2886401375,0.566816268341756
0.004,1.7996,1.0,321.8552803369977,0.04403603806772278,1.3661458053838849,0.3231444532646189,0.2886362,0.5725039834176859
0.0045000000000000005,1.7994937500000001,1.0,409.67008181434886,0.04939824002426626,1.3639133722437744,0.37325155823619094,0.2886317375,0.5777010762186355
0.005,1.799375,1.0,499.8240091661059,0.05473036425932926,1.3618496209415103,0.4204505287376543,0.28862675,0.5824772060729762
0.0055,1.79924375,1.0,591.2046126987259,0.06003257950311988,1.359930744079054,0.4643617079154275,0.2886212375,0.5868936845239112
0.006,1.7991000000000001,1.0,682.932844471706,0.06530505350847456,1.3581388770931302,0.504852741853036,0.2886152,0.5909966349313514
0.006500000000000001,1.79894375,1.0,774.2893315782333,0.07054795302495406,1.356460288449257,0.5419587854095391,0.2886086375,0.5948216286947468
0.007,1.798775,1.0,864.7022160853878,0.07576144425018966,1.3548836695332043,0.5758206593281711,0.28860155,0.5983978989115034
0.0075,1.79859375,1.0,953.6481143010263,0.08094569170888428,1.3534005520889532,0.6066408167524688,0.2885939375,0.6017476077271146
0.008,1.7984,1.0,1040.7533139093023,0.0861008596422153,1.3520028333881906,0.6346510126139777,0.2885858,0.6048915984907071
0.0085,1.79819375,1.0,1125.704887427984,0.09122711126175283,1.3506837116703279,0.660092455500273,0.2885771375,0.607847367248477
0.009000000000000001,1.797975,1.0,1208.2533548575707,0.09632460844216717,1.3494372096966107,0.6832025626841856,0.28856795,0.6106302183655832
0.0095,1.79774375,1.0,1288.2349968672736,0.10139351286800186,1.3482575880616425,0.704206942303183,0.2885582375,0.6132546312419875
0.01,1.7975,1.0,1365.5196933362884,0.10643398502714894,1.3471398531423369,0.7233155469861889,0.288548,0.6157331707918265
0.0105,1.79724375,1.0,1440.0030734263455,0.11144618379378635,1.3460796465487648,0.7407207830016088,0.2885372375,0.6180767801169709
0.011,1.796975,1.0,1511.6396437225794,0.11643026778732268,1.3450726763075718,0.7565968895303498,0.28852595000000003,0.6202960716388068
0.0115,1.79669375,1.0,1580.4274825269854,0.12138639533787692,1.3441148219787884,0.7711005775966933,0.2885141375,0.6224011138217691
0.012,1.7964,1.0,1646.3704969699775,0.126314723377633,1.3432024958310258,0.7843722648141894,0.28850180000000003,0.6244006596152893
0.0125,1.79609375,1.0,1709.4737289159464,0.13121540703179316,1.3423325917659807,0.7965373455372943,0.2884889375,0.626302285123681
0.013000000000000001,1.7957750000000001,1.0,1769.7784247232078,0.13608860142555965,1.3415020036853496,0.8077073870160119,0.28847555,0.6281134613485061
0.0135,1.79544375,1.0,1827.3366513283686,0.14093446071472857,1.3407078718964454,0.8179816396628347,0.2884616375,0.6298410268743475
0.014,1.7951000000000001,1.0,1882.2384218067061,0.14575313958611225,1.3399472353712636,0.8274482379096357,0.2884472,0.6314919552405445
0.0145,1.79474375,1.0,1934.5351758846352,0.15054478949669417,1.3392178369724317,0.836185735936681,0.2884322375,0.6330716169634718
0.015,1.794375,1.0,1984.2906929554376,0.15530956150792904,1.3385175098534337,0.844263987209204,0.28841675,0.6345851260287961
0.0155,1.79399375,1.0,2031.5873708164315,0.16004760668127166,1.3378440871677528,0.8517451319773699,0.2884007375,0.6360375407072316
0.016,1.7936,1.0,2076.5075868888957,0.16475907485448424,1.3371955794695032,0.8586845628735444,0.2883842,0.6374334859254656
0.0165,1.7931937500000001,1.0,2119.155089283136,0.1694441165421677,1.336569929477702,0.8651316489504416,0.2883671375,0.6387776867709651
0.017,1.792775,1.0,2159.5984316460303,0.17410287883001424,1.335965579969757,0.8711306125387789,0.28834955,0.6400737534297987
0.0175,1.7923437500000001,1.0,2197.9139079952884,0.17873550858907628,1.335381004263647,0.8767209996759834,0.2883314375,0.6413251976374607
0.018000000000000002,1.7919,1.0,2234.1875652085673,0.18334215269040635,1.3348146756773511,0.8819382214577972,0.2883128,0.6425355004817289
0.0185,1.79144375,1.0,2268.498715657783,0.1879229564893734,1.3342652235952561,0.8868140763834028,0.2882936375,0.6437077815523388
0.019,1.790975,1.0,2300.9493237106267,0.19247806713864452,1.3337311292688674,0.8913770926990362,0.28827395,0.6448454507555055
0.0195,1.79049375,1.0,2331.60801507534,0.19700762755166676,1.3332112748266067,0.8956530342629542,0.2882537375,0.6459510405880982
0.02,1.79,1.0,2360.5442716297434,0.2015117801431113,1.3327045900400858,0.8996651292592271,0.288233,0.6470269635403649
0.0205,1.78949375,1.0,2387.8327144050813,0.2059906673276493,1.3322100046809158,0.9034343439267429,0.2882117375,0.6480756147637307
0.021,1.788975,1.0,2413.551446306828,0.21044443129602333,1.3317264603476644,0.9069796360605809,0.28818995000000003,0.64909934791202
0.021500000000000002,1.78844375,1.0,2437.770588340444,0.2148732125016059,1.3312530165036098,0.9103181967095672,0.2881676375,0.6501002520958521
0.022,1.7879,1.0,2460.572286071993,0.21927715383119928,1.3307886525779593,0.9134656023274201,0.2881448,0.651080571829267
0.0225,1.78734375,1.0,2482.012693216565,0.2236563928615631,1.33033262903555,0.9164360552842757,0.28812143749999997,0.6520419457731561
0.023,1.786775,1.0,2502.1506548600805,0.2280110671694569,1.3298842063412186,0.9192424753393565,0.28809755,0.6529860025721439
0.0235,1.78619375,1.0,2521.047484206666,0.23234131433164024,1.3294426449598027,0.9218966332168393,0.28807313749999996,0.6539143612305147
0.024,1.7856,1.0,2538.7667514520613,0.23664727192487267,1.329007205356139,0.9244092686760507,0.2880482,0.6548286314532633
0.0245,1.78499375,1.0,2555.3629368204033,0.2409290748094448,1.3285772527214472,0.9267902121959412,0.2880227375,0.655730194496257
0.025,1.784375,1.0,2570.9022541932786,0.245186862394429,1.3281520586078541,0.92904844481599,0.28799675,0.6566206199981743
0.025500000000000002,1.78374375,1.0,2585.434097524996,0.24942076897654444,1.3277310674988485,0.9311922223118866,0.2879702375,0.657501107768065
0.026000000000000002,1.7831000000000001,1.0,2599.001782204403,0.2536309267646755,1.327313792978538,0.933229129417781,0.2879432,0.6583727070344478
0.0265,1.78244375,1.0,2611.649773195726,0.2578174679677065,1.3268997486310299,0.9351661339109797,0.2879156375,0.6592364615592139
0.027,1.781775,1.0,2623.423586699526,0.2619805247945218,1.326488448040432,0.9370096450725076,0.28788755,0.6600934097453768
0.0275,1.7810937500000001,1.0,2634.3696970586657,0.2661202294540057,1.3260794047908513,0.9387655658963292,0.2878589375,0.6609445847297326
0.028,1.7804,1.0,2644.5330104335276,0.27023671320872383,1.3256721549844757,0.940439342717424,0.2878298,0.6617909676905858
0.0285,1.77969375,1.0,2653.951494293698,0.274330105016958,1.3252663057857648,0.9420360131476222,0.2878001375,0.662633387501535
0.029,1.778975,1.0,2662.6776920348975,0.2784005402366256,1.324861336158205,0.943560217865817,0.28776995,0.6634729345328629
0.029500000000000002,1.7782437500000001,1.0,2670.741497977065,0.2824481451774256,1.3244569393475458,0.9450162774006068,0.2877392375,0.6643102503482876
0.03,1.7775,1.0,2678.173274010276,0.2864730461490569,1.324052808599538,0.9464081940671224,0.287708,0.6651459733378546
0.0305,1.77674375,1.0,2685.003808348572,0.29047536946121827,1.323648637159931,0.9477396794423488,0.2876762375,0.6659807387261458
0.031,1.775975,1.0,2691.264276369501,0.2944552414236086,1.3232441182744747,0.9490141791437434,0.28764395,0.6668151785744815
0.0315,1.7751937500000001,1.0,2696.9862035399965,0.2984127883459269,1.3228389451889193,0.9502348952050537,0.2876111375,0.6676499217771236
0.032,1.7744,1.0,2702.201430428741,0.3023481365378718,1.3224328111490147,0.9514048063083219,0.2875778,0.6684855940514791
0.0325,1.77359375,1.0,2706.9357274255194,0.3062614086625835,1.3220254673813612,0.9525266919568285,0.2875439375,0.6693226988450762
0.033,1.772775,1.0,2711.220904691794,0.3101527328085106,1.321616612137706,0.9536031381228768,0.28750955,0.6701618456539044
0.0335,1.7719437500000002,1.0,2715.081862899226,0.314022232385398,1.3212060086825645,0.9546365634808645,0.2874746375,0.6710035076091081
0.034,1.7711000000000001,1.0,2718.5390254389613,0.31787002779784707,1.3207934626906743,0.9556292304641666,0.2874392,0.6718480685424967
0.0345,1.7702437500000001,1.0,2721.6129644469643,0.3216962394504591,1.3203787798367732,0.9565832535266954,0.2874032375,0.6726959101731518
0.035,1.7693750000000001,1.0,2724.324385269511,0.32550098774783537,1.3199617657955993,0.957500610551885,0.28736675,0.6735474120821494
0.035500000000000004,1.76849375,1.0,2726.6941117668907,0.3292843930945772,1.3195422262418903,0.9583831532555519,0.2873297375,0.6744029516848744
0.036000000000000004,1.7676,1.0,2728.743072453428,0.3330465758952859,1.3191199668503841,0.9592326166818234,0.2872922,0.6752629042009239
0.0365,1.76669375,1.0,2730.4907872197978,0.33678765475285655,1.3186948069300979,0.9600506288569014,0.2872541375,0.6761276149100371
0.037,1.765775,1.0,2731.951267075992,0.34050774199604716,1.3182666165483559,0.9608387213748841,0.28721555,0.6769973239504523
0.0375,1.76484375,1.0,2733.153538195316,0.34420697083356816,1.317835129947385,0.9615983239508484,0.2871764375,0.6778725451891867
0.038,1.7639,1.0,2734.1095836664795,0.347885454863981,1.3174002367473776,0.9623307912392574,0.28713679999999997,0.6787534748491986
0.0385,1.76294375,1.0,2734.8314295331093,0.3515433076858472,1.3169618265685257,0.9630373974781203,0.28709663750000003,0.6796403077115557
0.039,1.761975,1.0,2735.331139449656,0.3551806428977281,1.316519789031022,0.9637193421346602,0.28705595,0.6805332370910628
0.0395,1.7609937500000001,1.0,2735.620809609073,0.3587975740981852,1.3160740137550586,0.9643777550959822,0.2870147375,0.6814324548111194
0.04,1.76,1.0,2735.7125639389856,0.36239421488578,1.315624390360828,0.9650137014458988,0.286973,0.6823381511777923
0.0405,1.7589937500000001,1.0,2735.6185495694344,0.36597067885907386,1.3151708084685223,0.9656281858649464,0.2869307375,0.6832505149531187
0.041,1.757975,1.0,2735.350932569437,0.3695270796166283,1.3147131576983337,0.9662221566869872,0.28688795,0.6841697333276267
0.0415,1.75694375,1.0,2734.921893954536,0.37306353075700466,1.3142513276704548,0.966796509642505,0.2868446375,0.6850959918920805
0.042,1.7559,1.0,2734.343625964409,0.37658014587876454,1.3137852080050778,0.9673520913157978,0.28680079999999997,0.6860294746084504
0.0425,1.75484375,1.0,2733.6208577170205,0.38007702595026505,1.3133147561787424,0.9678897058892557,0.2867564375,0.686970228190865
0.043000000000000003,1.753775,1.0,2732.767826218223,0.3835542919004857,1.312839843380455,0.9684101105612639,0.28671155,0.687918470643152
0.043500000000000004,1.75269375,1.0,2731.79846455544,0.38701206362570456,1.3123603435713684,0.9689140223173038,0.28666613750000003,0.6888744125126807
0.044,1.7516,1.0,2730.7187125107157,0.3904504467106861,1.3118762033364053,0.9694021239762558,0.2866202,0.6898381179606798
0.0445,1.75049375,1.0,2729.534512177638,0.39386954674019486,1.3113873692604878,0.9698750628474833,0.2865737375,0.6908096500798234
0.045,1.7493750000000001,1.0,2728.251806802348,0.3972694692989951,1.310893787928539,0.9703334529223746,0.28652675,0.6917890708783312
0.0455,1.74824375,1.0,2726.876539688784,0.4006503199718513,1.310395405925481,0.9707778769099941,0.2864792375,0.6927764412638899
0.046,1.7471,1.0,2725.414653167001,0.4040122043435278,1.3098921698362365,0.9712088881293415,0.2864312,0.693771821027389
0.0465,1.7459437500000001,1.0,2723.872087624671,0.4073552279987891,1.309384026245728,0.9716270122696,0.28638263750000004,0.6947752688264757
0.047,1.744775,1.0,2722.2547806014904,0.41067949652239955,1.308870921738878,0.972032749028758,0.28633355,0.6957868421689282
0.0475,1.74359375,1.0,2720.5686659479584,0.4139851154991236,1.3083528029006095,0.9724265736400792,0.28628393750000003,0.6968065973958477
0.048,1.7424,1.0,2718.8196730457043,0.41727219051372566,1.3078296163158445,0.9728089382950795,0.2862338,0.6978345896646683
0.0485,1.74119375,1.0,2717.0137260929887,0.4205408271509701,1.307301308569506,0.9731802734709276,0.2861831375,0.698870872931981
0.049,1.739975,1.0,2715.1567434517115,0.4237911309956214,1.306767826246516,0.9735409891695139,0.28613195,0.6999154999361841
0.0495,1.73874375,1.0,2713.253580144882,0.4270232058061227,1.3062291255674652,0.9738914765125164,0.2860802375,0.7009685033615614
0.05,1.7375,1.0,2711.307595535961,0.43023715263961504,1.3056851763438726,0.9742321089680741,0.286028,0.7020298882768352
0.0505,1.73624375,1.0,2709.322433354529,0.4334330725124661,1.3051359457595753,0.9745632425675306,0.2859752375,0.7030996639203111
0.051000000000000004,1.734975,1.0,2707.3012831137257,0.4366110655897957,1.3045814051043991,0.9748852172150325,0.28592195,0.7041778305632331
0.051500000000000004,1.73369375,1.0,2705.247330422014,0.4397712320367236,1.3040215256681709,0.9751983573961213,0.2858681375,0.705264387533156
0.052000000000000005,1.7324,1.0,2703.163756778883,0.4429136720183696,1.3034562787407165,0.9755029730097154,0.2858138,0.7063593332041984
0.0525,1.73109375,1.0,2701.0529173627715,0.44603848559445486,1.3028856431230167,0.9757993606117892,0.28575893750000003,0.7074626504781779
0.053,1.729775,1.0,2698.9187508066184,0.4491457717333827,1.3023095831128197,0.9760878026436857,0.28570355000000003,0.7085743493563557
0.0535,1.72844375,1.0,2696.7654702690265,0.4522356284224832,1.3017280604442771,0.9763685689299477,0.2856476375,0.7096944436879293
0.054,1.7271,1.0,2694.591682745442,0.45530815335980535,1.3011410880796543,0.9766419206961523,0.2855912,0.7108228478003886
0.0545,1.7257437500000001,1.0,2692.406383534594,0.4583634439827579,1.3005485839302857,0.9769081021639633,0.2855342375,0.7119596578364158
0.055,1.7243793449739309,1.0,2690.41302858454,0.46140159682469944,1.2999506476222495,0.97716735793016,0.2854769324889051,0.7131046205069933
0.0555,1.7230147672744576,1.0,2688.9720122527797,0.4644227079312524,1.299347581591201,0.9774199342222711,0.28541962022552725,0.7142570962866686
0.056,1.721650189574984,1.0,2688.050834648225,0.46742687309952896,1.2987397574374258,0.9776660710009917,0.28536230796214934,0.7154163180045536
0.0565,1.7202856118755108,1.0,2687.607304110526,0.47041418727602635,1.298127559197184,0.977905998935486,0.28530499569877144,0.7165815001502858
0.057,1.7189210341760375,1.0,2687.606347885745,0.4733847440726038,1.2975113070598492,0.9781399354527612,0.2852476834353936,0.7177519839653703
0.0575,1.7175564564765642,1.0,2688.0145342272262,0.47633863669685095,1.2968913072402504,0.9783680883210513,0.2851903711720157,0.7189271418532375
0.058,1.716191878777091,1.0,2688.7821364056886,0.47927596352607177,1.2962680159965905,0.978590665852097,0.2851330589086378,0.7201060672750128
0.0585,1.7148273010776176,1.0,2689.886212884689,0.4821968156277378,1.2956416447974841,0.9788078537807546,0.2850757466452599,0.7212883222622393
0.059000000000000004,1.7134627233781443,1.0,2691.3038692503933,0.4851012840693207,1.2950124051115468,0.979019830507289,0.28501843438188207,0.7224734720353974
0.059500000000000004,1.712098145678671,1.0,2693.012244266673,0.4879894599182919,1.2943805084073938,0.9792267674503662,0.28496112211850416,0.7236610850440189
0.06,1.7107335679791977,1.0,2694.988496921921,0.4908614342421231,1.2937461661536402,0.9794288293804715,0.2849038098551263,0.7248507330039476
0.0605,1.7093689902797244,1.0,2697.2097944667335,0.49371729810828585,1.2931095898189013,0.9796261747349724,0.2848464975917484,0.7260419909317456
0.061,1.7080044125802512,1.0,2699.6533014440233,0.49655714258425165,1.2924709908717922,0.9798189559159696,0.28478918532837055,0.7272344371762502
0.0615,1.7066398348807779,1.0,2702.30035277497,0.49938105657958853,1.2918305425675538,0.9800073173849175,0.28473187306499265,0.7284277245686452
0.062,1.7052752571813046,1.0,2705.1323118738533,0.5021891306270972,1.2911884177832302,0.9801913983007513,0.2846745608016148,0.7296215094033769
0.0625,1.703910679481831,1.0,2708.128194823635,0.5049814569062524,1.2905448106373054,0.9803713338837584,0.2846172485382369,0.7308154113894526
0.063,1.7025461017823578,1.0,2711.277228866804,0.5077581218853008,1.289899821837547,0.9805472491420095,0.28455993627485904,0.732009226079587
0.0635,1.7011815240828845,1.0,2714.5686289243904,0.510519212032489,1.2892535520917232,0.9807192645160814,0.28450262401148113,0.7332027506451555
0.064,1.6998169463834112,1.0,2717.9915946241344,0.5132648138160638,1.2886061021076014,0.9808874960822535,0.2844453117481033,0.7343957838847474
0.0645,1.698452368683938,1.0,2721.5353075520825,0.5159950137042719,1.2879575725929493,0.9810520557452541,0.2843879994847254,0.7355881262320674
0.065,1.6970877909844646,1.0,2725.1889287303497,0.51870989816536,1.287308064255535,0.9812130514211705,0.2843306872213475,0.7367795797631931
0.0655,1.6957232132849913,1.0,2728.9415963185775,0.5214095536675747,1.286657677803126,0.9813705872110878,0.2842733749579696,0.7379699482031863
0.066,1.694358635585518,1.0,2732.782423541297,0.5240940666791628,1.28600651394349,0.98152476356599,0.28421606269459176,0.7391590369320544
0.0665,1.6929940578860447,1.0,2736.709048168152,0.5267635142576839,1.2853545957584298,0.9816756730229664,0.28415875043121386,0.7403467942587472
0.067,1.6916294801865712,1.0,2740.704103935461,0.5294179938423081,1.2847020824003366,0.9818234128662723,0.284101438167836,0.7415329218013775
0.0675,1.690264902487098,1.0,2744.7616202293348,0.5320575886578182,1.2840490292895776,0.9819680711323218,0.2840441259044581,0.7427173117335736
0.068,1.6889003247876246,1.0,2748.8772415136727,0.534682379943381,1.2833954770729317,0.9821097320292076,0.28398681364108025,0.743899883847594
0.0685,1.6875357470881513,1.0,2753.046600559608,0.5372924489381639,1.2827414663971783,0.9822484769212028,0.28392950137770234,0.7450805586083331
0.069,1.686171169388678,1.0,2757.2653180150837,0.5398878768813339,1.2820870379090963,0.9823843844455622,0.2838721891143245,0.7462592571545665
0.0695,1.6848065916892048,1.0,2761.529002009017,0.5424687450120582,1.2814322322554652,0.9825175306237656,0.2838148768509466,0.7474359013000826
0.07,1.6834420139897315,1.0,2765.833247793905,0.5450351345695039,1.2807770900830637,0.982647988967503,0.28375756458756873,0.7486104135347166
0.07050000000000001,1.6820774362902582,1.0,2770.173637423579,0.5475871267928383,1.2801216520386716,0.9827758305796844,0.2837002523241908,0.7497827170252724
0.07100000000000001,1.680712858590785,1.0,2774.5457394688437,0.5501248029212282,1.2794659587690673,0.9829011242507393,0.283642940060813,0.7509527356163456
0.07150000000000001,1.6793482808913116,1.0,2778.945108768525,0.5526482441938411,1.2788100509210307,0.9830239365504541,0.28358562779743507,0.752120393831034
0.07200000000000001,1.6779837031918383,1.0,2783.367286218471,0.5551575318498438,1.2781539691413406,0.9831443319155865,0.2835283155340572,0.7532856168715503
0.0725,1.676619125492365,1.0,2787.8125181588025,0.5576527322236242,1.277497711628743,0.9832623699564116,0.2834710032706793,0.7544484057423821
0.073,1.6752545477928917,1.0,2792.2740794316483,0.5601339402953173,1.2768413392414546,0.9833781128545102,0.28341369100730146,0.7556086507876207
0.0735,1.6738899700934184,1.0,2796.7481860357907,0.562601239654384,1.276184886233783,0.9834916190062287,0.28335637874392355,0.756766290229695
