Time [s],Phi [rad],STIM [ ],Fsee [N],Gamma [ ],Lcerel [ ],q [ ],Lmtc [m],fisomrel [ ]
0.0,1.8,1.0,17.983200770855706,0.00013180905291327726,1.379337949312661,0.005004537063949734,0.288653,0.5411438782246973
0.0005,1.79999375,1.0,18.332756517305384,0.005740279017189314,1.3792961706650828,0.013282140182202373,0.2886527375,0.5412449455319017
0.001,1.799975,1.0,21.76493704940781,0.011317289899304143,1.3789233589103342,0.036246142268394094,0.28865195,0.5421463267605551
0.0015,1.79994375,1.0,31.409948684388375,0.016863018160780164,1.3780172553259578,0.0714726145001644,0.2886506375,0.5443334013897629
0.002,1.7999,1.0,54.30997118915743,0.022377639271341416,1.376321088985639,0.11574810864904676,0.2886488,0.548413386430685
0.0025,1.79984375,1.0,98.33605208443701,0.02786132771724494,1.3738767000301673,0.1656948027731608,0.28864643749999996,0.5542608838474246
0.003,1.7997750000000001,1.0,162.53805071618683,0.03331425700790998,1.3711553516042707,0.21843536077189565,0.28864354999999997,0.5607261000494586
0.0035,1.79969375,1.0,239.46631013118713,0.03873659967640805,1.3685299163878866,0.27176126691078045,0.2886401375,0.5669186885431675
0.004,1.7996,1.0,323.36244850237,0.044128527289972845,1.366105956951757,0.3240275319871347,0.2886362,0.5725970289682341
0.0045000000000000005,1.7994937500000001,1.0,411.22993563270956,0.049490210455268226,1.3638768092844062,0.37408968356838945,0.2886317375,0.5777859300542088
0.005,1.799375,1.0,501.4150387698385,0.05482181881011519,1.3618158524326067,0.42123455646470137,0.28862675,0.5825551305116905
0.0055,1.79924375,1.0,592.8089970003812,0.06012352106431017,1.3598994305127494,0.46508753294301647,0.2886212375,0.5869655609585417
0.006,1.7991000000000001,1.0,684.5380012232619,0.06539548495885418,1.3581097255960777,0.5055197356871544,0.2886152,0.5910632156680548
0.006500000000000001,1.79894375,1.0,775.8887671001095,0.07063787729433503,1.3564330063130803,0.5425685719091131,0.2886086375,0.5948836479930475
0.007,1.798775,1.0,866.271014879208,0.07585086398614671,1.354858345988808,0.5763764627214337,0.28860155,0.5984552113586974
0.0075,1.79859375,1.0,955.1915747959928,0.08103460985575901,1.3533768267076276,0.6071463032286752,0.2885939375,0.6018010789095898
0.008,1.7984,1.0,1042.2690996970125,0.08618927910157523,1.3519805288485556,0.6351102634720481,0.2885858,0.6049416687228673
0.0085,1.79819375,1.0,1127.1861350824834,0.09131503481840393,1.350662753180662,0.6605096325539302,0.2885771375,0.6078942395783102
0.009000000000000001,1.797975,1.0,1209.693743323618,0.09641203890353664,1.3494175372383355,0.6835816820981176,0.28856795,0.610674058259874
0.0095,1.79774375,1.0,1289.6229501802434,0.1014804526465814,1.3482392291150453,0.7045518144508726,0.2885582375,0.613295405948211
0.01,1.7975,1.0,1366.8633057515121,0.10652043719799355,1.3471225905660857,0.7236295540429588,0.288548,0.6157713874958215
0.0105,1.79724375,1.0,1441.304845396319,0.1115321511923349,1.34606335949738,0.7410070493971782,0.2885372375,0.6181127270835047
0.011,1.796975,1.0,1512.8972679466676,0.11651575313788938,1.345057318690494,0.7568582684864089,0.28852595000000003,0.6203298686802516
0.0115,1.79669375,1.0,1581.6260916639771,0.12147140078735232,1.3441005068468292,0.7713396980238261,0.2885141375,0.6224325292976889
0.012,1.7964,1.0,1647.5178817821818,0.1263992519726767,1.3431890695095876,0.7845913578684475,0.28850180000000003,0.6244300464577279
0.0125,1.79609375,1.0,1710.5776882269631,0.13129946172006582,1.3423199141050952,0.7967384036440013,0.2884889375,0.6263299630327814
0.013000000000000001,1.7957750000000001,1.0,1770.838267336409,0.1361721847141441,1.3414900416714761,0.8078922243526856,0.28847555,0.6281395135179002
0.0135,1.79544375,1.0,1828.359054130628,0.14101757526380168,1.3406965155301516,0.8181518385802856,0.2884616375,0.6298657025051442
0.014,1.7951000000000001,1.0,1883.2139039762974,0.14583578745453277,1.3399365592588415,0.8276052720045628,0.2884472,0.631515101018049
0.0145,1.79474375,1.0,1935.4696003580623,0.15062697384833254,1.339207749303212,0.8363308570149014,0.2884322375,0.6330934400913563
0.015,1.794375,1.0,1985.1869584100602,0.15539128511134462,1.3385079561368065,0.8443983205509097,0.28841675,0.6346057513778122
0.0155,1.79399375,1.0,2032.4451931517685,0.1601288719097126,1.3378350502331677,0.8518696908922254,0.2884007375,0.6360570115878605
0.016,1.7936,1.0,2077.3293913829075,0.16483988400997981,1.3371870160707804,0.8588002419591211,0.2883842,0.6374519011265412
0.0165,1.7931937500000001,1.0,2119.9374241987653,0.16952447201697396,1.3365618597544011,0.8652392659653722,0.2883671375,0.6387950081589886
0.017,1.792775,1.0,2160.348288267174,0.17418278392502,1.33595791798272,0.8712308680814347,0.28834955,0.6400901701043242
0.0175,1.7923437500000001,1.0,2198.633148351848,0.1788149659974126,1.3353737194145137,0.8768145355555089,0.2883314375,0.6413407791010047
0.018000000000000002,1.7919,1.0,2234.8727086885856,0.1834211644974464,1.3348077927085593,0.8820256272773966,0.2883128,0.6425501975179285
0.0185,1.79144375,1.0,2269.156408768955,0.18800152568841608,1.3342586665236333,0.8868958558682317,0.2882936375,0.6437217597380182
0.019,1.790975,1.0,2301.5624701805655,0.19255619384505143,1.3337250595419237,0.8914537561156729,0.28827395,0.6448583693677918
0.0195,1.79049375,1.0,2332.1893409317104,0.1970853157920361,1.3332055580373745,0.8957249723484624,0.2882537375,0.6459631890720723
0.02,1.79,1.0,2361.1026994508716,0.20158903336419423,1.3326991321766182,0.8997327034166251,0.288233,0.6470385441611134
0.0205,1.78949375,1.0,2388.3704775643364,0.206067488055112,1.332204778890045,0.9034978952327305,0.2882117375,0.6480866864879345
0.021,1.788975,1.0,2414.065139984804,0.2105208213583755,1.3317214951080458,0.9070394848616719,0.28818995000000003,0.6491098523063863
0.021500000000000002,1.78844375,1.0,2438.263301430389,0.21494917476757086,1.3312482777610113,0.9103746207498977,0.2881676375,0.6501102630113645
0.022,1.7879,1.0,2461.0300473175507,0.21935268743065403,1.330784270418884,0.9135188851030714,0.2881448,0.6510898164650724
0.0225,1.78734375,1.0,2482.448835341504,0.2237315020434276,1.3303284718985533,0.9164864054771861,0.28812143749999997,0.6520507036134142
0.023,1.786775,1.0,2502.5758424652972,0.2280857559283917,1.3298801699542289,0.9192900880340465,0.28809755,0.6529944944865086
0.0235,1.78619375,1.0,2521.464489928859,0.23241558551132044,1.3294387011049629,0.9219416999377921,0.28807313749999996,0.6539226473669482
0.024,1.7856,1.0,2539.170325416621,0.23672112721798802,1.3290034018698074,0.9244519776149652,0.2880482,0.6548366121112693
0.0245,1.78499375,1.0,2555.7508443775996,0.24100251747416865,1.3285736087678142,0.9268307312376267,0.2880227375,0.6557378304250492
0.025,1.784375,1.0,2571.264442844567,0.24525989245328955,1.3281486665430662,0.9290869386403166,0.28799675,0.6566277188967078
0.025500000000000002,1.78374375,1.0,2585.7609926359837,0.2494933853846162,1.3277280145794372,0.9312288405794872,0.2879702375,0.6575074887111614
0.026000000000000002,1.7831000000000001,1.0,2599.307353596173,0.25370313491466706,1.3273109466566209,0.9332639767140519,0.2879432,0.6583786485929424
0.0265,1.78244375,1.0,2611.9433952599566,0.25788927207471923,1.326897020241395,0.9351993127303334,0.2879156375,0.6592421497362787
0.027,1.781775,1.0,2623.7099797321634,0.2620519278960499,1.3264857928005376,0.937041255997358,0.28788755,0.6600989384547336
0.0275,1.7810937500000001,1.0,2634.648877646692,0.2661912334099363,1.3260768218008268,0.9387957077520703,0.2878589375,0.6609499562636221
0.028,1.7804,1.0,2644.8026884679953,0.27030731964765536,1.3256696647090407,0.9404681097733206,0.2878298,0.6617961399499395
0.0285,1.77969375,1.0,2654.2147651346004,0.2744003176404844,1.3252638789919573,0.9420634861863871,0.2878001375,0.6626384216298002
0.029,1.778975,1.0,2662.916383981519,0.27847035400381975,1.3248591395322447,0.9435864957628127,0.28776995,0.6634774855305153
0.029500000000000002,1.7782437500000001,1.0,2670.9574420439776,0.282517563107494,1.3244549550630067,0.9450414295411145,0.2877392375,0.6643143562980303
0.03,1.7775,1.0,2678.3766456155267,0.2865420742912593,1.3240509424342186,0.9464322755874214,0.287708,0.6651498300621643
0.0305,1.77674375,1.0,2685.20135516236,0.29054401245846867,1.3236468267498203,0.9477627451015547,0.2876762375,0.6659844755573081
0.031,1.775975,1.0,2691.4592949476923,0.29452350251247544,1.3232423331137508,0.9490362833653679,0.28764395,0.6668188586836064
0.0315,1.7751937500000001,1.0,2697.1785200912245,0.2984806693566327,1.3228371866299502,0.9502560921118677,0.2876111375,0.6676535425027382
0.032,1.7744,1.0,2702.3873853036675,0.3024156378942936,1.322431112402358,0.9514251497518171,0.2875778,0.6684890872288839
0.0325,1.77359375,1.0,2707.1145152975073,0.30632853302881125,1.3220238355349139,0.9525462296861047,0.2875439375,0.6693260502148685
0.033,1.772775,1.0,2711.388776872301,0.3102194796635389,1.321615081131557,0.9536219169055925,0.28750955,0.6701649859334886
0.0335,1.7719437500000002,1.0,2715.2325342389754,0.31408859969665076,1.3212046355244782,0.9546546292401402,0.2874746375,0.6710063205280201
0.034,1.7711000000000001,1.0,2718.671562805065,0.3179360172795509,1.3207922555645897,0.9556466216893088,0.2874392,0.6718505381689508
0.0345,1.7702437500000001,1.0,2721.7379360315595,0.32176185824403364,1.3203776422606008,0.9565999961123176,0.2874032375,0.6726982345010794
0.035,1.7693750000000001,1.0,2724.4487384682056,0.3255662411131161,1.3199606344117514,0.9575167317417281,0.28736675,0.6735497207488188
0.035500000000000004,1.76849375,1.0,2726.821162596335,0.32934928440981537,1.3195410708172803,0.958398681558664,0.2873297375,0.6744053063167916
0.036000000000000004,1.7676,1.0,2728.8724974987263,0.3331111066571486,1.3191187902764274,0.9592475817943481,0.2872922,0.6752652987643799
0.0365,1.76669375,1.0,2730.620118106366,0.33685182637813277,1.3186936315884314,0.960065060612936,0.2872541375,0.6761300037786261
0.037,1.765775,1.0,2732.081475020204,0.3405715620957852,1.318265433552532,0.9608526460545956,0.28721555,0.6769997251454685
0.0375,1.76484375,1.0,2733.2740849105253,0.3442704323331229,1.317834034967968,0.9616117733093953,0.2871764375,0.6778747647193255
0.038,1.7639,1.0,2734.215521490953,0.34794855561316296,1.3173992746339793,0.9623437913851701,0.28713679999999997,0.6787554223910197
0.0385,1.76294375,1.0,2734.9248880563673,0.3516060436034288,1.3169609779015534,0.9630499665751233,0.28709663750000003,0.6796420232388105
0.039,1.761975,1.0,2735.415331466806,0.3552430209961227,1.3165190245794176,0.963731498571955,0.28705595,0.6805347802273407
0.0395,1.7609937500000001,1.0,2735.698254225818,0.3588596004168272,1.3160733106056917,0.9643895165528001,0.2870147375,0.681433872202672
0.04,1.76,1.0,2735.7851077697696,0.3624558942931066,1.3156237317183266,0.9650250848947984,0.286973,0.6823394769649165
0.0405,1.7589937500000001,1.0,2735.6873661918366,0.3660320150525255,1.3151701836552734,0.9656392076297522,0.2869307375,0.6832517708376953
0.041,1.757975,1.0,2735.4165222470397,0.3695880751226482,1.314712562154483,0.9662328324956293,0.28688795,0.6841709286420938
0.0415,1.75694375,1.0,2734.9840835983387,0.3731241869310392,1.3142507629539064,0.9668068546752748,0.2868446375,0.6850971236699226
0.042,1.7559,1.0,2734.4015693040333,0.376640462905263,1.3137846817914949,0.9673621202494701,0.28680079999999997,0.6860305276562828
0.0425,1.75484375,1.0,2733.6805065462177,0.3801370154728839,1.3133142144051992,0.9678994293888857,0.2867564375,0.686971310751444
0.043000000000000003,1.753775,1.0,2732.819945104196,0.3836139554451225,1.3128393699250667,0.9684195482712743,0.28671155,0.6879194152579314
0.043500000000000004,1.75269375,1.0,2731.8511626313693,0.38707139385449346,1.3123598647696346,0.9689231789102606,0.28666613750000003,0.6888753663300242
0.044,1.7516,1.0,2730.7823485069384,0.3905094396631884,1.3118756250417052,0.9694110027603892,0.2866202,0.6898392681914722
0.0445,1.75049375,1.0,2729.6064485840307,0.3939282005554665,1.3113867153941792,0.9698836764104891,0.2865737375,0.6908109485842617
0.045,1.749375000323745,1.0,2728.3164369809538,0.3973277842155868,1.3108932004799563,0.9703418225854288,0.2865267500135973,0.6917902356356178
0.0455,1.7482500902883011,1.0,2727.2201101953124,0.40070829832780813,1.3103951449519373,0.970786032222858,0.2864795037921086,0.6927769578771232
0.046,1.7471251802528573,1.0,2726.6168514448736,0.4040698503462117,1.3098926070539483,0.9712168658943392,0.28643225757062,0.6937709569301889
0.0465,1.7460002702174133,1.0,2726.4743105581433,0.4074125463444648,1.309385879511544,0.9716348731751754,0.28638501134913136,0.6947716121137384
0.047,1.7448753601819695,1.0,2726.73710617573,0.41073649407190815,1.3088754656442378,0.9720405918380848,0.28633776512764275,0.6957778913362731
0.0475,1.7437504501465257,1.0,2727.37706178297,0.4140417973457725,1.3083616221977603,0.9724345150260789,0.2862905189061541,0.6967892536848397
0.048,1.742625540111082,1.0,2728.3660698993613,0.4173285599832885,1.3078446059178432,0.9728171119245754,0.28624327268466543,0.69780516137528
0.0485,1.7415006300756382,1.0,2729.6760732868415,0.4205968858016869,1.3073246735502173,0.9731888291544739,0.28619602646317677,0.6988250798062894
0.049,1.7403757200401944,1.0,2731.2790476189844,0.4238468786181985,1.3068020818406136,0.9735500920720171,0.28614878024168816,0.6998484776092647
0.0495,1.7392508100047503,1.0,2733.150273316279,0.42707864101376647,1.30627705767073,0.9739013038088187,0.2861015340201995,0.7008748850272968
0.05,1.7381258999693066,1.0,2735.2638510270717,0.4302922768944002,1.3057498387046538,0.9742428495684441,0.2860542877987109,0.701903814196678
0.0505,1.7370009899338628,1.0,2737.6001428657614,0.433487887654777,1.3052206057220714,0.9745750927018885,0.28600704157722223,0.7029348910798846
0.051000000000000004,1.735876079898419,1.0,2740.1425844723585,0.4366655733839675,1.3046895115713681,0.9748983779788829,0.28595979535573357,0.7039677982729629
0.051500000000000004,1.7347511698629752,1.0,2742.874604567503,0.43982543417104214,1.3041567091009292,0.9752130345698666,0.28591254913424496,0.7050022203727447
0.052000000000000005,1.7336262598275314,1.0,2745.7796189039823,0.4429675701050715,1.3036223511591396,0.9755193768928079,0.2858653029127563,0.7060378439942478
0.0525,1.7325013497920876,1.0,2748.8422335659793,0.4460920803252063,1.3030865796453086,0.9758177046154789,0.2858180566912677,0.7070743789505995
0.053,1.7313764397566436,1.0,2752.0537269544225,0.4491990592684689,1.3025494758715677,0.9761082999615951,0.28577081046977904,0.7081116538579072
0.0535,1.7302515297211998,1.0,2755.387658292425,0.4522886165063364,1.3020112813736016,0.9763914443081317,0.2857235642482904,0.7091491898057247
0.054,1.729126619685756,1.0,2758.836125206686,0.4553608471380987,1.3014720695769955,0.976667395144451,0.28567631802680177,0.7101868343908266
0.0545,1.7280017096503122,1.0,2762.391212241598,0.45841584626304577,1.3009319139073343,0.9769363989657006,0.2856290718053131,0.7112244361991988
0.055,1.7268767996148684,1.0,2766.044989263122,0.46145370898046756,1.3003908877902033,0.9771986918363829,0.2855818255838245,0.7122618448106298
0.0555,1.7257518895794246,1.0,2769.789509981579,0.4644745303896539,1.2998490646511873,0.9774544999205255,0.28553457936233584,0.7132989108029595
0.056,1.7246269795439808,1.0,2773.6168105946963,0.46747840558989484,1.2993065179158716,0.977704039980699,0.2854873331408472,0.7143354857559823
0.0565,1.7235020695085368,1.0,2777.5189085496568,0.4704654296804802,1.298763321009841,0.9779475198479453,0.2854400869193585,0.7153714222550085
0.057,1.722377159473093,1.0,2781.487801425017,0.47343569776070005,1.2982195473586806,0.9781851388645417,0.2853928406978699,0.7164065738940806
0.0575,1.7212522494376492,1.0,2785.5154659317614,0.4763893049298442,1.297675270387976,0.9784170883013749,0.28534559447638125,0.7174407952788439
0.058,1.7201273394022054,1.0,2789.5958255577034,0.4793263427188974,1.297130545823962,0.9786435504478338,0.28529834825489264,0.7184739755687324
0.0585,1.7190024293667616,1.0,2793.724749494001,0.4822469021895803,1.2965854117616957,0.9788646993254221,0.285251102033404,0.7195060380425555
0.059000000000000004,1.7178775193313178,1.0,2797.8919498152527,0.4851510867410954,1.2960399614719227,0.9790807061712634,0.2852038558119153,0.7205368023332351
0.059500000000000004,1.7167526092958738,1.0,2802.094464717336,0.4880389854219708,1.2954942222315151,0.9792917307196995,0.2851566095904267,0.7215662137365815
0.06,1.71562769926043,1.0,2806.3293238643355,0.49091068728073417,1.2949482213173442,0.9794979265171186,0.28510936336893805,0.7225942179264507
0.0605,1.7145027892249862,1.0,2810.5935482224127,0.49376628136591366,1.2944019860062819,0.9796994412104193,0.28506211714744945,0.7236207609552201
0.061,1.7133778791895424,1.0,2814.8841499092637,0.4966058567260371,1.2938555435752,0.9798964168198893,0.2850148709259608,0.7246457892542213
0.0615,1.7122529691540986,1.0,2819.1981320610853,0.49942950240963235,1.2933089213009699,0.9800889899974586,0.2849676247044721,0.7256692496341246
0.062,1.7111280591186548,1.0,2823.532488715321,0.5022373074652273,1.2927621464604637,0.9802772922712082,0.2849203784829835,0.7266910892852743
0.0625,1.710003149083211,1.0,2827.8842047099865,0.5050293609413501,1.292215246330553,0.9804614502769718,0.28487313226149485,0.7277112557779791
0.063,1.708878239047767,1.0,2832.2502556001127,0.5078057518865283,1.2916682481881094,0.9806415859778004,0.2848258860400062,0.7287296970627533
0.0635,1.7077533290123232,1.0,2836.6276075899245,0.5105665693492902,1.2911211793100046,0.98081781687201,0.2847786398185176,0.7297463614705108
0.064,1.7066284189768794,1.0,2841.013217481579,0.5133119023781634,1.2905740669731105,0.9809902561904885,0.2847313935970289,0.7307611977127114
0.0645,1.7055035089414357,1.0,2845.4096179444305,0.5160418117471868,1.2900268887307689,0.9811590085854137,0.28468414737554026,0.7317742468531576
0.065,1.7043785989059919,1.0,2849.8086406371317,0.5187564227289,1.2894797173986274,0.9813241842522645,0.28463690115405166,0.7327853737717182
0.0655,1.703253688870548,1.0,2854.209396313431,0.5214558177485886,1.2889325608650466,0.9814858832727452,0.284589654932563,0.7337945640049941
0.066,1.702128778835104,1.0,2858.611083525002,0.5241400787198557,1.288385426214263,0.9816442021371931,0.2845424087110744,0.7348018046786282
0.0665,1.7010038687996603,1.0,2863.012898368701,0.5268092875563043,1.2878383205305137,0.9817992339709611,0.28449516248958573,0.7358070830171342
0.067,1.6998789587642165,1.0,2867.4140344908656,0.5294635261715375,1.2872912508980354,0.9819510686759924,0.28444791626809707,0.7368103863438842
0.0675,1.6987540487287727,1.0,2871.8136830924195,0.532102876479158,1.2867442244010652,0.9820997930654735,0.28440067004660846,0.7378117020810956
0.068,1.6976291386933289,1.0,2876.211032934688,0.5347274203927692,1.2861972481238395,0.9822454909919571,0.2843534238251198,0.7388110177498133
0.0685,1.696504228657885,1.0,2880.605270347367,0.5373372398259739,1.2856503291505958,0.9823882434693155,0.2843061776036312,0.739808320969886
0.069,1.6953793186224413,1.0,2884.995579236399,0.5399324166923751,1.2851034745655705,0.9825281287888545,0.28425893138214253,0.7408035994599461
0.0695,1.6942544085869973,1.0,2889.3811410938292,0.542513032905576,1.2845566914530007,0.9826652226299145,0.28421168516065387,0.7417968410373781
0.07,1.6931294985515535,1.0,2893.761135008479,0.5450791703791795,1.284009986897123,0.9827995981652522,0.2841644389391652,0.7427880336182907
0.07050000000000001,1.6920045885161097,1.0,2898.134737677656,0.5476309110267885,1.2834633679821748,0.9829313261614817,0.2841171927176766,0.7437771652174815
0.07100000000000001,1.690879678480666,1.0,2902.5011234199874,0.5501683367620063,1.2829168417923922,0.9830604750748422,0.284069946496188,0.7447642239484009
0.07150000000000001,1.689754768445222,1.0,2906.8594641893555,0.5526915294984356,1.2823704154120128,0.9831871111425365,0.28402270027469934,0.7457491980231101
0.07200000000000001,1.6886298584097783,1.0,2911.2089295904602,0.5552005711496797,1.281824095925273,0.983311298469874,0.2839754540532107,0.7467320757522404
