Time [s],Phi [rad],STIM [ ],Fsee [N],Gamma [ ],Lcerel [ ],q [ ],Lmtc [m],fisomrel [ ]
0.0,1.8,1.0,17.967145553423492,1.0083638675809904e-05,1.3793397476329288,0.005000027097679817,0.288653,0.541139527633246
0.0005,1.79999375,1.0,18.27650680790652,0.005619236386231796,1.3793024141532397,0.012940746740434102,0.2886527375,0.5412298425303705
0.001,1.799975,1.0,21.618188999581374,0.011196926221795857,1.37893832178073,0.03560901423108014,0.28865195,0.5421101667283288
0.0015,1.79994375,1.0,31.069084227156033,0.016743329628288502,1.3780462166598801,0.07060230483456688,0.2886506375,0.5442635780266294
0.002,1.7999,1.0,53.582231546381905,0.022258622096979423,1.3763681418264593,0.11471854703279127,0.2886488,0.5483004522260786
0.0025,1.79984375,1.0,97.11874621374038,0.02774297813505061,1.373935176484253,0.16457544659507586,0.28864643749999996,0.5541214406495238
0.003,1.7997750000000001,1.0,160.95809895800087,0.03319657127331395,1.3712143462964437,0.2172810241468971,0.28864354999999997,0.560586444845995
0.0035,1.79969375,1.0,237.68335343295496,0.03861957406580223,1.3685847335588848,0.27061345451641394,0.2886401375,0.5667898411585648
0.004,1.7996,1.0,321.4668773602541,0.044012158100551514,1.3661560895880651,0.3229163490293651,0.2886362,0.5724799682958446
0.0045000000000000005,1.7994937500000001,1.0,409.26794126233966,0.04937449400478555,1.36392280969545,0.37303502693500085,0.2886317375,0.5776791727786008
0.005,1.799375,1.0,499.4137535740765,0.054706751436006354,1.3618583370469506,0.4202479468479079,0.28862675,0.5824570915485189
0.0055,1.79924375,1.0,590.7907174759999,0.06000909912945721,1.3599388291701193,0.46417414874903873,0.2886212375,0.5868751251774351
0.006,1.7991000000000001,1.0,682.5184486337893,0.06528170484128397,1.3581464085615462,0.5046803767639281,0.2886152,0.5909794325078636
0.006500000000000001,1.79894375,1.0,773.88196493714,0.07052473540377656,1.3564672415470258,0.5418011367080117,0.2886086375,0.5948058217597396
0.007,1.798775,1.0,864.2862976644615,0.075738356710482,1.3548903871384694,0.575677127507453,0.28860155,0.5983826948874595
0.0075,1.79859375,1.0,953.2429189856255,0.08092273372394555,1.3534067837504682,0.6065102397969443,0.2885939375,0.601733562497289
0.008,1.7984,1.0,1040.357538859877,0.08607803045997271,1.3520086598269048,0.6345323599774684,0.2885858,0.6048785185167935
0.0085,1.79819375,1.0,1125.3194743463969,0.09120441012070553,1.350689167222724,0.6599846621589421,0.2885771375,0.6078351657928329
0.009000000000000001,1.797975,1.0,1207.8792605021933,0.0963020346016112,1.349442320899828,0.6831045981250258,0.28856795,0.610618827691778
0.0095,1.79774375,1.0,1287.8737491386212,0.1013710657415783,1.348262368034231,0.7041178335299599,0.2885582375,0.6132440147040494
0.01,1.7975,1.0,1365.1667204258868,0.10641166376584943,1.3471443895057378,0.7232344357802165,0.288548,0.6157231276616346
0.0105,1.79724375,1.0,1439.6594820367302,0.11142398769181484,1.3460839466021652,0.7406468484075251,0.2885372375,0.6180672892355537
0.011,1.796975,1.0,1511.3073952862153,0.11640819614320855,1.3450767346627515,0.7565293851962485,0.28852595000000003,0.6202871402885619
0.0115,1.79669375,1.0,1580.1109709575367,0.12136444768321877,1.344118603020135,0.771038821399521,0.2885141375,0.6223928158656591
0.012,1.7964,1.0,1646.0652841201495,0.1262928987742844,1.3432060681195952,0.7843156926414401,0.28850180000000003,0.6243928405799993
0.0125,1.79609375,1.0,1709.1782220431287,0.13119370474283626,1.342335986005755,0.7964854394205131,0.2884889375,0.6262948746347814
0.013000000000000001,1.7957750000000001,1.0,1769.4933998361014,0.13606702084686187,1.3415052212567957,0.8076596747525108,0.28847555,0.628106453617178
0.0135,1.79544375,1.0,1827.0736999690787,0.14091300142363788,1.340710793149235,0.8179376550905028,0.2884616375,0.6298346793100102
0.014,1.7951000000000001,1.0,1881.9871366891496,0.14573180070303804,1.339949985995876,0.8274076578452522,0.2884472,0.6314859917774356
0.0145,1.79474375,1.0,1934.286746764243,0.15052357008492973,1.3392205193228186,0.8361482645571423,0.2884322375,0.6330658139998637
0.015,1.794375,1.0,1984.0465505810569,0.15528846096918034,1.3385201126561634,0.844229322791096,0.28841675,0.6345795067833495
0.0155,1.79399375,1.0,2031.3488236900096,0.16002662389701167,1.337846600538548,0.8517130055666496,0.2884007375,0.636032125333376
0.016,1.7936,1.0,2076.2900945358424,0.16473821020929275,1.3371978460752274,0.8586546902823071,0.2883842,0.6374286116142451
0.0165,1.7931937500000001,1.0,2118.95516143275,0.16942336938052527,1.3365719919567594,0.8651038363876945,0.2883671375,0.6387732596628162
0.017,1.792775,1.0,2159.4109659258384,0.17408224827823193,1.335967495690343,0.8711046909367793,0.28834955,0.6400696487230849
0.0175,1.7923437500000001,1.0,2197.7351718676086,0.17871499376993533,1.3353828147831763,0.8766968132740128,0.2883314375,0.6413213250896481
0.018000000000000002,1.7919,1.0,2234.0152683074907,0.18332175272315812,1.3348164067424586,0.8819156263379553,0.2883128,0.6425318041328716
0.0185,1.79144375,1.0,2268.337710842489,0.18790267087957352,1.3342668289265815,0.8867929248238624,0.2882936375,0.6437043593092076
0.019,1.790975,1.0,2300.795492068079,0.19245789479811576,1.3337326522228725,0.8913572740727052,0.28827395,0.6448422093121404
0.0195,1.79049375,1.0,2331.4654820697665,0.19698756848563642,1.3332126766125114,0.8956344298602332,0.2882537375,0.6459480616859882
0.02,1.79,1.0,2360.414480768659,0.20149183398248258,1.3327058586595975,0.8996476380114619,0.288233,0.647024271726977
0.0205,1.78949375,1.0,2387.7143556422952,0.20597083332900143,1.3322111549282296,0.9034178803534257,0.2882117375,0.6480731777463388
0.021,1.788975,1.0,2413.4416187999423,0.21042470856554002,1.331727521982507,0.9069641260226231,0.28818995000000003,0.6490971019111775
0.021500000000000002,1.78844375,1.0,2437.667985768248,0.21485360016061497,1.3312540033595959,0.9103035696234949,0.2881676375,0.6500981672775537
0.022,1.7879,1.0,2460.473075730338,0.21925765049417023,1.3307896023746169,0.9134517987272653,0.2881448,0.6510785681149327
0.0225,1.78734375,1.0,2481.9222972409666,0.22363699902418974,1.330333490700504,0.9164230045464671,0.28812143749999997,0.6520401304898599
0.023,1.786775,1.0,2502.0709022091364,0.22799178277111076,1.3298849634865328,0.919230119535631,0.28809755,0.652984409647605
0.0235,1.78619375,1.0,2520.9765473031366,0.23232213875537058,1.3294433158819796,0.9218849257396333,0.28807313749999996,0.6539129515965759
0.024,1.7856,1.0,2538.699092711013,0.23662820399740647,1.32900784303612,0.9243981730189467,0.2880482,0.6548272934334177
0.0245,1.78499375,1.0,2555.3004119159064,0.24091011551765576,1.3285778400982298,0.9267796837014395,0.2880227375,0.6557289636364227
0.025,1.784375,1.0,2570.8335074335296,0.2451680069841918,1.3281527024801396,0.9290384609533682,0.28799675,0.6566192724967506
0.025500000000000002,1.78374375,1.0,2585.3625815232117,0.24940201794424563,1.3277317354225762,0.9311827417327279,0.2879702375,0.6574997117248296
0.026000000000000002,1.7831000000000001,1.0,2598.931861513098,0.25361228097019833,1.327314444296003,0.9332201129432748,0.2879432,0.6583713474336695
0.0265,1.78244375,1.0,2611.583916746367,0.2577989276308801,1.326900360602195,0.9351575480369538,0.2879156375,0.6592351857084021
0.027,1.781775,1.0,2623.3623457954877,0.2619620894951211,1.3264890158429266,0.9370014614333827,0.28788755,0.6600922274678485
0.0275,1.7810937500000001,1.0,2634.311686940264,0.26610189813175145,1.3260799415199727,0.9387577607835548,0.2878589375,0.6609434685533522
0.028,1.7804,1.0,2644.4773335130535,0.27021848510960134,1.3256726691351077,0.9404318937123777,0.2878298,0.6617898998036182
0.0285,1.77969375,1.0,2653.899782911465,0.2743119799887674,1.3252667824682,0.9420288964145712,0.2878001375,0.6626323986695939
0.029,1.778975,1.0,2662.6165796811893,0.2783825125220525,1.324861898576683,0.9435534286078732,0.28776995,0.663471769302146
0.029500000000000002,1.7782437500000001,1.0,2670.678781044584,0.2824302171398218,1.3244575156610672,0.9450097875268104,0.2877392375,0.664309057815843
0.03,1.7775,1.0,2678.114380546921,0.28645521927634643,1.3240533490271427,0.9464019801074759,0.287708,0.6651448564550155
0.0305,1.77674375,1.0,2684.9517802284136,0.2904576443658976,1.3236491139806996,0.9477337221570091,0.2876762375,0.6659797545264927
0.031,1.775975,1.0,2691.219754524838,0.2944376178427464,1.3232445258275278,0.9490084631683333,0.28764395,0.6668143384009462
0.0315,1.7751937500000001,1.0,2696.9474159648876,0.29839526514116393,1.3228392998734169,0.9502294087286067,0.2876111375,0.6676491915090625
0.032,1.7744,1.0,2702.164182664503,0.3023307116954214,1.3224331514241572,0.9513995407807372,0.2875778,0.6684848943325463
0.0325,1.77359375,1.0,2706.8997476190116,0.30624408293978994,1.3220257957855384,0.9525216359667821,0.2875439375,0.6693220243899578
0.033,1.772775,1.0,2711.182361061215,0.3101355031342211,1.3216169636650312,0.9535982837231666,0.28750955,0.6701611246265498
0.0335,1.7719437500000002,1.0,2715.035895581516,0.3140050935933246,1.3212064276178241,0.9546319037799003,0.2874746375,0.6710026494164397
0.034,1.7711000000000001,1.0,2718.493195254936,0.31785298332674905,1.320793880110453,0.9556247486712917,0.2874392,0.6718472145525519
0.0345,1.7702437500000001,1.0,2721.5724281723174,0.32167929150826613,1.3203791488310637,0.9565789359726435,0.2874032375,0.6726951562317703
0.035,1.7693750000000001,1.0,2724.2918876739,0.3254841373116476,1.3199620614678007,0.9574964464621634,0.28736675,0.6735468087413117
0.035500000000000004,1.76849375,1.0,2726.669979454539,0.3292676399106651,1.3195424457088096,0.9583791345424517,0.2873297375,0.6744025044337769
0.036000000000000004,1.7676,1.0,2728.725209327182,0.3330299184790905,1.3191201292422354,0.9592287377534654,0.2872922,0.6752625737003155
0.0365,1.76669375,1.0,2730.476171644885,0.3367710921906954,1.3186949397562233,0.9600468854655507,0.2872541375,0.6761273449418916
0.037,1.765775,1.0,2731.9415383805062,0.3404912802192517,1.3182667049389187,0.9608351068316348,0.28721555,0.6769971445386583
0.0375,1.76484375,1.0,2733.139406678762,0.3441906009672047,1.3178352583118147,0.9615948384753376,0.2871764375,0.6778722849931825
0.038,1.7639,1.0,2734.0796470113205,0.34786916184677535,1.3174005086315232,0.9623274356868262,0.28713679999999997,0.678752924491232
0.0385,1.76294375,1.0,2734.7934448359874,0.3515270980263348,1.3169621714995616,0.9630341607100915,0.28709663750000003,0.6796396104537069
0.039,1.761975,1.0,2735.291242793159,0.35516452166363055,1.3165201512911269,0.9637162146665451,0.28705595,0.6805325058247518
0.0395,1.7609937500000001,1.0,2735.5835138156276,0.35878154491641007,1.3160743523814165,0.9643747289983947,0.2870147375,0.6814317722151408
0.04,1.76,1.0,2735.680757069914,0.36237827994242083,1.315624679145627,0.9650107702524456,0.286973,0.6823375698795282
0.0405,1.7589937500000001,1.0,2735.5934941004653,0.3659548388994102,1.3151710359589561,0.9656253444865989,0.2869307375,0.6832500576931071
0.041,1.757975,1.0,2735.332265176533,0.36951133394512575,1.3147133271966003,0.9662194013324682,0.28688795,0.6841693931276965
0.0415,1.75694375,1.0,2734.9076258419136,0.3730478772373149,1.3142514572337571,0.9667938377442654,0.2868446375,0.6850957322272325
0.042,1.7559,1.0,2734.330143667402,0.3765645809337251,1.3137853304456237,0.9673495014611868,0.28680079999999997,0.6860292295826873
0.0425,1.75484375,1.0,2733.6103952060735,0.3800615571921037,1.3133148512073967,0.9678871942079166,0.2867564375,0.6869700383063995
0.043000000000000003,1.753775,1.0,2732.758963150625,0.38353891817019836,1.3128399238942736,0.9684076746555292,0.28671155,0.6879183100058198
0.043500000000000004,1.75269375,1.0,2731.785598291437,0.3869967741294913,1.3123604604717745,0.9689116614771073,0.28666613750000003,0.6888741796360365
0.044,1.7516,1.0,2730.696809512101,0.3904352277056552,1.3118764023823535,0.9693998367382588,0.2866202,0.6898377220568889
0.0445,1.75049375,1.0,2729.5069358730784,0.39385440254101906,1.3113876199177241,0.9698728446237439,0.2865737375,0.6908091523022162
0.045,1.7493750000000001,1.0,2728.2213753481146,0.39725440351565566,1.3108940646029983,0.9703312996025052,0.28652675,0.6917885223042944
0.0455,1.74824375,1.0,2726.8455261408058,0.40063533550963776,1.310395687963287,0.9707757848376855,0.2864792375,0.6927758829521613
0.046,1.7471,1.0,2725.3847857732553,0.4039973034030381,1.3098924415237019,0.9712068540803187,0.2864312,0.6937712840767826
0.0465,1.7459437500000001,1.0,2723.844550226433,0.4073404120759294,1.3093842768093544,0.9716250334309232,0.28638263750000004,0.6947747744360738
0.047,1.744775,1.0,2722.2302131330257,0.41066476640838456,1.3088711453453559,0.9720308229793869,0.28633355,0.6957864016997706
0.0475,1.74359375,1.0,2720.5471650224235,0.4139704712804762,1.3083529986568179,0.9724246983326197,0.28628393750000003,0.696806212434147
0.048,1.7424,1.0,2718.800792617276,0.4172576315722772,1.3078297882688517,0.9728071120386474,0.2862338,0.6978342520865879
0.0485,1.74119375,1.0,2716.996478182904,0.42052635216386025,1.3073014657065687,0.9731784949150546,0.2861831375,0.6988705649700082
0.049,1.739975,1.0,2715.1395989279913,0.42377673793529813,1.3067679824950804,0.9735392572890373,0.28613195,0.6999151942471239
0.0495,1.73874375,1.0,2713.23402595644,0.4270088876380916,1.3062293038393122,0.9738897903577363,0.2860802375,0.7009681551979917
0.05,1.7375,1.0,2711.281932384282,0.4302228932473539,1.3056854103940645,0.9742304673298926,0.286028,0.7020294319904732
0.0505,1.73624375,1.0,2709.294089407352,0.4334188847803358,1.3051362043536068,0.9745616433358832,0.2859752375,0.7030991606909245
0.051000000000000004,1.734975,1.0,2707.2729161553457,0.43659695915250146,1.3045816640049608,0.9748836584299799,0.28592195,0.704177327652963
0.051500000000000004,1.73369375,1.0,2705.220828879941,0.43975721327931505,1.3040217676351478,0.9751968372523317,0.2858681375,0.7052639183801028
0.052000000000000005,1.7324,1.0,2703.1402408104123,0.44289974407624083,1.3034564935311892,0.975501489860154,0.2858138,0.7063589175183524
0.0525,1.73109375,1.0,2701.033562020053,0.44602464845874285,1.3028858199801068,0.9757979125070874,0.28575893750000003,0.707462308848783
0.053,1.729775,1.0,2698.9031993022036,0.4491320233422854,1.3023097252689217,0.97608638837438,0.28570355000000003,0.7085740752800671
0.0535,1.72844375,1.0,2696.7515560574166,0.4522219656423327,1.3017281876846556,0.9763671882572571,0.2856476375,0.7096941988409862
0.054,1.7271,1.0,2694.5810321909457,0.45529457227434883,1.30114118551433,0.976640571209588,0.2855912,0.7108226606729078
0.0545,1.7257437500000001,1.0,2692.3940240203574,0.4583499401537981,1.3005486970449662,0.9769067851497115,0.2855342375,0.7119594410222357
0.055,1.724375,1.0,2690.192924193865,0.4613881661961446,1.2999507005635857,0.9771660674300673,0.28547675,0.7131045192328256
0.0555,1.72299375,1.0,2687.9801216192673,0.4644093473168525,1.2993471743572103,0.9774186453730848,0.2854187375,0.7142578737383736
0.056,1.7216,1.0,2685.7580014029236,0.46741358043138614,1.2987380967128608,0.977664736775582,0.2853602,0.715419482054775
0.0565,1.72019375,1.0,2683.5289447995406,0.4704009624552095,1.2981234459175592,0.9779045503837788,0.28530113749999997,0.7165893207724494
0.057,1.718775,1.0,2681.295329172309,0.47337159030378695,1.2975032002583269,0.9781382863408524,0.28524155,0.7177673655486412
0.0575,1.71734375,1.0,2679.0546429063693,0.47632553001999817,1.2968773828415836,0.978366136425284,0.2851814375,0.7189535062408541
0.058,1.7159,1.0,2676.8114228344148,0.4792629063249452,1.2962459521174516,0.9785882861784082,0.2851208,0.720147754636558
0.0585,1.71444375,1.0,2674.5684490355684,0.4821838221375975,1.2956088825979226,0.978804912645827,0.2850596375,0.7213500909732385
0.059000000000000004,1.7129750000000001,1.0,2672.326505783345,0.4850883655150002,1.2949661670863999,0.9790161855540431,0.28499795,0.7225604600585396
0.059500000000000004,1.71149375,1.0,2670.0863760372913,0.48797662451419865,1.294317798386287,0.9792222679301751,0.2849357375,0.7237788059727325
0.06,1.71,1.0,2667.84884144356,0.4908486871922382,1.2936637693009874,0.9794233164166731,0.284873,0.725005072066124
0.0605,1.7084937500000001,1.0,2665.61468233664,0.4937046416061642,1.2930040726339047,0.9796194815688837,0.2848097375,0.7262392009564589
0.061,1.7069750000000001,1.0,2663.3846777426143,0.49654457581302186,1.2923387011884422,0.9798109081365243,0.28474595,0.7274811345263225
0.0615,1.7054437500000001,1.0,2661.1596053830885,0.49936857786985656,1.2916676477680031,0.9799977353300539,0.2846816375,0.728730813920536
0.062,1.7039,1.0,2658.9402416807793,0.5021767358337137,1.2909909051759914,0.9801800970728569,0.2846168,0.7299881795435498
0.0625,1.70234375,1.0,2656.727361765446,0.5049691377616383,1.29030846621581,0.980358122240098,0.2845514375,0.7312531710568365
0.063,1.7007750000000001,1.0,2654.52173948207,0.5077458717106761,1.2896203236908628,0.9805319348850455,0.28448555,0.7325257273762751
0.0635,1.69919375,1.0,2652.3241473994044,0.510507025737872,1.2889264704045529,0.9807016544536098,0.28441913750000003,0.7338057866695378
0.064,1.6976,1.0,2650.1353568194127,0.5132526879002716,1.2882268991602839,0.9808673959877922,0.2843522,0.735093286353468
0.0645,1.69599375,1.0,2647.9561377890573,0.5159829462549199,1.2875216027614593,0.9810292703186942,0.2842847375,0.7363881630914592
0.065,1.694375,1.0,2645.787259112066,0.5186978888588626,1.2868105740114826,0.9811873842496949,0.28421675,0.7376903527908287
0.0655,1.69274375,1.0,2643.6294883622386,0.5213976037691448,1.286093805713757,0.981341840730364,0.2841482375,0.7389997906001884
0.066,1.6911,1.0,2641.4835918980293,0.5240821790428117,1.2853712906716863,0.9814927390216439,0.2840792,0.740316410906811
0.0665,1.6894437500000001,1.0,2639.3483625436343,0.5267516682264288,1.2846430399200548,0.9816401733907404,0.2840096375,0.7416401142381062
0.067,1.687775,1.0,2637.2241035546804,0.5294061818653961,1.2839090505446693,0.9817842379753096,0.28393955,0.742970825952884
0.0675,1.68609375,1.0,2635.111876758022,0.5320458252538688,1.2831693126096422,0.9819250229002513,0.2838689375,0.744308483406195
0.068,1.6844000000000001,1.0,2633.0116286281864,0.534670677323708,1.2824238264859875,0.9820626138938577,0.2837978,0.7456530045695562
0.0685,1.68269375,1.0,2630.9233057743836,0.5372808170067749,1.2816725925447192,0.982197093727974,0.2837261375,0.7470043067893386
0.069,1.680975,1.0,2628.846854939951,0.5398763232349307,1.2809156111568507,0.9823285423388676,0.28365395,0.7483623067869039
0.0695,1.67924375,1.0,2626.78222300093,0.5424572749400365,1.2801528826933959,0.9824570369423427,0.28358123749999997,0.7497269206587385
0.07,1.6775,1.0,2624.729356965839,0.5450237510539534,1.279384407525369,0.9825826521434157,0.283508,0.7510980638765896
0.07050000000000001,1.67574375,1.0,2622.688203974414,0.5475758305085426,1.2786101860237835,0.9827054600408399,0.2834342375,0.7524756512876044
0.07100000000000001,1.673975,1.0,2620.6587112968473,0.5501135922356652,1.2778302185596533,0.9828255303267549,0.28335995,0.753859597114462
0.07150000000000001,1.67219375,1.0,2618.6408263330763,0.5526371151671825,1.277044505503992,0.9829429303817196,0.2832851375,0.7552498149555118
0.07200000000000001,1.6704,1.0,2616.6344966119304,0.5551464782349556,1.2762530472278137,0.9830577253653698,0.2832098,0.7566462177849085
0.0725,1.66859375,1.0,2614.639669790239,0.5576417603708453,1.2754558441021324,0.9831699783029346,0.2831339375,0.7580487179527479
0.073,1.6667750000000001,1.0,2612.656293652043,0.5601230405067134,1.2746528964979615,0.983279750167816,0.28305755,0.7594572271852041
0.0735,1.66494375,1.0,2610.6843161078723,0.5625903975744204,1.273844204786315,0.983387099960448,0.2829806375,0.7608716565846645
0.074,1.6631,1.0,2608.7236851935772,0.5650439105058279,1.2730297693382069,0.9834920847836146,0.2829032,0.7622919166298646
0.0745,1.6612437500000001,1.0,2606.7743490699972,0.5674836582327969,1.2722095905246507,0.9835947599144145,0.2828252375,0.7637179171760269
0.075,1.659375,1.0,2604.8362560218957,0.5699097196871885,1.2713836687166604,0.9836951788730375,0.28274675,0.7651495674549933
0.0755,1.65749375,1.0,2602.909354457218,0.5723221738008639,1.2705520042852496,0.983793393488517,0.2826677375,0.7665867760753644
