Time [s],Phi [rad],STIM [ ],Fsee [N],Gamma [ ],Lcerel [ ],q [ ],Lmtc [m],fisomrel [ ]
0.0,1.8,1.0,17.96771496164888,1.0321041447411738e-05,1.3793396838406478,0.00500002838342361,0.288653,0.541139681963257
0.0005,1.79999375,1.0,18.277103522533167,0.005619472457361474,1.3793023478699704,0.012941404690997357,0.2886527375,0.5412300028709438
0.001,1.799975,1.0,21.61893159918797,0.01119716096875331,1.3789382459354238,0.035610247582373786,0.28865195,0.5421103500235468
0.0015,1.79994375,1.0,31.070198706461824,0.016743563058501033,1.3780461217106899,0.07060399190275407,0.2886506375,0.5442638069499562
0.002,1.7999,1.0,53.584105169477695,0.022258854217833017,1.3763680202763329,0.11472054480005021,0.2886488,0.548300743983654
0.0025,1.79984375,1.0,97.12156687264556,0.027743208953889792,1.3739350405642852,0.16457762077379476,0.28864643749999996,0.5541217647901352
0.003,1.7997750000000001,1.0,160.9615961662844,0.033196800797441965,1.3712142153932927,0.21728326832547543,0.28864354999999997,0.5605867547510909
0.0035,1.79969375,1.0,237.687204996898,0.03861980230248138,1.368584614921013,0.2706156876630303,0.2886401375,0.566790120036762
0.004,1.7996,1.0,321.4709077961167,0.044012385057003355,1.3661559828375658,0.3229185121316761,0.2886362,0.5724802175773478
0.0045000000000000005,1.7994937500000001,1.0,409.27206523355073,0.04937471968819125,1.3639227128903928,0.3730370808773092,0.2886317375,0.5776793974569412
0.005,1.799375,1.0,499.4179202928451,0.05470697585350453,1.3618582485047295,0.42024986893591176,0.28862675,0.5824572958835761
0.0055,1.79924375,1.0,590.7948927007152,0.060009322288153644,1.3599387475965183,0.4641759286091688,0.2886212375,0.5868753124319193
0.006,1.7991000000000001,1.0,682.5226011324563,0.06528192674823774,1.3581463330803072,0.5046820127276684,0.2886152,0.5909796049143166
0.006500000000000001,1.79894375,1.0,773.8858374538414,0.0705249560663327,1.3564671754407378,0.5418026352905574,0.2886086375,0.594805972044969
0.007,1.798775,1.0,864.2902155185404,0.07573857613522546,1.3548903238526615,0.5756784922608562,0.28860155,0.5983828381242124
0.0075,1.79859375,1.0,953.2475809935536,0.0809229519174558,1.353406712044045,0.6065114733709165,0.2885939375,0.601733724114214
0.008,1.7984,1.0,1040.3541119650624,0.08607824720841517,1.3520087102810905,0.6345335501004349,0.2885858,0.6048784052495003
0.0085,1.79819375,1.0,1125.3220679352496,0.09120462580176188,1.3506891305071482,0.6599856952727939,0.2885771375,0.6078352479086109
0.009000000000000001,1.797975,1.0,1207.8948818214458,0.09630224951239005,1.3494421074519118,0.6831054386074548,0.28856795,0.6106193033787197
0.0095,1.79774375,1.0,1287.878735358358,0.1013712792308588,1.3482623020528006,0.7041186701105906,0.2885582375,0.6132441612528186
0.01,1.7975,1.0,1365.1570086805234,0.10641187555612895,1.3471445143281555,0.72323529270632,0.288548,0.6157228513133579
0.0105,1.79724375,1.0,1439.6558379212315,0.11142419856141197,1.3460839922110963,0.7406475940676643,0.2885372375,0.6180671885689727
0.011,1.796975,1.0,1511.3136379922896,0.11640840637410214,1.3450766584051024,0.7565300102937096,0.28852595000000003,0.6202873081121438
0.0115,1.79669375,1.0,1580.1063610724411,0.12136465644270922,1.3441186580925348,0.7710394507115791,0.2885141375,0.6223926950018913
0.012,1.7964,1.0,1646.0397122725667,0.12629310559281182,1.3432063674340182,0.784316375519572,0.28850180000000003,0.6243921854360512
0.0125,1.79609375,1.0,1709.158166154397,0.13119391078641257,1.3423362163815724,0.7964860431678578,0.2884889375,0.6262943716631035
0.013000000000000001,1.7957750000000001,1.0,1769.4856619203854,0.13606722629035778,1.3415053086117166,0.8076601768089138,0.28847555,0.6281062633610212
0.0135,1.79544375,1.0,1827.066304030038,0.14091320591116013,1.340710875317309,0.8179381170113311,0.2884616375,0.6298345007669426
0.014,1.7951000000000001,1.0,1881.9675252064565,0.14573200310483334,1.3399502006753947,0.8274081325253172,0.2884472,0.6314855263417056
0.0145,1.79474375,1.0,1934.2696847123484,0.15052377108161882,1.3392207035523154,0.8361486945339194,0.2884322375,0.6330654154383679
0.015,1.794375,1.0,1984.0454385491514,0.15528866157204316,1.338520124511906,0.8442296649699556,0.28841675,0.6345794811876391
0.0155,1.79399375,1.0,2031.360620156397,0.160026824434486,1.3378464762456173,0.8517132795593073,0.2884007375,0.6360323931390931
0.016,1.7936,1.0,2076.2972555141882,0.16473840952732693,1.3371977714448997,0.8586549588850179,0.2883842,0.6374287721064834
0.0165,1.7931937500000001,1.0,2118.940430724372,0.16942356569433817,1.3365721439243166,0.8651041519405889,0.2883671375,0.6387729334636134
0.017,1.792775,1.0,2159.3899336326103,0.17408244291957245,1.335967710625477,0.8711050039972217,0.28834955,0.6400691881922058
0.0175,1.7923437500000001,1.0,2197.7242041912855,0.17871518826477095,1.3353829258833827,0.8766970789102723,0.2883314375,0.6413210874550428
0.018000000000000002,1.7919,1.0,2234.0145693905806,0.1833219471707045,1.334816413764605,0.8819158481547225,0.2883128,0.642531789138421
0.0185,1.79144375,1.0,2268.340778863962,0.18790286507814394,1.3342667983357155,0.8867931233355797,0.2882936375,0.6437044245229278
0.019,1.790975,1.0,2300.7902962272437,0.1924580874278602,1.3337327036632862,0.891357480098393,0.28827395,0.644842099826509
0.0195,1.79049375,1.0,2331.4404749607065,0.1969877577242295,1.3332129225572498,0.8956346689203302,0.2882537375,0.6459475390333427
0.02,1.79,1.0,2360.386873921854,0.20149202201090669,1.3327061285026978,0.8996478696541447,0.288233,0.6470236991605433
0.0205,1.78949375,1.0,2387.6949486237145,0.20597102151305624,1.3322113435344,0.9034180822594631,0.2882117375,0.6480727781475409
0.021,1.788975,1.0,2413.4299815072177,0.21042489684312612,1.3317276344744613,0.9069643012634839,0.28818995000000003,0.6490968639221244
0.021500000000000002,1.78844375,1.0,2437.6612501623217,0.21485378861356433,1.331254068144985,0.9103037261132817,0.2881676375,0.6500980304126203
0.022,1.7879,1.0,2460.46169102321,0.2192578374368188,1.3307897113680756,0.9134519555761682,0.2881448,0.6510783381792897
0.0225,1.78734375,1.0,2481.897214905894,0.22363718192055185,1.3303337297910205,0.9164231773885166,0.28812143749999997,0.6520396267932177
0.023,1.786775,1.0,2502.0428070110597,0.22799196350575224,1.3298852302159339,0.9192302887831666,0.28809755,0.6529838484865444
0.0235,1.78619375,1.0,2520.9566582575308,0.23232231957218147,1.3294435039945316,0.921885072961519,0.28807313749999996,0.6539125563641743
0.024,1.7856,1.0,2538.690559597482,0.23662838560798316,1.3290079234608578,0.9243982946078679,0.2880482,0.6548271246810407
0.0245,1.78499375,1.0,2555.298192418134,0.24091029710130094,1.328577860948957,0.926779789275794,0.2880227375,0.6557289199432652
0.025,1.784375,1.0,2570.8349688244266,0.2451681895402784,1.328152688792873,0.9290385563329601,0.28799675,0.6566193011416068
0.025500000000000002,1.78374375,1.0,2585.3578806560618,0.2494021984130592,1.3277317793266505,0.9311828414776334,0.2879702375,0.657499619959782
0.026000000000000002,1.7831000000000001,1.0,2598.8865970159245,0.25361245570751895,1.327314865943496,0.9332202676394049,0.2879432,0.6583704672589008
0.0265,1.78244375,1.0,2611.5399040559314,0.25779909964487857,1.3269007695944957,0.9351576939291422,0.2879156375,0.6592343330310155
0.027,1.781775,1.0,2623.355753268036,0.26196226178097043,1.3264890769667426,0.9370015482513246,0.28788755,0.6600921001958051
0.0275,1.7810937500000001,1.0,2634.3518228469634,0.266102072011553,1.3260795701684382,0.9387577793338617,0.2878589375,0.6609442408123933
0.028,1.7804,1.0,2644.546403361224,0.2702186602323848,1.3256720313077848,0.9404318718252281,0.2878298,0.6617912245658841
0.0285,1.7796980339444153,1.0,2654.1682440117283,0.27431215633922423,1.325266242492984,0.9420288885782724,0.2878003174256654,0.6626335187962225
0.029,1.7789958827902632,1.0,2663.631954490201,0.2783826902278298,1.3248619858322381,0.9435535085739158,0.28777082707719104,0.6634715885240265
0.029500000000000002,1.7782937316361112,1.0,2672.969420767815,0.28243039179396,1.3244590434337493,0.9450100609815919,0.28774133672871666,0.6643058964733941
0.03,1.777591580481959,1.0,2682.1875120606032,0.286455389393577,1.3240573454297786,0.9464025750634341,0.2877118463802423,0.6651365971715726
0.0305,1.7768894293278068,1.0,2691.263062244589,0.2904578108740299,1.3236570974720578,0.9477348225821167,0.2876823560317679,0.6659632756886571
0.031,1.7761872781736547,1.0,2700.194339183035,0.2944377819433885,1.3232583080613916,0.9490102778446797,0.2876528656832935,0.6667859256035922
0.0315,1.7754851270195027,1.0,2708.9804332433823,0.29839542806085934,1.3228609782664837,0.9502321678837239,0.2876233753348191,0.6676045558444168
0.032,1.7747829758653504,1.0,2717.6204481966593,0.30233087468564895,1.3224651091560384,0.9514034940603894,0.2875938849863447,0.668419175309261
0.0325,1.7740808247111983,1.0,2726.1170318118147,0.3062442338846349,1.322070669687387,0.9525270428396717,0.2875643946378703,0.6692298588237184
0.033,1.7733786735570463,1.0,2734.4657465022283,0.31013565001399895,1.3216776934811438,0.9536054279763811,0.28753490428939593,0.6700365482036075
0.0335,1.7726765224028942,1.0,2742.6679947206926,0.3140052459582865,1.3212861611237667,0.9546410751131089,0.28750541394092155,0.670839294229442
0.034,1.771974371248742,1.0,2750.726200443798,0.31785314067806814,1.320896044195061,0.9556362469565869,0.28747592359244717,0.6716381658799792
0.0345,1.7712722200945898,1.0,2758.6428195576773,0.32167945313391455,1.3205073142748314,0.9565930581243598,0.2874464332439728,0.6724332318122911
0.035,1.7705700689404378,1.0,2766.42033897494,0.32548430228639624,1.3201199429428834,0.9575134865758063,0.28741694289549835,0.6732245603643019
0.035500000000000004,1.7698679177862857,1.0,2774.061275770075,0.3292678070960839,1.3197339017790222,0.9583993840344694,0.287387452547024,0.6740122195572787
0.036000000000000004,1.7691657666321334,1.0,2781.568176331606,0.33303008652354804,1.3193491623630527,0.9592524855011804,0.2873579621985496,0.6747962770982674
0.0365,1.7684636154779814,1.0,2788.9436155337085,0.3367712595293593,1.3189656962747802,0.9600744179466973,0.2873284718500752,0.6755768003824767
0.037,1.7677614643238293,1.0,2796.190195924313,0.3404914450740884,1.3185834750940097,0.9608667082630412,0.2872989815016008,0.6763538564956137
0.0375,1.767059313169677,1.0,2803.310546931977,0.34419076211830585,1.3182024704005466,0.9616307905443219,0.28726949115312644,0.6771275122161647
0.038,1.766357162015525,1.0,2810.307324090267,0.34786932962258227,1.3178226537741957,0.9623680127604007,0.28724000080465206,0.6778978340176267
0.0385,1.7656550108613729,1.0,2817.181789961323,0.3515272494168469,1.317444009484533,0.9630796406249877,0.2872105104561776,0.6786648623800502
0.039,1.7649528597072208,1.0,2823.937769210762,0.3551646395181815,1.3170664990644503,0.9637668668408782,0.2871810201077033,0.6794286835810361
0.0395,1.7642507085530685,1.0,2830.581227763817,0.3587816452394869,1.316690065196307,0.964430818451241,0.28715152975922886,0.6801894215751239
0.04,1.7635485573989165,1.0,2837.114753284337,0.3623783758336631,1.3163146810217021,0.9650725537046401,0.2871220394107545,0.6809471382976366
0.0405,1.7628464062447644,1.0,2843.540954774497,0.36595494055360994,1.3159403196822352,0.965693070968584,0.2870925490622801,0.681701895405252
0.041,1.7621442550906123,1.0,2849.8624619579778,0.3695114486522274,1.3155669543195054,0.9662933127492487,0.2870630587138057,0.682453754277778
0.0415,1.76144210393646,1.0,2856.0819246788383,0.37304800938241545,1.3151945580751119,0.9668741694009847,0.28703356836533134,0.6832027760198818
0.042,1.760739952782308,1.0,2862.2020123161874,0.3765647319970739,1.3148231040906544,0.967436482552515,0.2870040780168569,0.683949021462771
0.0425,1.760037801628156,1.0,2868.2254132156772,0.3800617257491028,1.314452565507732,0.9679810482741649,0.2869745876683826,0.6846925511658342
0.043000000000000003,1.7593356504740036,1.0,2874.1548341355233,0.383539099891402,1.3140829154679436,0.9685086200081428,0.28694509731990814,0.6854334254182288
0.043500000000000004,1.7586334993198516,1.0,2879.9929997101603,0.3869969636768714,1.3137141271128894,0.9690199112818284,0.28691560697143376,0.686171704240427
0.044,1.7579313481656995,1.0,2885.7426519287824,0.39043542635841094,1.3133461735841678,0.9695155982221545,0.2868861166229594,0.6869074473857162
0.0445,1.7572291970115475,1.0,2891.4065496301137,0.3938545971889207,1.3129790280233788,0.9699963218875107,0.286856626274485,0.6876407143416488
0.045,1.7565270458573952,1.0,2896.9874680135767,0.39725458542130043,1.3126126635721214,0.9704626904320829,0.2868271359260106,0.688371564331453
0.0455,1.755824894703243,1.0,2902.4881981657804,0.4006355003084501,1.3122470533719948,0.9709152811162047,0.2867976455775362,0.6891000563153911
0.046,1.755122743549091,1.0,2907.911546603948,0.4039974511032697,1.3118821705645984,0.9713546421750678,0.28676815522906185,0.689826248992075
0.0465,1.754420592394939,1.0,2913.2603348338157,0.4073405470586591,1.3115179882915318,0.9717812945570447,0.2867386648805874,0.6905502007997356
0.047,1.7537184412407867,1.0,2918.5339971130516,0.4106648617829095,1.311154509597428,0.9721957310202726,0.28670917453211303,0.6912719105777555
0.0475,1.7530162900866346,1.0,2923.735408702894,0.4139705063683262,1.3107917073241175,0.9725984231162758,0.28667968418363865,0.6919914370489798
0.048,1.7523141389324826,1.0,2928.8716493764814,0.41725763763105556,1.310429517543692,0.9729898227674076,0.28665019383516427,0.6927089114719089
0.0485,1.7516119877783303,1.0,2933.94417515972,0.4205263533777822,1.3100679258803951,0.973370356243076,0.2866207034866899,0.69342436651859
0.049,1.7509098366241782,1.0,2938.954450168993,0.4237767514151908,1.30970691795847,0.9737404296713723,0.28659121313821545,0.6941378347215101
0.0495,1.7502076854700261,1.0,2943.903946422741,0.427008929549966,1.3093464794021603,0.9741004301744702,0.2865617227897411,0.6948493484741353
0.05,1.749505534315874,1.0,2948.794143657531,0.43022298558879246,1.3089865958357096,0.9744507269300751,0.2865322324412667,0.6955589400314408
0.0505,1.7488033831617218,1.0,2953.6265291493105,0.4334190173383548,1.3086272528833611,0.9747916721643657,0.2865027420927923,0.6962666415104268
0.051000000000000004,1.7481012320075697,1.0,2958.4025975383297,0.4365971226053377,1.3082684361693586,0.975123602081429,0.2864732517443179,0.6969724848906189
0.051500000000000004,1.7473990808534177,1.0,2963.1238506594627,0.43975739919642576,1.3079101313179453,0.9754468377337754,0.28644376139584354,0.697676502014559
0.052000000000000005,1.7466969296992654,1.0,2967.7917973764634,0.44289994491830365,1.3075523239533646,0.9757616858381598,0.28641427104736916,0.6983787245882802
0.0525,1.7459947785451133,1.0,2972.4079534213442,0.44602485757765603,1.3071949996998602,0.9760684395405903,0.2863847806988947,0.6990791841817695
0.053,1.7452926273909612,1.0,2976.973841238313,0.44913223498116756,1.3068381441816752,0.9763673791341115,0.2863552903504204,0.6997779122294181
0.0535,1.7445904762368092,1.0,2981.490989831221,0.45222217493552286,1.3064817430230535,0.9766587727326531,0.28632580000194596,0.700474940030456
0.054,1.743888325082657,1.0,2985.9609346176535,0.4552947752474066,1.3061257818482384,0.9769428769039911,0.2862963096534716,0.7011702987493775
0.0545,1.7431861739285048,1.0,2990.3852172853744,0.4583501337235034,1.305770246281473,0.9772199372646284,0.2862668193049972,0.7018640194163498
0.055,1.7424840227743528,1.0,2994.7653856549937,0.46138834817049795,1.3054151219470014,0.9774901890391874,0.2862373289565228,0.7025561329276093
0.0555,1.7417818716202007,1.0,2999.1029935462307,0.46440951639507483,1.3050603944690666,0.9777538575867124,0.28620783860804844,0.7032466700458466
0.056,1.7410797204660484,1.0,3003.3996006494385,0.4674137362039188,1.3047060494719123,0.9780111588960989,0.286178348259574,0.7039356614005757
0.0565,1.7403775693118964,1.0,3007.656772401405,0.4704011054037144,1.304352072579782,0.9782623000526991,0.2861488579110997,0.7046231374884921
0.057,1.7396754181577443,1.0,3011.8760798651156,0.4733717218011463,1.3039984494169186,0.9785074796780048,0.28611936756262524,0.7053091286738177
0.0575,1.738973267003592,1.0,3016.0590996157475,0.47632568320289914,1.3036451656075663,0.9787468883441685,0.28608987721415086,0.7059936651886278
0.058,1.73827111584944,1.0,3020.2040915310895,0.47926303010582544,1.3032922354825567,0.978980705644274,0.2860603868656765,0.7066767216071218
0.0585,1.7375689646952879,1.0,3024.315034034843,0.482183918120427,1.3029396239594173,0.979209111131002,0.2860308965172021,0.7073583680973432
0.059000000000000004,1.7368668135411358,1.0,3028.3930806958283,0.48508844312218063,1.3025873204341303,0.9794322735101314,0.2860014061687277,0.7080386272719801
0.059500000000000004,1.7361646623869835,1.0,3032.4389182029963,0.4879766920001672,1.3022353183630058,0.9796503543640648,0.2859719158202533,0.7087175138201931
0.06,1.7354625112328315,1.0,3036.4532358841493,0.4908487516434674,1.3018836112023544,0.9798635090152606,0.28594242547177895,0.7093950423706177
0.0605,1.7347603600786794,1.0,3040.4367256621927,0.4937047089411622,1.3015321924084864,0.9800718868171963,0.2859129351233045,0.7100712274914909
0.061,1.7340582089245271,1.0,3044.390082013757,0.4965446507823323,1.301181055437712,0.9802756314296424,0.28588344477483013,0.7107460836907714
0.0615,1.733356057770375,1.0,3048.3140019268676,0.4993686640560585,1.3008301937463413,0.9804748810792149,0.28585395442635575,0.7114196254162587
0.062,1.732653906616223,1.0,3052.2091848611203,0.5021768356514217,1.300479600790685,0.9806697688060891,0.28582446407788137,0.7120918670557099
0.0625,1.731951755462071,1.0,3056.0763327080417,0.5049692524575027,1.3001292700270528,0.980860422697719,0.285794973729407,0.7127628229369529
0.063,1.7312496043079186,1.0,3059.9161497523705,0.5077460013633821,1.2997791949117556,0.9810469661103306,0.28576548338093255,0.7134325073279963
0.0635,1.7305474531537666,1.0,3063.7293426351152,0.510507169258141,1.2994293689011036,0.9812295178789202,0.2857359930324582,0.7141009344371391
0.064,1.7298453019996145,1.0,3067.5166203160334,0.5132528430308599,1.299079785451407,0.9814081925164322,0.2857065026839838,0.7147681184130753
0.0645,1.7291431508454624,1.0,3071.2786940389087,0.51598310957062,1.2987304380189757,0.981583100402751,0.2856770123355094,0.7154340733449966
0.065,1.7284409996913102,1.0,3075.0162772960293,0.5186980557665017,1.2983813200601206,0.9817543479640973,0.285647521987035,0.7160988132626909
0.0655,1.727738848537158,1.0,3078.7300857949813,0.5213977685075861,1.298032425031152,0.9819220378433823,0.28561803163856064,0.7167623521366417
0.066,1.727036697383006,1.0,3082.420837425512,0.524082334682954,1.2976837463883797,0.9820862690620367,0.28558854129008626,0.7174247038781213
0.0665,1.7263345462288537,1.0,3086.089252227737,0.5267518411816859,1.2973352775881142,0.982247137173802,0.2855590509416118,0.7180858823392828
0.067,1.7256323950747017,1.0,3089.73605236153,0.5294063748928629,1.296987012086666,0.982404734410933,0.2855295605931375,0.7187459013132478
0.0675,1.7249302439205496,1.0,3093.3619620757513,0.5320460227055658,1.2966389433403454,0.9825591498232408,0.28550007024466306,0.7194047745341945
0.068,1.7242280927663975,1.0,3096.967408017034,0.5346708604147341,1.2962910673625911,0.9827104688249154,0.2854705798961887,0.7200625108454608
0.0685,1.7235259416122453,1.0,3100.5520221653533,0.5372809422750314,1.295943386955496,0.9828587729013358,0.2854410895477143,0.7207191062414209
0.069,1.7228237904580932,1.0,3104.1176382060416,0.5398764055188374,1.2955958861505699,0.9830041450968988,0.2854115991992399,0.7213745921264647
0.0695,1.7221216393039411,1.0,3107.664583475378,0.5424573274844565,1.2952485618499847,0.983146662543356,0.28538210885076554,0.7220289755277927
0.07,1.721419488149789,1.0,3111.1931863494456,0.5450237855101935,1.2949014109559132,0.9832863998168309,0.28535261850229116,0.7226822634445524
0.07050000000000001,1.7207173369956368,1.0,3114.7037762325344,0.5475758569343531,1.294554430370527,0.9834234290398971,0.2853231281538168,0.7233344628478775
