Time [s],Phi [rad],STIM [ ],Fsee [N],Gamma [ ],Lcerel [ ],q [ ],Lmtc [m],fisomrel [ ]
0.0,1.8,1.0,18.431724425947102,0.0006950075091623092,1.3792880314187497,0.005124468120774342,0.288653,0.5412646340002856
0.0005,1.79999375,1.0,18.95105261377594,0.006300318375500552,1.379228163656244,0.014951125612940593,0.2886527375,0.5414094384244675
0.001,1.799975,1.0,22.80140190504124,0.011874187879678377,1.3788190832748441,0.03926700257756319,0.28865195,0.5423982849069091
0.0015,1.79994375,1.0,33.38667351009905,0.017416792383685955,1.3778523164810397,0.0755510749182516,0.2886506375,0.5447309532203835
0.002,1.7999,1.0,58.13915497065867,0.0229283072586085,1.3760785433181006,0.12054182168534017,0.2886488,0.5489953101267075
0.0025,1.79984375,1.0,104.41704936756781,0.028408906892247326,1.3735898583345159,0.1708866755763348,0.28864643749999996,0.5549445719056008
0.003,1.7997750000000001,1.0,170.22097631885657,0.03385876469637762,1.3708724776080847,0.2237764188470823,0.28864354999999997,0.5613954252322726
0.0035,1.79969375,1.0,248.01937975114078,0.03927805310763668,1.3682697446244345,0.2770629189289772,0.2886401375,0.5675299591653501
0.004,1.7996,1.0,332.3903950180091,0.04466694359534172,1.365869184292232,0.3291533769896286,0.2886362,0.5731496810756915
0.0045000000000000005,1.7994937500000001,1.0,420.5222405874558,0.05002560663511965,1.363660420058645,0.37895029060203067,0.2886317375,0.5782879428659753
0.005,1.799375,1.0,510.8738723293641,0.05535421189889259,1.3616161917922454,0.4257782861713577,0.28862675,0.5830157201328892
0.0055,1.79924375,1.0,602.3207413941077,0.06065292782937725,1.3597146490251286,0.46929202859739266,0.2886212375,0.5873895767752824
0.006,1.7991000000000001,1.0,694.0373714947468,0.06592192217300262,1.3579379013243587,0.509382181638942,0.2886152,0.5914555446285513
0.006500000000000001,1.79894375,1.0,785.3116915778435,0.07116136161090626,1.3562728438537626,0.5460992933642569,0.2886086375,0.5952476426414302
0.007,1.798775,1.0,875.5680765453179,0.07637141194448308,1.3547087411579208,0.5795935568163499,0.28860155,0.5987937147517957
0.0075,1.79859375,1.0,964.328370900413,0.08155223806998708,1.3532367708669724,0.6100719759201814,0.2885939375,0.6021166572304658
0.008,1.7984,1.0,1051.1959086347517,0.0867040036386729,1.3518495000528286,0.6377686240453182,0.2885858,0.6052357439814241
0.0085,1.79819375,1.0,1135.8880329989574,0.09182687211319711,1.3505399052715716,0.6629246255732284,0.2885771375,0.6081689247837934
0.009000000000000001,1.797975,1.0,1218.162156378339,0.09692100546163199,1.349302113903978,0.6857763822493276,0.28856795,0.6109312283871569
0.0095,1.79774375,1.0,1297.8327521837214,0.10198656446935371,1.3481308366372655,0.7065480257092676,0.2885582375,0.6135360987954004
0.01,1.7975,1.0,1374.78226077529,0.10702370945437181,1.347021020660112,0.7254474270674176,0.288548,0.6159962092474939
0.0105,1.79724375,1.0,1448.9500123100433,0.11203260065396445,1.3459678554762882,0.742664628216336,0.2885372375,0.6183234788811804
0.011,1.796975,1.0,1520.2744820187759,0.11701339590343576,1.34496735928394,0.758371928346703,0.28852595000000003,0.6205278094026311
0.0115,1.79669375,1.0,1588.7308029356898,0.12196625244528966,1.3440157655697664,0.7727242014310226,0.2885141375,0.6226184727023198
0.012,1.7964,1.0,1654.3319616334477,0.12689132711044535,1.3431094295252253,0.7858599717482976,0.28850180000000003,0.6246043347285539
0.0125,1.79609375,1.0,1717.1202178520027,0.13178877657790858,1.3422448647435636,0.7979027779290889,0.2884889375,0.6264937900403693
0.013000000000000001,1.7957750000000001,1.0,1777.1280745517902,0.13665875542880784,1.3414191247074139,0.8089627378617188,0.28847555,0.628293945420993
0.0135,1.79544375,1.0,1834.3945632610264,0.1415014171409842,1.34062954055185,0.8191378147891184,0.2884616375,0.6300112120645267
0.014,1.7951000000000001,1.0,1888.9854386535585,0.1463169151406026,1.3398734495037474,0.8285150344337674,0.2884472,0.6316519079158918
0.0145,1.79474375,1.0,1940.9790059310349,0.15110540181507975,1.3391483214264197,0.8371717637804348,0.2884322375,0.6332219900307459
0.015,1.794375,1.0,1990.4612991495856,0.15586702983096315,1.3384517780845353,0.8451768330122177,0.28841675,0.6347270214012005
0.0155,1.79399375,1.0,2037.4946657691537,0.16060194868208824,1.3377818939648434,0.852591625787617,0.2884007375,0.6361715309614902
0.016,1.7936,1.0,2082.1571777171953,0.16531030786229048,1.3371367435540935,0.8594708109830341,0.2883842,0.6375600004647366
0.0165,1.7931937500000001,1.0,2124.536669413658,0.16999225641837595,1.3365144489786747,0.8658631527753857,0.2883671375,0.6388967653972544
0.017,1.792775,1.0,2164.723025761166,0.17464794287735724,1.335913243678904,0.8718122281473668,0.28834955,0.6401858824015217
0.0175,1.7923437500000001,1.0,2202.814665158942,0.17927751620615345,1.3353313903672894,0.8773570157098622,0.2883314375,0.6414313094207289
0.018000000000000002,1.7919,1.0,2238.877645145066,0.18388112131053153,1.3347675801064809,0.8825325387052798,0.2883128,0.6426360564721011
0.0185,1.79144375,1.0,2272.9861154781674,0.1884589030962583,1.3342205039591288,0.8873702122820495,0.2882936375,0.643803108205695
0.019,1.790975,1.0,2305.221649672221,0.19301100646910077,1.3336888529878828,0.8918982609639199,0.28827395,0.6449354253559667
0.0195,1.79049375,1.0,2335.669106307434,0.19753757582714868,1.3331713527274531,0.8961420922207616,0.2882537375,0.6460358728372417
0.02,1.79,1.0,2364.409530813576,0.202038754697306,1.3326668256695975,0.9001246299377225,0.288233,0.6471070889633725
0.0205,1.78949375,1.0,2391.5284153792422,0.20651468726838249,1.3321741030391445,0.9038665729643293,0.2882117375,0.6481516749685581
0.021,1.788975,1.0,2417.086729378223,0.21096551352009218,1.3316922998378105,0.9073866983176988,0.28818995000000003,0.6491716142484185
0.021500000000000002,1.78844375,1.0,2441.1492767698787,0.21539137343214926,1.3312205310673118,0.9107020114942281,0.2881676375,0.6501688769116326
0.022,1.7879,1.0,2463.784379755635,0.21979240698426775,1.3307579117293644,0.9138279380313664,0.2881448,0.651145420371269
0.0225,1.78734375,1.0,2485.063579800534,0.22416875415616183,1.3303035568256847,0.9167784921645535,0.28812143749999997,0.6521031898861661
0.023,1.786775,1.0,2505.0460389339323,0.22852055192884443,1.3298567266879013,0.9195664518328771,0.28809755,0.6530438133250739
0.0235,1.78619375,1.0,2523.813039039079,0.23284794226891015,1.3294164956588146,0.9222034286061644,0.28807313749999996,0.653969299706206
0.024,1.7856,1.0,2541.4140319821145,0.23715106032245226,1.3289822615471316,0.9247000748472598,0.2880482,0.6548809680718581
0.0245,1.78499375,1.0,2557.898513563489,0.2414300408698306,1.32855343884209,0.9270661278217139,0.2880227375,0.6557800951053475
0.025,1.784375,1.0,2573.3176272058895,0.2456850186914049,1.3281294420329273,0.9293104983079574,0.28799675,0.6566679504820148
0.025500000000000002,1.78374375,1.0,2587.7240242221546,0.24991612856753495,1.3277096856088813,0.9314413520295152,0.2879702375,0.6575457970603578
0.026000000000000002,1.7831000000000001,1.0,2601.1717316841437,0.25412350527858046,1.3272935840591888,0.9334661820708623,0.2879432,0.6584148910513097
0.0265,1.78244375,1.0,2613.7057036339265,0.25830727972561673,1.3268806477728345,0.9353918868275461,0.2879156375,0.6592762822436611
0.027,1.781775,1.0,2625.3867159172214,0.26246758977552165,1.3264702501589738,0.9372247946507754,0.28788755,0.6601313002587279
0.0275,1.7810937500000001,1.0,2636.2524491736885,0.2666045654254413,1.3260619881424058,0.9389707655365117,0.2878589375,0.6609808032162678
0.028,1.7804,1.0,2646.3391573601593,0.2707183358638743,1.325655478986862,0.9406352064468858,0.2878298,0.6618256026971859
0.0285,1.77969375,1.0,2655.6837877141675,0.27480903027931913,1.3252503399560738,0.9422231098146547,0.2878001375,0.6626665062450843
0.029,1.778975,1.0,2664.3239195995293,0.2788767778602745,1.3248461883137728,0.9437390907153308,0.28776995,0.6635043174043778
0.029500000000000002,1.7782437500000001,1.0,2672.2977065994046,0.28292170779523895,1.3244426413236905,0.9451874202598185,0.2877392375,0.6643398357490662
0.03,1.7775,1.0,2679.6436250317993,0.2869439491426507,1.3240393180551964,0.94657205582834,0.287708,0.6651738531706738
0.0305,1.77674375,1.0,2686.3896371170376,0.2909436230988541,1.3236359381907359,0.9478966783766042,0.2876762375,0.6660069499725835
0.031,1.775975,1.0,2692.586255329701,0.2949208684766183,1.3232320184122504,0.9491646854510668,0.28764395,0.66684012204446
0.0315,1.7751937500000001,1.0,2698.256889189168,0.29887580802446534,1.3228273270919932,0.9503792612206468,0.2876111375,0.6676738421002526
0.032,1.7744,1.0,2703.425217875442,0.3028085644909169,1.3224216326022182,0.9515433680004847,0.2875778,0.6685085804531894
0.0325,1.77359375,1.0,2708.1151657952637,0.306719260624495,1.3220147033151783,0.9526597644226678,0.2875439375,0.6693448050026711
0.033,1.772775,1.0,2712.3508793376955,0.31060801917372144,1.3216063076031275,0.9537310219099707,0.28750955,0.6701829812177378
0.0335,1.7719437500000002,1.0,2716.1567048195607,0.314474962887118,1.3211962138383186,0.9547595396292095,0.2874746375,0.6710235721171208
0.034,1.7711000000000001,1.0,2719.5571676197033,0.31832021451320663,1.3207841903930055,0.9557475580806762,0.2874392,0.6718670382458674
0.0345,1.7702437500000001,1.0,2722.5769525037517,0.32214389680050914,1.3203700056394414,0.9566971714624836,0.2874032375,0.6727138376485469
0.035,1.7693750000000001,1.0,2725.2400518472064,0.3259461312644194,1.3199534355300897,0.9576103394415574,0.28736675,0.6735644103714692
0.035500000000000004,1.76849375,1.0,2727.565214001196,0.32972703231157513,1.3195343048114396,0.958488900320623,0.2873297375,0.6744190945429528
0.036000000000000004,1.7676,1.0,2729.579862715681,0.33348673295102055,1.319112360271359,0.9593345730800377,0.2872922,0.6752783849554922
0.0365,1.76669375,1.0,2731.2984838062553,0.33722534887010325,1.3186874671482083,0.9601489778548766,0.2872541375,0.6761425327890933
0.037,1.765775,1.0,2732.735631773306,0.34094299575617104,1.3182594906803469,0.9609336352726636,0.28721555,0.6770117876016779
0.0375,1.76484375,1.0,2733.9059219463184,0.3446397892965717,1.3178282961061352,0.9616899736734805,0.2871764375,0.6778863973031597
0.038,1.7639,1.0,2734.824023030957,0.3483158451786529,1.317393748663933,0.962419335729398,0.28713679999999997,0.6787666081283676
0.0385,1.76294375,1.0,2735.5046500588046,0.3519712790897623,1.3169557135921004,0.9631229845192429,0.28709663750000003,0.6796526646088088
0.039,1.761975,1.0,2735.962557738888,0.3556062067172477,1.3165140561289972,0.9638021091089508,0.28705595,0.6805448095432718
0.0395,1.7609937500000001,1.0,2736.212534213701,0.3592207437484568,1.3160686415129834,0.9644578296826544,0.2870147375,0.6814432839672742
0.04,1.76,1.0,2736.269395215772,0.3628150058707373,1.315619334982419,0.9650912022650974,0.286973,0.6823483271213507
0.0405,1.7589937500000001,1.0,2736.14505681047,0.366389104453385,1.315166028301609,0.9657032246268527,0.2869307375,0.6832601231013695
0.041,1.757975,1.0,2735.8422768699056,0.3699431405997524,1.3147086965437411,0.9662948440744455,0.28688795,0.6841786872440672
0.0415,1.75694375,1.0,2735.389593937539,0.37347725502681844,1.3142470808519389,0.9668669423323755,0.2868446375,0.6851045031123566
0.042,1.7559,1.0,2734.7940890783166,0.37699155520061817,1.3137811172622154,0.9674203634848073,0.28680079999999997,0.6860376608726909
0.0425,1.75484375,1.0,2734.0628518606004,0.3804861485871869,1.3133107418105832,0.9679559058752774,0.2867564375,0.6869782495730297
0.043000000000000003,1.753775,1.0,2733.202978561244,0.3839611426525597,1.3128358905330553,0.9684743250454615,0.28671155,0.687926357124969
0.043500000000000004,1.75269375,1.0,2732.2215704626374,0.3874166448627719,1.312356499465645,0.9689763364565912,0.28666613750000003,0.688882070285614
0.044,1.7516,1.0,2731.125732239044,0.3908527626838585,1.311872504644365,0.969462618011608,0.2866202,0.689845474639192
0.0445,1.75049375,1.0,2729.922570434936,0.3942696035818548,1.3113838421052282,0.9699338123944827,0.2865737375,0.6908166545784002
0.045,1.7493750000000001,1.0,2728.6191920331544,0.3976672750227961,1.3108904478842476,0.9703905292416237,0.28652675,0.6917956932854973
0.0455,1.74824375,1.0,2727.222703113944,0.40104588447271733,1.310392258017436,0.9708333471589519,0.2864792375,0.6927826727131294
0.046,1.7471,1.0,2725.740207605162,0.4044055393976539,1.3098892085408067,0.9712628155970019,0.2864312,0.6937776735648993
0.0465,1.7459437500000001,1.0,2724.178806122639,0.4077463472636408,1.3093812354903724,0.9716794565953144,0.28638263750000004,0.694780775275672
0.047,1.744775,1.0,2722.545594901418,0.41106841553671336,1.308868274902146,0.9720837664063885,0.28633355,0.695792055991621
0.0475,1.74359375,1.0,2720.8476648181995,0.41437185168290674,1.3083502628121408,0.9724762170085771,0.28628393750000003,0.6968115925500118
0.048,1.7424,1.0,2719.0872138998093,0.4176567496719334,1.3078271797586973,0.9728572589518272,0.2862338,0.6978393730924957
0.0485,1.74119375,1.0,2717.271403078392,0.4209232238783952,1.3072989610630448,0.9732273205900365,0.2861831375,0.6988754736274658
0.049,1.739975,1.0,2715.40722281293,0.42417138567847196,1.306765543530656,0.9735868096288732,0.28613195,0.6999199658875677
0.0495,1.73874375,1.0,2713.4977565954937,0.42740133423563165,1.3062268995109219,0.9739361155284364,0.2860802375,0.7009728508160962
0.05,1.7375,1.0,2711.546084869195,0.43061316871334243,1.3056830013532335,0.9742756096112412,0.286028,0.7020341284556093
0.0505,1.73624375,1.0,2709.555284779865,0.43380698827507225,1.3051338214069816,0.9746056460667096,0.2859752375,0.7031037979386869
0.051000000000000004,1.734975,1.0,2707.5284299450664,0.4369828920842893,1.3045793320215573,0.9749265628913688,0.28592195,0.7041818574786415
0.051500000000000004,1.73369375,1.0,2705.4685902395117,0.44014097930446155,1.3040195055463515,0.9752386827694032,0.2858681375,0.7052683043601784
0.052000000000000005,1.7324,1.0,2703.3788315978204,0.44328134909905714,1.303454314330755,0.9755423138978394,0.2858138,0.7063631349300105
0.0525,1.73109375,1.0,2701.2622158343215,0.446404100631544,1.302883730724159,0.9758377507602928,0.28575893750000003,0.7074663445874207
0.053,1.729775,1.0,2699.1218004792304,0.4495093330653904,1.302307727075954,0.9761252748529058,0.28570355000000003,0.7085779277747785
0.0535,1.72844375,1.0,2696.9606386325463,0.45259714556406433,1.3017262757355315,0.976405155365815,0.2856476375,0.709697877968004
0.054,1.7271,1.0,2694.7817788343614,0.45566763729103377,1.301139349052282,0.9766776498232251,0.2855912,0.7108261876669894
0.0545,1.7257437500000001,1.0,2692.5882649522714,0.4587209074097669,1.3005469193755965,0.9769430046849409,0.2855342375,0.7119628483859652
0.055,1.724375,1.0,2690.3784645075607,0.461757037727751,1.2999490018253446,0.9772014567992342,0.28547675,0.7131077688264651
0.0555,1.72299375,1.0,2688.155713723361,0.4647761329962857,1.299345566038026,0.9774532325342383,0.2854187375,0.7142609441752992
0.056,1.7216,1.0,2685.927071583696,0.4677783082555564,1.2987365474891994,0.9776985477181206,0.2853602,0.7154224336550807
0.0565,1.72019375,1.0,2683.69353916644,0.4707636542668772,1.2981219370797974,0.9779376101676658,0.28530113749999997,0.7165921895146343
0.057,1.718775,1.0,2681.4561159188625,0.473732261791562,1.297501725710752,0.9781706191595122,0.28524155,0.7177701632625144
0.0575,1.71734375,1.0,2679.215799647633,0.47668422159092494,1.2968759042829956,0.9783977658479552,0.2851814375,0.7189563056637553
0.058,1.7159,1.0,2676.973586511016,0.4796196244262798,1.2962444636974604,0.9786192336590629,0.2851208,0.7201505667366201
0.0585,1.71444375,1.0,2674.730471012738,0.4825385610589407,1.2956073948550786,0.9788351986626267,0.2850596375,0.721352895749342
0.059000000000000004,1.7129750000000001,1.0,2672.487445997336,0.4854411222502216,1.2949646886567825,0.979045829923359,0.28499795,0.7225632412168602
0.059500000000000004,1.71149375,1.0,2670.2455026481534,0.48832739876143655,1.2943163360035044,0.9792512898326445,0.2849357375,0.723781550897552
0.06,1.71,1.0,2668.0056304861932,0.4911974813538994,1.2936623277961765,0.9794517344220736,0.284873,0.7250077717899586
0.0605,1.7084937500000001,1.0,2665.7688173717534,0.49405146078892426,1.293002654935731,0.9796473136598824,0.2848097375,0.7262418501295057
0.061,1.7069750000000001,1.0,2663.536049507051,0.4968894278278251,1.2923373083231,0.9798381717313617,0.28474595,0.7274837313852193
0.0615,1.7054437500000001,1.0,2661.30831144117,0.4997114732319158,1.2916662788592161,0.9800244473042143,0.2846816375,0.7287333602564349
0.062,1.7039,1.0,2659.086586077072,0.5025176877625105,1.2909895574450114,0.9802062737797772,0.2846168,0.7299906806695038
0.0625,1.70234375,1.0,2656.8718546796295,0.5053081621809231,1.2903071349814181,0.9803837795309626,0.2845514375,0.7312556357744919
0.063,1.7007750000000001,1.0,2654.6650968862114,0.5080829872484676,1.2896190023693686,0.9805570881277128,0.28448555,0.732528167941874
0.0635,1.69919375,1.0,2652.4649263116194,0.5108422274892045,1.2889251723112152,0.9807263177299551,0.28441913750000003,0.733808178587164
0.064,1.6976,1.0,2650.273152962412,0.5135859913049452,1.2882256280455107,0.9808915838790042,0.2843522,0.7350956228883002
0.0645,1.69599375,1.0,2648.091526635196,0.5163143803999545,1.2875203533389656,0.9810529974078981,0.2842847375,0.7363904541321312
0.065,1.694375,1.0,2645.9202117021114,0.5190274769281088,1.2868093465686787,0.9812106644517488,0.28421675,0.7376925979618862
0.0655,1.69274375,1.0,2643.759372296101,0.5217253630432848,1.2860926061117492,0.9813646873286455,0.2841482375,0.7390019793628428
0.066,1.6911,1.0,2641.609172314678,0.5244081208993588,1.2853701303452758,0.9815151647027209,0.2840792,0.7403185226617357
0.0665,1.6894437500000001,1.0,2639.4697754229455,0.5270758326502077,1.2846419176463577,0.9816621917391186,0.2840096375,0.7416421515261611
0.067,1.687775,1.0,2637.341345056486,0.5297285804497078,1.2839079663920934,0.981805860251317,0.28393955,0.7429727889639859
0.0675,1.68609375,1.0,2635.224044425365,0.5323664464517357,1.283168274959582,0.9819462588412384,0.2838689375,0.7443103573227504
0.068,1.6844000000000001,1.0,2633.1180365169457,0.5349895128101678,1.2824228417259227,0.9820834730325445,0.2837978,0.7456547782890766
0.0685,1.68269375,1.0,2631.023484099623,0.537597861678881,1.281671665068214,0.9822175853974917,0.2837261375,0.7470059728880736
0.069,1.680975,1.0,2628.940549726333,0.5401915752117514,1.2809147433635553,0.9823486756777043,0.28365395,0.7483638614827419
0.0695,1.67924375,1.0,2626.8693957378573,0.542770735562656,1.2801520749890452,0.9824768208991912,0.28358123749999997,0.7497283637733815
0.07,1.6775,1.0,2624.810184266932,0.5453354248854709,1.2793836583217826,0.9826020954819218,0.283508,0.7510993987969944
0.07050000000000001,1.67574375,1.0,2622.7630772414127,0.547885725334073,1.2786094917388666,0.9827245713442504,0.2834342375,0.7524768849266914
0.07100000000000001,1.673975,1.0,2620.728236388305,0.5504217190623386,1.277829573617396,0.9828443180024663,0.28335995,0.7538607398710969
0.07150000000000001,1.67219375,1.0,2618.7058232374347,0.5529434882241444,1.2770439023344697,0.982961402665727,0.2832851375,0.7552508806737526
0.07200000000000001,1.6704,1.0,2616.6959991255594,0.5554511149733667,1.276252476267187,0.9830758903266165,0.2832098,0.7566472237125234
0.0725,1.66859375,1.0,2614.6966009033204,0.5579446606396141,1.2754553153784471,0.9831878435908058,0.2831339375,0.7580496467785722
0.073,1.6667750000000001,1.0,2612.7053266363764,0.5604241933206217,1.274652440951658,0.9832973235006829,0.28305755,0.7594580251253062
0.0735,1.66494375,1.0,2610.7273074518107,0.5628898401473355,1.2738438052194816,0.9834043894756469,0.2829806375,0.7608723544098044
0.074,1.6631,1.0,2608.7622588849426,0.5653416744050866,1.2730294106947324,0.9835090981256743,0.2829032,0.7622925411214514
0.0745,1.6612437500000001,1.0,2606.809896965332,0.5677797693792066,1.2722092598902246,0.9836115042567295,0.2828252375,0.7637184911671434
0.075,1.659375,1.0,2604.8699382107134,0.5702041983550267,1.2713833553187721,0.9837116609384078,0.28274675,0.7651501098722101
0.0755,1.65749375,1.0,2602.9420996203926,0.5726150346178782,1.2705516994931898,0.983809619568617,0.2826677375,0.7665873019813352
