Time [s],Phi [rad],STIM [ ],Fsee [N],Gamma [ ],Lcerel [ ],q [ ],Lmtc [m],fisomrel [ ]
0.0,1.8,1.0,17.965541650831454,1.0101111350248944e-05,1.3793399273277318,0.005000027191310465,0.288653,0.5411390929049463
0.0005,1.79999375,1.0,18.275057098046254,0.005619253760898942,1.3793025751920254,0.012940798487865838,0.2886527375,0.5412294529741644
0.001,1.799975,1.0,21.61683970659145,0.011196943499004386,1.3789384595939131,0.03560911582498499,0.28865195,0.542109833675358
0.0015,1.79994375,1.0,31.067772715418393,0.016743346808586124,1.378046328397629,0.07060244751746961,0.2886506375,0.5442633086258677
0.002,1.7999,1.0,53.58094897783539,0.022258639180908608,1.3763682250335167,0.11471871698925057,0.2886488,0.5483002525035718
0.0025,1.79984375,1.0,97.11755860522153,0.02774299512315277,1.3739352337125044,0.16457562960433722,0.28864643749999996,0.5541213041721134
0.003,1.7997750000000001,1.0,160.9570664441336,0.03319658816612614,1.3712143849444904,0.21728120993418906,0.28864354999999997,0.5605863533491189
0.0035,1.79969375,1.0,237.68248223653248,0.03861959086385865,1.3685847603940626,0.2706136366148129,0.2886401375,0.5667897780779702
0.004,1.7996,1.0,321.466148116562,0.04401217480438387,1.366156108902953,0.32291652331572057,0.2886362,0.5724799231921199
0.0045000000000000005,1.7994937500000001,1.0,409.26733126977604,0.04937451061492357,1.3639228240143024,0.3730351908835927,0.2886317375,0.5776791395454562
0.005,1.799375,1.0,499.41325059643435,0.054706767952986575,1.3618583477351835,0.42024809902531013,0.28862675,0.5824570668825351
0.0055,1.79924375,1.0,590.7902949896212,0.06000911555377132,1.3599388374244779,0.4641742888307592,0.2886212375,0.5868751062293218
0.006,1.7991000000000001,1.0,682.5181078407477,0.06528172117346313,1.3581464147562559,0.5046805047105474,0.2886152,0.5909794183585458
0.006500000000000001,1.79894375,1.0,773.862527374759,0.07052475137000247,1.3564675733609008,0.5418014600557638,0.2886086375,0.5948050674177002
0.007,1.798775,1.0,864.2914739626937,0.07573837291950135,1.3548903035248152,0.5756771786482562,0.28860155,0.5983828841328589
0.0075,1.79859375,1.0,953.2576099758828,0.0809227499876358,1.3534065577886913,0.6065101959114884,0.2885939375,0.6017340717855497
0.008,1.7984,1.0,1040.3589587069512,0.08607804647436258,1.3520086389225152,0.6345324331533497,0.2885858,0.6048785654461681
0.0085,1.79819375,1.0,1125.3194002584162,0.09120442598077676,1.350689168271535,0.6599847403046343,0.2885771375,0.6078351634471271
0.009000000000000001,1.797975,1.0,1207.8838911885625,0.09630205056526661,1.3494422576265164,0.6831046339789927,0.28856795,0.6106189687017964
0.0095,1.79774375,1.0,1287.8749763693686,0.10137108152665011,1.3482623517945738,0.7041178892509088,0.2885582375,0.6132440507733181
0.01,1.7975,1.0,1365.1571365768232,0.10641167910339333,1.3471445126843364,0.723234557108521,0.288548,0.6157228549526613
0.0105,1.79724375,1.0,1439.6591120198734,0.11142400320564856,1.3460839512332106,0.7406469039026039,0.2885372375,0.6180672790140584
0.011,1.796975,1.0,1511.3177290313627,0.11640821195424163,1.345076608431183,0.756529374532033,0.28852595000000003,0.6202874180919389
0.0115,1.79669375,1.0,1580.1097449640074,0.12136446291963576,1.3441186176665674,0.7710388722092907,0.2885141375,0.6223927837221008
0.012,1.7964,1.0,1646.0575486705318,0.12629291367510934,1.3432061586615618,0.7843157722093632,0.28850180000000003,0.6243926424004301
0.0125,1.79609375,1.0,1709.1797848592196,0.131193719936735,1.3423359680542248,0.7964854691916725,0.2884889375,0.6262949138277321
0.013000000000000001,1.7957750000000001,1.0,1769.5017373282494,0.136067036169555,1.3415051271333471,0.8076596714557084,0.28847555,0.628106658614912
0.0135,1.79544375,1.0,1827.0788009427124,0.14091301667700348,1.3407107364780728,0.817937665160361,0.2884616375,0.6298348024507947
0.014,1.7951000000000001,1.0,1881.9834168744374,0.14573181509757963,1.3399500267152014,0.8274077010870523,0.2884472,0.6314859034959627
0.0145,1.79474375,1.0,1934.2890598650026,0.15052358469204993,1.3392204943469055,0.83614828208363,0.2884322375,0.6330658680326564
0.015,1.794375,1.0,1984.055347747033,0.1552884759879066,1.3385200188667643,0.8442293158889833,0.28841675,0.6345797092680023
0.0155,1.79399375,1.0,2031.3602858176753,0.16002663951264173,1.3378464797683571,0.8517129902363714,0.2884007375,0.636032385548881
0.016,1.7936,1.0,2076.2903675340667,0.16473822507932162,1.3371978432300906,0.8586547111852473,0.2883842,0.6374286177327017
0.0165,1.7931937500000001,1.0,2118.9395148705903,0.16942338281320238,1.3365721533726276,0.8651039040780011,0.2883671375,0.6387729131827566
0.017,1.792775,1.0,2159.3982331141597,0.17408226185871442,1.335967625810531,0.8711047466062662,0.28834955,0.6400693699210299
0.0175,1.7923437500000001,1.0,2197.7332896691287,0.17871500815255975,1.3353828338494231,0.8766968359882444,0.2883314375,0.641321284308451
0.018000000000000002,1.7919,1.0,2234.0208367905175,0.18332176763144034,1.3348163507949258,0.8819156279378951,0.2883128,0.6425319235981162
0.0185,1.79144375,1.0,2268.3456313052166,0.18790268623205805,1.3342667499526613,0.8867929203802339,0.2882936375,0.6437045276660875
0.019,1.790975,1.0,2300.7936161792804,0.1924579090511158,1.3337326707947388,0.8913572930649052,0.28827395,0.6448421697838346
0.0195,1.79049375,1.0,2331.4529556878765,0.19698758130406846,1.3332127998092227,0.8956344721656628,0.2882537375,0.6459477998829684
0.02,1.79,1.0,2360.4049384612376,0.20149184702250061,1.3327059519306947,0.899647671732584,0.288233,0.6470240738198031
0.0205,1.78949375,1.0,2387.713230286293,0.2059708472625138,1.3322111658649263,0.9034178946096648,0.2882117375,0.6480731545748293
0.021,1.788975,1.0,2413.445929032471,0.2104247230802096,1.3317274803176893,0.9069641283830838,0.28818995000000003,0.6490971900576437
0.021500000000000002,1.78844375,1.0,2437.6751975008056,0.2148536155316895,1.3312539339947551,0.9103035663828416,0.2881676375,0.6500983138169594
0.022,1.7879,1.0,2460.472600437224,0.21925766486744,1.3307896069249125,0.9134518099914801,0.2881448,0.6510785585155033
0.0225,1.78734375,1.0,2481.907796428511,0.22363701097807803,1.3303336289253955,0.91642304051559,0.28812143749999997,0.6520398392888365
0.023,1.786775,1.0,2502.0550310317726,0.22799179455882645,1.329885114163686,0.9192301565830562,0.28809755,0.6529840926441703
0.0235,1.78619375,1.0,2520.9663674130425,0.23232215157931574,1.32944341216429,0.9218849518844402,0.28807313749999996,0.6539127493034113
0.024,1.7856,1.0,2538.6959716970255,0.2366282180091765,1.3290078724517131,0.9243981866659303,0.2880482,0.654827231711726
0.0245,1.78499375,1.0,2555.2999379890693,0.24091012981803922,1.328577844550461,0.9267796925174874,0.2880227375,0.6557289543066744
0.025,1.784375,1.0,2570.83612277817,0.24516802297553447,1.3281526779850399,0.9290384652667852,0.28799675,0.656619323760353
0.025500000000000002,1.78374375,1.0,2585.3559730954407,0.24940203156979124,1.3277317971424565,0.931182759115383,0.2879702375,0.6574995827224992
0.026000000000000002,1.7831000000000001,1.0,2598.9160688489255,0.25361229164350585,1.3273145914072888,0.9332201423060966,0.2879432,0.6583710403440037
0.0265,1.78244375,1.0,2611.570548719549,0.25779893796594805,1.3269004848255486,0.9351575727175094,0.2879156375,0.6592349267245577
0.027,1.781775,1.0,2623.3580630262522,0.2619621010304577,1.3264890555513906,0.9370014727851358,0.28788755,0.6600921447868653
0.0275,1.7810937500000001,1.0,2634.3181480880016,0.26610191133037425,1.326079881738969,0.9387577574050745,0.2878589375,0.6609435928734058
0.028,1.7804,1.0,2644.4911503564485,0.27021849935903747,1.3256725415424386,0.9404318807537593,0.2878298,0.6617901648127825
0.0285,1.77969375,1.0,2653.91815449509,0.274311995609787,1.325266613115954,0.9420288782219156,0.2878001375,0.662632749974733
0.029,1.778975,1.0,2662.640915402975,0.27838253057596235,1.3248616746136699,0.9435534040256782,0.28776995,0.6634722333137821
0.029500000000000002,1.7782437500000001,1.0,2670.6623704116,0.2824302315292284,1.3244576664614869,0.9450098134741786,0.2877392375,0.6643087457728525
0.03,1.7775,1.0,2678.096221587246,0.28645523067685214,1.3240535156614874,0.9464020064339723,0.287708,0.6651445120772644
0.0305,1.77674375,1.0,2684.9636234679165,0.29045765437803184,1.3236490054408623,0.9477337113653299,0.2876762375,0.665979978562311
0.031,1.775975,1.0,2691.264566589472,0.29443762763735304,1.3232441156178119,0.9490084139604035,0.28764395,0.6668151840512075
0.0315,1.775196651659641,1.0,2697.14254509716,0.29839527545940125,1.3228388260105355,0.9502293527959118,0.2876112593697049,0.6676501671560562
0.032,1.7744176687889117,1.0,2703.041540820232,0.30233072284876195,1.3224331164372334,0.9513995399041262,0.2875785420891343,0.668484966277339
0.0325,1.7736386859181827,1.0,2708.99522110166,0.3062440948100207,1.3220269667161053,0.9525217793948085,0.28754582480856367,0.6693196196033941
0.033,1.7728597030474538,1.0,2715.0059587127053,0.3101355162253153,1.321620356672251,0.9535986842995754,0.2875131075279931,0.6701541650957079
0.0335,1.7720807201767248,1.0,2721.0585917299954,0.3140051103997453,1.321213425863035,0.9546327097849805,0.28748039024742245,0.6709883132823102
0.034,1.7713017373059958,1.0,2727.1337854164235,0.3178529996497976,1.3208063511794763,0.9556261516829077,0.2874476729668518,0.671821699754179
0.0345,1.7705227544352669,1.0,2733.222480335213,0.3216793050355957,1.320399215392759,0.9565811443842918,0.28741495568628117,0.6726541542592614
0.035,1.7697437715645379,1.0,2739.31557649137,0.32548414761726324,1.3199921012740667,0.9574996840416216,0.2873822384057106,0.6734855074049981
0.035500000000000004,1.768964788693809,1.0,2745.410380525713,0.3292676403319374,1.3195850331617125,0.9583836310018761,0.28734952112513995,0.6743157097545508
0.036000000000000004,1.76818580582308,1.0,2751.4900605728285,0.3330299152686246,1.3191781632850448,0.9592347460109893,0.28731680384456937,0.675144451792045
0.0365,1.767406822952351,1.0,2757.5481907175185,0.3367710923557416,1.3187715490986869,0.9600546673007125,0.28728408656399873,0.6759716182564524
0.037,1.7666278400816218,1.0,2763.5818672278037,0.3404912870645248,1.3183652159910626,0.9608449279845951,0.2872513692834281,0.6767971595885334
0.0375,1.7658488572108928,1.0,2769.588174587837,0.34419061486621044,1.3179591893505962,0.9616069679390289,0.2872186520028575,0.67762102649079
0.038,1.7650698743401638,1.0,2775.564185663396,0.3478691912320348,1.3175534945657115,0.9623421405111101,0.2871859347222869,0.6784431699269919
0.0385,1.7642908914694349,1.0,2781.5069618818743,0.35152713163323424,1.3171481570248327,0.9630517186733025,0.2871532174417163,0.6792635411216584
0.039,1.7635119085987059,1.0,2787.413553425629,0.355164551541045,1.3167432021163836,0.9637369006760446,0.28712050016114565,0.6800820915595018
0.0395,1.762732925727977,1.0,2793.2809994407503,0.35878156642670334,1.3163386552287888,0.9643988152442386,0.287087782880575,0.6808987729848263
0.04,1.761953942857248,1.0,2799.1063282593923,0.36237829176144565,1.315934541750472,0.96503852635892,0.2870550656000044,0.6817135374008906
0.0405,1.761174959986519,1.0,2804.8865576366265,0.36595484301650816,1.3155308870698572,0.9656570376612834,0.2870223483194338,0.6825263370692252
0.041,1.76039597711579,1.0,2810.621992262819,0.36951132051490476,1.315127687040185,0.966255291293479,0.28698963103886316,0.6833371838670386
0.0415,1.7596169942450608,1.0,2816.3094040973206,0.37304785236636173,1.3147249691564031,0.966834184757666,0.2869569137582926,0.6841460261144805
0.042,1.7588380113743318,1.0,2821.9468832868765,0.37656455755513957,1.314322749031845,0.9673945637067363,0.28692419647772194,0.6849528362278821
0.0425,1.7580590285036028,1.0,2827.5346443898106,0.38006154348469995,1.3139210232595133,0.9679372244484771,0.2868914791971513,0.6857576248587376
0.043000000000000003,1.7572800456328739,1.0,2833.072905106046,0.3835389175585046,1.3135197884324106,0.9684629206422278,0.2868587619165807,0.6865604026189303
0.043500000000000004,1.756501062762145,1.0,2838.561886239624,0.3869967871800152,1.3131190411435394,0.9689723660139293,0.2868260446360101,0.687361180080837
0.044,1.755722079891416,1.0,2844.001811662314,0.3904352597526933,1.3127187779859024,0.9694662368721504,0.2867933273554395,0.6881599677774359
0.0445,1.754943097020687,1.0,2849.392908276214,0.3938544426800007,1.3123189955525025,0.9699451744415197,0.28676061007486886,0.6889567762024105
0.045,1.754164114149958,1.0,2854.7354059779072,0.3972544433653991,1.3119196904363422,0.9704097870284923,0.2867278927942982,0.6897516158102567
0.0455,1.753385131279229,1.0,2860.0295376220174,0.40063536921235016,1.311520859230424,0.9708606520330242,0.2866951755137276,0.6905444970163852
0.046,1.7526061484085,1.0,2865.2755389853755,0.4039973276243155,1.3111224985277508,0.9712983178185148,0.286662458233157,0.691335430197225
0.0465,1.751827165537771,1.0,2870.4736487310506,0.40734042600475684,1.310724604921325,0.9717233054512744,0.28662974095258636,0.6921244256903267
0.047,1.7510481826670419,1.0,2875.6241083735076,0.41066477175713584,1.3103271750041492,0.9721361103197852,0.2865970236720158,0.6929114937944648
0.0475,1.750269199796313,1.0,2880.727162242714,0.41397047228491424,1.3099302053692266,0.972537203643128,0.28656430639144514,0.6936966447697355
0.048,1.749490216925584,1.0,2885.7831858145682,0.41725760686756436,1.3095336914748077,0.9729270302612503,0.2865315891108745,0.6944798910777378
0.0485,1.748711234054855,1.0,2890.7933245176387,0.4205262996960307,1.3091376220068025,0.9733060189256899,0.2864988718303039,0.6952612584820769
0.049,1.747932251184126,1.0,2895.758427572185,0.4237766769319282,1.3087419883160998,0.9736745784201212,0.2864661545497333,0.6960407673808078
0.0495,1.747153268313397,1.0,2900.67926314621,0.4270088363781648,1.3083467825091895,0.9740330949744638,0.2864334372691627,0.6968184365951231
0.05,1.746374285442668,1.0,2905.5566036790965,0.43022287583764823,1.3079519966925612,0.9743819369147365,0.28640071998859207,0.6975942848630892
0.0505,1.745595302571939,1.0,2910.3912258077476,0.43341889311328646,1.3075576229727055,0.9747214556539533,0.28636800270802143,0.6983683308398569
0.051000000000000004,1.74481631970121,1.0,2915.183910293576,0.43659698600798735,1.307163653456112,0.9750519866196283,0.2863352854274508,0.6991405930978749
0.051500000000000004,1.744037336830481,1.0,2919.9354419512056,0.43975725232465873,1.3067700802492705,0.9753738501224798,0.2863025681468802,0.6999110901270922
0.052000000000000005,1.743258353959752,1.0,2924.646609578219,0.4428997898662085,1.3063768954586712,0.9756873521705393,0.28626985086630957,0.700679840335161
0.0525,1.742479371089023,1.0,2929.318205886832,0.44602469643554443,1.3059840911908036,0.9759927852325542,0.286237133585739,0.701446862047634
0.053,1.741700388218294,1.0,2933.951027436127,0.4491320698355745,1.3055916595521582,0.9762904289542503,0.28620441630516835,0.7022121735081565
0.0535,1.740921405347565,1.0,2938.5458745666274,0.45222200786920663,1.3051995926492246,0.9765805508307498,0.2861716990245977,0.7029757928786589
0.054,1.740142422476836,1.0,2943.1035513355687,0.45529460833934854,1.3048078825884928,0.9768634068381817,0.2861389817440271,0.7037377382395396
0.0545,1.739363439606107,1.0,2947.62486545369,0.45834996904890823,1.3044165214764527,0.9771392420272863,0.2861062644634565,0.7044980275898483
0.055,1.738584456735378,1.0,2952.1106282235373,0.46138818780079344,1.3040255014195943,0.9774082910816038,0.28607354718288586,0.7052566788474626
0.0555,1.7378054738646491,1.0,2956.5616544791246,0.46440936239791214,1.3036348145244074,0.9776707788426388,0.2860408299023153,0.7060137098492625
0.056,1.7370264909939201,1.0,2960.9787625268627,0.4674135906431721,1.303244452897382,0.9779269208042123,0.28600811262174464,0.7067691383512992
0.0565,1.7362475081231912,1.0,2965.362774087979,0.4704009703394813,1.3028544086450082,0.9781769235780509,0.285975395341174,0.7075229820289617
0.057,1.735468525252462,1.0,2969.7141140408175,0.4733715848699511,1.3024646773612323,0.9784209842485474,0.2859426780606034,0.7082752517498905
0.0575,1.734689542381733,1.0,2974.0322115579625,0.4763254781271528,1.3020752633291612,0.9786592889857562,0.2859099607800328,0.7090259415963581
0.058,1.733910559511004,1.0,2978.3203408669056,0.47926283377896545,1.301686137366906,0.978892026754633,0.2858772434994622,0.7097751100785599
0.0585,1.733131576640275,1.0,2982.579014248996,0.4821837386591164,1.3012972943980394,0.9791193719359105,0.28584452621889156,0.7105227690957308
0.059000000000000004,1.732352593769546,1.0,2986.808746192662,0.4850882796013332,1.3009087293461339,0.9793414920449488,0.2858118089383209,0.7112689304952013
0.059500000000000004,1.7315736108988171,1.0,2991.010053361641,0.4879765434393434,1.300520437134762,0.979558548055913,0.2857790916577503,0.7120136060724858
0.06,1.7307946280280881,1.0,2995.183454563913,0.4908486170068742,1.3001324126874965,0.9797706947081986,0.2857463743771797,0.7127568075713722
0.0605,1.7300156451573592,1.0,2999.329470721281,0.49370458713765336,1.2997446509279096,0.9799780807962103,0.28571365709660906,0.7134985466840102
0.061,1.7292366622866302,1.0,3003.4486248397225,0.49654454066540815,1.2993571467795744,0.9801808494435198,0.2856809398160385,0.7142388350509961
0.0615,1.728457679415901,1.0,3007.541441979906,0.4993685644238661,1.2989698951660629,0.980379138362356,0.28564822253546784,0.7149776842614586
0.062,1.727678696545172,1.0,3011.6084492285468,0.5021767452467547,1.298582891010948,0.9805730800993193,0.2856155052548972,0.7157151058531388
0.0625,1.726899713674443,1.0,3015.6501756703783,0.5049691699678014,1.2981961292378024,0.9807628022681482,0.2855827879743266,0.7164511113124741
0.063,1.726120730803714,1.0,3019.6671523601995,0.5077459254207336,1.2978096047701986,0.9809484277703169,0.285550070693756,0.7171857120746752
0.0635,1.7253417479329851,1.0,3023.6599122965067,0.5105070984392789,1.297423312531709,0.981130075004179,0.2855173534131854,0.7179189195238054
0.064,1.7245627650622561,1.0,3027.6289903944817,0.5132527758571646,1.297037247445906,0.981307858063339,0.28548463613261477,0.7186507449928559
0.0645,1.7237837821915272,1.0,3031.574923460413,0.5159830445081182,1.2966514044363628,0.9814818869248764,0.28545191885204413,0.7193811997638185
0.065,1.7230047993207982,1.0,3035.4982501665936,0.5186979912258671,1.2962657784266514,0.9816522676280159,0.2854192015714735,0.7201102950677625
0.0655,1.7222258164500692,1.0,3039.3995110261208,0.521397702844139,1.2958803643403447,0.9818191024437921,0.2853864842909029,0.7208380420849008
0.066,1.7214468335793403,1.0,3043.279248369144,0.5240822661966611,1.2954951571010151,0.9819824900362237,0.28535376701033227,0.7215644519446632
0.0665,1.7206678507086113,1.0,3047.1380063192605,0.5267517681171611,1.2951101516322354,0.9821425256154809,0.2853210497297617,0.7222895357257622
0.067,1.719888867837882,1.0,3050.9763307703133,0.5294062954393662,1.294725342857578,0.9822993010834997,0.28528833244919105,0.7230133044562599
0.0675,1.7191098849671531,1.0,3054.794769364278,0.5320459349970041,1.2943407257006154,0.9824529051724616,0.2852556151686204,0.7237357691136322
0.068,1.7183309020964241,1.0,3058.5938714691692,0.5346707736238021,1.2939562950849202,0.9826034235765404,0.28522289788804983,0.7244569406248321
0.0685,1.7175519192256952,1.0,3062.374006888243,0.5372808885086715,1.2935720474896106,0.9827509385421489,0.2851901806074792,0.7251768269539471
0.069,1.7167729363549662,1.0,3066.134525111428,0.5398763092062926,1.2931879881547803,0.982895526993708,0.2851574633269086,0.7258954196484452
0.0695,1.7159939534842372,1.0,3069.8772563353587,0.5424571994271108,1.292804101047739,0.9830372706019311,0.285124746046338,0.7266127500306936
0.07,1.7152149706135082,1.0,3073.602461345391,0.5450236354515129,1.2924203836198038,0.9831762435507233,0.28509202876576734,0.7273288241187716
0.07050000000000001,1.7144359877427793,1.0,3077.310401841854,0.5475756935598858,1.292036833322293,0.9833125175858799,0.2850593114851967,0.728043647905253
0.07100000000000001,1.7136570048720503,1.0,3081.001340430356,0.5501134500326162,1.2916534476065238,0.9834461621117252,0.2850265942046261,0.7287572273572344
