Time [s],Phi [rad],STIM [ ],Fsee [N],Gamma [ ],Lcerel [ ],q [ ],Lmtc [m],fisomrel [ ]
0.0,1.8,1.0,18.472876508166237,0.0007258814087991091,1.379283482020028,0.005135722419296568,0.288653,0.5412756386057499
0.0005,1.79999375,1.0,19.00088186453039,0.00633101909697474,1.3792227315298344,0.01504684267355496,0.2886527375,0.5414225761831988
0.001,1.799975,1.0,22.87429745931944,0.011904716394389012,1.3788118395665334,0.03943603746274312,0.28865195,0.542415785089984
0.0015,1.79994375,1.0,33.51339952594951,0.017447149657548792,1.3778419111702596,0.07577707366663941,0.2886506375,0.5447560273061407
0.002,1.7999,1.0,58.37017778778177,0.022958494252173917,1.3760641693357525,0.12080601663366888,0.2886488,0.5490297848909773
0.0025,1.79984375,1.0,104.76750226649085,0.02843892456098064,1.373573585343646,0.17117193826292673,0.28864643749999996,0.5549833429001713
0.003,1.7997750000000001,1.0,170.65506443453077,0.03388861399002549,1.3708566876083945,0.22406927147669928,0.28864354999999997,0.5614327718626584
0.0035,1.79969375,1.0,248.50042998569538,0.03930773497017389,1.3682552460745405,0.2773531377109543,0.2886401375,0.5675640106459809
0.004,1.7996,1.0,332.8943368349855,0.04469645896675154,1.365856062926938,0.3294336753730359,0.2886362,0.5731802972563786
0.0045000000000000005,1.7994937500000001,1.0,421.0492865167398,0.0500549564816231,1.3636482187800458,0.3792157275440666,0.2886317375,0.5783162403638391
0.005,1.799375,1.0,511.3913298840422,0.05538339704716051,1.3616053226484892,0.426026500023766,0.28862675,0.5830407864549809
0.0055,1.79924375,1.0,602.852152135158,0.060681949316885114,1.3597043686718977,0.4695214682871004,0.2886212375,0.5874131605814781
0.006,1.7991000000000001,1.0,694.5626561971674,0.06595078085914192,1.3579284344077371,0.5095929476710119,0.2886152,0.5914771551097775
0.006500000000000001,1.79894375,1.0,785.8349344121383,0.07119005843171694,1.3562639784746366,0.5462918912552268,0.2886086375,0.5952677858463764
0.007,1.798775,1.0,876.0851105867432,0.07639994781973079,1.3547004446094133,0.5797690137092665,0.28860155,0.5988124827611114
0.0075,1.79859375,1.0,964.823354637458,0.0815806137010505,1.3532292023617176,0.6102316481672335,0.2885939375,0.6021337072669157
0.008,1.7984,1.0,1051.692663999223,0.08673222042623444,1.3518422249888964,0.6379135896099968,0.2885858,0.6052520686060676
0.0085,1.79819375,1.0,1136.3708153014688,0.09185493057594439,1.3505331034565273,0.6630563318173384,0.2885771375,0.6081841306796414
0.009000000000000001,1.797975,1.0,1218.6212575759466,0.09694890617574381,1.3492958678988203,0.6858961576910726,0.28856795,0.610945142438807
0.0095,1.79774375,1.0,1298.285662781018,0.10201430887608282,1.3481248669358297,0.7066569190378384,0.2885582375,0.6135493527452516
0.01,1.7975,1.0,1375.2318771372295,0.10705129869731268,1.3470152625890375,0.7255465159458165,0.288548,0.6160089525837417
0.0105,1.79724375,1.0,1449.3740165428196,0.11206003476672048,1.3459625661653234,0.7427550482962193,0.2885372375,0.6183351492739293
0.011,1.796975,1.0,1520.6716956695618,0.11704067553034733,1.3449625217706043,0.7584545719145958,0.28852595000000003,0.6205384520843922
0.0115,1.79669375,1.0,1589.1245194547996,0.12199337958159988,1.3440110750717906,0.7727997399569106,0.2885141375,0.622628763481986
0.012,1.7964,1.0,1654.7196140310118,0.1269183027181508,1.3431049037489355,0.7859291443047091,0.28850180000000003,0.6246142379573778
0.0125,1.79609375,1.0,1717.4802382442488,0.13181560051961094,1.342240739103217,0.797966331289492,0.2884889375,0.6265027949556243
0.013000000000000001,1.7957750000000001,1.0,1777.4542709297818,0.13668542795409844,1.3414154503007418,0.8090212617341944,0.28847555,0.6283019460967529
0.0135,1.79544375,1.0,1834.7110318126938,0.1415279402615839,1.3406260317985796,0.8191917063224476,0.2884616375,0.6300188343786768
0.014,1.7951000000000001,1.0,1889.3053375818533,0.14634329031224053,1.3398699543404406,0.8285646953214526,0.2884472,0.6316594838540395
0.0145,1.79474375,1.0,1941.2927089255022,0.15113162961284038,1.3391449401702364,0.8372176396309725,0.2884322375,0.6332293034340777
0.015,1.794375,1.0,1990.7494073581522,0.1558931096701556,1.3384487115318782,0.8452193524472826,0.28841675,0.6347336405051388
0.0155,1.79399375,1.0,2037.7594201989443,0.1606278811596395,1.3377791086886592,0.8526310950246564,0.2884007375,0.6361775310379303
0.016,1.7936,1.0,2082.4183336186466,0.16533609527205634,1.3371340257581268,0.8595074484021167,0.2883842,0.6375658439927254
0.0165,1.7931937500000001,1.0,2124.8024181163773,0.17001790052419785,1.336511711108598,0.8658971910064184,0.2883671375,0.6389026412205469
0.017,1.792775,1.0,2164.984606700486,0.17467344410150112,1.3359105738760966,0.8718439248372623,0.28834955,0.6401916019076259
0.0175,1.7923437500000001,1.0,2203.048625744038,0.17930287318940333,1.3353290231966461,0.8773866405614661,0.2883314375,0.6414363718175484
0.018000000000000002,1.7919,1.0,2239.0828975151953,0.18390633438070092,1.3347655201861426,0.8825602728376163,0.2883128,0.6426404543829762
0.0185,1.79144375,1.0,2273.1766485926623,0.18848397408177758,1.334218606159522,0.8873961806065699,0.2882936375,0.6438071533698543
0.019,1.790975,1.0,2305.4176314035044,0.19303593822757092,1.3336869146146995,0.8919225622623901,0.28827395,0.6449395504302369
0.0195,1.79049375,1.0,2335.8717454638786,0.1975623693767422,1.3331693616155464,0.8961648602501083,0.2882537375,0.6460401035736265
0.02,1.79,1.0,2364.6104772911417,0.20206341008795273,1.3326648632259348,0.9001460066216737,0.288233,0.6471112524708869
0.0205,1.78949375,1.0,2391.7104379762263,0.20653920291986375,1.3321723355097363,0.9038867045603363,0.2882117375,0.6481554193941554
0.021,1.788975,1.0,2417.247924351971,0.21098988947110886,1.3316907428489106,0.9074056852983009,0.28818995000000003,0.6491749078709752
0.021500000000000002,1.78844375,1.0,2441.2992635496457,0.2154156116309202,1.3312190894947102,0.9107199227135311,0.2881676375,0.650171922048135
0.022,1.7879,1.0,2463.937417158238,0.21981651079330705,1.3307564476086953,0.9138448280975834,0.2881448,0.6511485088178457
0.0225,1.78734375,1.0,2485.2193082036943,0.22419272452078726,1.3303020733526636,0.9167944373162846,0.28812143749999997,0.6521063148562871
0.023,1.786775,1.0,2505.2045345594215,0.22854439037587865,1.3298552228884124,0.9195815210724331,0.28809755,0.6530469768279202
0.0235,1.78619375,1.0,2523.9551456300483,0.23287164592109905,1.3294151523777398,0.9222177164474981,0.28807313749999996,0.6539721217600463
0.024,1.7856,1.0,2541.5354313028615,0.23717462871896627,1.3289811179824427,0.9247136431940635,0.2880482,0.654883367382086
0.0245,1.78499375,1.0,2557.9986462889774,0.24145347334040707,1.3285524986480142,0.9270790268643203,0.2880227375,0.6557820651535289
0.025,1.784375,1.0,2573.412728817383,0.24570831945334387,1.3281285517571768,0.9293227494747042,0.28799675,0.6566698135259494
0.025500000000000002,1.78374375,1.0,2587.826509534107,0.24993930116568702,1.3277087288869565,0.931452980746674,0.2879702375,0.6575477965921406
0.026000000000000002,1.7831000000000001,1.0,2601.2824080028095,0.25414655053993424,1.327292553547432,0.9334772281180285,0.2879432,0.6584170420676063
0.0265,1.78244375,1.0,2613.8239684300647,0.25833019963858317,1.3268795492486816,0.9354023894248882,0.2879156375,0.6592785723309272
0.027,1.781775,1.0,2625.495764009653,0.2624903805241317,1.3264692395007838,0.9372348105711594,0.28788755,0.6601334045273594
0.0275,1.7810937500000001,1.0,2636.3433063008874,0.2666272252590775,1.3260611478138171,0.9389803370404699,0.2878589375,0.6609825506579595
0.028,1.7804,1.0,2646.412959640274,0.2707408659059183,1.3256547976978599,0.9406443599745159,0.2878298,0.6618270176542282
0.0285,1.77969375,1.0,2655.7427991572504,0.27483142923861675,1.3252497961638166,0.9422318673484106,0.2878001375,0.6626676342327672
0.029,1.778975,1.0,2664.384724124901,0.2788990520583071,1.3248456289075523,0.9437474570694692,0.28776995,0.6635054763381913
0.029500000000000002,1.7782437500000001,1.0,2672.3684488414406,0.2829438605578548,1.3244419914620473,0.9451954093590411,0.2877392375,0.6643411804086123
0.03,1.7775,1.0,2679.7241146380748,0.28696598091206604,1.3240385796658876,0.9465796897597692,0.287708,0.6651753791075072
0.0305,1.77674375,1.0,2686.482282368053,0.2909655392957469,1.3236350893576594,0.947903976228025,0.2876762375,0.666008701965752
0.031,1.775975,1.0,2692.6738938413987,0.29494266188370366,1.323231216375949,0.9491716836050719,0.28764395,0.66684177538305
0.0315,1.7751937500000001,1.0,2698.33023531023,0.2988974748507424,1.3228266565593423,0.9503859857187807,0.2876111375,0.6676752226234581
0.032,1.7744,1.0,2703.4829030057817,0.30283010437166935,1.3224211057464257,0.9515498353709334,0.2875778,0.6685096638050134
0.0325,1.77359375,1.0,2708.1487955428247,0.3067406691088359,1.3220143964298878,0.9526659965200476,0.2875439375,0.6693454352420123
0.033,1.772775,1.0,2712.3693353739886,0.31062930166377656,1.3216061393155187,0.9537370235923852,0.28750955,0.6701833263857371
0.0335,1.7719437500000002,1.0,2716.1753633195117,0.31449612805637434,1.3211960438238248,0.9547653095037277,0.2874746375,0.6710239203824095
0.034,1.7711000000000001,1.0,2719.585299462154,0.3183412675893368,1.320783934218837,0.955753100045941,0.2874392,0.6718675623312655
0.0345,1.7702437500000001,1.0,2722.61770288906,0.3221648395653714,1.3203696347645855,0.956702494332546,0.2874032375,0.6727145954107339
0.035,1.7693750000000001,1.0,2725.291257885795,0.3259669632871858,1.3199529697251007,0.9576154560911652,0.28736675,0.6735653608548751
0.035500000000000004,1.76849375,1.0,2727.6247608161607,0.3297477580574875,1.319533763364413,0.9584938239616158,0.2873297375,0.6744201979278548
0.036000000000000004,1.7676,1.0,2729.6371076857486,0.3335073431789842,1.3191118399465533,0.9593393208975323,0.2872922,0.6752794438964456
0.0365,1.76669375,1.0,2731.3472823912375,0.33724583795438323,1.3186870237355517,0.9601535627588096,0.2872541375,0.676143434000561
0.037,1.765775,1.0,2732.7743456534668,0.3409633616863924,1.3182591389954388,0.960938066172819,0.28721555,0.6770125014218176
0.0375,1.76484375,1.0,2733.937424635889,0.3446600336777192,1.317828009990245,0.9616942557340834,0.2871764375,0.6778869772501297
0.038,1.7639,1.0,2734.8458833740165,0.3483359659791118,1.3173935501555785,0.962423477653814,0.28713679999999997,0.6787670099478262
0.0385,1.76294375,1.0,2735.522155030844,0.3519912819544026,1.3169555546535028,0.96312698946719,0.28709663750000003,0.6796529858874056
0.039,1.761975,1.0,2735.9846719882516,0.35562610017298657,1.316513855356774,0.9638059774783585,0.28705595,0.6805452148188496
0.0395,1.7609937500000001,1.0,2736.243890450124,0.35924053277063633,1.3160683568472775,0.9644615646680292,0.2870147375,0.6814438577801724
0.04,1.76,1.0,2736.3102920777737,0.3628346918831245,1.3156189637068991,0.9650948096989307,0.286973,0.68234907445339
0.0405,1.7589937500000001,1.0,2736.194380186144,0.36640868964622375,1.3151655805175242,0.96570671127702,0.2869307375,0.6832610231411096
0.041,1.757975,1.0,2735.9066761409563,0.36996263819570674,1.3147081118610384,0.9662982121727958,0.28688795,0.6841798607425387
0.0415,1.75694375,1.0,2735.4577159584737,0.37349664966734597,1.3142464623193273,0.9668702029324899,0.2868446375,0.6851057427289147
0.042,1.7559,1.0,2734.858047106538,0.37701083619691417,1.3137805364742765,0.967423525306009,0.28680079999999997,0.6860388231183522
0.0425,1.75484375,1.0,2734.1182255080603,0.380505309920184,1.3133102389077718,0.9679589754159456,0.2867564375,0.6869792544501117
0.043000000000000003,1.753775,1.0,2733.248812745588,0.383980182972928,1.3128354742016985,0.9684773066896494,0.28671155,0.6879271877582858
0.043500000000000004,1.75269375,1.0,2732.2539681953435,0.3874355608177301,1.312356205130074,0.9689792361954718,0.28666613750000003,0.6888826566222551
0.044,1.7516,1.0,2731.1467110995623,0.39087155912510013,1.31187231401158,0.9694654385625944,0.2866202,0.6898458538044083
0.0445,1.75049375,1.0,2729.9382470619025,0.3942882895750201,1.3113836996218464,0.9699365540386232,0.2865737375,0.6908169375312874
0.045,1.7493750000000001,1.0,2728.6342224866357,0.3976858575668709,1.3108903112412444,0.9703931929031281,0.28652675,0.691795964210211
0.0455,1.74824375,1.0,2727.240283695507,0.40106436850003324,1.310392098150146,0.9708359343808206,0.2864792375,0.6927829891771369
0.046,1.7471,1.0,2725.762075977281,0.40442392777388786,1.309889009628922,0.9712653285178227,0.2864312,0.6937780666811413
0.0465,1.7459437500000001,1.0,2724.2052426931486,0.40776464078781566,1.3093809949579442,0.9716818979271971,0.28638263750000004,0.694781249868726
0.047,1.744775,1.0,2722.5754244396553,0.41108661294119736,1.3088680034175841,0.9720861394140137,0.28633355,0.6957925907679696
0.0475,1.74359375,1.0,2720.878258269066,0.4143899496334138,1.3083499842882134,0.9724785254893206,0.28628393750000003,0.6968121402725083
0.048,1.7424,1.0,2719.119376965775,0.41767475626384565,1.307826886850203,0.9728595057815914,0.2862338,0.6978399481253582
0.0485,1.74119375,1.0,2717.3044083811305,0.42094113823187385,1.3072986603839247,0.9732295083534807,0.2861831375,0.6988760629025679
0.049,1.739975,1.0,2715.43529413812,0.4241891888183307,1.3067652877123102,0.9735889417703872,0.28613195,0.6999204663736721
0.0495,1.73874375,1.0,2713.5196671469157,0.4274190219161881,1.3062266997663086,0.9739381943336635,0.2860802375,0.7009732409127396
0.05,1.7375,1.0,2711.563853913069,0.4306307476655097,1.3056828393057722,0.9742776365661134,0.286028,0.7020344443684995
0.0505,1.73624375,1.0,2709.570587231145,0.43382446418544085,1.3051336818026924,0.9746076226552992,0.2859752375,0.703104069609481
0.051000000000000004,1.734975,1.0,2707.542596786261,0.4370002695951267,1.3045792027290606,0.9749284906007218,0.28592195,0.704182108625414
0.051500000000000004,1.73369375,1.0,2705.4826089710123,0.4401582620137126,1.3040193775568683,0.9752405630938938,0.2858681375,0.7052685525189235
0.052000000000000005,1.7324,1.0,2703.3933467165584,0.44329853956034365,1.3034541817581062,0.9755441483430933,0.2858138,0.7063633914971883
0.0525,1.73109375,1.0,2701.2775293363643,0.44642120035416516,1.3028835908047662,0.9758395408467242,0.28575893750000003,0.7074666148635553
0.053,1.729775,1.0,2699.137872383536,0.44952634251432233,1.3023075801688395,0.9761270221189079,0.28570355000000003,0.7085782110091221
0.0535,1.72844375,1.0,2696.9770875218906,0.45261406415996047,1.3017261253223174,0.9764068613706381,0.2856476375,0.7096981674042769
0.054,1.7271,1.0,2694.797882409711,0.4556844634102247,1.301139201737191,0.9766793161495787,0.2855912,0.7108264705902021
0.0545,1.7257437500000001,1.0,2692.602960597134,0.4587376383842604,1.300546784885452,0.9769446329413422,0.2855342375,0.7119631061703376
0.055,1.724375,1.0,2690.395021436944,0.46177368720121265,1.2999488502390917,0.9772030477348732,0.28547675,0.7131080588018079
0.0555,1.72299375,1.0,2688.1767600087655,0.4647927079802268,1.299345373270101,0.9774547865543635,0.2854187375,0.7142613121868109
0.056,1.7216,1.0,2685.9420246601076,0.4677947730372148,1.2987364104735362,0.9777000683053352,0.2853602,0.7154226946983001
0.0565,1.72019375,1.0,2683.6999368351608,0.4707800032590324,1.2981218784332558,0.977939099199688,0.28530113749999997,0.7165923010185813
0.057,1.718775,1.0,2681.455986823058,0.4737485031923981,1.2975017268946496,0.9781720773340079,0.28524155,0.717770161016267
0.0575,1.71734375,1.0,2679.2109498425034,0.47670036256510745,1.2968759487776684,0.9783991938398041,0.2851814375,0.7189562214201505
0.058,1.7159,1.0,2676.9655998220323,0.4796356711049559,1.2962445370022635,0.9786206321243845,0.2851208,0.7201504282407989
0.0585,1.71444375,1.0,2674.7207093980765,0.4825545185397391,1.2956074844883858,0.9788365682424843,0.2850596375,0.7213527267680127
0.059000000000000004,1.7129750000000001,1.0,2672.4770499131255,0.4854569945972525,1.2949647841559866,0.9790471712471683,0.28499795,0.7225630615682789
0.059500000000000004,1.71149375,1.0,2670.235391416078,0.48834318900529167,1.294316428925017,0.9792526035213177,0.2849357375,0.7237813764822238
0.06,1.71,1.0,2667.99650266289,0.4912131914916521,1.293662411715428,0.9794530210909139,0.284873,0.7250076146220613
0.0605,1.7084937500000001,1.0,2665.7611511189816,0.49406709178412944,1.2930027254471708,0.9796485739212553,0.2848097375,0.7262417183690366
0.061,1.7069750000000001,1.0,2663.5301029620114,0.4969049796105191,1.2923373630401964,0.9798394061971587,0.28474595,0.7274836293708686
0.0615,1.7054437500000001,1.0,2661.3041230864765,0.49972694469861667,1.2916663174144558,0.9800256565881301,0.2846816375,0.7287332885391897
0.062,1.7039,1.0,2659.0839751091958,0.5025330767762177,1.2909895814899002,0.980207458499413,0.2846168,0.7299906360469794
0.0625,1.70234375,1.0,2656.8704213755786,0.5053234655711176,1.2903071481864807,0.9803849403097715,0.2845514375,0.7312556113259971
0.063,1.7007750000000001,1.0,2654.664222967333,0.5080982008111121,1.2896190104241485,0.9805582255968013,0.28448555,0.7325281530642123
0.0635,1.69919375,1.0,2652.4661397115406,0.5108573722239967,1.2889251611228545,0.9807274333505105,0.28441913750000003,0.7338081992032289
0.064,1.6976,1.0,2650.2769301899375,0.5136010695375668,1.28822559320255,0.9808926781758621,0.2843522,0.7350956869357086
0.0645,1.69599375,1.0,2648.09822309419,0.516329381034473,1.2875202915421893,0.9810540699772529,0.2842847375,0.7363905674473676
0.065,1.694375,1.0,2645.928349776843,0.519042390509257,1.286809271437475,0.9812117158656308,0.28421675,0.7376927353874514
0.0655,1.69274375,1.0,2643.7661649091124,0.5217401831738661,1.2860925433763004,0.9813657189632381,0.2841482375,0.7390020938280601
0.066,1.6911,1.0,2641.6129945199627,0.5244228433758907,1.2853700950296467,0.9815161775293448,0.2840792,0.7403185869348545
0.0665,1.6894437500000001,1.0,2639.4701624975205,0.5270904554629219,1.284641914068495,0.9816631863331384,0.2840096375,0.7416421580211208
0.067,1.687775,1.0,2637.3389906106095,0.52974310378255,1.2839079881638273,0.9818068368005947,0.28393955,0.7429727495432656
0.0675,1.68609375,1.0,2635.2207985352197,0.5323808726823657,1.2831683049866245,0.9819472171541497,0.2838689375,0.7443103030963074
0.068,1.6844000000000001,1.0,2633.0819220119233,0.5350038430647203,1.2824231759481817,0.9820844277697692,0.2837978,0.7456541762989235
0.0685,1.68269375,1.0,2630.9785761260046,0.5376121028046903,1.2816720808355129,0.9822185267018693,0.2837261375,0.7470052260133684
0.069,1.680975,1.0,2628.9202307494647,0.5402057347689907,1.2809149315549109,0.9823495898566983,0.28365395,0.7483635243287619
0.0695,1.67924375,1.0,2626.8905126055233,0.5427848194080107,1.2801518793314268,0.9824777015605625,0.28358123749999997,0.7497287133516253
0.07,1.6775,1.0,2624.8730743003816,0.5453494371721396,1.2793830753901119,0.9826029433399492,0.283508,0.7511004374539639
0.07050000000000001,1.67574375,1.0,2622.851593712138,0.5478996685117665,1.2786086709560176,0.9827253940369942,0.2834342375,0.7524783433294692
0.07100000000000001,1.673975341066675,1.0,2620.826378803289,0.5504355938772808,1.277828817254195,0.9828451299195127,0.2833599643248004,0.7538620800482626
0.07150000000000001,1.6722032611123718,1.0,2619.1942303961114,0.5529572937190714,1.2770436655096953,0.9829622247858909,0.2832855369667196,0.7552512991101789
0.07200000000000001,1.6704311811580688,1.0,2618.1171176749517,0.5554648484875278,1.2762533669475697,0.9830767500651049,0.2832111096086389,0.7566456544965925
0.0725,1.6686591012037657,1.0,2617.581968467339,0.5579583377997659,1.2754580397262132,0.9831887733738464,0.28313668225055816,0.7580448608105611
0.073,1.6668870212494626,1.0,2617.5421302530735,0.5604378389899003,1.2746581153293264,0.9832983740767656,0.28306225489247744,0.7594480857262196
0.0735,1.6651149412951598,1.0,2617.9157099707863,0.5629034354943383,1.273854353721385,0.9834056441304361,0.2829878275343967,0.7608539315938858
0.074,1.6633428613408567,1.0,2618.6764195818973,0.5653552035622402,1.2730469996751903,0.9835106496510007,0.282913400176316,0.7622619131644663
0.0745,1.6615707813865537,1.0,2619.7980455953057,0.5677932194427664,1.2722362979635446,0.9836134547664993,0.2828389728182352,0.7636715499716331
