Time [s],Phi [rad],STIM [ ],Fsee [N],Gamma [ ],Lcerel [ ],q [ ],Lmtc [m],fisomrel [ ]
0.0,1.8,1.0,17.993346601059898,0.00016683298670789172,1.3793368133076973,0.0050072550142513435,0.288653,0.5411466264973253
0.0005,1.79999375,1.0,18.354211639739248,0.005775106494418109,1.3792937917579948,0.013381647827449404,0.2886527375,0.5412507000441418
0.001,1.799975,1.0,21.81238582367536,0.011351922021926563,1.3789185316895252,0.03643051011788277,0.28865195,0.5421579921628008
0.0015,1.79994375,1.0,31.51385438116147,0.016897456024588364,1.378008458329819,0.07172377220460155,0.2886506375,0.5443546091553362
0.002,1.7999,1.0,54.52607511716033,0.022411883965937386,1.3763071773282838,0.11604477877070964,0.2886488,0.5484467738878176
0.0025,1.79984375,1.0,98.69282176482048,0.027895380326202333,1.3738596303432475,0.16601706138523806,0.28864643749999996,0.5543015841824308
0.003,1.7997750000000001,1.0,162.99809791567228,0.03334811860864904,1.371138227602461,0.21876750233252715,0.28864354999999997,0.5607666326916576
0.0035,1.79969375,1.0,239.98380910512526,0.03877027134032292,1.3685140440749755,0.27209139827943,0.2886401375,0.5669559927280199
0.004,1.7996,1.0,323.9116650136221,0.04416201008246734,1.3660914591592186,0.3243470331411675,0.2886362,0.5726308786054661
0.0045000000000000005,1.7994937500000001,1.0,411.79775326843924,0.04952350543582297,1.363863516864393,0.3743928654439027,0.2886317375,0.5778167764511337
0.005,1.799375,1.0,501.993721782096,0.05485492703246578,1.3618035835733855,0.4215181325778642,0.28862675,0.582583440412807
0.0055,1.79924375,1.0,593.392269483023,0.06015644357517924,1.359888056998258,0.4653500324622558,0.2886212375,0.5869916659120489
0.006,1.7991000000000001,1.0,685.1210162868966,0.06542822280060535,1.3580991458332707,0.5057609463545105,0.2886152,0.5910873780404398
0.006500000000000001,1.79894375,1.0,776.4674548794598,0.07067043150591996,1.3564231423599231,0.5427891070890384,0.2886086375,0.5949060701220599
0.007,1.798775,1.0,866.8403438357693,0.07588323558565149,1.354849161554326,0.5765774506669816,0.28860155,0.5984759966332646
0.0075,1.79859375,1.0,955.7504752424753,0.08106679987040862,1.3533682402688334,0.607329103934179,0.2885939375,0.601820429749069
0.008,1.7984,1.0,1042.8190915786713,0.08622128864025004,1.3519724398185888,0.6352763330598317,0.2885858,0.6049598265566003
0.0085,1.79819375,1.0,1127.7199869910735,0.09134686466633768,1.3506552029721464,0.6606605166232553,0.2885771375,0.6079111244533254
0.009000000000000001,1.797975,1.0,1210.2158990940627,0.09644369017757458,1.3494104086606755,0.6837187788631187,0.28856795,0.6106899436211088
0.0095,1.79774375,1.0,1290.142068886698,0.1015119268003465,1.348232365088059,0.704676416308451,0.2885582375,0.6133106502078343
0.01,1.7975,1.0,1367.355838121159,0.1065517344471739,1.3471162646926909,0.7237430719003454,0.288548,0.6157853915363323
0.0105,1.79724375,1.0,1441.770644066862,0.11156327248921726,1.3460575334687432,0.7411106099708578,0.2885372375,0.6181255852344696
0.011,1.796975,1.0,1513.3556829358033,0.11654670024255222,1.3450517222927374,0.7569527790062712,0.28852595000000003,0.6203421841288764
0.0115,1.79669375,1.0,1582.08201003698,0.12150217495612631,1.3440950631833746,0.7714260604093751,0.2885141375,0.6224444754235634
0.012,1.7964,1.0,1647.9459994992992,0.12642985302257614,1.3431840610139518,0.7846705321062232,0.28850180000000003,0.6244410085011869
0.0125,1.79609375,1.0,1710.9760930602486,0.13132989037471784,1.342315339903619,0.796811126175473,0.2884889375,0.6263399491921869
0.013000000000000001,1.7957750000000001,1.0,1771.2297250093386,0.13620244300883438,1.3414856243527145,0.807959040834698,0.28847555,0.6281491338024132
0.0135,1.79544375,1.0,1828.751781926761,0.14104766475110148,1.3406921541398287,0.8182133018846854,0.2884616375,0.6298751789144236
0.014,1.7951000000000001,1.0,1883.5898888661127,0.14586570820537395,1.3399324450506112,0.8276619794922749,0.2884472,0.6315240204142643
0.0145,1.79474375,1.0,1935.8157647222529,0.1506567259755066,1.3392040128707121,0.8363833176463775,0.2884322375,0.633101523126294
0.015,1.794375,1.0,1985.504164637364,0.15542086956806758,1.3385045754025955,0.8444469356346027,0.28841675,0.6346130498453717
0.0155,1.79399375,1.0,2032.7586939842818,0.16015829118008637,1.33783174805951,0.8519147357943725,0.2884007375,0.6360641262852541
0.016,1.7936,1.0,2077.644631923998,0.16486913960950308,1.3371837316387107,0.8588420294526763,0.2883842,0.637458964024853
0.0165,1.7931937500000001,1.0,2120.2361128227762,0.16955356335405858,1.3365587791974458,0.8652781476637922,0.2883671375,0.63880162036073
0.017,1.792775,1.0,2160.619822330343,0.17421171091149368,1.3359551437929629,0.8712671341856164,0.28834955,0.6400961140275818
0.0175,1.7923437500000001,1.0,2198.876552581952,0.17884372944785307,1.3353712543567842,0.8768484185339573,0.2883314375,0.6413460515024145
0.018000000000000002,1.7919,1.0,2235.11243241582,0.18344976736048346,1.3348053846870727,0.882057268344304,0.2883128,0.64255533923642
0.0185,1.79144375,1.0,2269.3983535297198,0.18802996923907217,1.334256254620798,0.8869254302854687,0.2882936375,0.6437269012974368
0.019,1.790975,1.0,2301.8071124856388,0.19258447923486505,1.3337226379775742,0.8914814353848978,0.28827395,0.6448635232821716
0.0195,1.79049375,1.0,2332.4181027388718,0.19711344149910787,1.3332033085770154,0.89575095436246,0.2882537375,0.6459679692389357
0.02,1.79,1.0,2361.310735368735,0.20161699931871052,1.3326970990768234,0.8997571354821896,0.288233,0.6470428579906452
0.0205,1.78949375,1.0,2388.569159584746,0.20609529647183522,1.3322028483177613,0.9035208761910696,0.2882117375,0.6480907766886688
0.021,1.788975,1.0,2414.268182473682,0.2105484750739173,1.331719532693825,0.9070611000593379,0.28818995000000003,0.6491140039202501
0.021500000000000002,1.78844375,1.0,2438.4692415303384,0.21497667467323953,1.3312462972428638,0.9103949777627238,0.2881676375,0.6501144469479985
0.022,1.7879,1.0,2461.2372493768344,0.21938003481808463,1.3307822870027277,0.9135380821969558,0.2881448,0.6510940006544805
0.0225,1.78734375,1.0,2482.6403037796167,0.22375869505673546,1.3303266470112665,0.9165045592513769,0.28812143749999997,0.6520545480685401
0.023,1.786775,1.0,2502.7425809923366,0.2281127934862336,1.3298785871672054,0.919307290048815,0.28809755,0.6529978243895678
0.0235,1.78619375,1.0,2521.6133231845306,0.23244246968275448,1.3294372935851295,0.9219580072000486,0.28807313749999996,0.653925604576866
0.024,1.7856,1.0,2539.3160285709037,0.23674786183060892,1.3290020287634283,0.9244674295530125,0.2880482,0.6548394932064678
0.0245,1.78499375,1.0,2555.899360910484,0.24102910436559968,1.3285722136958389,0.926845377761575,0.2880227375,0.6557407537851275
0.025,1.784375,1.0,2571.413633149924,0.2452863317235295,1.3281472693760983,0.9291008377235366,0.28799675,0.6566306428603648
0.025500000000000002,1.78374375,1.0,2585.910668709828,0.24951967834020114,1.3277266167979433,0.9312420429319568,0.2879702375,0.6575104102110141
0.026000000000000002,1.7831000000000001,1.0,2599.443670203731,0.2537292786514173,1.3273096769551112,0.933276547698521,0.2879432,0.6583812990163929
0.0265,1.78244375,1.0,2612.0605477882796,0.2579152654009241,1.3268959316815907,0.9352113012744059,0.2879156375,0.6592444191646198
0.027,1.781775,1.0,2623.809288072573,0.2620777722895946,1.326484872115513,0.9370526980685302,0.28788755,0.660100855483792
0.0275,1.7810937500000001,1.0,2634.7441018225613,0.26621693385139245,1.3260759408142233,0.9388066205770217,0.2878589375,0.6609517883358391
0.028,1.7804,1.0,2644.90020802495,0.27033287888485785,1.3256687642199505,0.9404785183895593,0.2878298,0.661798010240594
0.0285,1.77969375,1.0,2654.313513439819,0.2744257361885313,1.3252629687749227,0.9420734227212044,0.2878001375,0.662640309769527
0.029,1.778975,1.0,2663.020552859495,0.278495634560953,1.324858180921368,0.9435959839765613,0.28776995,0.6634794715830987
0.029500000000000002,1.7782437500000001,1.0,2671.0584324610363,0.28254270280066335,1.3244540271015144,0.9450505054903355,0.2877392375,0.6643162764592148
0.03,1.7775,1.0,2678.4647762528407,0.2865670697062027,1.3240501337575905,0.9464409738751337,0.287708,0.6651515013127798
0.0305,1.77674375,1.0,2685.272777850514,0.2905688623368623,1.3236461722157566,0.947771091629376,0.2876762375,0.6659858265627832
0.031,1.775975,1.0,2691.5148898707557,0.2945482085243607,1.3232418242208868,0.9490442976469322,0.28764395,0.6668199077626064
0.0315,1.7751937500000001,1.0,2697.228031434114,0.29850523658972106,1.3228367339041502,0.9502637832401882,0.2876111375,0.6676544746240463
0.032,1.7744,1.0,2702.436811756757,0.30244006967799514,1.3224306608885503,0.9514325297793105,0.2875778,0.6684900156854996
0.0325,1.77359375,1.0,2707.166091231284,0.30635283093423454,1.3220233647970898,0.9525533133986286,0.2875439375,0.6693270169794656
0.033,1.772775,1.0,2711.440957218063,0.3102436435034908,1.321614605252772,0.9536287216149827,0.28750955,0.6701659620156367
0.0335,1.7719437500000002,1.0,2715.2867011185717,0.31411263053081573,1.3212041418785998,0.954661168410599,0.2874746375,0.6710073317603071
0.034,1.7711000000000001,1.0,2718.728796729051,0.3179599151612608,1.3207917342975768,0.9556529079386987,0.2874392,0.6718516046120947
0.0345,1.7702437500000001,1.0,2721.7879102376974,0.32178561701138453,1.3203771873687729,0.9566060510533835,0.2874032375,0.6726991639466653
0.035,1.7693750000000001,1.0,2724.487087495635,0.325589859205625,1.3199602855118204,0.9575225709967246,0.28736675,0.6735504327015127
0.035500000000000004,1.76849375,1.0,2726.85401202203,0.329372767930411,1.3195407720826822,0.9584043115715664,0.2873297375,0.6744059151046027
0.036000000000000004,1.7676,1.0,2728.904351777819,0.3331344600886772,1.3191185007006248,0.959253009692248,0.2872922,0.675265888107734
0.0365,1.76669375,1.0,2730.6538562932064,0.33687505258335837,1.318693324984914,0.9600702941738919,0.2872541375,0.6761306269453444
0.037,1.765775,1.0,2732.1183475348253,0.34059466231738933,1.318265098554816,0.960857693676798,0.28721555,0.6770004051080778
0.0375,1.76484375,1.0,2733.3137112480317,0.34429340619370485,1.3178336750295976,0.9616166439817145,0.2871764375,0.6778754943149878
0.038,1.7639,1.0,2734.25588877395,0.3479714011152397,1.3173989080285244,0.9623484946591245,0.28713679999999997,0.6787561644843759
0.0385,1.76294375,1.0,2734.960869342452,0.35162876398492854,1.316960651170863,0.9630545151891196,0.28709663750000003,0.6796426837032608
0.039,1.761975,1.0,2735.4446828387236,0.35526561170570625,1.316518758075879,0.9637359005826105,0.28705595,0.6805353181954821
0.0395,1.7609937500000001,1.0,2735.72146238852,0.35888205763641334,1.3160730998918229,0.9643937774710625,0.2870147375,0.681434296953998
0.04,1.76,1.0,2735.8032821082356,0.3624782147909827,1.315623566710601,0.9650292095385192,0.286973,0.682339809109945
0.0405,1.7589937500000001,1.0,2735.706752775808,0.36605420766698854,1.3151700076382522,0.9656431986278722,0.2869307375,0.6832521246342604
0.041,1.757975,1.0,2735.4408927135164,0.3696101462228566,1.3147123408763388,0.9662366937761191,0.28688795,0.6841713727682881
0.0415,1.75694375,1.0,2735.0147347878537,0.3731461404170127,1.314250484626423,0.966810591400861,0.2868446375,0.6850976814797779
0.042,1.7559,1.0,2734.4373236951888,0.3766623002078826,1.3137843570900671,0.9673657387572968,0.28680079999999997,0.6860311774412412
0.0425,1.75484375,1.0,2733.7177133965274,0.3801587355538921,1.3133138764688337,0.9679029371339071,0.2867564375,0.686971986007884
0.043000000000000003,1.753775,1.0,2732.8649646990198,0.3836355564134669,1.312838960964285,0.96842294480905,0.28671155,0.6879202311951103
0.043500000000000004,1.75269375,1.0,2731.8881429880125,0.3870928727450329,1.3123595287779832,0.9689264797885883,0.28666613750000003,0.6888760356556004
0.044,1.7516,1.0,2730.7963161051543,0.3905307945070157,1.311875498111491,0.9694142223428023,0.2866202,0.6898395206559609
0.0445,1.75049375,1.0,2729.5985523768823,0.39394943165784124,1.3113867871663707,0.9698868173591569,0.2865737375,0.6908108060529508
0.045,1.7493750000000001,1.0,2728.3039187898203,0.3973488941559352,1.3108933141441843,0.9703448765259755,0.28652675,0.6917900102692779
0.0455,1.74824375,1.0,2726.9203091142244,0.40072929009134156,1.310395007888207,0.970788980901055,0.2864792375,0.6927772292030612
0.046,1.7471,1.0,2725.450649597443,0.4040907251745382,1.3098918423982304,0.9712196852702528,0.2864312,0.6937724681601732
0.0465,1.7459437500000001,1.0,2723.9020953415757,0.40743330514338666,1.3093837532060384,0.9716375138899935,0.28638263750000004,0.6947758075642383
0.047,1.744775,1.0,2722.282124529069,0.41075713564095045,1.3088706728630042,0.97204296487754,0.28633355,0.6957873324143975
0.0475,1.74359375,1.0,2720.5658581565585,0.4140623200308709,1.308352828464237,0.9724365327331982,0.28628393750000003,0.6968065471240589
0.048,1.7424,1.0,2718.8147770941587,0.41734896663820165,1.3078296609055373,0.972818633081649,0.2862338,0.6978345021262178
0.0485,1.74119375,1.0,2717.0302787343835,0.4206171796890028,1.3073011577671567,0.973189699279304,0.2861831375,0.6988711684788427
0.049,1.7399802938483757,1.0,2715.439795326378,0.42386706101312266,1.3067676374626398,0.9735501665183396,0.2861321723416318,0.6999158692780306
0.0495,1.7387667980306323,1.0,2714.363288576896,0.4270987124404094,1.3062294184055325,0.9739004494239434,0.28608120551728655,0.7009679314509225
0.05,1.7375533022128888,1.0,2713.7674886708364,0.4303122358007115,1.3056868190093798,0.9742409432215637,0.2860302386929413,0.7020266858543581
0.0505,1.7363398063951454,1.0,2713.617308879977,0.43350773292387695,1.3051401576877268,0.9745720248279947,0.2859792718685961,0.7030914673670574
0.051000000000000004,1.735126310577402,1.0,2713.877782045959,0.43668530563975416,1.304589752854119,0.9748940538718794,0.2859283050442509,0.7041616149753402
0.051500000000000004,1.7339128147596585,1.0,2714.5144805536384,0.43984505548331243,1.3040359188430535,0.9752073733527273,0.2858773382199057,0.7052364797616716
0.052000000000000005,1.732699318941915,1.0,2715.5042193033755,0.4429870791880063,1.3034788681465974,0.9755123038215147,0.28582637139556044,0.7063156141213653
0.0525,1.7314858231241717,1.0,2716.80931088829,0.4461114793503804,1.302918945885342,0.975809160576284,0.2857754045712152,0.7073983170399019
0.053,1.7302723273064284,1.0,2718.3975693388884,0.44921835730081155,1.3023564472823224,0.9760982417553323,0.28572443774687,0.7084839884783554
0.0535,1.7290588314886848,1.0,2720.2507073734264,0.4523078093770702,1.3017915411015373,0.976379824158099,0.28567347092252476,0.7095722758914513
0.054,1.7278453356709416,1.0,2722.3504528717567,0.45537993191692666,1.3012243961069863,0.9766541726306327,0.2856225040981796,0.7106628290496857
0.0545,1.7266318398531981,1.0,2724.678540182409,0.4584348212581515,1.3006551810626679,0.9769215406872712,0.28557153727383433,0.7117553000643317
0.055,1.7254183440354547,1.0,2727.2167020612064,0.4614725737385151,1.3000840647325815,0.9771821710950221,0.2855205704494891,0.7128493434106244
0.0555,1.7242048482177113,1.0,2729.9466622413534,0.46449328569578785,1.2995112158807265,0.9774362964231696,0.28546960362514384,0.7139446159491354
0.056,1.7229913523999678,1.0,2732.8501286353953,0.46749705346774023,1.2989368032711013,0.9776841395604462,0.28541863680079865,0.7150407769453282
0.0565,1.7217778565822244,1.0,2735.9105047285284,0.47048397220159005,1.2983609800740237,0.9779259131895036,0.2853676699764534,0.7161375177591456
0.057,1.720564360764481,1.0,2739.1158395874145,0.47345413539534004,1.2977838570940874,0.9781618187231461,0.2853167031521082,0.7172346124176281
0.0575,1.7193508649467375,1.0,2742.4476524266097,0.47640764196416996,1.2972056041981515,0.978392053251871,0.285265736327763,0.7183317245957007
0.058,1.718137369128994,1.0,2745.897407813515,0.4793445833476649,1.2966263007964554,0.9786168002095872,0.28521476950341773,0.7194286915682742
0.0585,1.7169238733112506,1.0,2749.456556015538,0.48226505098541,1.296046026299238,0.9788362357350581,0.28516380267907254,0.7205253517615782
0.059000000000000004,1.7157103774935072,1.0,2753.116531220067,0.48516913631699055,1.2954648601167382,0.979050529021826,0.2851128358547273,0.7216215447582791
0.059500000000000004,1.7144968816757638,1.0,2756.868749895121,0.4880569307819916,1.2948828816591957,0.9792598426487218,0.2850618690303821,0.7227171113021963
0.06,1.7132833858580203,1.0,2760.7046092888154,0.49092852581999824,1.2943001703368493,0.979464332892181,0.28501090220603686,0.7238118933026196
0.0605,1.7120698900402769,1.0,2764.615486069742,0.49378401287059576,1.2937168055599382,0.9796641500214975,0.2849599353816916,0.724905733838219
0.061,1.7108563942225334,1.0,2768.59273510596,0.49662348337336926,1.2931328667387014,0.9798594385780722,0.2849089685573464,0.7259984771605571
0.0615,1.70964289840479,1.0,2772.635795597475,0.49944701659621105,1.2925483601673076,0.9800503328384779,0.2848580017330012,0.7270901051129441
0.062,1.7084294025870466,1.0,2776.728702643339,0.5022547192133754,1.2919634309624346,0.9802369714120819,0.28480703490865594,0.7281803411372567
0.0625,1.7072159067693031,1.0,2780.8671218491627,0.5050466786091508,1.2913781190906,0.9804194808338967,0.28475606808431075,0.7292691062347709
0.063,1.7060024109515597,1.0,2785.047705057392,0.5078229805365916,1.2907924555341437,0.9805979823915888,0.2847051012599655,0.7303563386620634
0.0635,1.7047889151338163,1.0,2789.267094643342,0.5105837107487522,1.2902064712754058,0.980772592938563,0.28465413443562027,0.7314419771360876
0.064,1.7035754193160728,1.0,2793.5219232838886,0.513328954998687,1.2896201972967258,0.9809434250897072,0.284603167611275,0.7325259608348393
0.0645,1.7023619234983296,1.0,2797.808813748083,0.5160587990394505,1.289033664580444,0.9811105874071206,0.28455220078692983,0.7336082293979571
0.065,1.701148427680586,1.0,2802.1243787084386,0.5187733286240969,1.2884469041089004,0.9812741845764036,0.2845012339625846,0.7346887229272667
0.0655,1.6999349318628427,1.0,2806.465220574307,0.5214726295056806,1.2878599468644345,0.9814343175740596,0.2844502671382394,0.7357673819872608
0.066,1.6987214360450993,1.0,2810.827931345437,0.5241567874372561,1.2872728238293867,0.981591083826512,0.28439930031389415,0.7368441476055172
0.0665,1.6975079402273558,1.0,2815.2090924882123,0.5268258881718777,1.2866855659860963,0.981744577361214,0.2843483334895489,0.7379189612730601
0.067,1.6962944444096124,1.0,2819.6052748317725,0.5294800174625999,1.2860982043169038,0.9818948889503035,0.2842973666652037,0.7389917649446529
0.0675,1.695080948591869,1.0,2824.013327971822,0.5321192596405174,1.285510767217241,0.9820421060298462,0.2842463998408585,0.7400625057494338
0.068,1.6938674527741255,1.0,2828.4352715183977,0.5347436776500077,1.284923236830076,0.9821863094703556,0.2841954330165133,0.7411312152878584
0.0685,1.692653956956382,1.0,2832.8628873452717,0.537353388087203,1.284335686698247,0.9823275851716109,0.28414446619216804,0.7421977591512638
0.069,1.6914404611386387,1.0,2837.2952370691646,0.5399484698140525,1.2837481252339784,0.9824660106848866,0.2840934993678228,0.7432621218947784
0.0695,1.6902269653208952,1.0,2841.731379358826,0.5425290016925058,1.2831605608494951,0.9826016609787804,0.2840425325434776,0.7443242881996153
0.07,1.6890134695031518,1.0,2846.1703699339055,0.5450950625845123,1.2825730019570218,0.9827346085432238,0.28399156571913237,0.745384242873077
0.07050000000000001,1.6877999736854084,1.0,2850.611261565293,0.5476467313520214,1.2819854569687832,0.982864923488626,0.2839405988947872,0.7464419708485539
0.07100000000000001,1.686586477867665,1.0,2855.0531040765577,0.5501840868569824,1.281397934297004,0.9829926736404142,0.28388963207044193,0.7474974571855196
0.07150000000000001,1.6853729820499215,1.0,2859.4949443479313,0.5527072079613448,1.2808104423539093,0.9831179246292088,0.2838386652460967,0.7485506870695211
0.07200000000000001,1.684159486232178,1.0,2863.9358263207164,0.5552161735270579,1.2802229895517234,0.9832407399768653,0.28378769842175144,0.7496016458121643
0.0725,1.6829459904144346,1.0,2868.374791004173,0.5577110624160712,1.2796355843026712,0.9833611811785976,0.28373673159740626,0.7506503188510959
