Time [s],Phi [rad],STIM [ ],Fsee [N],Gamma [ ],Lcerel [ ],q [ ],Lmtc [m],fisomrel [ ]
0.0,1.8,1.0,17.96770515439484,1.0016543578048818e-05,1.3793396849393713,0.005000026739675741,0.288653,0.541139679305161
0.0005,1.79999375,1.0,18.276992063667578,0.005619169667484243,1.379302360250778,0.012940559339336237,0.2886527375,0.5412299729215213
0.001,1.799975,1.0,21.618593760807478,0.011196859877287895,1.3789382804403378,0.03560866092653275,0.28865195,0.5421102666355864
0.0015,1.79994375,1.0,31.069379321841417,0.016743263655920538,1.3780461915188247,0.0706018199299983,0.2886506375,0.5442636386419393
0.002,1.7999,1.0,53.582323884145076,0.02225855649466453,1.3763681358360547,0.11471797238793907,0.2886488,0.5483004666048887
0.0025,1.79984375,1.0,97.11855984820906,0.027742912900712683,1.373935185464776,0.16457482206133,0.28864643749999996,0.5541214192328556
0.003,1.7997750000000001,1.0,160.95767528002744,0.03319650640488914,1.3712143621551272,0.21728038086833798,0.28864354999999997,0.5605864073015374
0.0035,1.79969375,1.0,237.68277039314512,0.03861950956123819,1.3685847515180636,0.2706128156148153,0.2886401375,0.5667897989424979
0.004,1.7996,1.0,321.4661873836005,0.04401209395780718,1.3661561078629183,0.3229157310865775,0.2886362,0.5724799256207875
0.0045000000000000005,1.7994937500000001,1.0,409.26717566150376,0.049374430221830856,1.363922827667024,0.3730344408513944,0.2886317375,0.5776791310677216
0.005,1.799375,1.0,499.41293041261326,0.05470668801081887,1.3618583545390661,0.42024739893393603,0.28862675,0.5824570511807383
0.0055,1.79924375,1.0,590.7898569439932,0.06000903606004246,1.3599388459828297,0.46417364174431514,0.2886212375,0.5868750865833828
0.006,1.7991000000000001,1.0,682.5175579919969,0.06528164212564178,1.3581464247510446,0.5046799111039445,0.2886152,0.5909793955294781
0.006500000000000001,1.79894375,1.0,773.8808007494514,0.07052467304027309,1.356467261420472,0.5418007139387654,0.2886086375,0.5948057765796839
0.007,1.798775,1.0,864.285313892409,0.07573829469669394,1.3548904030295403,0.5756767405448523,0.28860155,0.5983826589206965
0.0075,1.79859375,1.0,953.2428178414776,0.08092267205750096,1.3534067853061702,0.6065098796402031,0.2885939375,0.6017335589909392
0.008,1.7984,1.0,1040.3440322159859,0.08607796873971724,1.3520088586857566,0.6345321488178697,0.2885858,0.6048780720878542
0.0085,1.79819375,1.0,1125.3140359538136,0.09120434887482874,1.3506892442102811,0.6599844074216902,0.2885771375,0.6078349936072124
0.009000000000000001,1.797975,1.0,1207.9001929649253,0.09630197440904899,1.34944203488137,0.6831041689023265,0.28856795,0.6106194651083143
0.0095,1.79774375,1.0,1287.892611102192,0.10137100584242467,1.3482621184391372,0.7041174540377118,0.2885582375,0.6132445690697843
0.01,1.7975,1.0,1365.1672558805972,0.10641160367500256,1.347144382623697,0.7232342074627442,0.288548,0.6157231428979981
0.0105,1.79724375,1.0,1439.6588597185246,0.1114239278819037,1.346083954390956,0.7406466472490427,0.2885372375,0.6180672720443836
0.011,1.796975,1.0,1511.3215926652106,0.11640813724293739,1.345076561235185,0.7565291168234755,0.28852595000000003,0.620287521958226
0.0115,1.79669375,1.0,1580.1206708160964,0.12136438893554563,1.34411848714018,0.771038598215126,0.2885141375,0.6223930701796998
0.012,1.7964,1.0,1646.057345604767,0.12629283961939772,1.343206161038411,0.7843155759219127,0.28850180000000003,0.6243926371979476
0.0125,1.79609375,1.0,1709.1740428202868,0.13119364605951409,1.3423360340110895,0.7964853154313908,0.2884889375,0.6262947698263973
0.013000000000000001,1.7957750000000001,1.0,1769.5065288903775,0.13606696316370956,1.3415050730406408,0.8076594837142703,0.28847555,0.6281067764269981
0.0135,1.79544375,1.0,1827.0912006833464,0.14091294441521462,1.3407105987188757,0.8179374597077779,0.2884616375,0.6298351017877082
0.014,1.7951000000000001,1.0,1881.9921024622272,0.14573174329725988,1.3399499316376047,0.8274075256477949,0.2884472,0.631486109628788
0.0145,1.79474375,1.0,1934.2800870118185,0.15052351218397647,1.339220591232176,0.8361481853942687,0.2884322375,0.6330656584314189
0.015,1.794375,1.0,1984.053774484525,0.15528840411343575,1.3385200356398035,0.8442292005090778,0.28841675,0.6345796730562059
0.0155,1.79399375,1.0,2031.3735406014557,0.16002656871413537,1.3378463401103509,0.8517128329277026,0.2884007375,0.6360326864605903
0.016,1.7936,1.0,2076.3122311957372,0.1647381554107103,1.337197615371667,0.8586545367182361,0.2883842,0.6374291077412672
0.0165,1.7931937500000001,1.0,2118.957081214847,0.1694233136277955,1.3365719721516005,0.8651037538998361,0.2883671375,0.6387733021746883
0.017,1.792775,1.0,2159.390802120403,0.17408219129706276,1.3359677017501264,0.8711046783229308,0.28834955,0.6400692072089864
0.0175,1.7923437500000001,1.0,2197.720271044908,0.17871493775673095,1.3353829657253786,0.8766967885451462,0.2883314375,0.6413210022361273
0.018000000000000002,1.7919,1.0,2234.013824619295,0.18332169825475836,1.3348164212474602,0.8819155686956333,0.2883128,0.6425317731602145
0.0185,1.79144375,1.0,2268.34597125775,0.18790261786008736,1.3342667465630411,0.8867928467650122,0.2882936375,0.6437045348920907
0.019,1.790975,1.0,2300.798755008782,0.19245784164166055,1.3337326199187909,0.8913572126228902,0.28827395,0.6448422780680481
0.0195,1.79049375,1.0,2331.4526852618583,0.19698751356417848,1.333212802468861,0.8956344088216067,0.2882537375,0.6459477942310199
0.02,1.79,1.0,2360.397228119284,0.2014917786458767,1.332706027295419,0.8996476285816262,0.288233,0.6470239139072064
0.0205,1.78949375,1.0,2387.706793583175,0.20597077941150035,1.332211228419644,0.9034178517029732,0.2882117375,0.6480730220405331
0.021,1.788975,1.0,2413.4448308682845,0.21042465625987447,1.3317274909330785,0.9069640773834001,0.28818995000000003,0.6490971675996311
0.021500000000000002,1.78844375,1.0,2437.6787394378243,0.21485354958982417,1.3312538999272652,0.9103035091813763,0.2881676375,0.6500983857875555
0.022,1.7879,1.0,2460.479539392188,0.2192575998001744,1.3307895404937466,0.9134517494813812,0.2881448,0.65107869866051
0.0225,1.78734375,1.0,2481.915109050292,0.22363694585476113,1.330333559219847,0.9164229820767485,0.28812143749999997,0.6520399861388642
0.023,1.786775,1.0,2502.0564872932773,0.22799172817247587,1.3298851003382683,0.9192301108369614,0.28809755,0.6529841217309013
0.0235,1.78619375,1.0,2520.9671536195183,0.23232208543958346,1.329443404728272,0.9218849096529355,0.28807313749999996,0.6539127649267985
0.024,1.7856,1.0,2538.6986555874296,0.23662815295614426,1.3290078471560138,0.9243981437582296,0.2880482,0.6548272847887917
0.0245,1.78499375,1.0,2555.3044260971315,0.24091006602221857,1.3285778023876507,0.9267796492068283,0.2880227375,0.655729042659764
0.025,1.784375,1.0,2570.8396243810066,0.24516795993786678,1.3281526451893386,0.9290384258220933,0.28799675,0.6566193923955359
0.025500000000000002,1.78374375,1.0,2585.360985661384,0.2494019700031492,1.3277317503272341,0.9311827197171669,0.2879702375,0.6574996805722177
0.026000000000000002,1.7831000000000001,1.0,2598.916667300337,0.25361222892797153,1.3273145858326063,0.9332201107017181,0.2879432,0.6583710519809611
0.0265,1.78244375,1.0,2611.562266268749,0.2577988730571881,1.3269005617909797,0.9351575546057257,0.2879156375,0.6592347662651208
0.027,1.781775,1.0,2623.3477531714075,0.26196203618620195,1.3264891511411945,0.9370014585525076,0.28788755,0.6600919457496883
0.0275,1.7810937500000001,1.0,2634.3101723506384,0.2661018479376671,1.3260799555335445,0.9387577413103882,0.2878589375,0.6609434394108471
0.028,1.7804,1.0,2644.4873520310134,0.27021843793423783,1.3256725766183244,0.9404318605736774,0.2878298,0.6617900919604007
0.0285,1.77969375,1.0,2653.917836657482,0.2743119357985682,1.325266616045828,0.9420288549304685,0.2878001375,0.6626327438969896
0.029,1.778975,1.0,2662.640822750941,0.2783824711533125,1.3248616754663498,0.9435533815043916,0.28776995,0.6634722315471812
0.029500000000000002,1.7782437500000001,1.0,2670.696098282638,0.2824301736211249,1.324457356530184,0.9450097497633396,0.2877392375,0.6643093870964447
0.03,1.7775,1.0,2678.116151811547,0.286455170236985,1.3240533327732946,0.9464019606374435,0.287708,0.6651448900463023
0.0305,1.77674375,1.0,2684.937733482745,0.2904575905276278,1.3236492427153388,0.9477337207041951,0.2876762375,0.665979488806721
0.031,1.775975,1.0,2691.201243282746,0.2944375639092103,1.3232446952804666,0.9490084671664459,0.28764395,0.6668139890721885
0.0315,1.7751937500000001,1.0,2696.931868447243,0.298395214003487,1.3228394420450076,0.9502294103453892,0.2876111375,0.6676488987884828
0.032,1.7744,1.0,2702.155079581164,0.30233066443221274,1.3224332345852903,0.9513995365432326,0.2875778,0.6684847233254694
0.0325,1.77359375,1.0,2706.8966041367876,0.3062440388171421,1.3220258244776444,0.9525216264189222,0.2875439375,0.6693219654639457
0.033,1.772775,1.0,2711.1824012609113,0.3101354607800296,1.3216169632983987,0.9535982716451383,0.28750955,0.6701611253785602
0.0335,1.7719437500000002,1.0,2715.038638009699,0.31400505394263006,1.3212064026238828,0.9546318900256836,0.2874746375,0.6710027006167861
0.034,1.7711000000000001,1.0,2718.491666932215,0.317852941926698,1.3207938940304258,0.9556247392319417,0.2874392,0.6718471860739667
0.0345,1.7702437500000001,1.0,2721.5627594898015,0.32167924400405457,1.320379236843717,0.956578933427427,0.2874032375,0.6726949764012674
0.035,1.7693750000000001,1.0,2724.2782620309836,0.3254840866318564,1.3199621854382302,0.9574964471925614,0.28736675,0.6735465557703815
0.035500000000000004,1.76849375,1.0,2726.6570040778365,0.32926758960897595,1.3195425637114109,0.9583791348652241,0.2873297375,0.674402263956438
0.036000000000000004,1.7676,1.0,2728.7157336101673,0.33302987068381307,1.3191202153852242,0.9592287354948711,0.2872922,0.6752623983816586
0.0365,1.76669375,1.0,2730.471283285986,0.33677104760476767,1.318694984181635,0.9600468798645894,0.2872541375,0.6761272546475362
0.037,1.765775,1.0,2731.9405605993716,0.34049123812023974,1.3182667138226083,0.9608350984503725,0.28721555,0.6769971265068813
0.0375,1.76484375,1.0,2733.140538580556,0.34419055997862913,1.3178352480301085,0.9615948287097495,0.2871764375,0.6778723058343092
0.038,1.7639,1.0,2734.088247036637,0.3478691309283358,1.317400430526101,0.9623274217630821,0.28713679999999997,0.6787530825951715
0.0385,1.76294375,1.0,2734.7992481772935,0.3515270668876789,1.3169621188004863,0.9630341494547466,0.28709663750000003,0.6796397169818444
0.039,1.761975,1.0,2735.28010971688,0.35516447340186763,1.316520252379502,0.9637162145783976,0.28705595,0.6805323017653582
0.0395,1.7609937500000001,1.0,2735.562232712974,0.3587814875191519,1.3160745456037668,0.9643747356641957,0.2870147375,0.6814313827212128
0.04,1.76,1.0,2735.654894176618,0.36237821982787255,1.315624913964395,0.9650107801387475,0.286973,0.6823370972097202
0.0405,1.7589937500000001,1.0,2735.5673920944637,0.3659547809163705,1.3151712729525016,0.9656253548955606,0.2869307375,0.683249581331313
0.041,1.757975,1.0,2735.309042284476,0.36951128137298683,1.3147135380592014,0.9662194103602136,0.28688795,0.6841689699051645
0.0415,1.75694375,1.0,2734.8891754102096,0.3730478317860624,1.314251624775609,0.9667938442416733,0.2868446375,0.6850953964473527
0.042,1.7559,1.0,2734.3171341534285,0.3765645427439381,1.3137854485928395,0.9673495049969925,0.28680079999999997,0.6860289931485666
0.0425,1.75484375,1.0,2733.602270545007,0.380061524834955,1.313314925002007,0.9678871950340153,0.2867564375,0.6869698908513606
0.043000000000000003,1.753775,1.0,2732.7539434538403,0.38353888864745395,1.312839969494227,0.9684076736743626,0.28671155,0.6879182190269488
0.043500000000000004,1.75269375,1.0,2731.7815162349893,0.38699674476977597,1.3123604975606136,0.9689116598968956,0.28666613750000003,0.6888741057515495
0.044,1.7516,1.0,2730.694354535052,0.39043520379026186,1.3118764246922818,0.9693998348799552,0.2866202,0.6898376776822688
0.0445,1.75049375,1.0,2729.5018242568913,0.39385437629725284,1.3113876663803465,0.9698728443589967,0.2865737375,0.690809060032532
0.045,1.7493750000000001,1.0,2728.211886565825,0.39725436821001026,1.3108941508727274,0.9703313011185118,0.28652675,0.6917883512535898
0.0455,1.74824375,1.0,2726.8298244623284,0.40063528347214294,1.310395830755267,0.9707757882868324,0.2864792375,0.6927756002861851
0.046,1.7471,1.0,2725.36540365075,0.40399724372671164,1.3098926178331438,0.9712068589876963,0.2864312,0.6937709356266616
0.0465,1.7459437500000001,1.0,2723.823467365518,0.40734035185372636,1.3093844686438052,0.9716250394071115,0.28638263750000004,0.6947743959247141
0.047,1.744775,1.0,2722.2088569170196,0.410664710733197,1.3088713397246987,0.9720308297261077,0.28633355,0.6957860188031562
0.0475,1.74359375,1.0,2720.526411030092,0.41397042324513333,1.3083531876132712,0.9724247056474917,0.28628393750000003,0.6968058408441797
0.048,1.7424,1.0,2718.7809652227456,0.4172575922695453,1.3078299688469703,0.9728071198191476,0.2862338,0.6978338975754887
0.0485,1.74119375,1.0,2716.977351228709,0.4205263206864428,1.3073016399632433,0.9731785031617937,0.2861831375,0.6988702234563176
0.049,1.739975,1.0,2715.120396460182,0.42377671137583567,1.3067681574995376,0.9735392661084288,0.28613195,0.6999148518633257
0.0495,1.73874375,1.0,2713.214923513617,0.4270088672177339,1.3062294779933001,0.9738897997621022,0.2860802375,0.7009678150763741
0.05,1.7375,1.0,2711.2657497168634,0.4302228910921473,1.3056855579819784,0.9742304769780805,0.286028,0.7020291442641791
0.0505,1.73624375,1.0,2709.2776867181497,0.4334188858790857,1.3051363540030196,0.9745616533759889,0.2859752375,0.7030988694698466
0.051000000000000004,1.734975,1.0,2707.255540117255,0.4365969544585591,1.3045818225938715,0.97488366828704,0.28592195,0.7041770195962864
0.051500000000000004,1.73369375,1.0,2705.1998518035116,0.43975718339730596,1.3040219591629472,0.9751968463683569,0.2858681375,0.7052635470239901
0.052000000000000005,1.7324,1.0,2703.1130613386335,0.4428996766609467,1.3034567417845824,0.9755014984874647,0.2858138,0.7063584370710629
0.0525,1.73109375,1.0,2701.003958585858,0.44602455935285007,1.3028860904791124,0.9757979202071144,0.28575893750000003,0.7074617863337976
0.053,1.729775,1.0,2698.8742761843314,0.4491319258088954,1.3023099896558596,0.9760863948011325,0.28570355000000003,0.7085735655429657
0.0535,1.72844375,1.0,2696.725744350726,0.45222187036496175,1.3017284237241467,0.97636719316209,0.2856476375,0.7096937446331053
0.054,1.7271,1.0,2694.560090814339,0.45529448735692846,1.301141377093296,0.9766405744453364,0.2855912,0.710822292737096
0.0545,1.7257437500000001,1.0,2692.3790407573238,0.45834987112067466,1.30054883417263,0.9769067866742648,0.2855342375,0.7119591781807175
0.055,1.724375,1.0,2690.184316760691,0.4613881159920796,1.2999507793714709,0.9771660673094466,0.28547675,0.7131043684771914
0.0555,1.72299375,1.0,2687.977638755487,0.4644093163070225,1.2993471970991417,0.9774186437840768,0.2854187375,0.714257830321708
0.056,1.7216,1.0,2685.760723979506,0.4674135664013825,1.2987380717649644,0.9776647340079848,0.2853602,0.7154195295859407
0.0565,1.72019375,1.0,2683.535286939179,0.4704009606110389,1.2981233877782616,0.9779045468423,0.28530113749999997,0.716589431312539
0.057,1.718775,1.0,2681.3030393772024,0.4733715932718709,1.297503129548356,0.9781382825467054,0.28524155,0.7177674997096115
0.0575,1.71734375,1.0,2679.0656902449346,0.4763255587197577,1.2968772814845695,0.9783661332010732,0.2851814375,0.7189536981451904
0.058,1.7159,1.0,2676.8249456808758,0.4792629512905785,1.2962458279962252,0.9785882831031402,0.2851208,0.7201479891416802
0.0585,1.71444375,1.0,2674.5825089942973,0.4821838653202125,1.2956087534926453,0.9788049091437677,0.2850596375,0.7213503343702949
0.059000000000000004,1.7129750000000001,1.0,2672.340080653911,0.485088395144539,1.2949660423831522,0.9790161811612165,0.28499795,0.7225606946454735
0.059500000000000004,1.71149375,1.0,2670.0993582825085,0.4879766350994371,1.2943176790770683,0.9792222622757653,0.2849357375,0.7237790299192852
0.06,1.71,1.0,2667.861206740158,0.4908486684844377,1.293663655613988,0.979423308717379,0.284873,0.7250052849854243
0.0605,1.7084937500000001,1.0,2665.6257883090593,0.4937045719052443,1.2930039704823852,0.9796194704604357,0.2848097375,0.7262393918417014
0.061,1.7069750000000001,1.0,2663.396738381755,0.4965444739780253,1.2923385902095819,0.9798108941391529,0.28474595,0.7274813414358232
0.0615,1.7054437500000001,1.0,2661.174383009894,0.4993684600262125,1.2916675117313279,0.9799977189262478,0.2846816375,0.728731066965739
0.062,1.7039,1.0,2658.959047707909,0.5021766153732377,1.2909907319833722,0.9801800787148239,0.2846168,0.729988500955935
0.0625,1.70234375,1.0,2656.7510574553667,0.5049690253425326,1.290308247901465,0.9803581023566642,0.2845514375,0.7312535752563188
0.063,1.7007750000000001,1.0,2654.550736702148,0.5077457752575292,1.2896200564213551,0.980531913888034,0.28448555,0.7325262210411068
0.0635,1.69919375,1.0,2652.358409371987,0.5105069504416591,1.2889261544787927,0.9807016327437421,0.28441913750000003,0.7338063688077068
0.064,1.6976,1.0,2650.174398866545,0.5132526362183543,1.2882265390095269,0.9808673739601502,0.2843522,0.7350939483756049
0.0645,1.69599375,1.0,2647.999028070634,0.5159829179110464,1.2875212069493074,0.9810292483677786,0.2842847375,0.7363888888852473
0.065,1.694375,1.0,2645.8326193564744,0.5186978808431675,1.2868101552338838,0.9811873627741103,0.28421675,0.7376911187969244
0.0655,1.69274375,1.0,2643.6754945887546,0.5213976103381491,1.2860933807990056,0.9813418201371639,0.2841482375,0.739000565889653
0.066,1.6911,1.0,2641.527975129856,0.5240821917194232,1.285370880580422,0.9814927197303588,0.2840792,0.7403171572600591
0.0665,1.6894437500000001,1.0,2639.390381845294,0.5267517103104216,1.2846426515138831,0.9816401572991739,0.2840096375,0.7416408193212567
0.067,1.687775,1.0,2637.26303510888,0.529406251434576,1.2839086905351382,0.9817842252100579,0.28393955,0.7429714778017319
0.0675,1.68609375,1.0,2635.146254809316,0.5320459004153182,1.2831689945799365,0.9819250125920307,0.2838689375,0.7443090577442216
0.068,1.6844000000000001,1.0,2633.0403603552895,0.5346707425760802,1.2824235605840282,0.9820626054713791,0.2837978,0.7456534835045912
0.0685,1.68269375,1.0,2630.9456706822934,0.5372808632402936,1.2816723854831622,0.9821970868998315,0.2837261375,0.7470046787507171
0.069,1.680975,1.0,2628.862504258911,0.5398763477313903,1.2809154662130882,0.982328537076571,0.28365395,0.7483625664613627
0.0695,1.67924375,1.0,2626.794406746136,0.5424572773783526,1.2801527698033504,0.9824570318115018,0.28358123749999997,0.7497271223581345
0.07,1.6775,1.0,2624.734685275419,0.5450237305004608,1.2793843581359017,0.98258264856071,0.283508,0.7510981518781576
0.07050000000000001,1.67574375,1.0,2622.6857043902382,0.5475757877529172,1.2786102092021017,0.9827054584685875,0.2834342375,0.7524756101031924
0.07100000000000001,1.673975,1.0,2620.650403901564,0.550113529755691,1.2778302956229108,0.9828255300466862,0.28335995,0.7538594605678762
0.07150000000000001,1.67219375,1.0,2618.6239526446475,0.5526370369032639,1.2770446620925902,0.9829429327978355,0.2832851375,0.7552495382844469
0.07200000000000001,1.6704,1.0,2616.6211579214873,0.5551463894812368,1.276253171058875,0.9830577256777485,0.2832098,0.7566459996170791
0.0725,1.66859375,1.0,2614.636329457661,0.5576416667078319,1.2754558751242402,0.9831699741654333,0.2831339375,0.7580486634551626
0.073,1.6667805166947467,1.0,2612.908483413173,0.5601229471891196,1.2746530449574789,0.9832797513653344,0.28305778170117935,0.7594569671415341
0.0735,1.6649672605173216,1.0,2611.746511579211,0.5625903095311703,1.2738449512273837,0.9833871281272216,0.2829816249417275,0.7608703529568617
0.074,1.6631540043398965,1.0,2611.115160960438,0.5650438318518531,1.273031928376429,0.9834921759351785,0.28290546818227563,0.7622881571653333
0.0745,1.6613407481624711,1.0,2610.9619869568232,0.567483592251938,1.2722144620171432,0.9835949707942436,0.2828293114228238,0.7637094600405527
0.075,1.659527491985046,1.0,2611.2501400663687,0.5699096674313453,1.2713928942054253,0.9836955801436075,0.2827531546633719,0.7651336000472029
