Time [s],Phi [rad],STIM [ ],Fsee [N],Gamma [ ],Lcerel [ ],q [ ],Lmtc [m],fisomrel [ ]
0.0,1.8,1.0,17.967638160228955,1.0112695665707744e-05,1.379339692444851,0.0050000272534513794,0.288653,0.5411396611474674
0.0005,1.79999375,1.0,18.276963648903084,0.00561926528023479,1.3793023634070851,0.012940826415059933,0.2886527375,0.5412299652863506
0.001,1.799975,1.0,21.618640649301607,0.011196954953726483,1.3789382756513944,0.03560916240583518,0.28865195,0.5421102782090175
0.0015,1.79994375,1.0,31.069578711725583,0.01674335819905555,1.3780461745315575,0.07060250656507464,0.2886506375,0.5442636795983902
0.002,1.7999,1.0,53.58282586604632,0.022258650507487203,1.3763681032701125,0.11471878565951914,0.2886488,0.5483005447731439
0.0025,1.79984375,1.0,97.11944996003213,0.027743006386197828,1.3739351425724267,0.16457570679622616,0.28864643749999996,0.5541215215221269
0.003,1.7997750000000001,1.0,160.95885845174874,0.0331965993659946,1.3712143178678975,0.21728129352596204,0.28864354999999997,0.5605865121488252
0.0035,1.79969375,1.0,237.68412154469723,0.03861960200090528,1.3685847098990316,0.2706137232847118,0.2886401375,0.5667898967750215
0.004,1.7996,1.0,321.4676342714493,0.04401218587896078,1.3661560695403938,0.3229166099073983,0.2886362,0.5724800151107471
0.0045000000000000005,1.7994937500000001,1.0,409.2686807506286,0.04937452162737968,1.363922792336853,0.3730352750443519,0.2886317375,0.5776792130667975
0.005,1.799375,1.0,499.4144716008099,0.0547067789036562,1.3618583217889513,0.42024817935008524,0.28862675,0.5824571267604712
0.0055,1.79924375,1.0,590.7914160206943,0.06000912644304057,1.3599388155222576,0.4641743642614954,0.2886212375,0.5868751565064867
0.006,1.7991000000000001,1.0,682.5191229553368,0.06528173200166182,1.3581463963041815,0.5046805750612193,0.2886152,0.5909794605048729
0.006500000000000001,1.79894375,1.0,773.8823610948327,0.07052476241215967,1.356467234784358,0.5418013209782274,0.2886086375,0.5948058371339074
0.007,1.798775,1.0,864.2868542589207,0.07573838356727691,1.3548903781476893,0.57567729376527,0.28860155,0.5983827152365755
0.0075,1.79859375,1.0,953.2443312696694,0.0809227604295939,1.353406762028085,0.606510382808867,0.2885939375,0.6017336114567109
0.008,1.7984,1.0,1040.3458769936524,0.086078056632478,1.352008831524946,0.6345326028933415,0.2885858,0.6048781330626343
0.0085,1.79819375,1.0,1125.3159547597777,0.09120443627884944,1.3506892170470528,0.6599848189587996,0.2885771375,0.6078350543588172
0.009000000000000001,1.797975,1.0,1207.9014746919834,0.09630206129976715,1.3494420173680983,0.68310454727311,0.28856795,0.6106195041381176
0.0095,1.79774375,1.0,1287.8932432118665,0.10137109222539759,1.3482621100746381,0.7041178024388884,0.2885582375,0.6132445876478336
0.01,1.7975,1.0,1365.1680238491017,0.1064116895859073,1.3471443727532277,0.723234523649515,0.288548,0.615723164750536
0.0105,1.79724375,1.0,1439.660687120786,0.11142401332669934,1.3460839315196165,0.7406469287675304,0.2885372375,0.6180673225252724
0.011,1.796975,1.0,1511.3235522801506,0.11640822221014255,1.3450765372976439,0.7565293727588501,0.28852595000000003,0.6202875746386091
0.0115,1.79669375,1.0,1580.1220554396205,0.1213644734144217,1.344118470598719,0.7710388350533972,0.2885141375,0.6223931064821382
0.012,1.7964,1.0,1646.0577255844048,0.12629292356827296,1.343206156590816,0.7843157976596711,0.28850180000000003,0.6243926469329091
0.0125,1.79609375,1.0,1709.1747775729593,0.1311937295667929,1.342336025571227,0.7964855171452377,0.2884889375,0.6262947882528576
0.013000000000000001,1.7957750000000001,1.0,1769.5077224767176,0.13606704625333033,1.3415050595660662,0.8076596670088321,0.28847555,0.6281068057741631
0.0135,1.79544375,1.0,1827.0928148767728,0.14091302706843364,1.3407105807854711,0.8179376265545802,0.2884616375,0.6298351407551881
0.014,1.7951000000000001,1.0,1881.9939476074019,0.14573182545265131,1.3399499114395792,0.8274076783287547,0.2884472,0.6314861534190761
0.0145,1.79474375,1.0,1934.27917012423,0.15052359384412223,1.339220601132373,0.8361483368546005,0.2884322375,0.6330656370133656
0.015,1.794375,1.0,1984.0500800075852,0.15528848525675215,1.338520075027794,0.8442293508018192,0.28841675,0.6345795880203342
0.0155,1.79399375,1.0,2031.3704538413742,0.160026649458018,1.3378463726337193,0.8517129704993387,0.2884007375,0.6360326163846878
0.016,1.7936,1.0,2076.31132520406,0.16473823576826463,1.3371976248136954,0.8586546575525907,0.2883842,0.6374290874362318
0.0165,1.7931937500000001,1.0,2118.958023440372,0.1694233935078368,1.336571962431268,0.8651038604557165,0.2883671375,0.6387733230394297
0.017,1.792775,1.0,2159.3918752367135,0.1740822708420563,1.335967690783615,0.8711047772312311,0.28834955,0.6400692307063942
0.0175,1.7923437500000001,1.0,2197.7188975137788,0.17871501672588921,1.335382979638986,0.876696887570894,0.2883314375,0.6413209724760061
0.018000000000000002,1.7919,1.0,2234.011419992706,0.1833217767002653,1.3348164454071976,0.8819156639997459,0.2883128,0.6425317215717127
0.0185,1.79144375,1.0,2268.3436350429915,0.1879026958444472,1.3342667698571233,0.8867929358400679,0.2882936375,0.6437044852336893
0.019,1.790975,1.0,2300.797256180118,0.1924579192376975,1.3337326347576366,0.8913572941220788,0.28827395,0.6448422464850956
0.0195,1.79049375,1.0,2331.452235676393,0.19698759083751743,1.3332128068905311,0.8956344829078233,0.2882537375,0.6459477848346098
0.02,1.79,1.0,2360.397571129649,0.20149185574073464,1.3327060239426622,0.8996476965637294,0.288233,0.6470239210212522
0.0205,1.78949375,1.0,2387.704106867006,0.20597085594834375,1.3322112545303604,0.9034179222361737,0.2882117375,0.6480729667199111
0.021,1.788975,1.0,2413.4374677738992,0.2104247320903193,1.3317275621083922,0.9069641536928613,0.28818995000000003,0.6490970170204811
0.021500000000000002,1.78844375,1.0,2437.667281704088,0.21485362479663583,1.3312540101315244,0.9103035897171626,0.2881676375,0.6500981529712497
0.022,1.7879,1.0,2460.4668419743875,0.2192576746972678,1.330789662054524,0.9134518284968985,0.2881448,0.6510784422125439
0.0225,1.78734375,1.0,2481.898614842435,0.2236370198828962,1.3303337164464755,0.9164230642014656,0.28812143749999997,0.6520396549064399
0.023,1.786775,1.0,2502.0450391601958,0.22799180279946044,1.3298852090243645,0.9192301804381379,0.28809755,0.6529838930706358
0.0235,1.78619375,1.0,2520.959845879962,0.23232215988399788,1.3294434738456347,0.9218849686886894,0.28807313749999996,0.6539126197082928
0.024,1.7856,1.0,2538.694629715861,0.23662822674102635,1.3290078850999072,0.9243981941259308,0.2880482,0.6548272051724691
0.0245,1.78499375,1.0,2555.302873123934,0.2409101389750637,1.3285778169768037,0.926779692731316,0.2880227375,0.6557290120878767
0.025,1.784375,1.0,2570.8397870340827,0.24516803219062783,1.328152643665945,0.9290384642473676,0.28799675,0.6566193955837096
0.025500000000000002,1.78374375,1.0,2585.362160264195,0.24940204199223656,1.3277317393569525,0.9311827547008492,0.2879702375,0.6574997035014877
0.026000000000000002,1.7831000000000001,1.0,2598.9182735504255,0.2536123002689697,1.3273145708701017,0.9332201431569334,0.2879432,0.6583710832146721
0.0265,1.78244375,1.0,2611.5693001798363,0.25779894549166277,1.3269004964277102,0.9351575780955796,0.2879156375,0.6592349025360862
0.027,1.781775,1.0,2623.355067325959,0.2619621084830831,1.3264890833265834,0.9370014804489691,0.28788755,0.6600920869533395
0.0275,1.7810937500000001,1.0,2634.314330401363,0.2661019193093693,1.3260799170616535,0.9387577661897397,0.2878589375,0.660943519416662
0.028,1.7804,1.0,2644.486647122398,0.27021850803666014,1.3256725831278522,0.9404318904773072,0.2878298,0.6617900784401538
0.0285,1.77969375,1.0,2653.9123068848958,0.27431200473109435,1.3252666670201123,0.9420288896001774,0.2878001375,0.6626326381556996
0.029,1.778975,1.0,2662.6322639493533,0.27838253945881064,1.3248617542333658,0.9435534185947192,0.28776995,0.6634720683559319
0.029500000000000002,1.7782437500000001,1.0,2670.6850595557057,0.28243024066904165,1.3244574579667598,0.9450097882388967,0.2877392375,0.6643091771994525
0.03,1.7775,1.0,2678.1024429428676,0.2864552338107771,1.324053458571616,0.9464019998970281,0.287708,0.6651446300630548
0.0305,1.77674375,1.0,2684.934710295382,0.29045765607407614,1.3236492704220806,0.9477337465891442,0.2876762375,0.6659794316175223
0.031,1.775975,1.0,2691.2067489838746,0.2944376310437193,1.3232446448809116,0.9490084827010989,0.28764395,0.6668140929713435
0.0315,1.7751937500000001,1.0,2696.9437593277703,0.298395282304487,1.3228393333108668,0.9502294183228672,0.2876111375,0.6676491226638873
0.032,1.7744,1.0,2702.171226571908,0.30233073344115974,1.3224330870747034,0.9513995395437078,0.2875778,0.6684850266564947
0.0325,1.77359375,1.0,2706.914894233875,0.3062441080385181,1.3220256575351794,0.9525216268263111,0.2875439375,0.669322308319628
0.033,1.772775,1.0,2711.2007388219636,0.31013552968134256,1.3216167960550524,0.9535982716623738,0.28750955,0.6701614684160804
0.0335,1.7719437500000002,1.0,2715.054945923841,0.31400512195441355,1.3212062539970801,0.9546318916886912,0.2874746375,0.67100300508024
0.034,1.7711000000000001,1.0,2718.50388766562,0.31785300844251163,1.3207937827240204,0.9556247444224463,0.2874392,0.6718474137934121
0.0345,1.7702437512901286,1.0,2721.577565632104,0.32167931107652625,1.3203791026481937,0.9565789359301433,0.2874032375541854,0.6726952505941906
0.035,1.7693814308819171,1.0,2724.6122511912686,0.3254841474063448,1.3199620510572905,0.9574964478548598,0.2873670200970405,0.6735468299847317
0.035500000000000004,1.7685191104737057,1.0,2727.8643968667425,0.3292676480285978,1.3195430375796533,0.9583791989945483,0.28733080263989563,0.674401298260103
0.036000000000000004,1.7676567900654945,1.0,2731.3178094433833,0.33302992961560657,1.319122212863525,0.9592289561208672,0.28729458518275075,0.6752583330902011
0.0365,1.766794469657283,1.0,2734.95627684906,0.3367711088396922,1.3186997275571481,0.9600473756299702,0.28725836772560587,0.6761176136957894
0.037,1.7659321492490716,1.0,2738.7635623565625,0.3404913023731761,1.3182757323087657,0.9608360116871674,0.287222150268461,0.6769788208651751
0.0375,1.7650698288408604,1.0,2742.723399288719,0.3441906268883794,1.3178503777666206,0.9615963236840058,0.2871859328113161,0.6778416369694407
0.038,1.764207508432649,1.0,2746.819486226435,0.3478691990576234,1.3174238145789559,0.962329683072717,0.2871497153541712,0.6787057459762266
0.0385,1.7633451880244375,1.0,2751.035482720503,0.35152713555322934,1.316996193394014,0.9630373796362414,0.2871134978970264,0.6795708334620691
0.039,1.7624828676162263,1.0,2755.3550055055025,0.3551645530475184,1.316567664860038,0.9637206272460429,0.2870772804398815,0.6804365866232867
0.0395,1.7616205472080149,1.0,2759.761625218403,0.3587815682128119,1.3161383796252706,0.9643805691546086,0.28704106298273663,0.6813026942854219
0.04,1.7607582267998034,1.0,2764.247792802639,0.36237829038580044,1.3157084076867234,0.9650182742782977,0.28700484552559175,0.6821690092981941
0.0405,1.7598959063915922,1.0,2768.7962819447384,0.3659548420722231,1.3152779061807272,0.9656347609504912,0.28696862806844686,0.6830352100583438
0.041,1.7590335859833808,1.0,2773.3982021997795,0.36951133636932443,1.3148469565802878,0.9662309819820774,0.286932410611302,0.6839011286101095
0.0415,1.7581712655751693,1.0,2778.047672846776,0.3730478833287932,1.314415612984605,0.9668078344422372,0.2868961931541571,0.6847666527790661
0.042,1.7573089451669581,1.0,2782.738794191257,0.37656459300231826,1.3139839294928781,0.967366166201315,0.28685997569701227,0.6856316709828167
0.0425,1.7564466247587467,1.0,2787.4656471249614,0.38006157544158853,1.3135519602043064,0.9679067791357611,0.2868237582398674,0.6864960722322611
0.043000000000000003,1.7555843043505353,1.0,2792.2222927508265,0.38353894069829286,1.3131197592180894,0.96843043209296,0.2867875407827225,0.6873597461326713
0.043500000000000004,1.754721983942324,1.0,2797.002772072363,0.38699679882412025,1.3126873806334265,0.9689378436361923,0.2867513233255776,0.6882225828845876
0.044,1.7538596635341126,1.0,2801.801105748454,0.3904352598707594,1.312254878549517,0.9694296945880689,0.28671510586843274,0.6890844732845232
0.0445,1.7529973431259012,1.0,2806.6112939125783,0.3938544338898993,1.3118223070655604,0.9699066303890981,0.28667888841128786,0.6899453087254828
0.045,1.75213502271769,1.0,2811.4302395229693,0.39725442328633626,1.3113896940976086,0.9703692601804446,0.286642670954143,0.690805033194508
0.0455,1.7512727023094785,1.0,2816.2537139128913,0.40063533815870694,1.3109570775925934,0.970818164000013,0.2866064534969981,0.6916635710939856
0.046,1.750410381901267,1.0,2821.0741230599683,0.4039972984006448,1.3105245254567734,0.9712538962486188,0.2865702360398532,0.6925207879140487
0.0465,1.7495480614930559,1.0,2825.8899306058665,0.4073404068014084,1.3100920512499166,0.9716769773361522,0.2865340185827083,0.6933766573712346
0.047,1.7486857410848444,1.0,2830.69959505237,0.41066476615025643,1.3096596685317912,0.9720879020421399,0.28649780112556344,0.6942311533315728
0.0475,1.747823420676633,1.0,2835.5015697874524,0.41397047923644764,1.3092273908621646,0.9724871410205231,0.28646158366841856,0.695084249810517
0.048,1.7469611002684218,1.0,2840.294303114283,0.41725764884924066,1.3087952318008051,0.9728751422024946,0.2864253662112737,0.695935920972854
0.0485,1.7460987798602103,1.0,2845.0762382850485,0.4205263777778942,1.3083632049074803,0.9732523321051836,0.2863891487541288,0.6967861411326127
0.049,1.745236459451999,1.0,2849.8458135388178,0.4237767688116668,1.3079313237419585,0.973619117053324,0.28635293129698397,0.6976348847529501
0.0495,1.7443741390437877,1.0,2854.6014621428776,0.4270089247398173,1.3074996018640073,0.9739758843204401,0.2863167138398391,0.6984821264460364
0.05,1.7435118186355762,1.0,2859.341612439022,0.43022294835160424,1.3070680528333947,0.9743230031955354,0.2862804963826942,0.6993278409729196
0.0505,1.7426494982273648,1.0,2864.0646878933735,0.43341894243628637,1.3066366902098885,0.9746608259807811,0.2862442789255493,0.7001720032433829
0.051000000000000004,1.7417871778191536,1.0,2868.769107150124,0.4365970097831223,1.3062055275532567,0.9749896889252468,0.28620806146840444,0.7010145883157901
0.051500000000000004,1.7409248574109422,1.0,2873.4534383066766,0.4397572514373631,1.30577457705706,0.975309912821201,0.28617184401125956,0.7018555740611484
0.052000000000000005,1.7400625370027307,1.0,2878.1192668083863,0.4428997422488048,1.3053438241686155,0.9756217996187041,0.2861356265541147,0.7026949905678751
0.0525,1.7392002165945195,1.0,2882.7629096075984,0.44602462233788115,1.3049133009830203,0.9759256477665589,0.28609940909696985,0.7035327770524173
0.053,1.738337896186308,1.0,2887.384346903705,0.4491319861062346,1.304483007120465,0.9762217357565653,0.28606319163982497,0.7043689361443843
0.0535,1.7374755757780966,1.0,2891.983559384211,0.45222192795550764,1.3040529422011398,0.9765103299928031,0.2860269741826801,0.7052034704682091
0.054,1.7366132553698854,1.0,2896.5605282223974,0.4552945422873426,1.3036231058452354,0.9767916854193892,0.2859907567255352,0.7060363826431536
0.0545,1.735750934961674,1.0,2901.1152350755333,0.45834992350338205,1.3031934976729425,0.9770660461105041,0.2859545392683903,0.7068676752833145
0.055,1.7348886145534625,1.0,2905.647662082815,0.46138816600526833,1.3027641173044515,0.9773336458252471,0.28591832181124543,0.7076973509976285
0.0555,1.7340262941452513,1.0,2910.157791863749,0.46440936419464385,1.3023349643599529,0.9775947085297024,0.28588210435410055,0.708525412389879
0.056,1.73316397373704,1.0,2914.645607515801,0.4674136124731511,1.3019060384596373,0.9778494488884033,0.28584588689695567,0.7093518620586992
0.0565,1.7323016533288285,1.0,2919.111092612849,0.4704010052424325,1.3014773392236951,0.978098072727229,0.2858096694398108,0.7101767025975799
0.057,1.7314393329206172,1.0,2923.5542312031407,0.47337163690413053,1.3010488662723172,0.9783407774696163,0.2857734519826659,0.710999936594874
0.0575,1.7305770125124058,1.0,2927.975007807385,0.4763256018598876,1.3006206192256937,0.9785777525478262,0.285737234525521,0.7118215666338026
0.058,1.7297146921041944,1.0,2932.3734074167123,0.4792629945113461,1.3001925977040156,0.9788091797908834,0.28570101706837614,0.7126415952924587
0.0585,1.7288523716959832,1.0,2936.7494154911824,0.48218390926014854,1.299764801327473,0.9790352337906885,0.28566479961123126,0.7134600251438159
0.059000000000000004,1.7279900512877717,1.0,2941.1030179573772,0.48508844050793726,1.2993372297162566,0.9792560822476946,0.28562858215408643,0.7142768587557302
0.059500000000000004,1.7271277308795603,1.0,2945.4342012067427,0.48797668265635485,1.2989098824905572,0.9794718862974408,0.28559236469694155,0.7150920986909481
0.06,1.726265410471349,1.0,2949.743196719671,0.49084867613114,1.29848275713163,0.9796827963450386,0.28555614723979666,0.715905751578764
0.0605,1.7254030900631376,1.0,2954.0303577488316,0.4937045617471684,1.2980558500670012,0.9798889650346722,0.2855199297826518,0.7167178260230782
0.061,1.7245407696549262,1.0,2958.2958915270565,0.4965444536112529,1.2976291590122673,0.9800905370654588,0.2854837123255069,0.7175283281430183
0.0615,1.723678449246715,1.0,2962.5400554529297,0.4993684361198164,1.297202681254651,0.9802876493045916,0.285447494868362,0.7183372648438975
0.062,1.7228161288385035,1.0,2966.763108121425,0.502176593669282,1.2967764140813753,0.9804804334924664,0.28541127741121713,0.7191446430006379
0.0625,1.721953808430292,1.0,2970.9653093112256,0.5049690106560728,1.2963503547796627,0.9806690164734051,0.28537505995407225,0.7199504694578064
0.063,1.721091488022081,1.0,2975.1469199720714,0.5077457714766116,1.2959245006367355,0.9808535204143342,0.2853388424969274,0.7207547510296517
0.0635,1.7202291676138695,1.0,2979.308202212167,0.5105069605273217,1.2954988489398167,0.9810340630121227,0.28530262503978254,0.7215574945001384
0.064,1.719366847205658,1.0,2983.4494192863017,0.513252662204626,1.2950733969761288,0.981210757690255,0.28526640758263766,0.7223587066229844
0.0645,1.7185045267974468,1.0,2987.5708355834768,0.5159829609049473,1.2946481420328944,0.9813837137854564,0.2852301901254928,0.7231583941216944
0.065,1.7176422063892354,1.0,2991.672716614978,0.518697941024709,1.2942230813973363,0.9815530367248559,0.2851939726683479,0.7239565636895932
0.0655,1.716779885981024,1.0,2995.755329002777,0.521397686960334,1.2937982123566771,0.9817188281942325,0.285157755211203,0.7247532219898625
0.066,1.7159175655728127,1.0,2999.8189404677887,0.524082283108245,1.2933735321981397,0.9818811862978517,0.28512153775405813,0.7255483756555712
0.0665,1.7150552451646013,1.0,3003.8638198184276,0.5267518138648655,1.2929490382089461,0.9820402057103718,0.28508532029691325,0.7263420312897112
0.067,1.7141929247563898,1.0,3007.890236939435,0.5294063636266182,1.2925247276763194,0.9821959778212681,0.28504910283976836,0.7271341954652268
0.0675,1.7133306043481786,1.0,3011.8984627805544,0.5320460167899261,1.2921005978874822,0.9823485908721892,0.2850128853826235,0.7279248747250492
0.068,1.7124682839399672,1.0,3015.888769345925,0.5346708577512125,1.2916766461296574,0.9824981300876436,0.2849766679254786,0.7287140755821258
0.0685,1.7116059635317558,1.0,3019.861429682875,0.5372809709069002,1.2912528696900671,0.9826446777993826,0.2849404504683337,0.729501804519454
0.069,1.7107436431235445,1.0,3023.816717871716,0.5398764406534122,1.2908292658559342,0.9827883135648228,0.28490423301118883,0.7302880679901096
0.0695,1.709881322715333,1.0,3027.7549090148564,0.5424573513871718,1.2904058319144815,0.9829291142798379,0.284868015554044,0.7310728724172764
0.07,1.7090190023071217,1.0,3031.676279226821,0.5450237875046016,1.2899825651529315,0.9830671542862184,0.2848317980968991,0.7318562241942788
0.07050000000000001,1.7081566818989105,1.0,3035.5811056240054,0.5475758334021248,1.2895594628585068,0.9832025054740916,0.28479558063975424,0.732638129684608
0.07100000000000001,1.707294361490699,1.0,3039.4694269508245,0.5501135488359779,1.2891365243802326,0.9833352360087402,0.28475936318260936,0.7334185914200229
