Time [s],Phi [rad],STIM [ ],Fsee [N],Gamma [ ],Lcerel [ ],q [ ],Lmtc [m],fisomrel [ ]
0.0,1.8,1.0,17.966434082532565,1.0068641833576183e-05,1.3793398273422792,0.005000027017460765,0.288653,0.5411393347956945
0.0005,1.79999375,1.0,18.275856075427974,0.005619221473510242,1.379302486438064,0.012940706542391985,0.2886527375,0.5412296676718822
0.001,1.799975,1.0,21.617565861152105,0.011196911392722669,1.3789383854258908,0.035608940761664445,0.28865195,0.5421100129171527
0.0015,1.79994375,1.0,31.06844187411372,0.016743314882394934,1.3780462713865702,0.07060220586193698,0.2886506375,0.5442634460800757
0.002,1.7999,1.0,53.581530185494785,0.02225860743379843,1.3763681873273548,0.11471843024140305,0.2886488,0.5483003430099528
0.0025,1.79984375,1.0,97.11799539233569,0.027742963554118594,1.37393521266465,0.16457531868785719,0.28864643749999996,0.5541213543668462
0.003,1.7997750000000001,1.0,160.95734861801083,0.03319655677416937,1.3712143743824223,0.21728089084323,0.28864354999999997,0.5605863783541671
0.0035,1.79969375,1.0,237.68263621567903,0.0386195596479862,1.36858475565109,0.2706133207286752,0.2886401375,0.5667897892271248
0.004,1.7996,1.0,321.46620170264964,0.04401214376360793,1.366156107483661,0.32291621857580255,0.2886362,0.5724799265064213
0.0045000000000000005,1.7994937500000001,1.0,409.2673058137962,0.04937447974826126,1.3639228246118518,0.37303490243158427,0.2886317375,0.5776791381585822
0.005,1.799375,1.0,499.4131580583161,0.05470673725945499,1.3618583497016115,0.4202478298254418,0.28862675,0.5824570623444716
0.0055,1.79924375,1.0,590.7901542038319,0.06000908503241704,1.3599388401750914,0.4641740400430332,0.2886212375,0.5868750999152106
0.006,1.7991000000000001,1.0,682.5179210260546,0.06528169082331384,1.35814641815205,0.5046802765138948,0.2886152,0.5909794106022226
0.006500000000000001,1.79894375,1.0,773.880865403465,0.07052472146537758,1.3564672603167853,0.5418010513664563,0.2886086375,0.5948057790887922
0.007,1.798775,1.0,864.2856735087289,0.0757383428492089,1.3548903972205835,0.5756770451231984,0.28860155,0.5983826720682924
0.0075,1.79859375,1.0,953.242993971685,0.08092271993820423,1.353406782597105,0.6065101583584713,0.2885939375,0.6017335650968194
0.008,1.7984,1.0,1040.3594894975702,0.08607801676867215,1.3520086311076955,0.6345322695057956,0.2885858,0.6048785829900712
0.0085,1.79819375,1.0,1125.318560324519,0.09120439647573807,1.3506891801618857,0.6599846029609416,0.2885771375,0.6078351368539047
0.009000000000000001,1.797975,1.0,1207.866440940077,0.09630202053665324,1.3494424960658873,0.6831046334683233,0.28856795,0.6106184373190127
0.0095,1.79774375,1.0,1287.864432508688,0.10137105183492946,1.348262491319266,0.7041178432846796,0.2885582375,0.6132437408804151
0.01,1.7975,1.0,1365.1722031931936,0.10641165047792776,1.3471443190374188,0.72323434948931,0.288548,0.6157232836736186
0.0105,1.79724375,1.0,1439.6739226100917,0.11142397488542856,1.3460837658677596,0.7406467143592981,0.2885372375,0.6180676881466511
0.011,1.796975,1.0,1511.3169082251022,0.11640818347721224,1.3450766184577025,0.7565292897136355,0.28852595000000003,0.620287396026139
0.0115,1.79669375,1.0,1580.1037533742133,0.12136443455247745,1.344118689245668,0.7710388229946059,0.2885141375,0.6223926266321536
0.012,1.7964,1.0,1646.050183811951,0.12629288536800207,1.3432062448660282,0.7843157347328994,0.28850180000000003,0.6243924537147956
0.0125,1.79609375,1.0,1709.1678753276042,0.13119369164958178,1.342336104855121,0.7964854574076184,0.2884889375,0.6262946151550497
0.013000000000000001,1.7957750000000001,1.0,1769.4884691075165,0.1360670080055799,1.341505276920782,0.8076596681164664,0.28847555,0.6281063323828444
0.0135,1.79544375,1.0,1827.0629507542853,0.14091298827815144,1.3407109125718908,0.8179376738206275,0.2884616375,0.6298344198164203
0.014,1.7951000000000001,1.0,1881.9746135593246,0.14573178733620662,1.3399501230817348,0.8274076828568699,0.2884472,0.6314856945686014
0.0145,1.79474375,1.0,1934.2849436860497,0.15052355727982467,1.3392205387917275,0.83614824832519,0.2884322375,0.6330657718808995
0.015,1.794375,1.0,1984.0536034650715,0.1552884487320247,1.3385200374630954,0.8442292763380267,0.28841675,0.6345796691198484
0.0155,1.79399375,1.0,2031.3586639507123,0.16002661231582568,1.3378464968570645,0.8517129531541504,0.2884007375,0.6360323487289845
0.016,1.7936,1.0,2076.2903517420364,0.1647381982282613,1.337197843394672,0.8586546718624603,0.2883842,0.6374286173787698
0.0165,1.7931937500000001,1.0,2118.939915538475,0.16942335615668644,1.3365721492391782,0.8651038662676787,0.2883671375,0.6387729220552307
0.017,1.792775,1.0,2159.396244810534,0.1740822351550448,1.3359676461296006,0.8711047182908275,0.28834955,0.6400693263843605
0.0175,1.7923437500000001,1.0,2197.728034043119,0.17871498133259314,1.3353828870877744,0.8766968187606577,0.2883314375,0.6413211704358073
0.018000000000000002,1.7919,1.0,2234.013437637825,0.18332174079858807,1.3348164251355352,0.8819156178691808,0.2883128,0.6425317648579737
0.0185,1.79144375,1.0,2268.3392785942256,0.18790265966228625,1.3342668132947186,0.8867929087808426,0.2882936375,0.6437043926332708
0.019,1.790975,1.0,2300.7855006243853,0.19245788235999894,1.3337327511412733,0.8913572867212566,0.28827395,0.64484199877448
0.0195,1.79049375,1.0,2331.449732480885,0.19698755552883918,1.3332128315094514,0.8956344555847412,0.2882537375,0.6459477325173916
0.02,1.79,1.0,2360.4011573775047,0.20149182150706224,1.332705988888876,0.8996476577226572,0.288233,0.6470239954001122
0.0205,1.78949375,1.0,2387.7062116836028,0.20597082164892996,1.3322112340748047,0.9034178886229249,0.2882117375,0.6480730100589775
0.021,1.788975,1.0,2413.435838011594,0.21042469730870428,1.3317275778624957,0.9069641294118224,0.28818995000000003,0.6490969836909497
0.021500000000000002,1.78844375,1.0,2437.6651071421547,0.214853589840647,1.3312540310472072,0.9103035677506982,0.2881676375,0.6500981087849997
0.022,1.7879,1.0,2460.4627695001477,0.21925763878756932,1.3307897010430798,0.9134518108117489,0.2881448,0.6510783599611922
0.0225,1.78734375,1.0,2481.9064182311786,0.223636986082496,1.3303336420626926,0.9164230261818561,0.28812143749999997,0.652039811612235
0.023,1.786775,1.0,2502.0574288442826,0.22799177006555837,1.329885091399398,0.9192301362581221,0.28809755,0.6529841405370242
0.0235,1.78619375,1.0,2520.9692992500186,0.23232212700515378,1.329443384434694,0.9218849314663262,0.28807313749999996,0.6539128075644592
0.024,1.7856,1.0,2538.6976588708058,0.2366281931696795,1.3290078565500785,0.924398169134869,0.2880482,0.6548272650775606
0.0245,1.78499375,1.0,2555.300089507011,0.24091010482753292,1.3285778431270496,0.9267796782459399,0.2880227375,0.6557289572894642
0.025,1.784375,1.0,2570.83595599624,0.24516799824711127,1.328152679547105,0.9290384522963269,0.28799675,0.6566193204912468
0.025500000000000002,1.78374375,1.0,2585.3550275136477,0.2494020062224359,1.327731805973791,0.9311827476357578,0.2879702375,0.6574995642638948
0.026000000000000002,1.7831000000000001,1.0,2598.9212459107407,0.2536122677240167,1.32731454318205,0.9332201226877794,0.2879432,0.6583711410125187
0.0265,1.78244375,1.0,2611.5770010507053,0.25779891463281623,1.3269004248667562,0.9351575522121461,0.2879156375,0.6592350517281068
0.027,1.781775,1.0,2623.3623877927243,0.2619620777150791,1.326489015453542,0.937001456086604,0.28788755,0.660092228278625
0.0275,1.7810937500000001,1.0,2634.318404338648,0.2661018877370498,1.3260798793680415,0.9387577468946824,0.2878589375,0.6609435978039653
0.028,1.7804,1.0,2644.4868736585863,0.27021847546497274,1.3256725810358878,0.9404318767208978,0.2878298,0.6617900827851502
0.0285,1.77969375,1.0,2653.910369122413,0.2743119716650924,1.3252666848827142,0.9420288790626445,0.2878001375,0.6626326011014322
0.029,1.778975,1.0,2662.6303449018556,0.2783825062216084,1.3248617718944593,0.9435534084117004,0.28776995,0.6634720317652816
0.029500000000000002,1.7782437500000001,1.0,2670.6808379938766,0.2824302056494646,1.3244574967594027,0.9450097807249439,0.2877392375,0.6643090969280043
0.03,1.7775,1.0,2678.1110781835087,0.28645520547959763,1.3240533793309932,0.946401979298436,0.287708,0.6651447938270518
0.0305,1.77674375,1.0,2684.947818940735,0.29045763038823535,1.3236491502847996,0.9477337221566113,0.2876762375,0.6659796795916046
0.031,1.775975,1.0,2691.2181739263756,0.29443760505160543,1.3232445402963915,0.9490084608302894,0.28764395,0.6668143085732607
0.0315,1.7751937500000001,1.0,2696.9495847533663,0.29839525414593554,1.3228392800413378,0.950229402780744,0.2876111375,0.6676492323418071
0.032,1.7744,1.0,2702.169790356679,0.3023307023474534,1.3224331001952077,0.9513995316754713,0.2875778,0.6684849996763622
0.0325,1.77359375,1.0,2706.906797971343,0.30624407433238676,1.3220257314335708,0.9525216257446111,0.2875439375,0.6693221565518932
0.033,1.772775,1.0,2711.1888557184275,0.3101354947769633,1.3216169044319959,0.9535982744202978,0.28750955,0.670161246121111
0.0335,1.7719437500000002,1.0,2715.0366551388674,0.31400508749433853,1.3212064206953693,0.9546319013117888,0.2874746375,0.6710026635971602
0.034,1.7711000000000001,1.0,2718.455143201728,0.31785297262784823,1.3207942266899508,0.9556247846992918,0.2874392,0.6718465054923356
0.0345,1.7702437500000001,1.0,2721.540393513307,0.32167927871959456,1.3203794404386466,0.9565789647269408,0.2874032375,0.6726945604088638
0.035,1.7693750000000001,1.0,2724.2925401148186,0.3254841242929458,1.3199620555316933,0.9574964425808433,0.28736675,0.6735468208543801
0.035500000000000004,1.76849375,1.0,2726.71178029156,0.32926762787127034,1.3195420655593273,0.958379091498991,0.2873297375,0.6744032791392812
0.036000000000000004,1.7676,1.0,2728.798374139927,0.3330299079779363,1.3191194641117852,0.9592286664216045,0.2872922,0.6752639273756603
0.0365,1.7666940075447282,1.0,2730.5654425874786,0.33677108313631193,1.3186942447793037,0.9600468128090182,0.28725414831687857,0.6761287574762411
0.037,1.7657840449879691,1.0,2732.424592182386,0.34049127186976563,1.3182664011521192,0.9608350747074162,0.2872159298894947,0.6769977611533109
0.0375,1.7648740824312104,1.0,2734.5740541542973,0.3441905927016655,1.3178359268204685,0.9615949021342238,0.28717771146211085,0.6778709299176461
0.038,1.7639641198744516,1.0,2737.01642062788,0.3478691633158623,1.3174028013562387,0.9623276563259714,0.28713949303472697,0.6787482834541203
0.0385,1.7630541573176925,1.0,2739.723937202488,0.35152709796849557,1.3169672801122625,0.9630346429267318,0.2871012746073431,0.6796292836040642
0.039,1.7621441947609338,1.0,2742.6424968585457,0.3551645188195626,1.3165298572690822,0.9637171142979422,0.2870630561799592,0.6805129128099949
0.0395,1.761234232204175,1.0,2745.7565771920413,0.3587815385432202,1.3160906765354214,0.9643762157461884,0.28702483775257537,0.6813988654572053
0.04,1.760324269647416,1.0,2749.050641539925,0.36237826981362514,1.315649881620004,0.9650130267244719,0.2869866193251915,0.6822868374785634
0.0405,1.7594143070906572,1.0,2752.50913360872,0.36595482530493406,1.315207616231553,0.9656285653212855,0.2869484008978076,0.6831765263699683
0.041,1.7585043445338984,1.0,2756.116472559738,0.36951131769130385,1.3147640240787921,0.9662237923985479,0.2869101824704237,0.684067631204482
0.0415,1.7575943819771394,1.0,2759.8570485528444,0.37304785964689113,1.314319248870445,0.9667996154092313,0.28687196404303983,0.6849598526451508
0.042,1.7566844194203806,1.0,2763.71521874828,0.37656456384585274,1.313873434315235,0.9673568919225211,0.286833745615656,0.6858528929565049
0.0425,1.7557744568636215,1.0,2767.6765444679945,0.3800615418065577,1.3134267129224182,0.9678964317685259,0.2867955271882721,0.6867464784013012
0.043000000000000003,1.7548644943068628,1.0,2771.7329351959784,0.38353890090882375,1.3129791596154408,0.9684189959008108,0.28675730876088823,0.6876404516786112
0.043500000000000004,1.753954531750104,1.0,2775.8652667744595,0.3869967603319129,1.3125309485930508,0.9689253146464022,0.28671909033350435,0.6885344584551272
0.044,1.753044569193345,1.0,2780.067102867671,0.39043522678785303,1.312082139292676,0.9694160688898912,0.28668087190612046,0.6894283747911567
0.0445,1.7521346066365862,1.0,2784.331989729942,0.3938544069886722,1.3116327911517436,0.9698919041416411,0.28664265347873663,0.690322077420197
0.045,1.7512246440798274,1.0,2788.6534554563063,0.3972544076463982,1.3111829636076813,0.9703534327251944,0.28660443505135275,0.6912154437510858
0.0455,1.7503146815230683,1.0,2793.0250093119034,0.40063533547305896,1.3107327160979163,0.9708012358088923,0.28656621662396886,0.6921083518699354
0.046,1.7494047189663096,1.0,2797.4401411390822,0.40399729718068245,1.3102821080598763,0.9712358652942097,0.28652799819658503,0.6930006805418343
0.0465,1.7484947564095508,1.0,2801.8923208431543,0.4073403994812965,1.3098311989309883,0.9716578455721937,0.28648977976920115,0.6938923092123289
0.047,1.7475847938527918,1.0,2806.3749979566496,0.4106647490869291,1.3093800481486801,0.9720676751583921,0.28645156134181726,0.6947831180086746
0.0475,1.746674831296033,1.0,2810.8816012814996,0.4139704527096082,1.308928715150379,0.9724658282157469,0.2864133429144334,0.6956729877408674
0.048,1.745764868739274,1.0,2815.4134788525876,0.4172575998073386,1.308477188309394,0.972852748794092,0.2863751244870495,0.6965619397089626
0.0485,1.7448549061825152,1.0,2819.957156534236,0.4205263193376315,1.308025588587874,0.9732288738711964,0.28633690605966566,0.6974497346144573
0.049,1.7439449436257564,1.0,2824.510648242676,0.42377671104503695,1.307573933908412,0.9735946089823977,0.2862986876322818,0.6983363366712494
0.0495,1.7430349810689973,1.0,2829.0719662187753,0.42700887466237775,1.3071222421510234,0.9739503406569424,0.2862604692048979,0.6992217103830618
0.05,1.7421250185122386,1.0,2833.6391162557093,0.4302229099224766,1.306670531195723,0.9742964374857158,0.286222250777514,0.7001058204596082
0.0505,1.7412150559554798,1.0,2838.210097687905,0.4334189165581563,1.3062188189225263,0.9746332511157019,0.2861840323501301,0.7009886318166232
0.051000000000000004,1.7403050933987207,1.0,2842.782903387308,0.4365969943022396,1.3057671232114485,0.9749611171807419,0.2861458139227463,0.7018701095758766
0.051500000000000004,1.739395130841962,1.0,2847.355519765636,0.43975724288754925,1.305315461942505,0.9752803561732007,0.2861075954953624,0.7027502190651621
0.052000000000000005,1.7384851682852032,1.0,2851.9259267854927,0.442899762046908,1.3048638529957106,0.9755912742607857,0.2860693770679785,0.7036289258182709
0.0525,1.7375752057284441,1.0,2856.4920979767935,0.44602465151313864,1.304412314251081,0.9758941640524184,0.28603115864059464,0.7045061955749397
0.053,1.7366652431716854,1.0,2861.0520004614564,0.4491320110190639,1.3039608635886313,0.976189305316749,0.28599294021321076,0.7053819942807829
0.0535,1.7357552806149266,1.0,2865.6035949845723,0.45222194029750656,1.3035095188883767,0.9764769656566347,0.2859547217858269,0.7062562880872005
0.054,1.7348453180581676,1.0,2870.14483595287,0.4552945390812894,1.3030582980303325,0.9767574011426258,0.28591650335844304,0.7071290433512698
0.0545,1.7339353555014088,1.0,2874.676362549245,0.45834988567504503,1.3026071950593685,0.9770308533865946,0.28587828493105916,0.7080002726348893
0.055,1.7330253929446497,1.0,2879.1953223314567,0.46138809877815035,1.3021562349414493,0.9772975595419298,0.28584006650367527,0.7088699288456879
0.0555,1.732115430387891,1.0,2883.7001142955046,0.4644092823734082,1.30170543149848,0.9775577447162743,0.2858018480762914,0.7097379866209057
0.056,1.7312054678311322,1.0,2888.1904647708143,0.46741352812883985,1.3012547867817346,0.9778116228198006,0.28576362964890756,0.7106044433708281
0.0565,1.7302955052743731,1.0,2892.666099530678,0.47040092771246644,1.3008043028424865,0.9780593989637832,0.2857254112215237,0.7114692965288446
0.057,1.7293855427176144,1.0,2897.126743799957,0.47337157279230924,1.3003539817320096,0.978301269894422,0.2856871927941398,0.7123325435514276
0.0575,1.7284755801608556,1.0,2901.5721222620696,0.47632555503638946,1.2999038255015773,0.9785374244018816,0.28564897436675596,0.7131941819181105
0.058,1.7275656176040965,1.0,2906.0019590662723,0.4792629661127283,1.2994538362024637,0.9787680437061558,0.285610755939372,0.714054209131467
0.0585,1.7266556550473378,1.0,2910.4159778360886,0.48218389768934694,1.2990040158859422,0.9789933018212411,0.2855725375119882,0.7149126227170894
0.059000000000000004,1.725745692490579,1.0,2914.813901675691,0.4850884414342666,1.2985543666032864,0.9792133658990052,0.2855343190846043,0.7157694202235666
0.059500000000000004,1.72483572993382,1.0,2919.195453178652,0.48797668901550856,1.29810489040577,0.9794283965540298,0.2854961006572204,0.7166245992224615
0.06,1.7239257673770612,1.0,2923.5603544353608,0.4908487321010939,1.2976555893446668,0.979638548170625,0.2854578822298366,0.7174781573082878
0.0605,1.7230158048203021,1.0,2927.908327040774,0.49370466235904403,1.2972064654712505,0.9798439691931234,0.2854196638024527,0.7183300920984897
0.061,1.7221058422635434,1.0,2932.2390921028664,0.49654457145738,1.2967575208367945,0.9800448024004863,0.2853814453750688,0.7191804012334166
0.0615,1.7211958797067846,1.0,2936.552370250364,0.4993685510641231,1.296308757492573,0.9802411851661839,0.28534322694768494,0.7200290823762998
0.062,1.7202859171500255,1.0,2940.847881641147,0.5021766928472945,1.2958601774898588,0.9804332497042472,0.28530500852030105,0.720876133213231
0.0625,1.7193759545932668,1.0,2945.12597787356,0.5049690466127444,1.2954117773504255,0.9806211198816756,0.2852667900929172,0.7217215618707356
0.063,1.718465992036508,1.0,2949.386583329043,0.5077457281424578,1.294963557343734,0.9808049201175032,0.28522857166553334,0.7225653693849803
0.0635,1.717556029479749,1.0,2953.6293627150453,0.5105068594826335,1.2945155200093703,0.9809847707964989,0.28519035323814945,0.7234075525306447
0.064,1.7166460669229902,1.0,2957.854462961348,0.513252522702758,1.2940676636709239,0.9811607847969545,0.28515213481076557,0.7242481160176162
0.0645,1.7157361043662314,1.0,2962.062031765707,0.5159827998723172,1.2936199866519835,0.9813330709353595,0.2851139163833817,0.7250870645359981
0.065,1.7148261418094723,1.0,2966.2522175872577,0.5186977730607975,1.2931724872761385,0.9815017341422481,0.28507569795599785,0.72592440275613
0.0655,1.7139161792527136,1.0,2970.4251696394035,0.5213975243376848,1.2927251638669777,0.9816668756292048,0.28503747952861397,0.7267601353286068
0.066,1.7130062166959545,1.0,2974.581037884031,0.5240821357724654,1.29227801474809,0.9818285930475352,0.2849992611012301,0.7275942668842964
0.0665,1.7120962541391958,1.0,2978.7199730242137,0.5267516894346255,1.2918310382430644,0.981986980639075,0.2849610426738462,0.7284268020343593
0.067,1.711186291582437,1.0,2982.8421264983463,0.529406267393651,1.2913842326754903,0.9821421293795786,0.28492282424646237,0.7292577453702671
0.0675,1.710276329025678,1.0,2986.9476504732474,0.5320459517190284,1.2909375963689562,0.9822941271151031,0.2848846058190785,0.7300871014638212
0.068,1.7093663664689192,1.0,2991.036697838385,0.5346708244802435,1.2904911276470514,0.9824430586917772,0.2848463873916946,0.7309148748671699
0.0685,1.7084564039121604,1.0,2995.1094221991693,0.5372809677467827,1.290044824833365,0.9825890060793155,0.2848081689643107,0.7317410701128274
0.069,1.7075464413554013,1.0,2999.1659778711014,0.539876463588132,1.2895986862514857,0.9827320484886279,0.2847699505369269,0.7325656917136913
0.0695,1.7066364787986426,1.0,3003.2065198731525,0.5424573940737776,1.2891527102250029,0.9828722624838386,0.284731732109543,0.7333887441630597
0.07,1.7057265162418838,1.0,3007.2312039223148,0.5450238412732057,1.2887068950775054,0.9830097220890202,0.2846935136821591,0.7342102319346502
0.07050000000000001,1.7048165536851247,1.0,3011.2401864271383,0.5475758872559023,1.288261239132582,0.9831444988899247,0.28465529525477523,0.7350301594826159
0.07100000000000001,1.703906591128366,1.0,3015.2336244819585,0.5501136140913537,1.287815740713822,0.9832766621309805,0.28461707682739135,0.7358485312415626
0.07150000000000001,1.702996628571607,1.0,3019.211675861008,0.552637103849046,1.2873703981448146,0.9834062788078028,0.2845788584000075,0.7366653516265649
