Time [s],Phi [rad],STIM [ ],Fsee [N],Gamma [ ],Lcerel [ ],q [ ],Lmtc [m],fisomrel [ ]
0.0,1.8,1.0,17.970218177483535,5.909681950198328e-05,1.3793394034108717,0.005000917835757901,0.288653,0.5411403603950381
0.0005,1.79999375,1.0,18.295913047352823,0.005667974641889688,1.3793002590557133,0.013077378620876746,0.2886527375,0.541235055740653
0.001,1.799975,1.0,21.674057845025512,0.011245391094375315,1.3789326192570177,0.035864873431220023,0.28865195,0.5421239479050257
0.0015,1.79994375,1.0,31.20272622923363,0.016791522651272952,1.3780348430100566,0.070952251252439,0.2886506375,0.544290999586613
0.002,1.7999,1.0,53.871078165312014,0.02230654479516923,1.3763494281051287,0.11513281712498669,0.2886488,0.5483453697861689
0.0025,1.79984375,1.0,97.60483440380159,0.02779063202482562,1.373911782267448,0.16502603418524958,0.28864643749999996,0.5541772292142237
0.003,1.7997750000000001,1.0,161.59088416652614,0.03324395786243979,1.3711906837725674,0.2177458153961434,0.28864354999999997,0.5606424626289984
0.0035,1.79969375,1.0,238.39848545335835,0.038666694853600636,1.3685627221462542,0.2710757056241585,0.2886401375,0.5668415811356602
0.004,1.7996,1.0,322.22778491383474,0.044059014577971074,1.3661359479682926,0.32336391060729286,0.2886362,0.5725270012926011
0.0045000000000000005,1.7994937500000001,1.0,410.0559146850648,0.04942108765450151,1.3639043218545301,0.37345986407631687,0.2886317375,0.5777220807895235
0.005,1.799375,1.0,500.2177995909443,0.05475308373277373,1.3618412580115853,0.4206454025433248,0.28862675,0.582496505103933
0.0055,1.79924375,1.0,591.6018812884172,0.0600551715377654,1.3599229864365785,0.464542123974252,0.2886212375,0.5869114918194343
0.006,1.7991000000000001,1.0,683.3306297475632,0.06532751881952993,1.3581316496637803,0.5050185377167239,0.2886152,0.591013142567281
0.006500000000000001,1.79894375,1.0,774.6916733346338,0.07057029240679707,1.3564534229133793,0.5421103009219654,0.2886086375,0.5948372362670139
0.007,1.798775,1.0,865.0856714400347,0.07578365815951797,1.3548774776784627,0.5759588764879245,0.28860155,0.5984119127441716
0.0075,1.79859375,1.0,954.0304845351853,0.0809677810366291,1.3533946726775379,0.6067664746283888,0.2885939375,0.6017608588110199
0.008,1.7984,1.0,1041.1323700378675,0.0861228252294137,1.3519972541171361,0.6347651469794299,0.2885858,0.6049041233864678
0.0085,1.79819375,1.0,1126.066910400466,0.09124895351439086,1.3506785880573213,0.660196201770855,0.2885771375,0.6078588261419755
0.009000000000000001,1.797975,1.0,1208.6049016609466,0.09634632808821351,1.349432407278812,0.6832968473676173,0.28856795,0.6106409207376737
0.0095,1.79774375,1.0,1288.5850941201572,0.10141511101347843,1.348252956269828,0.7042926294809184,0.2885582375,0.6132649185246342
0.01,1.7975,1.0,1365.8517409148842,0.10645546184695727,1.3471355862438306,0.7233936101245393,0.288548,0.6157426172294391
0.0105,1.79724375,1.0,1440.3181100793245,0.11146754000832551,1.3460757043092921,0.7407919900414861,0.2885372375,0.61808548114422
0.011,1.796975,1.0,1511.943204809941,0.11645150420051623,1.3450689687531066,0.7566619093732578,0.28852595000000003,0.6203042308790421
0.0115,1.79669375,1.0,1580.723346804788,0.12140751301542783,1.344111287931962,0.7711600242800095,0.2885141375,0.6224088696358618
0.012,1.7964,1.0,1646.6442917568763,0.12633572240168242,1.3431992915491704,0.7844267798515302,0.28850180000000003,0.6244076730872052
0.0125,1.79609375,1.0,1709.7270069963643,0.1312362880268315,1.3423296828064255,0.7965874203063311,0.2884889375,0.6263086360639417
0.013000000000000001,1.7957750000000001,1.0,1770.0177941882432,0.13610936497855436,1.3414993017061911,0.8077534364494801,0.28847555,0.6281193460911475
0.0135,1.79544375,1.0,1827.584463203055,0.1409551085514934,1.340705119027825,0.8180239692301303,0.2884616375,0.6298470085084045
0.014,1.7951000000000001,1.0,1882.4806988532407,0.14577367169748412,1.3399445835249142,0.8274872689293362,0.2884472,0.6314977045027826
0.0145,1.79474375,1.0,1934.7616017948017,0.1505652060704096,1.3392153923461447,0.836221826684538,0.2884322375,0.6330769055977394
0.015,1.794375,1.0,1984.503369342192,0.15532986332415288,1.3385152426402034,0.8442974103782752,0.28841675,0.6345900207278197
0.0155,1.79399375,1.0,2031.7874228402704,0.16006779419503145,1.3378419795012944,0.8517761336911137,0.2884007375,0.636042081908951
0.016,1.7936,1.0,2076.712753775261,0.16477915005885957,1.3371934414229483,0.8587133101428316,0.2883842,0.6374380837415459
0.0165,1.7931937500000001,1.0,2119.353576281353,0.16946407929196117,1.336567881958883,0.8651583828896099,0.2883671375,0.6387820817401509
0.017,1.792775,1.0,2159.7832324732926,0.17412272928142303,1.3359636915632125,0.8711555335647517,0.28834955,0.6400777995893452
0.0175,1.7923437500000001,1.0,2198.086042029539,0.17875524741433194,1.33537926069005,0.8767442642463125,0.2883314375,0.6413289269738375
0.018000000000000002,1.7919,1.0,2234.349034443467,0.18336178026388225,1.3348130534582763,0.8819599669230865,0.2883128,0.6425389643939587
0.0185,1.79144375,1.0,2268.6650716099625,0.1879424748767,1.3342635649691688,0.886834392539801,0.2882936375,0.6437113173919079
0.019,1.790975,1.0,2301.1149081079843,0.1924974763883703,1.3337294900178955,0.8913961124922065,0.28827395,0.6448489397078934
0.0195,1.79049375,1.0,2331.7667730700455,0.19702692766640809,1.3332097135213556,0.8956708780862359,0.2882537375,0.6459543584662504
0.02,1.79,1.0,2360.694633476706,0.20153097157832825,1.3327031203964477,0.8996818954977462,0.288233,0.6470300818828663
0.0205,1.78949375,1.0,2387.977714872899,0.20600975099164576,1.3322085955600702,0.9034501115735089,0.2882117375,0.6480786002423651
0.021,1.788975,1.0,2413.6876505769296,0.21046340695327787,1.3317251437784547,0.9069944896618938,0.28818995000000003,0.6491021332435062
0.021500000000000002,1.78844375,1.0,2437.9118592911236,0.21489208312876065,1.3312516577599283,0.9103321796018612,0.2881676375,0.6501031225487862
0.022,1.7879,1.0,2460.7144740248345,0.21929591906254806,1.3307872913657322,0.91347878760173,0.2881448,0.651083443465951
0.0225,1.78734375,1.0,2482.1524808972126,0.22367505268383267,1.3303312965940108,0.9164485079732817,0.28812143749999997,0.6520447528396673
0.023,1.786775,1.0,2502.2855790616886,0.228029621921807,1.329882925442908,0.9192542532550452,0.28809755,0.6529886973891224
0.0235,1.78619375,1.0,2521.1759544490633,0.23235976470566372,1.3294414299105686,0.9219077876944882,0.28807313749999996,0.6539169140895407
0.024,1.7856,1.0,2538.8871259984253,0.236665618752363,1.3290060708535467,0.9244198467384781,0.2880482,0.6548310119308387
0.0245,1.78499375,1.0,2555.4724174620223,0.2409473189781561,1.3285762242463872,0.9268002587832723,0.2880227375,0.6557323496810838
0.025,1.784375,1.0,2571.0063349938814,0.2452050051900151,1.3281510838183948,0.9290579877796387,0.28799675,0.6566226600408573
0.025500000000000002,1.78374375,1.0,2585.5317881676315,0.24943881000569765,1.32773015513198,0.9312012966017174,0.2879702375,0.6575030147231133
0.026000000000000002,1.7831000000000001,1.0,2599.0929506452712,0.25364886604296144,1.327312943749553,0.933237766029001,0.2879432,0.658374479764037
0.0265,1.78244375,1.0,2611.7351548314496,0.2578353059195642,1.3268989552335244,0.935174360258654,0.2879156375,0.6592381156480556
0.027,1.781775,1.0,2623.504791948398,0.2619982622532637,1.3264876951463047,0.9370174853273218,0.28788755,0.6600949774172629
0.0275,1.7810937500000001,1.0,2634.4492175310043,0.2661378676618176,1.3260786690503044,0.9387730412858631,0.2878589375,0.660946114765249
0.028,1.7804,1.0,2644.607558397248,0.2702542508818718,1.3256714665769547,0.9404464796723295,0.2878298,0.6617923975051514
0.0285,1.77969375,1.0,2654.033162085567,0.2743475475947749,1.3252655529705983,0.9420428183599276,0.2878001375,0.6626349491413612
0.029,1.778975,1.0,2662.7603026691722,0.278417886099525,1.324860575900787,0.943566718420699,0.28776995,0.6634745096473502
0.029500000000000002,1.7782437500000001,1.0,2670.8206353460123,0.2824653933678404,1.3244562121542927,0.945022496421938,0.2877392375,0.6643117550844664
0.03,1.7775,1.0,2678.2462975101535,0.28649019637143947,1.3240521385178867,0.9464141510572772,0.287708,0.665147358169593
0.0305,1.77674375,1.0,2685.069865061081,0.29049242208204057,1.3236480317783406,0.9477453905901568,0.2876762375,0.6659819882844588
0.031,1.775975,1.0,2691.324311028544,0.29447219747136205,1.323243568722426,0.9490196576037188,0.28764395,0.6668163114782852
0.0315,1.7751937500000001,1.0,2697.042966514127,0.2984296495111222,1.3228384261369142,0.9502401513507099,0.2876111375,0.6676509904637762
0.032,1.7744,1.0,2702.246516827137,0.3023648979099652,1.3224323992675477,0.9514098602180533,0.2875778,0.6684864410158569
0.0325,1.77359375,1.0,2706.9779968976327,0.30627807707142424,1.3220250815713126,0.952531547027015,0.2875439375,0.6693234911957573
0.033,1.772775,1.0,2711.2636525860235,0.310169310992293,1.3216162222693917,0.9536078022167801,0.28750955,0.6701626453225933
0.0335,1.7719437500000002,1.0,2715.1239758917295,0.31403872009652045,1.3212056248778257,0.9546410476932056,0.2874746375,0.6710042938356044
0.034,1.7711000000000001,1.0,2718.5796251667753,0.3178864248080554,1.3207930929126541,0.9556335449369839,0.2874392,0.6718488250622872
0.0345,1.7702437500000001,1.0,2721.6514085235367,0.3217125455508469,1.3203784298899175,0.9565874075229681,0.2874032375,0.6726966251953802
0.035,1.7693750000000001,1.0,2724.3602680976587,0.32551720274884377,1.3199614393256556,0.9575046125226897,0.28736675,0.6735480782673943
0.035500000000000004,1.76849375,1.0,2726.727265167804,0.3293005168259949,1.3195419247359084,0.9583870109013775,0.2873297375,0.6744035661226757
0.036000000000000004,1.7676,1.0,2728.7735661305687,0.33306260820624933,1.319119689636716,0.9592363370085943,0.2872922,0.6752634683870089
0.0365,1.76669375,1.0,2730.520429331975,0.33680359731355586,1.3186945375441186,0.9600542172508872,0.2872541375,0.6761281624347589
0.037,1.765775,1.0,2731.9830092876905,0.3405235996513203,1.3182663281539537,0.9608421825424474,0.28721555,0.6769979093220659
0.0375,1.76484375,1.0,2733.179220690746,0.344222735970538,1.3178348966598346,0.961601669492176,0.2871764375,0.677873018065154
0.038,1.7639,1.0,2734.1309472175667,0.34790112896045755,1.317400042724914,0.9623340253933501,0.28713679999999997,0.6787538675963738
0.0385,1.76294375,1.0,2734.849943296559,0.35155889209152313,1.3169616584498067,0.9630405244274012,0.28709663750000003,0.6796406475534058
0.039,1.761975,1.0,2735.3480003898735,0.35519613883417894,1.3165196359351283,0.9637223660105875,0.28705595,0.68053354613359
0.0395,1.7609937500000001,1.0,2735.6369420641213,0.358812982658869,1.3160738672814933,0.9643806799841155,0.2870147375,0.6814327500692632
0.04,1.76,1.0,2735.7286193176355,0.36240953703603757,1.315624244589517,0.965016531390481,0.286973,0.6823384446023494
0.0405,1.7589937500000001,1.0,2735.634906166748,0.36598591543612874,1.315170659959814,0.9656309248730676,0.2869307375,0.6832508134582119
0.041,1.757975,1.0,2735.3676954899634,0.36954223132958663,1.3147130054929996,0.9662248087323724,0.28688795,0.6841700388187602
0.0415,1.75694375,1.0,2734.938895130131,0.3730785981868555,1.3142511732896887,0.9667990786689781,0.2868446375,0.6850963012948152
0.042,1.7559,1.0,2734.3604242550014,0.3765951294783795,1.3137850554504962,0.9673545812404566,0.28680079999999997,0.686029779897733
0.0425,1.75484375,1.0,2733.6345543986595,0.3800919315253813,1.3133146317751117,0.9678921231369062,0.2867564375,0.6869704767717673
0.043000000000000003,1.753775,1.0,2732.779420712161,0.383569122787162,1.312839738054029,0.9684124579413176,0.28671155,0.6879186807853523
0.043500000000000004,1.75269375,1.0,2731.8068501420084,0.38702681455785815,1.312360267381686,0.968916302676321,0.28666613750000003,0.6888745642896734
0.044,1.7516,1.0,2730.7230902120127,0.39046511365346637,1.3118761635536513,0.9694043400023132,0.2866202,0.689838197088827
0.0445,1.75049375,1.0,2729.534390609048,0.39388412688998325,1.3113873703654935,0.9698772170723049,0.2865737375,0.690809647885405
0.045,1.7493750000000001,1.0,2728.2470019565108,0.39728396108340525,1.3108938316127807,0.9703355477237295,0.28652675,0.6917889842637881
0.0455,1.74824375,1.0,2726.867174658152,0.40066472304972894,1.310395491091082,0.9707799145143087,0.2864792375,0.6927762726732336
0.046,1.7471,1.0,2725.4011578124673,0.40402651960495084,1.3098922925959653,0.9712108706144749,0.2864312,0.6937715784107674
0.0465,1.7459437500000001,1.0,2723.855198196536,0.4073694575650675,1.3093841799229997,0.9716289415677457,0.28638263750000004,0.6947749656038678
0.047,1.744775,1.0,2722.235539319804,0.4106936437460754,1.3088710968677535,0.9720346269294304,0.28633355,0.6957864971929555
0.0475,1.74359375,1.0,2720.5484205489493,0.41399918496397115,1.308352987225795,0.9724284017931576,0.28628393750000003,0.6968062349136757
0.048,1.7424,1.0,2718.7954849442444,0.4172861764540225,1.307829836608452,0.9728107197023795,0.2862338,0.6978341571862683
0.0485,1.74119375,1.0,2716.989661051085,0.42055473772186014,1.3073015278141766,0.9731820082983175,0.2861831375,0.6988704432495945
0.049,1.739975,1.0,2715.1346596565168,0.423804970096803,1.3067680275097837,0.9735426784035218,0.28613195,0.6999151061790707
0.0495,1.73874375,1.0,2713.233667867339,0.4270369737764979,1.306229307103949,0.9738931216864263,0.2860802375,0.7009681488221788
0.05,1.7375,1.0,2711.2898696543007,0.43025084895859156,1.305685338005348,0.9742337115511528,0.286028,0.7020295731140185
0.0505,1.73624375,1.0,2709.3064455912536,0.4334466958407307,1.3051360916226555,0.9745648041503578,0.2859752375,0.7030993800677627
0.051000000000000004,1.734975,1.0,2707.286572613183,0.436624614620562,1.304581539364548,0.9748867393331642,0.28592195,0.7041775697650585
0.051500000000000004,1.73369375,1.0,2705.233423791937,0.43978470549573234,1.3040216526397,0.9751998415328802,0.2858681375,0.7052641413463827
0.052000000000000005,1.7324,1.0,2703.150168130144,0.4429270686638884,1.3034564028567874,0.9755044205988234,0.2858138,0.7063590930013366
0.0525,1.73109375,1.0,2701.039970373553,0.44605180432267694,1.3028857614244858,0.9758007725762334,0.28575893750000003,0.7074624219588951
0.053,1.729775,1.0,2698.905990841102,0.4491590126697447,1.3023096997514705,0.976089180437927,0.28570355000000003,0.7085741244776014
0.0535,1.72844375,1.0,2696.750981598866,0.45224878877911323,1.3017281929378763,0.9763699144785566,0.2856476375,0.7096941887322821
0.054,1.7271,1.0,2694.5774777978977,0.4553212125110313,1.3011412180310962,0.9766432318804181,0.2855912,0.7108225982230478
0.0545,1.7257437500000001,1.0,2692.391254261293,0.4583764184328394,1.3005487223939276,0.9769093823865779,0.2855342375,0.7119593924342407
0.055,1.724375,1.0,2690.193652500143,0.46141449879550106,1.2999506938953693,0.9771686033419572,0.28547675,0.7131045319887961
0.0555,1.72299375,1.0,2687.986011951569,0.46443554584998,1.29934712040442,0.977421122076295,0.2854187375,0.7142579767397375
0.056,1.7216,1.0,2685.769669949988,0.46743965184723985,1.298737989790079,0.9776671564071985,0.2853602,0.7154196857658885
0.0565,1.72019375,1.0,2683.545961702062,0.4704269090382442,1.2981232899213448,0.9779069151139307,0.28530113749999997,0.7165896173675822
0.057,1.718775,1.0,2681.3162202646517,0.4733974096739567,1.2975030086672164,0.9781405983838591,0.28524155,0.7177677290623539
0.0575,1.71734375,1.0,2679.0817765256056,0.476351246005341,1.2968771338966922,0.9783683982333516,0.2851814375,0.7189539775806297
0.058,1.7159,1.0,2676.843959188634,0.4792885102833607,1.2962456534787716,0.9785904989047755,0.2851208,0.7201483188614017
0.0585,1.71444375,1.0,2674.6040947610754,0.4822092947589795,1.2956085552824532,0.9788070772411358,0.2850596375,0.721350708047898
0.059000000000000004,1.7129750000000001,1.0,2672.3635075446145,0.485113691683161,1.294965827176736,0.9790183030397813,0.28499795,0.7225610994832397
0.059500000000000004,1.71149375,1.0,2670.1235196298676,0.4880017933068687,1.2943174570306186,0.979224339386498,0.2849357375,0.7237794467060905
0.06,1.71,1.0,2667.885450893559,0.4908736918810664,1.2936634327130998,0.9794253429712286,0.284873,0.7250057024462969
0.0605,1.7084937500000001,1.0,2665.650618999732,0.49372947965671765,1.2930037420931786,0.979621464386556,0.2848097375,0.7262398186205169
0.061,1.7069750000000001,1.0,2663.420339403385,0.4965692488847861,1.2923383730398539,0.9798128484100235,0.28474595,0.727481746327842
0.0615,1.7054437500000001,1.0,2661.1959253579457,0.4993930918162354,1.2916673134221244,0.9799996342712792,0.2846816375,0.728731435845409
0.062,1.7039,1.0,2658.9762280756613,0.5022010690071389,1.2909905737626697,0.980181954649933,0.2846168,0.7299887945831387
0.0625,1.70234375,1.0,2656.7620730486565,0.5049932823915612,1.2903081464123676,0.980359939468264,0.2845514375,0.73125376315885
0.063,1.7007750000000001,1.0,2654.5565605899847,0.5077698564115138,1.2896200027423292,0.980533714370801,0.28448555,0.732526320189838
0.0635,1.69919375,1.0,2652.3599421946337,0.5105308738453859,1.2889261403448566,0.9807033985439906,0.28441913750000003,0.7338063948514802
0.064,1.6976,1.0,2650.1724689601524,0.5132764174715663,1.2882265568122515,0.9808691067898001,0.2843522,0.7350939156510011
0.0645,1.69599375,1.0,2647.994391591122,0.5160065700684439,1.2875212497368163,0.9810309497174353,0.2842847375,0.7363888104265923
0.065,1.694375,1.0,2645.8259604030873,0.5187214144144078,1.2868102167108524,0.9811890339253173,0.28421675,0.7376910063465367
0.0655,1.69274375,1.0,2643.6674253265433,0.5214210332878468,1.286093455326662,0.9813434621738795,0.2841482375,0.7390004299083266
0.066,1.6911,1.0,2641.5190359117,0.5241055094671502,1.2853709631765473,0.9814943335497112,0.2840792,0.740317006937786
0.0665,1.6894437500000001,1.0,2639.381041332925,0.5267749257307066,1.28464273785281,0.9816417436215394,0.2840096375,0.7416406625881903
0.067,1.687775,1.0,2637.253690392957,0.5294293648569053,1.2839087769477522,0.9817857845885072,0.28393955,0.7429713213393863
0.0675,1.68609375,1.0,2635.137231528346,0.532068909624135,1.2831690780536755,0.981926545421184,0.2838689375,0.7443089069969114
0.068,1.6844000000000001,1.0,2633.0319128138276,0.5346936428107847,1.2824236387628822,0.9820641119957073,0.2837978,0.7456533426911129
0.0685,1.68269375,1.0,2630.9379819673745,0.5373036471952436,1.2816724566676745,0.982198567221441,0.2837261375,0.7470045508762662
0.069,1.680975,1.0,2628.8556863557683,0.5398990055559004,1.2809155293603538,0.9823299911625019,0.28365395,0.7483624533296945
0.0695,1.67924375,1.0,2626.7852729993215,0.5424798006711442,1.2801528544332221,0.9824584611534893,0.28358123749999997,0.749726971150886
0.07,1.6775,1.0,2624.7269885777055,0.545046115319364,1.2793844294785819,0.9825840519097343,0.283508,0.75109802476061
0.07050000000000001,1.67574375,1.0,2622.681079435259,0.5475980322789487,1.2786102520887348,0.9827068356323595,0.2834342375,0.7524755339000372
0.07100000000000001,1.673975,1.0,2620.647791586681,0.5501356343282873,1.2778303198559826,0.9828268821084309,0.28335995,0.7538594176298545
0.07150000000000001,1.67219375,1.0,2618.627370722854,0.5526590042457686,1.2770446303726275,0.9829442588064558,0.2832851375,0.755249594329382
0.07200000000000001,1.6704,1.0,2616.6200622169254,0.555168224809782,1.2762531812309714,0.9830590309674816,0.2832098,0.756645981695689
0.0725,1.66859375,1.0,2614.6223453066686,0.5576633495435536,1.275456004997104,0.9831712615396573,0.2831339375,0.7580484353030467
0.073,1.6667750000000001,1.0,2612.6330541359885,0.560144461585979,1.2746531124087206,0.9832810122042724,0.28305755,0.7594568489929933
0.0735,1.66494375,1.0,2610.656931173677,0.562611678819153,1.2738444593069735,0.9833883422118906,0.2829806375,0.7608712120754826
0.074,1.6631,1.0,2608.6936972149056,0.5650650745761322,1.2730300481568302,0.9834933083824466,0.2829032,0.7622914311335427
0.0745,1.6612437500000001,1.0,2606.743073539817,0.5675047221899728,1.2722098814232576,0.9835959657238926,0.2828252375,0.7637174121668878
0.075,1.659375,1.0,2604.80478190749,0.5699306949937315,1.2713839615712235,0.9836963675001922,0.28274675,0.7651490605928212
0.0755,1.65749375,1.0,2602.8785445498106,0.5723430663204646,1.2705522910656946,0.9837945652963346,0.2826677375,0.7665862812471419
