Time [s],Phi [rad],STIM [ ],Fsee [N],Gamma [ ],Lcerel [ ],q [ ],Lmtc [m],fisomrel [ ]
0.0,1.8,1.0,17.968085925342773,1.906296439713018e-05,1.3793396422811663,0.005000096359776912,0.288653,0.5411397825063673
0.0005,1.79999375,1.0,18.28038820553143,0.005628165345039847,1.3793019830256048,0.012965692599807267,0.2886527375,0.5412308854363642
0.001,1.799975,1.0,21.62871406206855,0.01120580509620466,1.3789372469265355,0.03565581447259135,0.28865195,0.5421127643231436
0.0015,1.79994375,1.0,31.0938143760738,0.016752158699235898,1.3780441101500627,0.0706663584320674,0.2886506375,0.5442686568266815
0.002,1.7999,1.0,53.63534934958311,0.02226740164381233,1.3763646966656937,0.11479440317647593,0.2886488,0.5483087216318252
0.0025,1.79984375,1.0,97.20799870546966,0.027751708435573022,1.3739308766031317,0.16465797248130193,0.28864643749999996,0.5541316949069308
0.003,1.7997750000000001,1.0,161.07424850467908,0.033205252603752296,1.3712099994914917,0.21736616521023247,0.28864354999999997,0.560596735578848
0.0035,1.79969375,1.0,237.8145911565285,0.03862820670083551,1.368580691647883,0.2706981402596077,0.2886401375,0.5667993422970923
0.004,1.7996,1.0,321.60648860070114,0.04402074231332483,1.366152392221558,0.3229983507906434,0.2886362,0.5724886022654032
0.0045000000000000005,1.7994937500000001,1.0,409.4124943800744,0.04938303006692847,1.3639194167831465,0.37311287018801464,0.2886317375,0.5776870474751737
0.005,1.799375,1.0,499.56122245640444,0.05471523961766412,1.3618552035775278,0.42032077659715894,0.28862675,0.5824643228439603
0.0055,1.79924375,1.0,590.9395052941176,0.060017539699,1.3599359224007135,0.46424157845122066,0.2886212375,0.5868817977217715
0.006,1.7991000000000001,1.0,682.6674186330343,0.06529009806585444,1.3581437008318984,0.5047423445519154,0.2886152,0.5909856172016317
0.006500000000000001,1.79894375,1.0,774.0318247646094,0.07053308154737381,1.3564646834664498,0.5418577770353585,0.2886086375,0.594811637248609
0.007,1.798775,1.0,864.437279204959,0.07574665604432348,1.354887948409984,0.5757287147996499,0.28860155,0.598388214519619
0.0075,1.79859375,1.0,953.3934817295465,0.08093098650055566,1.3534044680309452,0.6065571382615824,0.2885939375,0.601738781810474
0.008,1.7984,1.0,1040.506979800174,0.0860862369670144,1.3520064596881796,0.6345749548495622,0.2885858,0.6048834577098023
0.0085,1.79819375,1.0,1125.465754443341,0.09121257055868531,1.3506870965064939,0.6600233523796876,0.2885771375,0.607839797014812
0.009000000000000001,1.797975,1.0,1208.0260448392814,0.09631014943971837,1.3494403153099086,0.6831397247001348,0.28856795,0.6106232973090295
0.0095,1.79774375,1.0,1288.0134778692352,0.10137913497522555,1.34826051908636,0.7041497996907979,0.2885582375,0.6132481213191937
0.01,1.7975,1.0,1365.2962990140802,0.1064196875514999,1.3471427241099174,0.7232635783587915,0.288548,0.6157268147243169
0.0105,1.79724375,1.0,1439.783853038175,0.11143196640862749,1.3460823900372436,0.7406734231966575,0.2885372375,0.6180707248281543
0.011,1.796975,1.0,1511.4382839872644,0.11641613054139797,1.345075135827448,0.7565535879127403,0.28852595000000003,0.6202906589083812
0.0115,1.79669375,1.0,1580.2341447342337,0.12137233758233636,1.344117131543474,0.7710609730954322,0.2885141375,0.6223960452113887
0.012,1.7964,1.0,1646.1691420480108,0.12630074395721674,1.3432048525029077,0.7843360609096051,0.28850180000000003,0.6243955013343667
0.0125,1.79609375,1.0,1709.2777406884961,0.1312015059212886,1.3423348428857191,0.7965041324153206,0.2884889375,0.6262973703648278
0.013000000000000001,1.7957750000000001,1.0,1769.5971856227275,0.13607477853357433,1.3415040496161816,0.8076768219947703,0.28847555,0.6281090054073615
0.0135,1.79544375,1.0,1827.1678312944784,0.14092071557524602,1.340709747375031,0.8179534700252162,0.2884616375,0.6298369516697788
0.014,1.7951000000000001,1.0,1882.0726512382337,0.14573947140901858,1.339949049913369,0.8274222663937679,0.2884472,0.6314880212468039
0.0145,1.79474375,1.0,1934.370713193776,0.15053119780116722,1.3392196126973328,0.8361617563629651,0.2884322375,0.6330677753873455
0.015,1.794375,1.0,1984.1304128194438,0.15529604598432228,1.3385192185824835,0.8442417991697673,0.28841675,0.6345814370226556
0.0155,1.79399375,1.0,2031.4344155648103,0.16003416676447774,1.3378456987118483,0.8517245560444535,0.2884007375,0.6360340684371908
0.016,1.7936,1.0,2076.3732486094927,0.16474571091116488,1.3371969794675274,0.8586654139049742,0.2883842,0.6374304752486478
0.0165,1.7931937500000001,1.0,2119.027609885775,0.16943082763049974,1.3365712445588152,0.8651138336635208,0.2883671375,0.638774863954497
0.017,1.792775,1.0,2159.4707066889564,0.1740896641941349,1.3359668851877837,0.8711140326154772,0.28834955,0.6400709568151102
0.0175,1.7923437500000001,1.0,2197.7867258116885,0.17872236787372306,1.3353822925565055,0.8767055443166999,0.2883314375,0.641322442090378
0.018000000000000002,1.7919,1.0,2234.06151304859,0.18332908502967185,1.3348159421154897,0.8819237913426842,0.2883128,0.6425327962541998
0.0185,1.79144375,1.0,2268.3884990280167,0.18790996279173572,1.3342663225264753,0.8868005472613171,0.2882936375,0.6437054388540384
0.019,1.790975,1.0,2300.8528028268074,0.19246514682307383,1.3337320848326826,0.891364394498677,0.28827395,0.6448434169427015
0.0195,1.79049375,1.0,2331.5201831456116,0.19699477976059185,1.333212138632421,0.8956411103985132,0.2882537375,0.645949204936251
0.02,1.79,1.0,2360.462067790344,0.2014990042411954,1.3327053935239992,0.899653924138068,0.288233,0.6470252586735996
0.0205,1.78949375,1.0,2387.755084866687,0.20597796290179027,1.3322107591057266,0.9034238028999201,0.2882117375,0.648074016372439
0.021,1.788975,1.0,2413.4774255209572,0.2104317977911521,1.3317271758583424,0.9069697093131498,0.28818995000000003,0.6490978341742614
0.021500000000000002,1.78844375,1.0,2437.7026284687354,0.21486065006967695,1.3312536701555262,0.9103088325383522,0.2881676375,0.6500988712005544
0.022,1.7879,1.0,2460.508987584713,0.21926466200512781,1.3307892585679324,0.9134567610492925,0.2881448,0.6510792934186147
0.0225,1.78734375,1.0,2481.9529340795175,0.2236439711840698,1.3303331986648372,0.91642770025174,0.28812143749999997,0.6520407457265854
0.023,1.786775,1.0,2502.093598363365,0.22799871519306802,1.3298847480155163,0.9192345726287723,0.28809755,0.6529848629679189
0.0235,1.78619375,1.0,2520.992585756779,0.2323290316186875,1.3294431641892457,0.9218891513533791,0.28807313749999996,0.6539132703092402
0.024,1.7856,1.0,2538.71376442342,0.23663505804749338,1.3290077047553013,0.9244021783906053,0.2880482,0.6548275835830628
0.0245,1.78499375,1.0,2555.311636145651,0.24091692947892204,1.3285777346540857,0.9267834867558795,0.2880227375,0.6557291845969045
0.025,1.784375,1.0,2570.852324957305,0.2451747850037288,1.328152526237057,0.9290420597037247,0.28799675,0.6566196413400434
0.025500000000000002,1.78374375,1.0,2585.386887956409,0.24940875929819914,1.3277315084115973,0.9311861526171693,0.2879702375,0.6575001862061836
0.026000000000000002,1.7831000000000001,1.0,2598.958007765668,0.25361898451535153,1.3273142007403067,0.9332233532165464,0.2879432,0.6583718558473668
0.0265,1.78244375,1.0,2611.6095089390756,0.2578055928082043,1.3269001227857853,0.9351606319730658,0.2879156375,0.6592356815135156
0.027,1.781775,1.0,2623.3862608679565,0.26196871632977603,1.3264887941106331,0.9370044006005604,0.28788755,0.660092689158752
0.0275,1.7810937500000001,1.0,2634.334085804389,0.26610848723308506,1.32607973427745,0.9387605642923537,0.2878589375,0.6609438995329964
0.028,1.7804,1.0,2644.498899006932,0.2702250376116895,1.325672469987095,0.9404345694691321,0.2878298,0.6617903134327319
0.0285,1.77969375,1.0,2653.9226619455258,0.27431849776444284,1.3252665715656322,0.9420314500612014,0.2878001375,0.6626328361668987
0.029,1.778975,1.0,2662.6587207067096,0.27838899766423575,1.324861510751109,0.9435558450017237,0.28776995,0.6634725728077394
0.029500000000000002,1.7782437500000001,1.0,2670.723228265691,0.2824366651065301,1.3244571072294473,0.9450120942173841,0.2877392375,0.6643099029601369
0.03,1.7775046326661215,1.0,2678.3607257201597,0.28646162788678786,1.3240531806865694,0.9464042175688997,0.2877081945719771,0.6651452043587933
0.0305,1.7767653944807007,1.0,2685.9707340380996,0.29046401360120916,1.3236495513684023,0.9477359425214374,0.28767714656818943,0.6659788517188517
0.031,1.77602615629528,1.0,2693.553546113008,0.2944439492785879,1.3232462696789966,0.9490107583113669,0.28764609856440176,0.666810743426701
0.0315,1.7752869181098592,1.0,2701.092194182272,0.2984015613129556,1.3228434891906422,0.9502319193263753,0.2876150505606141,0.667640565966874
0.032,1.7745476799244382,1.0,2708.5800778815037,0.30233697403809656,1.322441268032551,0.9514024396459347,0.28758400255682637,0.6684682036656907
0.0325,1.7738084417390174,1.0,2716.0105635437085,0.30625031178779516,1.322039664333935,0.9525251251953151,0.28755295455303875,0.6692935414403269
0.033,1.7730692035535967,1.0,2723.3794639128387,0.31014169508394446,1.3216387136659191,0.9536025869292847,0.287521906549251,0.6701165110693014
0.0335,1.7723299653681759,1.0,2730.681121348521,0.31401124766991306,1.321238464794477,0.9546372626548194,0.2874908585454634,0.6709370176546159
0.034,1.7715907271827551,1.0,2737.905229773474,0.3178591023505925,1.320839008440966,0.9556314354057404,0.2874598105416757,0.6717548809394698
0.0345,1.7708514889973344,1.0,2745.0509294869485,0.32168537758931853,1.3204403492629428,0.9565872251643143,0.28742876253788807,0.6725700974625103
0.035,1.7701122508119134,1.0,2752.1173623208847,0.32549019184942674,1.3200424919179654,0.9575066148340257,0.28739771453410035,0.6733826637976372
0.035500000000000004,1.7693730126264926,1.0,2759.103671723984,0.3292736635942528,1.3196454410635907,0.958391460697848,0.2873666665303127,0.6741925765537709
0.036000000000000004,1.7686337744410718,1.0,2766.009002843632,0.33303591128713234,1.319249201357376,0.9592435019640517,0.287335618526525,0.6749998323746097
0.0365,1.767894536255651,1.0,2772.8325026098514,0.33677705339140096,1.3188537774568792,0.9600643694885771,0.28730457052273733,0.6758044279383897
0.037,1.7671552980702303,1.0,2779.5733198193348,0.34049720837039443,1.3184591740196572,0.9608555937534436,0.28727352251894966,0.6766063599576457
0.0375,1.7664160598848093,1.0,2786.2306052198683,0.34419649468744834,1.3180653957032673,0.9616186121722445,0.287242474515162,0.6774056251789669
0.038,1.7656768216993886,1.0,2792.8035115952594,0.3478750308058984,1.3176724471652672,0.9623547757862914,0.2872114265113743,0.6782022203827504
0.0385,1.7649375835139678,1.0,2799.2916389922684,0.3515329307548922,1.3172803290678043,0.9630653541379577,0.28718037850758665,0.6789961504675568
0.039,1.764198345328547,1.0,2805.6965648605355,0.3551703022603826,1.3168890243829579,0.9637515394363684,0.287149330503799,0.6797874560765853
0.0395,1.7634591071431263,1.0,2812.017479319189,0.35878728287934714,1.3164985375796439,0.9644144624951136,0.2871182825000113,0.680576134279167
0.04,1.7627198689577055,1.0,2818.2557537183993,0.3623839829438345,1.3161088536344834,0.9650551822899459,0.28708723449622364,0.6813622214728724
0.0405,1.7619806307722845,1.0,2824.412771188902,0.36596051278589314,1.315719957524097,0.965674697844611,0.2870561864924359,0.6821457538934388
0.041,1.7612413925868637,1.0,2830.4899263772763,0.36951698273757166,1.3153318342251061,0.9662739522573484,0.2870251384886483,0.68292676761553
0.0415,1.760502154401443,1.0,2836.488625185361,0.3730535031309186,1.3149444687141314,0.9668538364165146,0.2869940904848606,0.683705298553487
0.042,1.7597629162160222,1.0,2842.4102845163716,0.3765701842979825,1.314557845967794,0.9674151924323192,0.28696304248107296,0.6844813824620586
0.0425,1.7590236780306014,1.0,2848.2563320238905,0.38006713657081187,1.3141719509627146,0.9679588168090622,0.28693199447728523,0.6852550549371228
0.043000000000000003,1.7582844398451805,1.0,2854.028205867895,0.3835444702814553,1.3137867686755142,0.9684854633799538,0.28690094647349756,0.6860263514163881
0.043500000000000004,1.7575452016597597,1.0,2859.727354474253,0.38700229576196127,1.313402284082814,0.9689958460245093,0.2868698984697099,0.6867953071800867
0.044,1.756805963474339,1.0,2865.35523630013,0.39044072334437835,1.3130184821612345,0.9694906411866578,0.2868388504659222,0.6875619573516483
0.0445,1.7560667252889182,1.0,2870.913319603923,0.3938598633607552,1.3126353478873969,0.9699704902100251,0.28680780246213455,0.6883263368983621
0.045,1.7553274871034974,1.0,2876.403082220441,0.39725982614314026,1.312252866237922,0.9704360015053399,0.2867767544583469,0.6890884806320229
0.0455,1.7545882489180764,1.0,2881.8241074334,0.4006406816334025,1.3118710390316553,0.9708877481545282,0.2867457064545592,0.6898483897108284
0.046,1.7538490107326556,1.0,2887.1793831007108,0.40400255765872256,1.31148983801634,0.9713262803556971,0.28671465845077154,0.6906061250400328
0.0465,1.7531097725472349,1.0,2892.4727120996463,0.407345604208168,1.3111092278717276,0.9717521232715423,0.28668361044698387,0.6913617612661271
0.047,1.7523705343618141,1.0,2897.705342438949,0.41066992087842036,1.3107291959668068,0.9721657709947161,0.2866525624431962,0.692115327722646
0.0475,1.7516312961763933,1.0,2902.8785295574507,0.41397560726616106,1.310349729670566,0.9725676935625112,0.28662151443940853,0.6928668536141793
0.048,1.7508920579909724,1.0,2907.9935361637017,0.4172627629680717,1.3099708163519936,0.9729583383529671,0.2865904664356208,0.6936163680168324
0.0485,1.7501528198055516,1.0,2913.0516320798815,0.4205314875808337,1.3095924433800783,0.9733381313874351,0.2865594184318332,0.6943638998786767
0.049,1.7494135816201308,1.0,2918.0540940877636,0.4237818807011286,1.3092145981238088,0.9737074785466674,0.28652837042804546,0.6951094780201895
0.0495,1.74867434343471,1.0,2923.0022057803753,0.4270140419256379,1.3088372679521734,0.9740667667069246,0.28649732242425785,0.6958531311346858
0.05,1.7479351052492893,1.0,2927.897257414796,0.4302280708510431,1.3084604402341606,0.9744163648020359,0.2864662744204701,0.6965948877887367
0.0505,1.7471958670638685,1.0,2932.7405457706627,0.43342406707402575,1.308084102338759,0.9747566248168695,0.2864352264166825,0.6973347764225799
0.051000000000000004,1.7464566288784475,1.0,2937.5333740103415,0.4366021301912673,1.307708241634957,0.9750878827172157,0.2864041784128948,0.6980728253505195
0.051500000000000004,1.7457173906930268,1.0,2942.2770515443717,0.43976235979944933,1.3073328454917434,0.9754104593206859,0.2863731304091071,0.6988090627613143
0.052000000000000005,1.744978152507606,1.0,2946.9728938989547,0.44290485549525327,1.3069579012781065,0.9757246611128567,0.28634208240531944,0.6995435167185594
0.0525,1.7442389143221853,1.0,2951.6222225878923,0.44602971687536064,1.306583396363035,0.9760307810125525,0.28631103440153177,0.7002762151610527
0.053,1.7434996761367645,1.0,2956.2263649878623,0.449137043536453,1.3062093181155172,0.9763290990898502,0.2862799863977441,0.7010071859031568
0.0535,1.7427604379513435,1.0,2960.7866542169236,0.4522269350752118,1.305835653904542,0.9766198832401133,0.28624893839395643,0.7017364566351443
0.054,1.7420211997659227,1.0,2965.304429017001,0.4552994910883185,1.3054623910990975,0.9769033898171001,0.28621789039016876,0.7024640549235397
0.0545,1.741281961580502,1.0,2969.7810336396033,0.4583548111724548,1.3050895170681724,0.9771798642279586,0.2861868423863811,0.7031900082114455
0.055,1.7405427233950812,1.0,2974.217817735347,0.46139299492430197,1.3047170191807553,0.9774495414927069,0.2861557943825934,0.7039143438188622
0.0555,1.7398034852096604,1.0,2978.61613624651,0.46441414194054165,1.3043448848058348,0.9777126467705987,0.28612474637880575,0.7046370889429948
0.056,1.7390642470242397,1.0,2982.9766142199296,0.4674183356976263,1.3039731077038477,0.977969394743828,0.2860936983750181,0.7053582582680645
0.0565,1.7383250088388187,1.0,2987.2987806568735,0.4704056401294813,1.303601691183992,0.9782199900641017,0.28606265037123035,0.7060778479279972
0.057,1.737585770653398,1.0,2991.5864537120806,0.4733762145776438,1.3032306013134713,0.9784646354618661,0.28603160236744274,0.7067959261067303
0.0575,1.7368465324679772,1.0,2995.8403061125264,0.47633014740164076,1.302859831553585,0.9787035206436698,0.286000554363655,0.7075125077529785
0.058,1.7361072942825564,1.0,3000.061013417429,0.4792675269609992,1.302489375365633,0.9789368277166178,0.2859695063598674,0.7082276077516236
0.0585,1.7353680560971356,1.0,3004.249253971621,0.48218844161524615,1.3021192262109147,0.9791647315532837,0.28593845835607967,0.7089412409238462
0.059000000000000004,1.7346288179117146,1.0,3008.4057088613617,0.4850929797239084,1.3017493775507296,0.9793874001363084,0.285907410352292,0.7096534220272552
0.059500000000000004,1.7338895797262939,1.0,3012.5310618696767,0.4879812296465131,1.3013798228463775,0.9796049948839709,0.28587636234850433,0.7103641657560144
0.06,1.733150341540873,1.0,3016.6259994333727,0.490853279742587,1.3010105555591582,0.9798176709579169,0.28584531434471666,0.711073486740966
0.0605,1.7324111033554523,1.0,3020.6912106012046,0.4937092183716573,1.3006415691503708,0.9800255775541589,0.285814266340929,0.711781399549754
0.061,1.7316718651700316,1.0,3024.7273869923397,0.4965491338932509,1.3002728570813151,0.980228858178377,0.2857832183371413,0.7124879186869391
0.0615,1.7309326269846106,1.0,3028.7352227563165,0.4993731146668947,1.299904412813291,0.9804276509064822,0.28575217033335365,0.7131930585941171
0.062,1.7301933887991898,1.0,3032.715414533678,0.5021812490521157,1.2995362298075979,0.9806220886313345,0.285721122329566,0.7138968336500316
0.0625,1.729454150613769,1.0,3036.6686614175546,0.5049736254084409,1.2991683015255353,0.9808122992964555,0.2856900743257783,0.7145992581706837
0.063,1.7287149124283483,1.0,3040.5956649163977,0.5077503320953973,1.2988006214284031,0.9809984061175069,0.28565902632199064,0.7153003464094392
0.0635,1.7279756742429275,1.0,3044.4971289173895,0.5105114574725118,1.2984331829775007,0.9811805277922697,0.28562797831820297,0.7160001125571354
0.064,1.7272364360575065,1.0,3048.3737596510746,0.5132570898993113,1.2980659796341276,0.9813587786997936,0.28559693031441524,0.7166985707421806
0.0645,1.7264971978720858,1.0,3052.2262656568364,0.5159873177353229,1.2976990048595838,0.981533269089358,0.28556588231062763,0.7173957350306553
0.065,1.725757959686665,1.0,3056.0553577488354,0.5187022293400735,1.2973322521151687,0.9817041052598302,0.2855348343068399,0.7180916194264088
0.0655,1.7250187215012442,1.0,3059.861748984181,0.5214019130730901,1.2969657148621816,0.9818713897299803,0.2855037863030523,0.7187862378711527
0.066,1.7242794833158235,1.0,3063.6461546301057,0.5240864572938997,1.2965993865619228,0.982035221400267,0.28547273829926456,0.7194796042445508
0.0665,1.7235402451304027,1.0,3067.4092921344836,0.5267559503620292,1.2962332606756912,0.9821956957065807,0.2854416902954769,0.7201717323643111
0.067,1.7228010069449817,1.0,3071.150163243576,0.529410417288933,1.295867345385281,0.9823529013206058,0.2854106422916892,0.7208626082100347
0.0675,1.722061768759561,1.0,3074.8709564578517,0.5320500153272386,1.2955016215638233,0.9825069311816055,0.28537959428790155,0.7215522693021396
0.068,1.7213225305741402,1.0,3078.572144667072,0.5346748285363596,1.2951360848165197,0.9826578709852793,0.2853485462841139,0.722240725252475
0.0685,1.7205832923887194,1.0,3082.2540566938383,0.5372849351553451,1.2947707319934634,0.9828058032100869,0.2853174982803262,0.7229279832909368
0.069,1.7198440542032987,1.0,3085.917022468403,0.5398804134232444,1.2944055599447482,0.9829508075615497,0.28528645027653854,0.7236140506174085
0.0695,1.7191048160178777,1.0,3089.5613730156915,0.5424613415791067,1.294040565520468,0.9830929610845942,0.28525540227275087,0.7242989344017963
0.07,1.718365577832457,1.0,3093.187440443343,0.5450277978619812,1.2936757455707166,0.9832323382706045,0.2852243542689632,0.724982641784068
0.07050000000000001,1.7176263396470361,1.0,3096.7955579288923,0.547579860510917,1.2933110969455877,0.9833690111594703,0.28519330626517553,0.725665179874286
0.07100000000000001,1.7168871014616154,1.0,3100.386059708048,0.5501176077649633,1.2929466164951748,0.983503049436894,0.28516225826138786,0.7263465557526434
