Time [s],Phi [rad],STIM [ ],Fsee [N],Gamma [ ],Lcerel [ ],q [ ],Lmtc [m],fisomrel [ ]
0.0,1.8,1.0,17.966835294514343,3.387323837886283e-05,1.379339782392465,0.0050003028713855695,0.288653,0.5411394435409356
0.0005,1.79999375,1.0,18.284263067133264,0.00564289254510242,1.379301552669613,0.013006926343681089,0.2886527375,0.541231926474556
0.001,1.799975,1.0,21.643714516253738,0.011220449688318508,1.3789357154824096,0.03573309395292611,0.28865195,0.5421164653438595
0.0015,1.79994375,1.0,31.132301622990127,0.016766721146774004,1.3780408334786236,0.07077209049657057,0.2886506375,0.5442765568328686
0.002,1.7999,1.0,53.7206640565996,0.02228188240752084,1.3763591668185597,0.11491959061285725,0.2886488,0.5483219947437485
0.0025,1.79984375,1.0,97.35295137828523,0.027766107973656366,1.3739238974810593,0.1647941449295839,0.28864643749999996,0.5541483383054027
0.003,1.7997750000000001,1.0,161.26369908353584,0.03321957137181036,1.3712029128149104,0.21750663476987128,0.28864354999999997,0.5606135124927489
0.0035,1.79969375,1.0,238.0291257523527,0.03864244515191659,1.368574086728004,0.2708378447279308,0.2886401375,0.5668148679611535
0.004,1.7996,1.0,321.8350369158834,0.04403490089794797,1.3661463412395143,0.32313361740731267,0.2886362,0.5725027321330267
0.0045000000000000005,1.7994937500000001,1.0,409.6493759173493,0.04939710923311425,1.3639138580575114,0.3732412698933225,0.2886317375,0.5776999487043923
0.005,1.799375,1.0,499.8030970719842,0.05472923981103962,1.3618500651438983,0.42044090128728173,0.28862675,0.5824761809800911
0.0055,1.79924375,1.0,591.1836566653964,0.06003146136207074,1.359931153369305,0.4643527932346068,0.2886212375,0.5868927450071487
0.006,1.7991000000000001,1.0,682.9120071391047,0.0653039416393056,1.358139255748234,0.5048445480739988,0.2886152,0.590995770064098
0.006500000000000001,1.79894375,1.0,774.2699588125536,0.07054684740715031,1.3564606190699884,0.5419512792960601,0.2886086375,0.594820877079849
0.007,1.798775,1.0,864.6807077651027,0.07576034481294906,1.3548840168799927,0.5758138428672015,0.28860155,0.5983971127650544
0.0075,1.79859375,1.0,953.6254716839933,0.08094459843395435,1.3534009002839287,0.6066346314611915,0.2885939375,0.6017468229544283
0.008,1.7984,1.0,1040.7327740468083,0.08609977251609494,1.3520031357404034,0.6346453783872997,0.2885858,0.6048909197350865
0.0085,1.79819375,1.0,1125.6862154895116,0.09122603022956201,1.3506839759515525,0.660087325966039,0.2885771375,0.6078467761824329
0.009000000000000001,1.797975,1.0,1208.2345575555507,0.09632353341568363,1.3494374665028563,0.6831979057604864,0.28856795,0.6106296460588813
0.0095,1.79774375,1.0,1288.2177012923205,0.10139244390288497,1.3482578168986674,0.7042027002762093,0.2885582375,0.6132541229878006
0.01,1.7975,1.0,1365.5049256154548,0.10643292210604495,1.347140042923473,0.7233116716399464,0.288548,0.6157327506348511
0.0105,1.79724375,1.0,1439.9895333014513,0.11144512685299288,1.3460798159939995,0.7407172454031524,0.2885372375,0.6180764061274218
0.011,1.796975,1.0,1511.6266489248646,0.11642921684883191,1.3450728350283185,0.7565936593866502,0.28852595000000003,0.6202957223390271
0.0115,1.79669375,1.0,1580.411886310421,0.12138535015610158,1.3441150082820337,0.7710976400612091,0.2885141375,0.6224007049587241
0.012,1.7964,1.0,1646.3545026535103,0.12631368404286492,1.3432026830243389,0.784369578711741,0.28850180000000003,0.6244002498880586
0.0125,1.79609375,1.0,1709.4585445994505,0.13121437356169244,1.3423327661683475,0.7965348795631181,0.2884889375,0.6263019043607383
0.013000000000000001,1.7957750000000001,1.0,1769.7641673304402,0.13608757376515482,1.3415021646271734,0.8077051184789724,0.28847555,0.6281131108257492
0.0135,1.79544375,1.0,1827.322444466423,0.1409334387354405,1.3407080297219183,0.8179795525418777,0.2884616375,0.6298406839381647
0.014,1.7951000000000001,1.0,1882.2242808264932,0.14575212332216964,1.3399473901568053,0.8274463144553308,0.2884472,0.6314916196606404
0.0145,1.79474375,1.0,1934.5229806697682,0.1505437790325869,1.3392179686431496,0.8361839532441709,0.2884322375,0.6330713321097423
0.015,1.794375,1.0,1984.2809583845694,0.15530855679965594,1.3385176136306636,0.8442623299827652,0.28841675,0.6345849019827832
0.0155,1.79399375,1.0,2031.5791701291855,0.1600466075563404,1.3378441735690603,0.8517435914800761,0.2884007375,0.636037354545404
0.016,1.7936,1.0,2076.5003373435284,0.16475808127163652,1.3371956550190331,0.8586831302607325,0.2883842,0.637433323457542
0.0165,1.7931937500000001,1.0,2119.1458744996144,0.16944312838834444,1.3365700245363465,0.8651303235029466,0.2883671375,0.6387774827283261
0.017,1.792775,1.0,2159.590094109438,0.17410189631925227,1.3359656651696497,0.8711293764456854,0.28834955,0.6400735708772796
0.0175,1.7923437500000001,1.0,2197.9075755588324,0.17873453173335435,1.3353810684072267,0.8767198419024683,0.2883314375,0.6413250604401375
0.018000000000000002,1.7919,1.0,2234.1825825269625,0.18334118129964488,1.3348147257373622,0.881937136855631,0.2883128,0.6425353935886957
0.0185,1.79144375,1.0,2268.498934858136,0.18792199063003306,1.334265221409713,0.8868130487474659,0.2882936375,0.6437077862114653
0.019,1.790975,1.0,2300.9497983168467,0.19247710636799836,1.3337311245702803,0.8913761292936901,0.28827395,0.6448454607559185
0.0195,1.79049375,1.0,2331.609486669078,0.19700667216579756,1.3332112603539765,0.8956521283624883,0.2882537375,0.6459510713434773
0.02,1.79,1.0,2360.5468541362043,0.20151083026236605,1.3327045647981532,0.8996642761063313,0.288233,0.6470270170997177
0.0205,1.78949375,1.0,2387.835877623771,0.20598972289663925,1.3322099739401627,0.9034335405022347,0.2882117375,0.6480756798937386
0.021,1.788975,1.0,2413.5552254591735,0.21044349230755255,1.331726423817357,0.9069788784387322,0.28818995000000003,0.6490994251956227
0.021500000000000002,1.78844375,1.0,2437.771294300446,0.2148722782849155,1.3312530097135902,0.9103174885079564,0.2881676375,0.6501002664403321
0.022,1.7879,1.0,2460.5739251489126,0.21927622460877919,1.3307886368863104,0.9134649320845356,0.2881448,0.6510806049327063
0.0225,1.78734375,1.0,2482.0194568835395,0.22365546907223216,1.3303325645641204,0.9164354124730443,0.28812143749999997,0.6520420815959542
0.023,1.786775,1.0,2502.1638190284,0.22801014896657174,1.329884081366115,0.9192418556770282,0.28809755,0.6529862655013852
0.0235,1.78619375,1.0,2521.0653579287864,0.23234040158309516,1.3294424759113899,0.9218960379568474,0.28807313749999996,0.6539147164074404
0.024,1.7856,1.0,2538.7846336254806,0.23664636421309979,1.32900703681904,0.9244087039801062,0.2880482,0.6548289850878661
0.0245,1.78499375,1.0,2555.380217466225,0.24092817336702088,1.3285770903834,0.9267896776945526,0.2880227375,0.6557305346785045
0.025,1.784375,1.0,2570.9059772363426,0.2451859644620673,1.3281520237386126,0.9290479580440792,0.28799675,0.6566206929727456
0.025500000000000002,1.78374375,1.0,2585.431703795486,0.2494198754357404,1.3277310898549368,0.9311917689811093,0.2879702375,0.6575010610411203
0.026000000000000002,1.7831000000000001,1.0,2598.9986760483002,0.25363003821897984,1.3273138219124727,0.9332286994428484,0.2879432,0.6583726466360016
0.0265,1.78244375,1.0,2611.6492932046494,0.25781658474272523,1.3268997530913198,0.9351657209918884,0.2879156375,0.659236452260313
0.027,1.781775,1.0,2623.426980825124,0.2619796469379162,1.3264884165715773,0.937009246319922,0.28788755,0.6600934752697201
0.0275,1.7810937500000001,1.0,2634.3761016970843,0.2661193567354923,1.326079345533345,0.9387651814955956,0.2878589375,0.6609447079609228
0.028,1.7804,1.0,2644.5418715430874,0.27023584606639317,1.3256720731567229,0.9404389726929462,0.2878298,0.6617911376460528
0.0285,1.77969375,1.0,2653.962758063304,0.2743292431754217,1.3252662019554464,0.9420356565647778,0.2878001375,0.6626336028873685
0.029,1.778975,1.0,2662.6883215806447,0.2783996826079898,1.3248612383348957,0.9435598774110701,0.28776995,0.663473137205096
0.029500000000000002,1.7782437500000001,1.0,2670.7506945122072,0.28244729172469346,1.3244568548400348,0.9450159531345242,0.2877392375,0.6643104252146447
0.03,1.7775,1.0,2678.1804141850944,0.28647219692309234,1.3240527430791293,0.946407885858854,0.287708,0.6651461087464662
0.0305,1.77674375,1.0,2685.0084456885884,0.29047452460074613,1.323648594660445,0.9477393869853984,0.2876762375,0.6659808264487213
0.031,1.775975,1.0,2691.2661424714097,0.2944544011552145,1.3232441011922478,0.9490139019703798,0.28764395,0.6668152137895915
0.0315,1.7751937500000001,1.0,2696.9852090478303,0.2984119529840572,1.3228389542828036,0.9502346326994802,0.2876111375,0.6676499030535263
0.032,1.7744,1.0,2702.1972205683264,0.3023473060744588,1.3224328496078726,0.9514045580905424,0.2875778,0.6684855149673057
0.0325,1.77359375,1.0,2706.9256108406457,0.30626057798220596,1.3220255597198454,0.9525264587187663,0.2875439375,0.6693225092063786
0.033,1.772775,1.0,2711.2122043583227,0.3101519068649658,1.321616691486654,0.9536029127427046,0.28750955,0.6701616828991658
0.0335,1.7719437500000002,1.0,2715.076468853805,0.31402141255932436,1.3212060578424345,0.9546363439368581,0.2874746375,0.6710034069047277
0.034,1.7711000000000001,1.0,2718.538033923834,0.31786921490186787,1.3207934717213234,0.9556290155110766,0.2874392,0.671848050066902
0.0345,1.7702437500000001,1.0,2721.6166753260795,0.3216954337291824,1.3203787460574568,0.956583042641609,0.2874032375,0.672695979192129
0.035,1.7693750000000001,1.0,2724.3323000512833,0.3255001888778541,1.3199616937849712,0.9575004038843026,0.28736675,0.6735475590250393
0.035500000000000004,1.76849375,1.0,2726.704932171981,0.32928360018446906,1.3195421278380028,0.9583829515813626,0.2873297375,0.6744031522218159
0.036000000000000004,1.7676,1.0,2728.7546994660706,0.3330457874856134,1.3191198611506882,0.959232421360876,0.2872922,0.6752631193213184
0.0365,1.76669375,1.0,2730.5018208174247,0.33678687061787327,1.3186947066571635,0.9600504408175737,0.2872541375,0.6761278187139812
0.037,1.765775,1.0,2731.966594391147,0.3405069694178348,1.318266477291565,0.9608385374538101,0.28721555,0.6769976066084747
0.0375,1.76484375,1.0,2733.168389021925,0.34420620296097154,1.317834995049419,0.9615981466754717,0.2871764375,0.6778728186286218
0.038,1.7639,1.0,2734.119790148491,0.34788468773328274,1.317400144052638,0.9623306231208932,0.28713679999999997,0.6787536624852191
0.0385,1.76294375,1.0,2734.8345554335565,0.3515425394717271,1.3169617981829889,0.9630372398673382,0.28709663750000003,0.6796403650912188
0.039,1.761975,1.0,2735.32696994709,0.3551798732283808,1.3165198268898213,0.9637191947374774,0.28705595,0.6805331606684872
0.0395,1.7609937500000001,1.0,2735.6113522768865,0.3587968040553201,1.3160740996224851,0.9643776160746138,0.2870147375,0.6814322817214138
0.04,1.76,1.0,2735.697528066506,0.36239344676025614,1.3156245268761435,0.9650135711446198,0.286973,0.6823378763846
0.0405,1.7589937500000001,1.0,2735.605487591727,0.36596991550145763,1.3151709270642555,0.9656280584255066,0.2869307375,0.683250276573526
0.041,1.757975,1.0,2735.3413038707326,0.36952632307861155,1.3147132451259889,0.9662220311787149,0.28688795,0.6841695578516239
0.0415,1.7569488724190825,1.0,2735.1540874660477,0.3730627818086678,1.3142515326075677,0.9667963987590534,0.2868448526416015,0.6850955811664377
0.042,1.7559226887999995,1.0,2735.397040152823,0.3765794037214847,1.3137858888287024,0.9673520244806972,0.2868017529296,0.6860281121555524
0.0425,1.7548965051809167,1.0,2736.0320858817604,0.3800763005028013,1.3133166852995872,0.9678897471022618,0.2867586532175985,0.6869663734466819
0.043000000000000003,1.7538703215618336,1.0,2737.02682186751,0.3835535823678172,1.3128442173823605,0.9684103536286829,0.286715553505597,0.687909743783222
0.043500000000000004,1.7528441379427508,1.0,2738.35122267435,0.38701135925436425,1.3123687593340208,0.9689145873187932,0.2866724537935955,0.6888576472963158
0.044,1.7518179543236678,1.0,2739.976659632928,0.39044974071199406,1.311890573048568,0.9694031511598361,0.28662935408159407,0.6898095358527931
0.0445,1.750791770704585,1.0,2741.876474277814,0.3938688358842184,1.3114099027204982,0.9698767099958443,0.28658625436959256,0.6907648995140621
0.045,1.749765587085502,1.0,2744.028380868151,0.39726875248402693,1.310926952962568,0.9703358910937685,0.28654315465759106,0.6917233096983835
0.0455,1.7487394034664192,1.0,2746.4109206880207,0.40064959782817317,1.3104419209052733,0.9707812890684251,0.2865000549455896,0.6926843550530741
0.046,1.7477132198473362,1.0,2749.011786192527,0.404011474096132,1.3099549207306216,0.9712134616049343,0.2864569552335881,0.6936477905448791
0.0465,1.7466870362282534,1.0,2751.793867278043,0.4073544983159179,1.3094662911774329,0.9716329570556039,0.28641385552158666,0.6946129292885344
0.047,1.7456608526091704,1.0,2754.745246015767,0.41067877365570216,1.3089761425477981,0.9720402781494498,0.28637075580958515,0.6955795386998811
0.0475,1.7446346689900876,1.0,2757.8539944668623,0.413984403283656,1.3084845851438083,0.9724359030368236,0.2863276560975837,0.6965473875275909
0.048,1.7436084853710045,1.0,2761.108171101679,0.41727149036795064,1.3079917292675536,0.9728202867238451,0.2862845563855822,0.697516245863463
0.0485,1.7425823017519217,1.0,2764.495817489839,0.42054013807675733,1.3074976852211246,0.9731938624103436,0.2862414566735807,0.6984858851519457
0.049,1.7415561181328387,1.0,2768.0049552592563,0.42379044957824735,1.3070025633066125,0.9735570427386241,0.28619835696157925,0.6994560781988821
0.0495,1.740529934513756,1.0,2771.6235833254614,0.42702252804059193,1.3065064738261076,0.973910220959766,0.28615525724957774,0.7004265991794822
0.05,1.739503750894673,1.0,2775.339675390514,0.43023647663196235,1.3060095270817007,0.9742537720235963,0.28611215753757624,0.7013972236455163
0.0505,1.73847756727559,1.0,2779.1416092783193,0.43343239801210853,1.3055118294878965,0.9745880532828656,0.2860690578255748,0.7023677361063727
0.051000000000000004,1.737451383656507,1.0,2783.024136175018,0.43661038916621614,1.305013429833614,0.9749134013792177,0.2860259581135733,0.7033380345061704
0.051500000000000004,1.736425200037424,1.0,2786.9729448932144,0.4397705593560177,1.3045144583223065,0.9752301443659147,0.2859828584015718,0.704307859287858
0.052000000000000005,1.7353990164183413,1.0,2790.9829578411955,0.44291300612099255,1.3040149618110883,0.9755385889979779,0.28593975868957033,0.7052771141422274
0.0525,1.7343728327992585,1.0,2795.0490843901,0.4460378270006198,1.3035149871570733,0.9758390284452988,0.2858966589775689,0.7062457033515359
0.053,1.7333466491801754,1.0,2799.166220352609,0.44914511953437875,1.3030145812173757,0.9761317430130736,0.2858535592655674,0.7072135317910027
0.0535,1.7323204655610924,1.0,2803.3292475109115,0.4522349812617486,1.3025137908491093,0.9764170008180715,0.2858104595535659,0.70818050493017
0.054,1.7312942819420096,1.0,2807.5330331928185,0.45530750972220857,1.3020126629093887,0.9766950584237996,0.28576735984156443,0.7091465288341199
0.0545,1.7302680983229266,1.0,2811.7724298964217,0.4583628024552379,1.3015112442553276,0.9769661614373906,0.2857242601295629,0.7101115101645541
0.055,1.7292419147038438,1.0,2816.0422749642003,0.46140095700031586,1.3010095817440404,0.9772305450708203,0.2856811604175614,0.711075356180733
0.0555,1.7282157310847608,1.0,2820.338070645893,0.46442206882051584,1.3005077161490048,0.9774884341140524,0.28563806070555997,0.7120379863995827
0.056,1.727189547465678,1.0,2824.6602695382617,0.46742622043950416,1.3000056438899883,0.9777400402269001,0.28559496099355847,0.7129994057211528
0.0565,1.726163363846595,1.0,2828.9976230098314,0.4704135326029771,1.2995034658727451,0.9779855759026284,0.28555186128155696,0.7139594194203234
0.057,1.7251371802275122,1.0,2833.3484721028253,0.47338409616468213,1.2990011971407736,0.9782252373054697,0.2855087615695555,0.7149179977945928
0.0575,1.7241109966084291,1.0,2837.711152739996,0.4763380019783666,1.2984988527375723,0.9784592126695801,0.285465661857554,0.7158751113340343
0.058,1.7230848129893463,1.0,2842.0839956972095,0.479275340897778,1.2979964477066392,0.9786876826837968,0.28542256214555256,0.7168307307213783
0.0585,1.7220586293702633,1.0,2846.465326580283,0.48219620377666367,1.2974939970914734,0.9789108208547668,0.28537946243355106,0.7177848268320741
0.059000000000000004,1.7210324457511805,1.0,2850.8534658078383,0.485100681468771,1.2969915159355727,0.9791287938498255,0.2853363627215496,0.7187373707343446
0.059500000000000004,1.7200062621320975,1.0,2855.2467285978723,0.4879888648278474,1.2964890192824359,0.9793417618209052,0.2852932630095481,0.7196883336892199
0.06,1.7189800785130147,1.0,2859.6434249607137,0.4908608447076403,1.2959865221755613,0.9795498787106589,0.2852501632975466,0.7206376871505611
0.0605,1.7179538948939317,1.0,2864.041859696263,0.49371671196189715,1.2954840396584473,0.979753292541919,0.28520706358554515,0.7215854027650674
0.061,1.7169277112748489,1.0,2868.440332395815,0.4965565574443652,1.2949815867745922,0.9799521456915009,0.28516396387354365,0.7225314523722697
0.0615,1.7159015276557659,1.0,2872.837137450169,0.49938047200879204,1.2944791785674947,0.9801465751493325,0.28512086416154214,0.7234758080045076
0.062,1.714875344036683,1.0,2877.2305640616887,0.502188546508925,1.293976830080653,0.980336712763785,0.2850777644495407,0.7244184418868971
0.0625,1.7138491604176,1.0,2881.6188962614415,0.5049808717985114,1.2934745563575656,0.9805226854740482,0.2850346647375392,0.7253593264372771
0.063,1.7128229767985172,1.0,2886.002818800033,0.5077575147565841,1.2929723511745044,0.9807046126664474,0.28499156502553774,0.7262984740028153
0.0635,1.7117967931794342,1.0,2890.3799159818877,0.5105185862981998,1.292470235713273,0.9808826139941708,0.28494846531353624,0.7272358457328527
0.064,1.7107706095603514,1.0,2894.748602371405,0.5132641841326794,1.2919682237637748,0.9810568034059074,0.2849053656015348,0.7281714168119462
0.0645,1.7097444259412684,1.0,2899.108576100705,0.5159943912060867,1.291466317754163,0.9812272891146746,0.2848622658895333,0.7291051837207567
0.065,1.7087182423221856,1.0,2903.4595345472467,0.5187092904644857,1.2909645201125899,0.9813941754692993,0.2848191661775318,0.7300371429708237
0.0655,1.7076920587031026,1.0,2907.801174339394,0.52140896485394,1.2904628332672083,0.9815575631206045,0.28477606646553033,0.7309672911045471
0.066,1.7066658750840196,1.0,2912.1331913621448,0.5240934973205137,1.2899612596461711,0.9817175491792978,0.2847329667535288,0.7318956246951713
0.0665,1.7056396914649368,1.0,2916.4552807633654,0.5267629708102707,1.2894598016776309,0.9818742273660288,0.2846898670415273,0.7328221403467685
0.067,1.7046135078458537,1.0,2920.7671369602563,0.5294174682692747,1.2889584617897398,0.9820276881540649,0.2846467673295259,0.7337468346942202
0.0675,1.703587324226771,1.0,2925.0684536447275,0.5320570726435898,1.2884572424106513,0.9821780189049875,0.28460366761752437,0.7346697044031976
0.068,1.702561140607688,1.0,2929.3589237908045,0.5346818668792797,1.2879561459685178,0.9823253039978047,0.28456056790552287,0.7355907461701456
0.0685,1.7015349569886051,1.0,2933.63823966081,0.5372919339224081,1.2874551748914917,0.982469624951842,0.2845174681935214,0.7365099567222637
0.069,1.700508773369522,1.0,2937.906092811672,0.5398873567190393,1.286954331607726,0.9826110605437467,0.2844743684815199,0.7374273328174846
0.0695,1.6994825897504393,1.0,2942.1621741024182,0.5424682182152368,1.2864536185453734,0.9827496869189352,0.28443126876951846,0.738342871244457
0.07,1.6984564061313563,1.0,2946.4061737005095,0.5450346013570647,1.2859530381325863,0.9828855776977744,0.28438816905751696,0.7392565688225243
0.07050000000000001,1.6974302225122735,1.0,2950.6377810894965,0.5475865890905868,1.2854525927975178,0.9830188040767872,0.2843450693455155,0.7401684224017044
0.07100000000000001,1.6964040388931905,1.0,2954.856685075574,0.5501242643618669,1.2849522849683201,0.9831494349251434,0.284301969633514,0.74107842886267
0.07150000000000001,1.6953778552741077,1.0,2959.0628852373716,0.5526476881885779,1.2844521143542833,0.983277535455982,0.2842588699215125,0.7419865900490361
0.07200000000000001,1.6943516716550246,1.0,2963.2567521133924,0.5551569196563928,1.28395207743046,0.9834031685438716,0.28421577020951105,0.7428929136572897
