Time [s],Phi [rad],STIM [ ],Fsee [N],Gamma [ ],Lcerel [ ],q [ ],Lmtc [m],fisomrel [ ]
0.0,1.8,1.0,17.973175786278603,7.648156609856314e-05,1.3793390721016199,0.00500153414323162,0.288653,0.5411411619167157
0.0005,1.79999375,1.0,18.30454519405031,0.005685261873810228,1.379299300807695,0.01312610915714469,0.2886527375,0.5412373737461533
0.001,1.799975,1.0,21.695573434697977,0.011262581358594337,1.378930425124886,0.03595584173575016,0.28865195,0.5421292503656672
0.0015,1.79994375,1.0,31.251947985508032,0.016808616491707857,1.3780306601142989,0.07107652487786854,0.2886506375,0.5443010842268733
0.002,1.7999,1.0,53.97554848251358,0.022323542752661338,1.3763426720675347,0.11527983910680764,0.2886488,0.548361585398814
0.0025,1.79984375,1.0,97.77921714324847,0.027807534637226853,1.3739034038622588,0.1651858854595777,0.28864643749999996,0.5541972084828335
0.003,1.7997750000000001,1.0,161.81703143178245,0.033260765664547415,1.371182238407645,0.21791066728613126,0.28864354999999997,0.5606624550085781
0.0035,1.79969375,1.0,238.6535808810378,0.038683408377218086,1.3685548784245736,0.27123962972053944,0.2886401375,0.5668600178234943
0.004,1.7996,1.0,322.4989166842527,0.04407563435193062,1.3661287767165757,0.3235226063588267,0.2886362,0.5725437463648719
0.0045000000000000005,1.7994937500000001,1.0,410.33649022659455,0.04943761420469872,1.3638977431349248,0.37361048894098764,0.2886317375,0.577737348664886
0.005,1.799375,1.0,500.5039482513826,0.05476951758230282,1.3618351831354327,0.42078631044572484,0.28862675,0.5825105237415429
0.0055,1.79924375,1.0,591.8903969336969,0.06007151320610801,1.359917354094375,0.4646725751320847,0.2886212375,0.5869244203498224
0.006,1.7991000000000001,1.0,683.6192826909319,0.06534376882397205,1.3581264063956422,0.5051384173326895,0.2886152,0.5910251181190795
0.006500000000000001,1.79894375,1.0,774.975408485909,0.07058645126045757,1.3564485823454775,0.5422199421305021,0.2886086375,0.5948482402547811
0.007,1.798775,1.0,865.3557556628814,0.07579972618722856,1.3548731173104933,0.5760588946558837,0.28860155,0.5984217812829491
0.0075,1.79859375,1.0,954.3035698450665,0.08098375914608037,1.3533904743770877,0.606857370981034,0.2885939375,0.6017703208531152
0.008,1.7984,1.0,1041.402127011378,0.08613871377091521,1.3519932842227307,0.6348477160830434,0.2885858,0.6049130352745407
0.0085,1.79819375,1.0,1126.328260969914,0.09126475287861935,1.3506748897454333,0.660271224646241,0.2885771375,0.6078670972641207
0.009000000000000001,1.797975,1.0,1208.8621611481399,0.0963620389675799,1.3494288933456768,0.6833650026535212,0.28856795,0.6106487515791315
0.0095,1.79774375,1.0,1288.8290455069348,0.10143073357907098,1.3482497291613498,0.7043546553617381,0.2885582375,0.6132720859025719
0.01,1.7975,1.0,1366.0851881753767,0.10647099664950127,1.3471325866957777,0.7234501019681762,0.288548,0.6157492578249311
0.0105,1.79724375,1.0,1440.5431936265513,0.11148298756665166,1.3460728879701445,0.740843497033544,0.2885372375,0.6180916971046042
0.011,1.796975,1.0,1512.1719510113908,0.11646686568399513,1.3450661751988877,0.756708873514666,0.28852595000000003,0.6203103786148295
0.0115,1.79669375,1.0,1580.9409191653494,0.12142278818733643,1.3441086892793646,0.7712029913892383,0.2885141375,0.622414572584304
0.012,1.7964,1.0,1646.8480069167263,0.12635091153624295,1.3431969075977621,0.7844661708364311,0.28850180000000003,0.6244128909927715
0.0125,1.79609375,1.0,1709.9212205761155,0.13125139169051755,1.3423274523627908,0.796623576341667,0.2884889375,0.6263135056084221
0.013000000000000001,1.7957750000000001,1.0,1770.2184736818674,0.1361243846935419,1.3414970365964427,0.8077866118098536,0.28847555,0.6281242793234945
0.0135,1.79544375,1.0,1827.7821940438396,0.14097004424984869,1.3407029226284266,0.8180545001685635,0.2884616375,0.6298517809708175
0.014,1.7951000000000001,1.0,1882.6604187950493,0.14578852305153336,1.3399426165083543,0.827515474910945,0.2884472,0.6315019690097383
0.0145,1.79474375,1.0,1934.9253711413046,0.15057997379069135,1.3392136242858377,0.836247924815041,0.2884322375,0.6330807305448551
0.015,1.794375,1.0,1984.6561377020812,0.15534454797715225,1.338513614144879,0.8443215834244401,0.28841675,0.6345935364750381
0.0155,1.79399375,1.0,2031.949797677265,0.16008239772144534,1.3378402688625834,0.8517984929702959,0.2884007375,0.6360457676494176
0.016,1.7936,1.0,2076.8700200951075,0.16479367175781073,1.3371918026202692,0.8587340703852359,0.2883842,0.6374416079263184
0.0165,1.7931937500000001,1.0,2119.4932109090128,0.16947851873499278,1.3365664415969083,0.8651777276733121,0.2883671375,0.6387851734400348
0.017,1.792775,1.0,2159.9078307522905,0.1741370872347683,1.3359624183882906,0.871173581960682,0.28834955,0.6400805275213368
0.0175,1.7923437500000001,1.0,2198.198397100903,0.17876952424635892,1.3353781226641028,0.8767611220352838,0.2883314375,0.6413313610915243
0.018000000000000002,1.7919,1.0,2234.4694566630765,0.18337597860299817,1.3348118436608787,0.881975683779478,0.2883128,0.6425415476543475
0.0185,1.79144375,1.0,2268.7870259608917,0.18795659448382257,1.3342623490809555,0.8868490817116566,0.2882936375,0.6437139093969433
0.019,1.790975,1.0,2301.224347142213,0.19251151606796857,1.3337284066266712,0.8914098933868498,0.28827395,0.6448512455689515
0.0195,1.79049375,1.0,2331.8612919963903,0.19704088753457263,1.3332087840003637,0.8956838307652475,0.2882537375,0.6459563337531855
0.02,1.79,1.0,2360.778690277126,0.20154485227658767,1.3327022988417927,0.8996940766892012,0.288233,0.6470318250809517
0.0205,1.78949375,1.0,2388.0580917276225,0.2060235536553171,1.3322078144727347,0.9034615679865802,0.2882117375,0.6480802551124014
0.021,1.788975,1.0,2413.7796888467437,0.2104771347588957,1.331724254144911,0.9070052471283353,0.28818995000000003,0.6491040153443957
0.021500000000000002,1.78844375,1.0,2438.0034342204253,0.21490573487049638,1.3312507770134976,0.9103423152688173,0.2881676375,0.6501049831886292
0.022,1.7879,1.0,2460.7927277590215,0.21930949327329188,1.330786542233671,0.9134883724766466,0.2881448,0.651085023842767
0.0225,1.78734375,1.0,2482.2141313147413,0.22368854925045512,1.3303307089606071,0.9164575888994345,0.28812143749999997,0.6520459908086182
0.023,1.786775,1.0,2502.337098974443,0.22804304208515888,1.3298824363494826,0.9192628556392459,0.28809755,0.6529897263652091
0.0235,1.78619375,1.0,2521.219409291052,0.23237310803592837,1.3294410189292287,0.9219159416807398,0.28807313749999996,0.6539177775729323
0.024,1.7856,1.0,2538.9378331390308,0.23667888845051133,1.3290055929583846,0.9244275591159846,0.2880482,0.6548320146750695
0.0245,1.78499375,1.0,2555.541115254983,0.24096051799720375,1.3285755789018394,0.9268075434817723,0.2880227375,0.6557337020067637
0.025,1.784375,1.0,2571.0767326149644,0.24521813067516868,1.3281504245066453,0.9290648984528197,0.28799675,0.6566240398472847
0.025500000000000002,1.78374375,1.0,2585.5936362817847,0.24945186048356927,1.3277295775198539,0.9312078735241095,0.2879702375,0.657504221998272
0.026000000000000002,1.7831000000000001,1.0,2599.142126162042,0.25366184142156856,1.3273124856885172,0.9332440374278884,0.2879432,0.6583754359451666
0.0265,1.78244375,1.0,2611.7737325249054,0.25784820748832965,1.326898596759687,0.9351803435079847,0.2879156375,0.6592388629991952
0.027,1.781779266994762,1.0,2623.744822187361,0.2620110893016844,1.326487396804956,0.9370231924597044,0.28788772921378003,0.6600955986209287
0.0275,1.7811145953474408,1.0,2635.4520438835816,0.266150623163561,1.3260788056654726,0.9387785477308687,0.2878598130045925,0.6609458306625604
0.028,1.7804499237001195,1.0,2646.9052495478977,0.27026693981770505,1.3256727996654412,0.9404519129660309,0.287831896795405,0.6617896286928362
0.0285,1.779785252052798,1.0,2658.1076775949487,0.27436016755958964,1.32526933221452,0.9420483637210377,0.2878039805862175,0.6626271094410723
0.029,1.7791205804054766,1.0,2669.062652511873,0.2784304346846876,1.3248683567223676,0.9435725903487642,0.28777606437703,0.6634583890322339
0.029500000000000002,1.778455908758155,1.0,2679.7735822601403,0.2824778694884718,1.3244698265986428,0.9450289322004533,0.2877481481678425,0.6642835829944091
0.03,1.7777912371108338,1.0,2690.24395572577,0.28650260026641516,1.324073695253004,0.9464214083845538,0.28772023195865504,0.6651028062661453
0.0305,1.7771265654635122,1.0,2700.477340216888,0.29050475531399067,1.3236799160951094,0.947753745466803,0.2876923157494675,0.6659161732036447
0.031,1.776461893816191,1.0,2710.477157565911,0.29448445181338423,1.3232884445545154,0.9490293990712099,0.28766439954028,0.6667237934232206
0.0315,1.7757972221688694,1.0,2720.2495874681476,0.29844182776029193,1.3228992116055251,0.9502515838199105,0.2876364833310925,0.6675258263537318
0.032,1.775132550521548,1.0,2729.800479388893,0.3023770150425987,1.3225121520287517,0.95142328810006,0.287608567121905,0.6683224228118092
0.0325,1.7744678788742265,1.0,2739.135150788139,0.30629013438046016,1.3221272061788838,0.9525472915518636,0.2875806509127175,0.6691137214266164
0.033,1.7738032072269052,1.0,2748.2589942522773,0.3101813064940322,1.3217443144106091,0.9536261848048005,0.28755273470353004,0.669899860154487
0.0335,1.7731385355795837,1.0,2757.177474737896,0.31405065210347044,1.3213634170786164,0.954662384609908,0.2875248184943425,0.6706809762868471
0.034,1.7724738639322624,1.0,2765.896126895272,0.31789829192893065,1.3209844545375937,0.9556581475894548,0.287496902285155,0.6714572064579192
0.0345,1.7718091922849408,1.0,2774.4205524701197,0.3217243466905686,1.3206073671422291,0.9566155827449464,0.2874689860759675,0.6722286866521936
0.035,1.7711445206376195,1.0,2782.7564177844065,0.32552893710854,1.320232095247211,0.9575366628486551,0.28744106986678003,0.6729955522116746
0.035500000000000004,1.7704798489902982,1.0,2790.909451295819,0.32931218390300054,1.3198585792072277,0.958423234830009,0.2874131536575925,0.6737579378429006
0.036000000000000004,1.7698151773429767,1.0,2798.8854412368646,0.33307420779410596,1.3194867593769672,0.9592770292560001,0.28738523744840505,0.6745159776237368
0.0365,1.7691505056956554,1.0,2806.690233331757,0.336815129502012,1.319116576111118,0.9600996689940058,0.28735732123921753,0.6752698050099393
0.037,1.7684858340483338,1.0,2814.3297285932736,0.3405350697468744,1.3187479697643685,0.960892677135945,0.28732940503003,0.6760195528414963
0.0375,1.7678211624010125,1.0,2821.796819246063,0.34423408552430856,1.3183809974616192,0.9616574820652994,0.2873014888208425,0.6767651162479096
0.038,1.767156490753691,1.0,2829.1144484342026,0.3479123758853658,1.3180154478803416,0.9623954307224052,0.28727357261165504,0.6775069352980412
0.0385,1.7664918191063697,1.0,2836.287791726517,0.3515700581713367,1.3176512693541724,0.9631077880085103,0.2872456564024675,0.6782451246099586
0.039,1.7658271474590481,1.0,2843.320436619978,0.3552072420481268,1.3172884247352363,0.9637957445411606,0.28721774019328,0.678979768906353
0.0395,1.7651624758117268,1.0,2850.2160033158234,0.3588240371816415,1.3169268768756592,0.9644604220323246,0.28718982398409254,0.6797109525313799
0.04,1.7644978041644053,1.0,2856.978143636348,0.3624205532377862,1.3165665886275666,0.9651028780153854,0.287161907774905,0.6804387594537789
0.0405,1.763833132517084,1.0,2863.6105399724584,0.3659968998824664,1.3162075228430834,0.9657241101995959,0.2871339915657175,0.6811632732699009
0.041,1.7631684608697624,1.0,2870.116904261328,0.36955318678158744,1.315849642374335,0.9663250604849767,0.28710607535653,0.6818845772066474
0.0415,1.762503789222441,1.0,2876.500976994739,0.37308952360105485,1.3154929100734474,0.9669066186674192,0.2870781591473425,0.6826027541243229
0.042,1.7618391175751198,1.0,2882.7665262581295,0.3766060200067739,1.3151372887925454,0.9674696258608682,0.287050242938155,0.6833178865194
0.0425,1.7611744459277983,1.0,2888.9173468006293,0.38010278566465017,1.3147827413837545,0.9680148776608815,0.28702232672896755,0.684030056527195
0.043000000000000003,1.760509774280477,1.0,2894.9572591346955,0.383579930240589,1.3144292306992,0.9685431270715605,0.28699441051978003,0.6847393459244555
0.043500000000000004,1.7598451026331554,1.0,2900.8901086673786,0.3870375634004959,1.3140767195910077,0.9690550872157733,0.2869664943105925,0.6854458361318607
0.044,1.759180430985834,1.0,2906.7197648616802,0.39047579481027617,1.3137251709113025,0.9695514338467321,0.286938578101405,0.6861496082164351
0.0445,1.7585157593385126,1.0,2912.4501204284425,0.3938947341358353,1.31337454751221,0.9700328076773317,0.28691066189221753,0.6868507428938699
0.045,1.7578510876911912,1.0,2918.0850905489315,0.39729449104307885,1.3130248122458554,0.9704998165421375,0.28688274568303,0.687549320530762
0.0455,1.7571864160438697,1.0,2923.6286121283574,0.400675175197912,1.3126759279643645,0.9709530374055837,0.28685482947384255,0.6882454211467588
0.046,1.7565217443965484,1.0,2929.0846430792417,0.4040368962662404,1.3123278575198623,0.9713930182287072,0.28682691326465504,0.6889391244166219
0.0465,1.7558570727492269,1.0,2934.4571616363005,0.40737976391396935,1.3119805637644741,0.9718202797056599,0.2867989970554675,0.6896305096721967
0.047,1.7551924011019056,1.0,2939.7501657010366,0.4107038878070043,1.3116340095503256,0.9722353168802439,0.28677108084628,0.6903196559042971
0.0475,1.754527729454584,1.0,2944.962507056145,0.414009344884746,1.31128820292879,0.9726385996633452,0.28674316463709254,0.6910065520324122
0.048,1.7538630578072627,1.0,2950.100674079853,0.41729627222134963,1.3109430851869188,0.9730305782812914,0.286715248427905,0.6916913194338028
0.0485,1.7531983861599414,1.0,2955.1675740579744,0.4205647764134657,1.3105986291286464,0.9734116797413875,0.28668733221871756,0.6923740165287167
0.049,1.7525337145126199,1.0,2960.165085020074,0.4238149565445605,1.3102548166609063,0.9737823105561073,0.28665941600953004,0.6930546834780212
0.0495,1.7518690428652985,1.0,2965.095094805598,0.4270469116981004,1.309911629690631,0.9741428582097442,0.2866314998003425,0.6937333602758202
0.05,1.751204371217977,1.0,2969.959500809157,0.43026074095755173,1.3095690501247537,0.9744936922213097,0.286603583591155,0.6944100867501841
0.0505,1.7505396995706557,1.0,2974.7602097329964,0.43345654340638085,1.3092270598702076,0.9748351651388143,0.28657566738196755,0.6950849025638618
0.051000000000000004,1.7498750279233342,1.0,2979.499137347068,0.4366344181280541,1.3088856408339256,0.9751676134699414,0.28654775117278003,0.6957578472149718
0.051500000000000004,1.7492103562760128,1.0,2984.1782082566992,0.4397944642060378,1.3085447749228405,0.9754913585537086,0.28651983496359257,0.6964289600376712
0.052000000000000005,1.7485456846286913,1.0,2988.799355676225,0.4429367807237983,1.3082044440438856,0.9758067073773515,0.28649191875440505,0.6970982802028043
0.0525,1.74788101298137,1.0,2993.364521211548,0.44606146676480185,1.3078646301039938,0.9761139533423211,0.28646400254521753,0.6977658467185303
0.053,1.7472163413340485,1.0,2997.875654648665,0.44916862141251496,1.3075253150100978,0.9764133769829795,0.28643608633603,0.6984316984309314
0.0535,1.7465516696867271,1.0,3002.3347137501955,0.4522583437504039,1.3071864806691311,0.9767052466413002,0.28640817012684255,0.6990958740245967
0.054,1.7458869980394056,1.0,3006.7436640584524,0.45533073286193493,1.3068481089880264,0.9769898191006182,0.28638025391765504,0.6997584120231897
0.0545,1.7452223263920843,1.0,3011.1044787068377,0.45838588783057455,1.3065101818737168,0.9772673401812465,0.2863523377084675,0.7004193507899905
0.055,1.744557654744763,1.0,3015.4191382374943,0.4614239077397889,1.3061726812331353,0.9775380453005509,0.28632442149928006,0.7010787285284212
0.0555,1.7438929830974415,1.0,3019.6887745510517,0.4644448801369644,1.305835596369554,0.9778021593548744,0.28629650529009254,0.70173656885612
0.056,1.7432283114501201,1.0,3023.912862442293,0.46744887508107125,1.3054989309370262,0.9780598971412005,0.286268589080905,0.7023928673352491
0.0565,1.7425636398027986,1.0,3028.096661444495,0.4704360426501189,1.305162638668074,0.9783114690299449,0.2862406728717175,0.7030477167128143
0.057,1.7418989681554773,1.0,3032.2410764780225,0.4734064721414363,1.3048267109856053,0.9785570734107063,0.28621275666253004,0.7037011360640888
0.0575,1.7412342965081558,1.0,3036.3470160809784,0.4763602528523521,1.3044911393125285,0.9787969006547762,0.2861848404533425,0.7043531443882602
0.058,1.7405696248608344,1.0,3040.4153923409663,0.47929747408019535,1.3041559150717512,0.979031133503449,0.28615692424415506,0.7050037606086278
0.0585,1.739904953213513,1.0,3044.4471208277205,0.48221822512229484,1.3038210296861819,0.9792599474345332,0.28612900803496755,0.7056530035727941
0.059000000000000004,1.7392402815661916,1.0,3048.443120528406,0.48512259527597945,1.3034864745787282,0.979483511008457,0.28610109182578003,0.7063008920528537
0.059500000000000004,1.73857560991887,1.0,3052.40431378354,0.488010673838578,1.3031522411722984,0.9797019861952522,0.2860731756165925,0.7069474447455759
0.06,1.7379109382715487,1.0,3056.3316262253184,0.49088255010741927,1.3028183208898003,0.9799155286836144,0.28604525940740505,0.7075926802725827
0.0605,1.7372462666242272,1.0,3060.225986716937,0.4937383133798323,1.302484705154142,0.9801242881731576,0.28601734319821753,0.7082366171805224
0.061,1.736581594976906,1.0,3064.088327294175,0.4965780529531459,1.3021513853882314,0.9803284086508921,0.28598942698903007,0.7088792739412388
0.0615,1.7359169233295844,1.0,3067.9195831080187,0.4994018581246888,1.3018183530149765,0.9805280286529008,0.28596151077984255,0.7095206689519357
0.062,1.735252251682263,1.0,3071.7206923694703,0.50220981819179,1.3014855994572856,0.9807232815121046,0.28593359457065504,0.7101608205353354
0.0625,1.7345875800349417,1.0,3075.4925962955026,0.5050020224517783,1.3011531161380665,0.9809142955929612,0.2859056783614675,0.7107997469398349
0.063,1.7339229083876202,1.0,3079.2362390570274,0.5077785602019825,1.3008208944802273,0.9811011945138772,0.28587776215228006,0.7114374663396554
0.0635,1.7332582367402989,1.0,3082.952567728007,0.5105395207397316,1.3004889259066759,0.9812840973580654,0.28584984594309254,0.7120739968349881
0.064,1.7325935650929774,1.0,3086.642532236963,0.5132849933623543,1.3001572018403202,0.9814631188735246,0.2858219297339051,0.7127093564521341
0.0645,1.731928893445656,1.0,3090.3070853191743,0.5160150673671797,1.2998257137040685,0.981638369662784,0.28579401352471756,0.7133435631436413
0.065,1.7312642217983345,1.0,3093.947182471347,0.5187298320515363,1.2994944529208288,0.9818099563630038,0.28576609731553004,0.7139766347884359
0.0655,1.7305995501510132,1.0,3097.562893643185,0.521429353004786,1.2991634184926422,0.9819779805740747,0.2857381811063425,0.7146085747314932
0.066,1.7299348785036917,1.0,3101.1548447943496,0.5241137204913688,1.2988326046853749,0.9821425417632319,0.28571026489715506,0.7152393953346763
0.0665,1.7292702068563703,1.0,3104.7246800804246,0.5267830498881376,1.2985019971032272,0.982303737155492,0.28568234868796755,0.7158691253998244
0.067,1.7286055352090488,1.0,3108.272827053449,0.5294374211040686,1.298171591748816,0.9824616587393824,0.28565443247878003,0.7164977738328363
0.0675,1.7279408635617275,1.0,3111.7997146127937,0.5320769140481377,1.2978413846247578,0.9826163953388851,0.28562651626959257,0.7171253495051246
0.068,1.727276191914406,1.0,3115.3057729872735,0.5347016086293213,1.2975113717336695,0.9827680327445009,0.28559860006040505,0.7177518612536682
0.0685,1.7266115202670846,1.0,3118.791433718143,0.5373115847565952,1.297181549078168,0.9829166538380086,0.28557068385121753,0.7183773178810602
0.069,1.7259468486197633,1.0,3122.257129641847,0.5399069223389358,1.2968519126608697,0.9830623387112617,0.28554276764203007,0.7190017281555592
0.0695,1.7252821769724418,1.0,3125.7032948730216,0.5424877012853191,1.2965224584843917,0.9832051647793465,0.28551485143284255,0.7196251008111358
0.07,1.7246175053251205,1.0,3129.1303647889413,0.5450540015047214,1.2961931825513509,0.9833452068884093,0.2854869352236551,0.7202474445475197
0.07050000000000001,1.723952833677799,1.0,3132.5387760127314,0.5476059029061185,1.2958640808643633,0.9834825374184327,0.2854590190144676,0.720868768030247
