Time [s],Phi [rad],STIM [ ],Fsee [N],Gamma [ ],Lcerel [ ],q [ ],Lmtc [m],fisomrel [ ]
0.0,1.8,1.0,17.967612375332642,1.7920034916402168e-05,1.3793396953335844,0.0050000851931291885,0.288653,0.5411396541588758
0.0005,1.79999375,1.0,18.279572576500794,0.005627028826489407,1.3793020736180934,0.012962515984463279,0.2886527375,0.5412306662915001
0.001,1.799975,1.0,21.62707166014973,0.011204674952624597,1.378937414636828,0.03564985807818855,0.28865195,0.5421123590189945
0.0015,1.79994375,1.0,31.090365097863113,0.016751034894867393,1.3780444039087014,0.07065820805768686,0.2886506375,0.5442679485756206
0.002,1.7999,1.0,53.628279667797045,0.02226628414309859,1.3763651550988276,0.11478475194756069,0.2886488,0.5483076212609549
0.0025,1.79984375,1.0,97.19633521924239,0.02775059720315408,1.373931438398023,0.16464747271750216,0.28864643749999996,0.5541303551581171
0.003,1.7997750000000001,1.0,161.05918525254924,0.033204147604468694,1.371210563133327,0.2173553323751595,0.28864354999999997,0.5605954012061172
0.0035,1.79969375,1.0,237.79763733286669,0.03862710789972478,1.368581213735667,0.27068736499476737,0.2886401375,0.5667981150546639
0.004,1.7996,1.0,321.58849706934524,0.044019649675619874,1.3661528686516462,0.3229879167477015,0.2886362,0.5724874897263085
0.0045000000000000005,1.7994937500000001,1.0,409.3938982003752,0.049381943558055294,1.3639198532341514,0.37310296506686713,0.2886317375,0.577686034509036
0.005,1.799375,1.0,499.5422776351436,0.054714159203239854,1.3618556060976983,0.42031150922854904,0.28862675,0.5824633939275109
0.0055,1.79924375,1.0,590.9204099188889,0.06001646534485834,1.3599362954339866,0.4642329980955536,0.2886212375,0.5868809414198275
0.006,1.7991000000000001,1.0,682.648318234373,0.06528902973799486,1.3581440479907634,0.5047344590771432,0.2886152,0.5909848242627225
0.006500000000000001,1.79894375,1.0,774.0128768301965,0.07053201921222746,1.3564650068906403,0.5418505666449581,0.2886086375,0.5948109019848717
0.007,1.798775,1.0,864.4184850125035,0.07574559966731755,1.3548882519714662,0.5757221446359061,0.28860155,0.5983875274637662
0.0075,1.79859375,1.0,953.3751542543214,0.08092993605046389,1.3534047499055932,0.6065511612675598,0.2885939375,0.6017381465056285
0.008,1.7984,1.0,1040.4882858278436,0.08608519240759419,1.3520067349008509,0.6345695306462297,0.2885858,0.6048828398738587
0.0085,1.79819375,1.0,1125.4467940040986,0.09121153186006248,1.3506873648996633,0.6600184308227314,0.2885771375,0.6078391967465893
0.009000000000000001,1.797975,1.0,1208.0021578619996,0.09630911636276428,1.349440641681668,0.6831352929392552,0.28856795,0.6106225699652554
0.0095,1.79774375,1.0,1287.9877373661027,0.10137810755472344,1.3482608596877181,0.7041457866274234,0.2885582375,0.6132473648264398
0.01,1.7975,1.0,1365.2850754024046,0.10641866635062568,1.3471428683571354,0.7232598344044198,0.288548,0.6157264953723871
0.0105,1.79724375,1.0,1439.7807753768686,0.11143095125680315,1.3460824285548938,0.7406699626642627,0.2885372375,0.618070639813606
0.011,1.796975,1.0,1511.4247499189262,0.11641512077958804,1.345075301145967,0.7565504897051781,0.28852595000000003,0.6202902950861612
0.0115,1.79669375,1.0,1580.2088342709278,0.1213713329118683,1.3441174339063664,0.7710582053379503,0.2885141375,0.6223953816380662
0.012,1.7964,1.0,1646.1529358947957,0.1262997452621619,1.3432050421871085,0.7843334835499645,0.28850180000000003,0.6243950861522485
0.0125,1.79609375,1.0,1709.2681543289398,0.13120051316706038,1.3423349529979047,0.7965017388102822,0.2884889375,0.6262971299614871
0.013000000000000001,1.7957750000000001,1.0,1769.583945769677,0.13607379123335822,1.3415041990793366,0.8076746399734017,0.28847555,0.628108679882592
0.0135,1.79544375,1.0,1827.1572336689374,0.14091973374721745,1.3407098651105105,0.8179514513019338,0.2884616375,0.6298366958430414
0.014,1.7951000000000001,1.0,1882.0621983829496,0.14573849474041584,1.3399491643341022,0.8274204046905534,0.2884472,0.6314877731777602
0.0145,1.79474375,1.0,1934.3667445352912,0.15053022683059572,1.3392196555483833,0.8361600130616399,0.2884322375,0.6330676826837889
0.015,1.794375,1.0,1984.1317976565483,0.1552950807356185,1.3385192038185905,0.8442401673892581,0.28841675,0.6345814688967717
0.0155,1.79399375,1.0,2031.4367410506482,0.16003320717334565,1.3378456742099603,0.8517230407333772,0.2884007375,0.6360341212296474
0.016,1.7936,1.0,2076.3651618304502,0.164744755849906,1.3371970637448374,0.8586640402648995,0.2883842,0.6374302940110335
0.0165,1.7931937500000001,1.0,2119.0166087615808,0.16942987757918404,1.3365713580485814,0.8651125658252671,0.2883671375,0.6387746203486404
0.017,1.792775,1.0,2159.467305474218,0.17408872008062323,1.3359669199452364,0.8711128307657054,0.28834955,0.640070882342191
0.0175,1.7923437500000001,1.0,2197.7894412791593,0.1787214297105948,1.3353822650497684,0.8767044069820973,0.2883314375,0.6413225009250221
0.018000000000000002,1.7919,1.0,2234.0648113563598,0.18332815282546985,1.3348159089771432,0.8819227281684262,0.2883128,0.6425328670146983
0.0185,1.79144375,1.0,2268.3840043066525,0.18790903578161963,1.3342663673423265,0.8867995731282006,0.2882936375,0.6437053433155766
0.019,1.790975,1.0,2300.825265545103,0.19246422275041478,1.3337323574574615,0.8913635380792095,0.28827395,0.6448428366896848
0.0195,1.79049375,1.0,2331.4874970603796,0.19699386068876978,1.3332124600963282,0.8956403209859046,0.2882537375,0.6459485218002324
0.02,1.79,1.0,2360.434086591634,0.20149809121793358,1.3327056670234558,0.8996531744682776,0.288233,0.6470246783497364
0.0205,1.78949375,1.0,2387.733170343357,0.20597705593200066,1.3322109720792001,0.9034230867393295,0.2882117375,0.6480735651472989
0.021,1.788975,1.0,2413.457434135197,0.21043089642506552,1.3317273691039166,0.9069690325009819,0.28818995000000003,0.6490974253424548
0.021500000000000002,1.78844375,1.0,2437.6837288057727,0.21485975429122262,1.331253851937961,0.910308193740267,0.2881676375,0.6500984871692072
0.022,1.7879,1.0,2460.475636129431,0.21926376843720582,1.3307895778622287,0.9134561858620146,0.2881448,0.6510786198269405
0.0225,1.78734375,1.0,2481.920502538174,0.2236430820101313,1.3303335078079785,0.916427156136442,0.28812143749999997,0.6520400944492225
0.023,1.786775,1.0,2502.0720535188675,0.2279978319101049,1.3298849525562928,0.919234039821269,0.28809755,0.6529844326432794
0.0235,1.78619375,1.0,2520.984030102066,0.23232815463670534,1.3294432451091225,0.9218886254115377,0.28807313749999996,0.6539131002932738
0.024,1.7856,1.0,2538.712309448033,0.23663418668951136,1.3290077184684195,0.9244016684928383,0.2880482,0.654827554809328
0.0245,1.78499375,1.0,2555.314725028448,0.24091606456810172,1.328577705636135,0.9267829964727147,0.2880227375,0.6557292454046347
0.025,1.784375,1.0,2570.8488070022277,0.24517392427345433,1.32815255918583,0.9290416045521648,0.28799675,0.6566195723845354
0.025500000000000002,1.78374375,1.0,2585.3643249202273,0.2494078996617928,1.3277317191400093,0.9311857483474384,0.2879702375,0.6574997457574427
0.026000000000000002,1.7831000000000001,1.0,2598.9292366888467,0.2536181287979784,1.3273144687466452,0.9332229784785239,0.2879432,0.6583712963938184
0.0265,1.78244375,1.0,2611.5833128110366,0.25780474277267235,1.3269003662143009,0.9351602727113757,0.2879156375,0.6592351740081506
0.027,1.781775,1.0,2623.3673170013803,0.26196787267653593,1.3264889697515392,0.9370040493547706,0.28788755,0.6600923234393449
0.0275,1.7810937500000001,1.0,2634.3229222201926,0.26610764960023037,1.3260798375669234,0.9387602195668316,0.2878589375,0.6609436847331915
0.028,1.7804,1.0,2644.4926310356586,0.2702242046344169,1.3256725278690162,0.9404342341361149,0.2878298,0.661790193212388
0.0285,1.77969375,1.0,2653.919700312919,0.2743176688697567,1.3252665988663808,0.9420311253808202,0.2878001375,0.6626327795341103
0.029,1.778975,1.0,2662.6423982044716,0.2783881707853474,1.3248616609673975,0.9435555510661439,0.28776995,0.6634722615864275
0.029500000000000002,1.7782437500000001,1.0,2670.70281112054,0.28243584247986553,1.3244572948449767,0.945011818517036,0.2877392375,0.6643095147381375
0.03,1.7775,1.0,2678.1339882415905,0.2864608116120171,1.3240531690992232,0.9464039281664373,0.287708,0.6651452283059638
0.0305,1.77674375,1.0,2684.9656763210473,0.29046320389419805,1.3236489866270864,0.947735593688685,0.2876762375,0.6659800173955996
0.031,1.775975,1.0,2691.2280024757233,0.29444314503880437,1.323244450325515,0.9490102626281631,0.28764395,0.6668144940489659
0.0315,1.7751937500000001,1.0,2696.9514383520927,0.298400760758232,1.322839263091458,0.9502311387903715,0.2876111375,0.6676492672403199
0.032,1.7744,1.0,2702.166766249687,0.30233617676487695,1.3224331278218646,0.9514012024877534,0.2875778,0.6684849428667383
0.0325,1.77359375,1.0,2706.901760474132,0.3062495165414245,1.32202577741323,0.95252323179831,0.2875439375,0.6693220621218267
0.033,1.772775,1.0,2711.1818237921525,0.3101409028149919,1.3216169685650738,0.9535998186035337,0.28750955,0.6701611145759321
0.0335,1.7719437500000002,1.0,2715.043665941904,0.31401046739729244,1.3212063568003485,0.9546333718206077,0.2874746375,0.6710027944867578
0.034,1.7711000000000001,1.0,2718.5059627711003,0.3178583297701299,1.3207937638239906,0.955626156218061,0.2874392,0.6718474524605795
0.0345,1.7702437500000001,1.0,2721.5875322664756,0.3216846094153081,1.320379011340937,0.9565802884136937,0.2874032375,0.6726954371562619
0.035,1.7693750000000001,1.0,2724.307320422437,0.3254894258146308,1.3199619210561242,0.9574977482977,0.28736675,0.6735470952617173
0.035500000000000004,1.76849375,1.0,2726.684387814368,0.3292728984499018,1.319542314674489,0.9583803894484623,0.2873297375,0.6744027714683352
0.036000000000000004,1.7676,1.0,2728.7378968767093,0.33303514680292506,1.3191200139009676,0.9592299486403105,0.2872922,0.6752628084433874
0.0365,1.76669375,1.0,2730.487099886149,0.33677629035550416,1.3186948404404972,0.9600480545317955,0.2872541375,0.6761275468004018
0.037,1.765775,1.0,2731.951327649335,0.34049644858944306,1.3182666159980143,0.9608362356135197,0.28721555,0.6769973250675143
0.0375,1.76484375,1.0,2733.1492366417165,0.34419573994656727,1.3178351690207553,0.9615959279237926,0.2871764375,0.677872465987079
0.038,1.7639,1.0,2734.0959302377564,0.34787427740160903,1.3174003607473788,0.9623284832769331,0.28713679999999997,0.6787532238438578
0.0385,1.76294375,1.0,2734.813203403587,0.3515321870934777,1.316961992075871,0.9630351702335296,0.28709663750000003,0.6796399731482636
0.039,1.761975,1.0,2735.3120222677667,0.3551695818989928,1.3165199626139679,0.9637171894265283,0.28705595,0.6805328866927691
0.0395,1.7609937500000001,1.0,2735.60338408921,0.3587865746949737,1.3160741719694056,0.9643756718361495,0.2870147375,0.681432135886016
0.04,1.76,1.0,2735.6983129517166,0.3623832783582401,1.3156245197499197,0.9650116835720488,0.286973,0.6823378907290579
0.0405,1.7589937500000001,1.0,2735.607855682247,0.36595980576561127,1.3151709055632461,0.9656262302782662,0.2869307375,0.6832503197909547
0.041,1.757975,1.0,2735.343077992662,0.36951626979390695,1.3147132290171213,0.9662202611943839,0.28688795,0.6841695901837277
0.0415,1.75694375,1.0,2734.9150608450136,0.37305278331994646,1.3142513897192807,0.9667946729030403,0.2868446375,0.6850958675366734
0.042,1.7559,1.0,2734.3348970400034,0.3765694592205494,1.3137852872774605,0.9673503127910226,0.28680079999999997,0.6860293159700307
0.0425,1.75484375,1.0,2733.6136880294844,0.38006641037253525,1.3133148212993964,0.9678879822485562,0.2867564375,0.686970098068008
0.043000000000000003,1.753775,1.0,2732.755324145812,0.3835437268001873,1.312839956951734,0.968408441331284,0.28671155,0.6879182440511392
0.043500000000000004,1.75269375,1.0,2731.7821966041915,0.3870015515253945,1.312360491378898,0.9689124045825823,0.28666613750000003,0.6888741180661142
0.044,1.7516,1.0,2730.7001386574857,0.3904399900131834,1.3118763721283213,0.969400555012647,0.2866202,0.6898377822323879
0.0445,1.75049375,1.0,2729.514852837435,0.3938591473778252,1.3113875479556536,0.9698735401538713,0.2865737375,0.690809295210987
0.045,1.7493750000000001,1.0,2728.232042879492,0.39725912873359076,1.3108939676165448,0.9703319742103114,0.28652675,0.6917887146034529
0.0455,1.74824375,1.0,2726.8574126838666,0.40064003919475133,1.3103955798666445,0.9707764400939174,0.2864792375,0.6927760969363825
0.046,1.7471,1.0,2725.3966653347225,0.4040019838755779,1.3098923334616024,0.9712074913173387,0.2864312,0.6937714976458005
0.0465,1.7459437500000001,1.0,2723.8555021772013,0.4073450678903416,1.3093841771570685,0.9716256537546923,0.28638263750000004,0.6947749710613638
0.047,1.744775,1.0,2722.2396219530683,0.4106693963533135,1.308871059708692,0.9720314272806742,0.28633355,0.6957865703904005
0.0475,1.74359375,1.0,2720.554719994541,0.4139750743787647,1.3083529298721235,0.9724252872974912,0.28628393750000003,0.6968063477017772
0.048,1.7424,1.0,2718.806487476013,0.4172622070809662,1.307829736403012,0.9728076861582794,0.2862338,0.697834353909605
0.0485,1.74119375,1.0,2717.000610724595,0.4205308995741892,1.3073014280570074,0.9731790544949172,0.2861831375,0.6988706387567727
0.049,1.739975,1.0,2715.1427705879846,0.4237812569727047,1.3067679535897596,0.9735398024574883,0.28613195,0.6999152507983135
0.0495,1.73874375,1.0,2713.2386418615506,0.42701338439078385,1.3062292617569184,0.9738903208720225,0.2860802375,0.7009682373846069
0.05,1.7375,1.0,2711.2860905644397,0.4302273668469833,1.3056853724710218,0.974230984759273,0.286028,0.7020295059223618
0.0505,1.73624375,1.0,2709.293204302308,0.4334233225820015,1.3051362124288233,0.9745621494720741,0.2859752375,0.7030991449763777
0.051000000000000004,1.734975,1.0,2707.2682287119537,0.43660136513847075,1.304581706786616,0.9748841534083079,0.28592195,0.7041772445502295
0.051500000000000004,1.73369375,1.0,2705.2134320707505,0.43976159087847594,1.3040218351704316,0.9751973212149789,0.2858681375,0.7052637874349583
0.052000000000000005,1.7324,1.0,2703.1310798110558,0.4429040961641018,1.303456577206303,0.9755019629580871,0.2858138,0.7063587555811068
0.0525,1.73109375,1.0,2701.023434399316,0.44602897735743324,1.302885912520262,0.9757983749017762,0.28575893750000003,0.7074621300917352
0.053,1.729775,1.0,2698.892755223368,0.4491363308205551,1.302309820738342,0.976086840239327,0.28570355000000003,0.7085738912154069
0.0535,1.72844375,1.0,2696.741298489527,0.4522262529155522,1.3017282814865743,0.9763676297793565,0.2856476375,0.7096940183391538
0.054,1.7271,1.0,2694.571317128648,0.45529884000450926,1.301141274390992,0.9766410025903345,0.2855912,0.7108224899814071
0.0545,1.7257437500000001,1.0,2692.385060711333,0.4583541884495112,1.3005487790776273,0.9769072066062702,0.2855342375,0.7119592837849094
0.055,1.724375,1.0,2690.184775372496,0.4613923946126428,1.2999507751725126,0.9771664791962271,0.28547675,0.7131043765095946
0.0555,1.72299375,1.0,2687.972703745072,0.4644135548559889,1.29934724230168,0.9774190477000975,0.2854187375,0.7142577440254441
0.056,1.7216,1.0,2685.7510849029586,0.4674177655416344,1.2987381600911625,0.9776651299329094,0.2853602,0.7154193613053156
0.0565,1.72019375,1.0,2683.522154313033,0.47040512303166393,1.2981235081669922,0.9779049346597505,0.28530113749999997,0.7165892024177467
0.057,1.718775,1.0,2681.28814379676,0.4733757236881625,1.2975032661552013,0.9781386620432483,0.28524155,0.7177672405197304
0.0575,1.71734375,1.0,2679.0512815001302,0.47632966387321485,1.2968774136818224,0.9783665040654047,0.2851814375,0.7189534478494646
0.058,1.7159,1.0,2676.810655376291,0.47926702489428324,1.2962459591616764,0.9785886452359406,0.2851208,0.7201477413277372
0.0585,1.71444375,1.0,2674.567004376088,0.4821879030903121,1.2956088958634973,0.9788052631222203,0.2850596375,0.7213500659641711
0.059000000000000004,1.7129750000000001,1.0,2672.325612318803,0.48509241183125706,1.2949661752940713,0.9790165273375266,0.28499795,0.7225604446185816
0.059500000000000004,1.71149375,1.0,2670.0870790674185,0.48798063891540233,1.2943177919253037,0.979222600974164,0.2849357375,0.723778818100171
0.06,1.71,1.0,2667.852003477908,0.49085267214103223,1.2936637402291,0.9794236407380698,0.284873,0.7250051265135704
0.0605,1.7084937500000001,1.0,2665.6209834023525,0.49370859930643113,1.2930040146773654,0.979619797246464,0.2848097375,0.726239309256844
0.061,1.7069750000000001,1.0,2663.3946156916027,0.49654850820988333,1.2923386097420055,0.9798112153094063,0.28474595,0.7274813050194879
0.0615,1.7054437500000001,1.0,2661.1734961993907,0.4993724866496731,1.2916675198949255,0.9799980341962442,0.2846816375,0.7287310517804313
0.062,1.7039,1.0,2658.9582197870277,0.5021806224240848,1.290990739608031,0.9801803878878734,0.2846168,0.7299884868060305
0.0625,1.70234375,1.0,2656.749380328226,0.5049730033314027,1.2903082633532268,0.9803584053156655,0.2845514375,0.7312535466480661
0.063,1.7007750000000001,1.0,2654.547570715146,0.5077497171699111,1.289620085602419,0.9805322105878614,0.28448555,0.7325261671417332
0.0635,1.69919375,1.0,2652.3533828652917,0.5105108517378943,1.2889262008275124,0.9807019232041785,0.28441913750000003,0.7338062834036352
0.064,1.6976,1.0,2650.1674077280363,0.5132564948336368,1.2882266035004128,0.9808676582593248,0.2843522,0.7350938298297698
0.0645,1.69599375,1.0,2647.990235293292,0.5159867342554226,1.2875212880930254,0.9810295266360698,0.2842847375,0.736388740093519
0.065,1.694375,1.0,2645.822454599717,0.5187016578015363,1.2868102490772553,0.9811876351884852,0.28421675,0.7376909471436314
0.0655,1.69274375,1.0,2643.664653743929,0.5214013532702619,1.2860934809250082,0.9813420869159148,0.2841482375,0.7390003832022065
0.066,1.6911,1.0,2641.517419890686,0.5240859084598841,1.2853709781081895,0.9814929811282131,0.2840792,0.7403169797626762
0.0665,1.6894437500000001,1.0,2639.380975673266,0.5267553811857083,1.2846427384597348,0.9816404117234111,0.2840096375,0.7416406614864255
0.067,1.687775,1.0,2637.2555965117726,0.5294098800635257,1.2839087593214458,0.9817844727096111,0.28393955,0.7429713532543284
0.0675,1.68609375,1.0,2635.141521914244,0.5320495065830273,1.283169038363599,0.9819252543179888,0.2838689375,0.7443089786742175
0.068,1.6844000000000001,1.0,2633.0387999038016,0.5346743399428512,1.2824235750254167,0.9820628422449467,0.2837978,0.745653457493185
0.0685,1.68269375,1.0,2630.947478469497,0.5372844593416356,1.2816723687461216,0.9821973192310006,0.2837261375,0.7470047088168015
0.069,1.680975,1.0,2628.867605567521,0.5398799439780189,1.2809154189649359,0.9823287651816246,0.28365395,0.7483626511089112
0.0695,1.67924375,1.0,2626.7992291221685,0.5424608730506394,1.2801527251210825,0.9824572572823447,0.28358123749999997,0.7497272021914261
0.07,1.6775,1.0,2624.7423970274817,0.5450273257581354,1.2793842866537837,0.9825828701083889,0.283508,0.7510982792441213
0.07050000000000001,1.67574375,1.0,2622.697157148194,0.5475793812991451,1.2786101030022619,0.9827056757291912,0.2834342375,0.7524757988044294
0.07100000000000001,1.673975,1.0,2620.6635573208405,0.550117118872307,1.2778301736057398,0.9828257438080179,0.28335995,0.7538596767672338
0.07150000000000001,1.67219375,1.0,2618.641645355457,0.5526406176762592,1.2770444979034397,0.9829431416969797,0.2832851375,0.7552498283846653
0.07200000000000001,1.6704,1.0,2616.631469036447,0.5551499569096401,1.2762530753345844,0.9830579345276693,0.2832098,0.7566461682658943
0.0725,1.66859375,1.0,2614.633076124037,0.5576452157710878,1.2754559053383963,0.9831701852976533,0.2831339375,0.7580486103769276
0.073,1.6667750000000001,1.0,2612.6465143554765,0.5601264734592409,1.2746529873540975,0.9832799549530362,0.28305755,0.7594570680404017
0.0735,1.66494375,1.0,2610.6718314461896,0.5625938091727376,1.2738443208209111,0.9833873024672962,0.2829806375,0.760871453935376
0.074,1.6631,1.0,2608.709075091311,0.5650473021102161,1.2730299051780594,0.9834922849165848,0.2829032,0.7622916800971298
0.0745,1.6612437500000001,1.0,2606.7582929667833,0.5674870314703149,1.2722097398647645,0.983594957551673,0.2828252375,0.7637176579169556
0.075,1.659375,1.0,2604.8195327308435,0.569913076451672,1.2713838243202495,0.9836953738667076,0.28274675,0.7651492981419513
