Time [s],Phi [rad],STIM [ ],Fsee [N],Gamma [ ],Lcerel [ ],q [ ],Lmtc [m],fisomrel [ ]
0.0,1.8,1.0,18.02414845387075,0.00024150811908022567,1.3793333664567449,0.005015158733344222,0.288653,0.5411549652187275
0.0005,1.79999375,1.0,18.40866668580008,0.005849362758359754,1.3792877601116251,0.013595711725988554,0.2886527375,0.5412652902726605
0.001,1.799975,1.0,21.922165816252782,0.011425761766948168,1.3789073832630048,0.03682515422170423,0.28865195,0.5421849327448419
0.0015,1.79994375,1.0,31.74492344063567,0.01697088158704417,1.3779889471065614,0.07226036255047828,0.2886506375,0.5444016449785496
0.002,1.7999,1.0,54.99768709098925,0.02248489766899402,1.3762769127916805,0.11667794463680464,0.2886488,0.5485194033799812
0.0025,1.79984375,1.0,99.46400281476261,0.02796798448015848,1.373822838204847,0.16670441674887929,0.28864643749999996,0.5543893036877322
0.003,1.7997750000000001,1.0,163.98780941838115,0.03342031551069281,1.3711014700172013,0.21947566050495915,0.28864354999999997,0.5608536318592866
0.0035,1.79969375,1.0,241.09450340442817,0.03884206327479853,1.3684800354307682,0.2727950747049518,0.2886401375,0.5670359167376906
0.004,1.7996,1.0,325.08889843271265,0.04423339932093848,1.366060424813067,0.3250279113322327,0.2886362,0.5727033335002453
0.0045000000000000005,1.7994937500000001,1.0,413.01383583022266,0.04959449423721341,1.3638350795763126,0.37503886868670866,0.2886317375,0.5778827642528646
0.005,1.799375,1.0,503.2321603431756,0.05492551764318876,1.3617773507464954,0.4221222971765905,0.28862675,0.5826439683891813
0.0055,1.79924375,1.0,594.6400434186246,0.06022663822793146,1.35986374480055,0.4659092487345047,0.2886212375,0.587047465491469
0.006,1.7991000000000001,1.0,686.3690829903608,0.06549802371727036,1.3580765127417551,0.5062747676343857,0.2886152,0.5911390657611726
0.006500000000000001,1.79894375,1.0,777.7061689353224,0.07073984088483996,1.35640204035554,0.5432588664924614,0.2886086375,0.5949540358112504
0.007,1.798775,1.0,868.0640016868366,0.07595225564994941,1.3548294316655727,0.5770055108150209,0.28860155,0.5985206454843326
0.0075,1.79859375,1.0,956.9517497485133,0.08113543277942903,1.35334979347151,0.6077184226112348,0.2885939375,0.601862000808805
0.008,1.7984,1.0,1043.993557250714,0.08628953655433176,1.3519551734506878,0.6356300820782602,0.2885858,0.6049985838051539
0.0085,1.79819375,1.0,1128.8679695810886,0.09141472979675706,1.3506389732322892,0.6609818549269063,0.2885771375,0.607947418528718
0.009000000000000001,1.797975,1.0,1211.3293252121507,0.09651117458440041,1.3493952130730325,0.6840108274588307,0.28856795,0.610723804469548
0.0095,1.79774375,1.0,1291.2198444292687,0.101579032675811,1.3482181186511046,0.7049420544320866,0.2885582375,0.6133422890404503
0.01,1.7975,1.0,1368.4003779179307,0.10661846399898661,1.3471028528429976,0.7239849346981666,0.288548,0.6158150814676415
0.0105,1.79724375,1.0,1442.780651740661,0.11162962789536114,1.3460449039173994,0.7413311249776389,0.2885372375,0.6181534581402992
0.011,1.796975,1.0,1514.3253032397304,0.1166126831417475,1.3450398878169405,0.7571541641936175,0.28852595000000003,0.6203682264517638
0.0115,1.79669375,1.0,1583.0204301530616,0.12156778778155464,1.3440838609193548,0.7716102251025182,0.2885141375,0.6224690582105552
0.012,1.7964,1.0,1648.8533262682865,0.12649509791386887,1.3431734484615476,0.784839233511991,0.28850180000000003,0.6244642355580661
0.0125,1.79609375,1.0,1711.8488444405275,0.13139476936722874,1.3423053214525815,0.7969659486121407,0.2884889375,0.6263618204886634
0.013000000000000001,1.7957750000000001,1.0,1772.060323418135,0.13626695765833424,1.3414762532624438,0.8081014115107251,0.28847555,0.6281695422762863
0.0135,1.79544375,1.0,1829.5479561214825,0.14111181769636694,1.340683313761876,0.8183444249462967,0.2884616375,0.6298943868757241
0.014,1.7951000000000001,1.0,1884.354040125114,0.14592950162821688,1.3399240846036622,0.8277829482846333,0.2884472,0.6315421451095737
0.0145,1.79474375,1.0,1936.5445640789135,0.15072016160077406,1.3391961474405862,0.8364951264936795,0.2884322375,0.6331185381424238
0.015,1.794375,1.0,1986.2032429346384,0.15548394944051985,1.3384971256890466,0.8445504368478562,0.28841675,0.6346291323349931
0.0155,1.79399375,1.0,2033.4168843134737,0.16022101627339466,1.3378248160234951,0.852010746191842,0.2884007375,0.6360790614754199
0.016,1.7936,1.0,2078.2768740865326,0.1649315131056734,1.3371771451771226,0.8589311931558581,0.2883842,0.6374731274560128
0.0165,1.7931937500000001,1.0,2120.848328034258,0.16961558762665055,1.3365524657287207,0.86536106866179,0.2883671375,0.6388151715941273
0.017,1.792775,1.0,2161.208477936267,0.17427338752562074,1.3359491302570814,0.8713443803888566,0.28834955,0.6401089983402761
0.0175,1.7923437500000001,1.0,2199.445655684475,0.17890506049187854,1.3353654913409962,0.8769204772081323,0.2883314375,0.6413583776071816
0.018000000000000002,1.7919,1.0,2235.6438668835817,0.18351075276388606,1.334800046895686,0.8821246348709167,0.2883128,0.6425667366028267
0.0185,1.79144375,1.0,2269.902206716185,0.1880906122179818,1.3342512322136526,0.8869884780541003,0.2882936375,0.6437376076647159
0.019,1.790975,1.0,2302.293274728667,0.19264478289931736,1.3337178261372047,0.8915405012013102,0.28827395,0.6448737644077118
0.0195,1.79049375,1.0,2332.886991893596,0.19717340780780987,1.3331986982414274,0.895806363871289,0.2882537375,0.6459777662315631
0.02,1.79,1.0,2361.7590476341757,0.20167662994337648,1.332692718101407,0.8998091909081616,0.288233,0.6470521534512046
0.0205,1.78949375,1.0,2388.990414647249,0.20615459230593441,1.3321987552922283,0.9035698569632319,0.2882117375,0.648099448285377
0.021,1.788975,1.0,2414.6517494303453,0.2106074357973945,1.3317158257281834,0.9071072668218727,0.28818995000000003,0.6491218461781553
0.021500000000000002,1.78844375,1.0,2438.8313100455093,0.21503530434439738,1.3312428154464166,0.9104385146219949,0.2881676375,0.6501218023441683
0.022,1.7879,1.0,2461.5899224186705,0.21943833691667433,1.3307789112755106,0.9135791644374158,0.2881448,0.651101121987844
0.0225,1.78734375,1.0,2482.9854958478313,0.22381667154412987,1.3303233571605626,0.9165433650408655,0.28812143749999997,0.6520614786804062
0.023,1.786775,1.0,2503.0786607730106,0.22817044625666832,1.3298753970466695,0.9193439882211073,0.28809755,0.6530045357885912
0.0235,1.78619375,1.0,2521.9325405125473,0.23249979908419416,1.3294342748789283,0.9219927617070369,0.28807313749999996,0.6539319468590392
0.024,1.7856,1.0,2539.607324028971,0.2368048670746928,1.328999283713426,0.9245003951061423,0.2880482,0.6548452529210864
0.0245,1.78499375,1.0,2556.1622891414363,0.24108578696884456,1.3285697440108952,0.9268766792659991,0.2880227375,0.6557459289560421
0.025,1.784375,1.0,2571.6660570482773,0.2453426967764372,1.3281449055189996,0.9291305617792911,0.28799675,0.6566355898658383
0.025500000000000002,1.78374375,1.0,2586.1616259843554,0.24957572923368976,1.3277242732714272,0.9312702821304808,0.2879702375,0.6575153083823818
0.026000000000000002,1.7831000000000001,1.0,2599.6932569000146,0.2537850170768213,1.3273073523018668,0.9333033999639403,0.2879432,0.6583861515597629
0.0265,1.78244375,1.0,2612.306368066132,0.25797069304205067,1.3268936476440072,0.9352368603516701,0.2879156375,0.6592491808992209
0.027,1.781775,1.0,2624.0474351113244,0.26213288986559713,1.326482664331537,0.9370770519996438,0.28788755,0.6601054524584851
0.0275,1.7810937500000001,1.0,2634.963896490633,0.2662717402836796,1.326073907398145,0.9388298592324748,0.2878589375,0.6609560169454912
0.028,1.7804,1.0,2645.098706009308,0.27038737285097997,1.3256669313540745,0.9405007140635324,0.2878298,0.6618018170357797
0.0285,1.77969375,1.0,2654.5001147949356,0.27447992347704275,1.3252612488145947,0.9420946286973887,0.2878001375,0.6626438776134258
0.029,1.778975,1.0,2663.2007946275958,0.27854951939387207,1.3248565222963586,0.9436162539055988,0.28776995,0.6634829079129957
0.029500000000000002,1.7782437500000001,1.0,2671.2339564845024,0.2825962878330552,1.3244524143215686,0.9450698933661772,0.2877392375,0.6643196136508457
0.03,1.7775,1.0,2678.633303009624,0.2866203560261795,1.3240485874124275,0.946459534009429,0.287708,0.6651546970536044
0.0305,1.77674375,1.0,2685.432982909181,0.2906218512048325,1.3236447040911377,0.947788873350746,0.2876762375,0.665988856867857
0.031,1.775975,1.0,2691.6675478716074,0.2946009006006016,1.3232404268799018,0.949061344141743,0.28764395,0.66682278836256
0.0315,1.7751937500000001,1.0,2697.3652558007198,0.2985576270839803,1.3228354791626658,0.9502801428522586,0.2876111375,0.6676570580159822
0.032,1.7744,1.0,2702.553922455813,0.302492155497264,1.3224295910913122,0.9514482445287572,0.2875778,0.6684922155251569
0.0325,1.77359375,1.0,2707.2775910431596,0.3064046226273115,1.3220223471443877,0.9525684055939683,0.2875439375,0.6693291069503171
0.033,1.772775,1.0,2711.556174582774,0.3102951487074596,1.3216135544998018,0.9536432166399674,0.28750955,0.670168117225775
0.0335,1.7719437500000002,1.0,2715.4097680496357,0.31416385397104524,1.321203020335464,0.9546750945104929,0.2874746375,0.6710096292327024
0.034,1.7711000000000001,1.0,2718.8586312723837,0.31801085865140505,1.320790551829284,0.9556662960222994,0.2874392,0.6718540237789015
0.0345,1.7702437500000001,1.0,2721.9231726571356,0.32183628298187594,1.3203759561591715,0.9566189304486441,0.2874032375,0.6727016795762011
0.035,1.7693750000000001,1.0,2724.6239337352276,0.32564024719579465,1.319959040503036,0.9575349708895959,0.28736675,0.6735529732154868
0.035500000000000004,1.76849375,1.0,2726.981574535463,0.32942287152649796,1.3195396120387868,0.9584162646400635,0.2873297375,0.6744082791393547
0.036000000000000004,1.7676,1.0,2729.016859780375,0.3331842762073227,1.3191174779443342,0.9592645426543135,0.2872922,0.675267969612396
0.0365,1.76669375,1.0,2730.750645907526,0.33692458147160564,1.3186924453975872,0.9600814281950535,0.2872541375,0.6761324146891132
0.037,1.765775,1.0,2732.2038689143656,0.3406439075526836,1.3182643215764558,0.9608684447457143,0.28721555,0.6770019821794591
0.0375,1.76484375,1.0,2733.385561452675,0.3443423665607455,1.3178330223984553,0.961627032155983,0.2871764375,0.6778768171972671
0.038,1.7639,1.0,2734.3199686137236,0.3480200836018853,1.3173983260771844,0.9623585332873329,0.28713679999999997,0.6787573424853359
0.0385,1.76294375,1.0,2735.0256568595596,0.351677177276726,1.3169600628685116,0.9630642149121167,0.28709663750000003,0.6796438729157817
0.039,1.761975,1.0,2735.513682473814,0.35531376039799795,1.3165181315810874,0.9637452747304771,0.28705595,0.6805365828457188
0.0395,1.7609937500000001,1.0,2735.795132626511,0.35892994577843174,1.316072431023562,0.9644028409926423,0.2870147375,0.6814356452386977
0.04,1.76,1.0,2735.8811210516747,0.3625258462307578,1.3156228600045854,0.9650379772649538,0.286973,0.6823412316407076
0.0405,1.7589937500000001,1.0,2735.782783952059,0.3661015745677066,1.3151693173328078,0.9656516868201237,0.2869307375,0.6832535121555225
0.041,1.757975,1.0,2735.511276131078,0.3696572436020085,1.3147117018168795,0.9662449166849961,0.28688795,0.6841726554193991
0.0415,1.75694375,1.0,2735.0777673516236,0.3731929661463942,1.3142499122654507,0.9668185613758317,0.2868446375,0.6850988285751165
0.042,1.7559,1.0,2734.4934389221544,0.3767088550135939,1.3137838474871715,0.9673734663482307,0.28680079999999997,0.6860321972453685
0.0425,1.75484375,1.0,2733.7694805096107,0.3802050230163383,1.3133134062906922,0.9679104311862062,0.2867564375,0.6869729255054964
0.043000000000000003,1.753775,1.0,2732.9119904799754,0.3836815766850547,1.3128385337827815,0.9684302153191533,0.28671155,0.687921083484182
0.043500000000000004,1.75269375,1.0,2731.9328098488177,0.38713863124931164,1.3123591229522542,0.9689335350306701,0.28666613750000003,0.6888768440959775
0.044,1.7516,1.0,2730.8436313864977,0.39057630020306633,1.3118750681374174,0.9694210687874151,0.2866202,0.6898403758746214
0.0445,1.75049375,1.0,2729.6505329823385,0.3939946895193116,1.3113863146930884,0.9698934626168357,0.2865737375,0.6908117443299009
0.045,1.7493750000000001,1.0,2728.359593465797,0.3973939051710399,1.3108928079740847,0.970351329304817,0.28652675,0.6917910138711381
0.0455,1.74824375,1.0,2726.9768914925844,0.4007740531312439,1.3103944933352234,0.9707952504260334,0.2864792375,0.6927782477907205
0.046,1.7471,1.0,2725.5085044978778,0.4041352393729163,1.309891316131322,0.9712257782313156,0.2864312,0.6937735082474398
0.0465,1.7459437500000001,1.0,2723.9605077142955,0.40747756986904954,1.3093832217171977,0.971643437403391,0.28638263750000004,0.6947768562496406
0.047,1.744775,1.0,2722.3389732571613,0.4108011505926364,1.3088701554476676,0.9720487266913375,0.28633355,0.6957883516381813
0.0475,1.74359375,1.0,2720.649969275942,0.41410608751666933,1.3083520626775493,0.9724421204332014,0.28628393750000003,0.6968080530691987
0.048,1.7424,1.0,2718.8995591709404,0.41739248661414113,1.30782888876166,0.9728240699754162,0.2862338,0.6978360179966885
0.0485,1.74119375,1.0,2717.090674894964,0.42066044562145466,1.3073006075336207,0.9731950059621163,0.2861831375,0.6988722468414148
0.049,1.739975,1.0,2715.2289433819196,0.4239100715014377,1.3067671682496644,0.973555338015901,0.28613195,0.6999167872579148
0.0495,1.73874375,1.0,2713.3230176036022,0.4271414789689532,1.306228492524444,0.9739054555017966,0.2860802375,0.7009697396881585
0.05,1.7375,1.0,2711.375743714737,0.4303547667861021,1.3056845548318876,0.9742457312750359,0.286028,0.7020310999273938
0.0505,1.73624375,1.0,2709.3899648717097,0.4335500337149855,1.305135329645923,0.974576520975649,0.2859752375,0.7031008628886286
0.051000000000000004,1.734975,1.0,2707.368521023505,0.4367273785177045,1.3045807914404777,0.9748981639738283,0.28592195,0.7041790225940442
0.051500000000000004,1.73369375,1.0,2705.314248715857,0.43988689995636016,1.3040209146894801,0.9752109842552809,0.2858681375,0.7052655721663643
0.052000000000000005,1.7324,1.0,2703.229980911051,0.44302869679305346,1.3034556738668575,0.9755152912508758,0.2858138,0.7063605038201896
0.0525,1.73109375,1.0,2701.1185468212884,0.44615286778988555,1.302885043446538,0.9758113806145479,0.28575893750000003,0.7074638088532805
0.053,1.729775,1.0,2698.9827717568955,0.4492595117089575,1.3023089979024494,0.9760995349531036,0.28570355000000003,0.7085754776378089
0.0535,1.72844375,1.0,2696.825476989006,0.4523487273123704,1.3017275117085196,0.9763800245112927,0.2856476375,0.7096954996115599
0.054,1.7271,1.0,2694.6494796265606,0.4554206133622253,1.3011405593386762,0.9766531078152464,0.2855912,0.7108238632690983
0.0545,1.7257437500000001,1.0,2692.4575925077233,0.4584752686206232,1.3005481152668474,0.9769190322771402,0.2855342375,0.7119605561528883
0.055,1.724375,1.0,2690.2526241057762,0.46151279184966526,1.2999501539669607,0.9771780347637291,0.28547675,0.7131055648443769
0.0555,1.72299375,1.0,2688.03707243379,0.46453325275383484,1.299346652715883,0.9774303395484439,0.2854187375,0.714258869603943
0.056,1.7216,1.0,2685.8146617998964,0.4675367843613822,1.2987375775169523,0.9776761668054443,0.2853602,0.7154204712350221
0.0565,1.72019375,1.0,2683.586572100381,0.4705234805271385,1.2981229176424078,0.9779157252416599,0.28530113749999997,0.7165903251797772
0.057,1.718775,1.0,2681.353877674951,0.47349343189498677,1.2975026633149696,0.9781492147402332,0.28524155,0.7177683843128184
0.0575,1.71734375,1.0,2679.1176511075982,0.47644672910881014,1.2968768047573564,0.9783768270323061,0.2851814375,0.718954600755939
0.058,1.7159,1.0,2676.878963216796,0.47938346281249156,1.2962453321922882,0.9785987460927901,0.2851208,0.7201489258746199
0.0585,1.71444375,1.0,2674.63888304785,0.4823037236499141,1.2956082358424845,0.9788151485138622,0.2850596375,0.7213513102745346
0.059000000000000004,1.7129750000000001,1.0,2672.3984778668787,0.4852076022649608,1.2949655059306646,0.9790262038576122,0.28499795,0.7225617037980455
0.059500000000000004,1.71149375,1.0,2670.1588131575318,0.4880951893015147,1.294317132679548,0.9792320749891555,0.2849357375,0.7237800555206932
0.06,1.71,1.0,2667.920952619241,0.49096657540345884,1.2936631063118542,0.9794329183914353,0.284873,0.7250063137476805
0.0605,1.7084937500000001,1.0,2665.685958168213,0.4938218512146763,1.2930034170503026,0.9796288844628614,0.2848097375,0.7262404260103521
0.061,1.7069750000000001,1.0,2663.45488994005,0.4966611073790501,1.292338055117613,0.9798201177988379,0.28474595,0.7274823390626644
0.0615,1.7054437500000001,1.0,2661.228806294393,0.4994844345404634,1.2916670107365043,0.9800067574581746,0.2846816375,0.7287319988776528
0.062,1.7039,1.0,2659.0087638225955,0.502291923342799,1.2909902741296964,0.9801889372152983,0.2846168,0.7299893506438908
0.0625,1.70234375,1.0,2656.795817356183,0.5050836644299401,1.2903078355199087,0.9803667857991231,0.2845514375,0.7312543387619441
0.063,1.7007750000000001,1.0,2654.5910199784744,0.5078597484457698,1.2896196851298607,0.9805404271193798,0.28448555,0.7325269068408176
0.0635,1.69919375,1.0,2652.3906919740234,0.5106202320860513,1.2889258568064508,0.980709980204891,0.28441913750000003,0.7338069173107726
0.064,1.6976,1.0,2650.1959679204856,0.5133652156079053,1.2882263400428422,0.980875560672088,0.2843522,0.7350943141119513
0.0645,1.69599375,1.0,2648.012760332759,0.5160948261409319,1.2875210802220638,0.9810372796005458,0.2842847375,0.736389121262556
0.065,1.694375,1.0,2645.841086076479,0.5188091448608684,1.2868100770673159,0.9811952434294311,0.28421675,0.7376912617750011
0.0655,1.69274375,1.0,2643.680962031991,0.5215082529434515,1.286093330301798,0.981349554769556,0.2841482375,0.739000658025594
0.066,1.6911,1.0,2641.532405095026,0.5241922315644182,1.285370839648711,0.9815003125669604,0.2840792,0.7403172317544315
0.0665,1.6894437500000001,1.0,2639.395432177524,0.5268611618995053,1.2846426048312543,0.9816476122583665,0.2840096375,0.7416409040653011
0.067,1.687775,1.0,2637.270060207632,0.5295151251244499,1.283908625572628,0.9817915459189678,0.28393955,0.7429715954255782
0.0675,1.68609375,1.0,2635.1563061310535,0.5321542024149888,1.2831689015960324,0.9819322024029792,0.2838689375,0.7443092256661241
0.068,1.6844000000000001,1.0,2633.0541869111416,0.5347784749468588,1.2824234326246673,0.9820696674773499,0.2837978,0.7456537139811863
0.0685,1.68269375,1.0,2630.96371952961,0.5373880238957972,1.281672218381733,0.9822040239490198,0.2837261375,0.7470049789282949
0.069,1.680975,1.0,2628.8849209874,0.5399829304375405,1.2809152585904293,0.9823353517860697,0.28365395,0.748362938428164
0.0695,1.67924375,1.0,2626.8178083049147,0.5425632757478259,1.2801525529739564,0.9824637282330995,0.28358123749999997,0.7497275097645872
0.07,1.6775,1.0,2624.762398522954,0.5451291410023903,1.2793841012555143,0.9825892279211472,0.283508,0.7510986095843385
0.07050000000000001,1.67574375,1.0,2622.7187087031725,0.5476806073769706,1.278609903158303,0.9827119229724415,0.2834342375,0.7524761538970698
0.07100000000000001,1.673975,1.0,2620.6867559286698,0.5502177560473035,1.2778299584055224,0.9828318831002614,0.28335995,0.7538600580752095
0.07150000000000001,1.67219375,1.0,2618.6665573047076,0.5527406681891261,1.277044266720373,0.982949175704168,0.2832851375,0.7552502368538612
0.07200000000000001,1.6704,1.0,2616.6581299593972,0.5552494249781754,1.2762528278260543,0.9830638659608444,0.2832098,0.7566466043307027
0.0725,1.66859375,1.0,2614.661491044038,0.5577441075901882,1.275455641445767,0.9831760169107818,0.2831339375,0.7580490739658835
0.073,1.6667750000000001,1.0,2612.6766577341587,0.5602247972009016,1.2746527073027105,0.9832856895410196,0.28305755,0.7594575585819249
0.0735,1.66494375,1.0,2610.7036472297955,0.5626915749860522,1.273844025120085,0.9833929428641514,0.2829806375,0.7608719703636168
0.074,1.6631,1.0,2608.7424767562516,0.5651445221213772,1.2730295946210908,0.9834978339937813,0.2829032,0.7622922208579173
0.0745,1.6612437500000001,1.0,2606.793065140876,0.5675836837109146,1.2722094164443771,0.9836004162148908,0.2828252375,0.7637182193846036
0.075,1.659375,1.0,2604.855503068579,0.5700091669281779,1.2713834896311451,0.9837007445450897,0.28274675,0.7651498774095095
0.0755,1.65749375,1.0,2602.929616033776,0.5724210624648196,1.2705518156902187,0.9837988714420284,0.2826677375,0.7665871014882842
