Time [s],Phi [rad],STIM [ ],Fsee [N],Gamma [ ],Lcerel [ ],q [ ],Lmtc [m],fisomrel [ ]
0.0,1.8,1.0,18.054351203799374,0.0003024526366544356,1.3793299895064657,0.005023732065962819,0.288653,0.5411631347609205
0.0005,1.79999375,1.0,18.458088113820107,0.0059099654253906685,1.3792822937254632,0.01377234042286123,0.2886527375,0.541278512966682
0.001,1.799975,1.0,22.01687610557892,0.011486024500940042,1.3788977876107693,0.03714882243535239,0.28865195,0.5422081203560726
0.0015,1.79994375,1.0,31.939581889494406,0.01703080629476158,1.3779725653958794,0.07269943444527141,0.2886506375,0.5444411345920206
0.002,1.7999,1.0,55.38991891725226,0.022544486246445054,1.3762518409790265,0.11719537980541093,0.2886488,0.5485795668363946
0.0025,1.79984375,1.0,100.10041613947786,0.028027238812838057,1.373792582962502,0.1672657072428696,0.28864643749999996,0.5544614315121846
0.003,1.7997750000000001,1.0,164.8011514733845,0.03347923747340406,1.3710713456923005,0.2200536523090682,0.28864354999999997,0.5609249247643662
0.0035,1.79969375,1.0,242.00540613187513,0.03890065473186577,1.368452202682397,0.2733692046232682,0.2886401375,0.5671013212324292
0.004,1.7996,1.0,326.0533431650484,0.044291662126248105,1.3660350418741167,0.3255832941652996,0.2886362,0.5727625896690485
0.0045000000000000005,1.7994937500000001,1.0,414.00946148032034,0.049652430234327874,1.3638118286821441,0.37556570255771415,0.2886317375,0.5779367133640123
0.005,1.799375,1.0,504.2455151976984,0.05498312866530215,1.361755909685741,0.42261494275992817,0.28862675,0.5826934368859757
0.0055,1.79924375,1.0,595.6607972992326,0.06028392609763468,1.3598438749278239,0.4663651958072642,0.2886212375,0.5870930665718388
0.006,1.7991000000000001,1.0,687.389565275342,0.06555499024748941,1.3580580220714047,0.5066936764389292,0.2886152,0.5911812909129894
0.006500000000000001,1.79894375,1.0,778.7190166923513,0.07079648787198953,1.35638479856183,0.5436418324627509,0.2886086375,0.594993224981007
0.007,1.798775,1.0,869.064566706968,0.07600858490322601,1.3548133091899703,0.5773544700469152,0.28860155,0.5985571288956075
0.0075,1.79859375,1.0,957.934571251968,0.08119144606487667,1.3533347098529325,0.60803578811922,0.2885939375,0.6018959911133419
0.008,1.7984,1.0,1044.9553885081484,0.0863452356333816,1.3519410403529917,0.6359184412391405,0.2885858,0.6050303064899678
0.0085,1.79819375,1.0,1129.8066576357085,0.0914701164844298,1.3506257085503817,0.6612438063985958,0.2885771375,0.6079770806873177
0.009000000000000001,1.797975,1.0,1212.2436649447677,0.09656625057885636,1.3493827397570548,0.6842488741439744,0.28856795,0.6107515980862694
0.0095,1.79774375,1.0,1292.1055938066484,0.10163379965461261,1.3482064149377184,0.7051585715283737,0.2885582375,0.6133682799624409
0.01,1.7975,1.0,1369.258668063983,0.10667292389918687,1.3470918362620958,0.7241820771188152,0.288548,0.6158394681129034
0.0105,1.79724375,1.0,1443.6099616284098,0.11168378235504198,1.3460345371901559,0.7415108735499928,0.2885372375,0.618176336325238
0.011,1.796975,1.0,1515.113984862381,0.11666653352649949,1.3450302645402217,0.7573183662195376,0.28852595000000003,0.6203894022681908
0.0115,1.79669375,1.0,1583.7764767608924,0.12162133611718075,1.3440748381295091,0.7717604286305411,0.2885141375,0.6224888576726789
0.012,1.7964,1.0,1649.588094152372,0.1265483462622755,1.3431648563846283,0.7849768090859206,0.28850180000000003,0.6244830399952723
0.0125,1.79609375,1.0,1712.5598745236157,0.13144771932931482,1.3422971613135755,0.7970921881470882,0.2884889375,0.6263796344281509
0.013000000000000001,1.7957750000000001,1.0,1772.7375883034863,0.13631961055146619,1.3414686137578515,0.8082174983887426,0.28847555,0.6281861792675103
0.0135,1.79544375,1.0,1830.1854676159005,0.1411641744151174,1.3406762364933995,0.8184513910949361,0.2884616375,0.6299097636756803
0.014,1.7951000000000001,1.0,1884.9689280321888,0.14598156479309568,1.3399173584520276,0.827881619601667,0.2884472,0.6315567264763895
0.0145,1.79474375,1.0,1937.1420370293547,0.15077193313253642,1.339189700429981,0.8365862855665197,0.2884322375,0.6331324844458537
0.015,1.794375,1.0,1986.7797421285359,0.15553543088057495,1.3384909832235046,0.8446348125043095,0.28841675,0.634642392462963
0.0155,1.79399375,1.0,2033.9627297923075,0.16027220847128185,1.337819068050216,0.8520890073360642,0.2884007375,0.6360914453497561
0.016,1.7936,1.0,2078.7909845941936,0.16498241755865523,1.3371717901052986,0.8590039077345196,0.2883842,0.6374846427206264
0.0165,1.7931937500000001,1.0,2121.341897544422,0.16966620687012585,1.336547376457094,0.8654287065271458,0.2883671375,0.6388260950250223
0.017,1.792775,1.0,2161.6852230710015,0.1743237234315643,1.3359442605664904,0.8714073842583014,0.28834955,0.6401194317360779
0.0175,1.7923437500000001,1.0,2199.9014883797436,0.17895511426884114,1.335360875894376,0.8769792653447949,0.2883314375,0.6413682491050923
0.018000000000000002,1.7919,1.0,2236.0810848635724,0.18356052640782694,1.334795655901639,0.8821795654851011,0.2883128,0.6425761122110694
0.0185,1.79144375,1.0,2270.3057105618595,0.1881401051524063,1.3342472104903853,0.8870399158164174,0.2882936375,0.6437461807378702
0.019,1.790975,1.0,2302.6733038813304,0.19269399774163995,1.3337140651136934,0.8915887129830734,0.28827395,0.6448817689582067
0.0195,1.79049375,1.0,2333.2526544718817,0.19722234708109257,1.33319510319894,0.895851593253796,0.2882537375,0.6459854056257901
0.02,1.79,1.0,2362.1126232349966,0.20172529542202478,1.3326892632003153,0.8998516732117855,0.288233,0.6470594839006101
0.0205,1.78949375,1.0,2389.327167502805,0.20620298501569717,1.3321954835720107,0.903609819924303,0.2882117375,0.6481063797651722
0.021,1.788975,1.0,2414.974911827531,0.2106555581133704,1.3317127027682167,0.9071449004832475,0.28818995000000003,0.6491284528769283
0.021500000000000002,1.7884474854365828,1.0,2439.301368481531,0.21508315468594408,1.3312399825323777,0.910474025832789,0.2881677943883365,0.6501277869003511
0.022,1.7879196490753682,1.0,2462.7440400444943,0.21948591807953205,1.3307767397212926,0.9136127918681622,0.28814562526116544,0.6511057029953835
0.0225,1.7873918127141533,1.0,2485.344344712812,0.22386398625824436,1.3303225880269798,0.9165753996951239,0.2881234561339944,0.6520630989769075
0.023,1.7868639763529386,1.0,2507.1288230276878,0.22821749648733716,1.3298771519869126,0.919374768345686,0.2881012870068234,0.6530008437404444
0.0235,1.786336139991724,1.0,2528.1252250842035,0.23254658603206665,1.3294400561385649,0.9220226666983431,0.2880791178796524,0.6539198004190665
0.024,1.785808303630509,1.0,2548.3624395399916,0.23685139215768902,1.3290109250194104,0.9245298317176502,0.2880569487524814,0.6548208265876017
0.0245,1.7852804672692943,1.0,2567.8661719378383,0.24113204949703346,1.3285894230307764,0.9269060787543366,0.2880347796253104,0.6557046909193287
0.025,1.7847526309080795,1.0,2586.6638436814533,0.24538869308087027,1.3281752073648363,0.9291603871308465,0.2880126104981393,0.6565721724204295
0.025500000000000002,1.7842247945468648,1.0,2604.7968445222564,0.24962146654961315,1.327767813608283,0.9313009676193226,0.2879904413709683,0.657424299625146
0.026000000000000002,1.7836969581856499,1.0,2622.2861260156956,0.2538305006414738,1.3273669763435247,0.9333353795708343,0.2879682722437973,0.6582616798459762
0.0265,1.7831691218244352,1.0,2639.153315930938,0.2580159260946637,1.3269724301529686,0.9352705673251007,0.2879461031166263,0.6590849168362949
0.027,1.7826412854632205,1.0,2655.4206804485243,0.2621778736473945,1.3265839096190224,0.9371129184955919,0.28792393398945526,0.6598946108990887
0.0275,1.7821134491020056,1.0,2671.11108792018,0.2663164740378779,1.3262011493240942,0.9388683160233153,0.28790176486228425,0.6606913589911991
0.028,1.781585612740791,1.0,2686.2479741907655,0.27043185800432545,1.3258238838505911,0.940542184732668,0.28787959573511324,0.6614757548230756
0.0285,1.781057776379576,1.0,2700.8553094816066,0.2745241562849488,1.325451847780921,0.9421395330296353,0.2878574266079422,0.6622483889540315
0.029,1.7805299400183614,1.0,2714.9575668360585,0.2785934996179595,1.325084775697492,0.9436649903020445,0.28783525748077116,0.6630098488830081
0.029500000000000002,1.7800021036571467,1.0,2728.576899204695,0.28264001646100695,1.32472242757361,0.9451228431520052,0.28781308835360014,0.6637606665519822
0.03,1.7794742672959318,1.0,2741.7301771130024,0.2866638319165727,1.324364615076889,0.9465170684893364,0.28779091922642913,0.6645012643049157
0.0305,1.7789464309347172,1.0,2754.44912704044,0.290665083876412,1.3240110185308274,0.9478513417624226,0.2877687500992581,0.6652323337710965
0.031,1.7784185945735023,1.0,2766.7484560276066,0.29464389568600713,1.3236614759865317,0.9491290906535972,0.2877465809720871,0.6659542377621803
0.0315,1.7778907582122876,1.0,2778.64314306224,0.29860039069084043,1.3233158254951103,0.950353500728123,0.2877244118449161,0.6666673373227532
0.032,1.7773629218510727,1.0,2790.1484248135966,0.3025346922363943,1.3229739051076703,0.9515275355386071,0.287702242717745,0.6673719917713699
0.0325,1.776835085489858,1.0,2801.279781948425,0.306446923668151,1.322635552875319,0.9526539548273022,0.287680073590574,0.6680685587399144
0.033,1.7763072491286434,1.0,2812.0529260277553,0.31033720833159295,1.3223006068491645,0.953735331026701,0.287657904463403,0.6687573942112892
0.0335,1.7757794127674285,1.0,2822.483786985911,0.3142056695722025,1.321968905080314,0.9547740642357263,0.287635735336232,0.6694388525554329
0.034,1.7752515764062138,1.0,2832.588501190798,0.31805243073546186,1.321640285619875,0.955772395828591,0.287613566209061,0.6701132865636646
0.0345,1.7747237400449989,1.0,2842.383400085555,0.3218776151668535,1.3213145865189553,0.9567324208356703,0.28759139708188997,0.6707810474813547
0.035,1.7741959036837842,1.0,2851.8776011327686,0.325681337107528,1.3209917116175225,0.9576561040173707,0.28756922795471895,0.6714423503598638
0.035500000000000004,1.7736680673225693,1.0,2861.0908324283473,0.3294637266769955,1.320671471674503,0.9585452791024126,0.28754705882754794,0.6720975996623357
0.036000000000000004,1.7731402309613546,1.0,2870.037484353966,0.33322490667646304,1.3203537264113328,0.9594016677963688,0.2875248897003769,0.672747098132567
0.0365,1.77261239460014,1.0,2878.7267531722023,0.336964992940333,1.32003838277646,0.960226888039047,0.28750272057320586,0.6733910508604214
0.037,1.772084558238925,1.0,2887.1679380351084,0.34068410130300814,1.3197253477183324,0.9610224584890594,0.28748055144603485,0.6740296620739523
0.0375,1.7715567218777104,1.0,2895.370436125722,0.3443823475988909,1.3194145281853977,0.9617898057304011,0.28745838231886384,0.6746631351533794
0.038,1.7710288855164955,1.0,2903.343737991069,0.3480598476623839,1.319105831126104,0.9625302708791783,0.2874362131916928,0.6752916726445104
0.0385,1.7705010491552808,1.0,2911.0974230674583,0.35171671732788967,1.3187991634888987,0.9632451156464744,0.2874140440645218,0.675915476271615
0.039,1.769973212794066,1.0,2918.641155397431,0.35535307242981085,1.31849443222223,0.9639355279075636,0.28739187493735074,0.6765347469497427
0.0395,1.7694453764328513,1.0,2925.984679539171,0.3589690288025499,1.3181915442745458,0.9646026268225886,0.28736970581017973,0.6771496847964917
0.04,1.7689175400716366,1.0,2933.1378166671357,0.36256470228050935,1.3178904065942936,0.9652474675492569,0.2873475366830087,0.677760489143223
0.0405,1.7683897037104217,1.0,2940.1100544285146,0.3661402077886349,1.3175909296895019,0.9658710457319962,0.2873253675558377,0.6783673513359627
0.041,1.767861867349207,1.0,2946.9029659565344,0.3696956442642742,1.317293093894248,0.9664743045601442,0.2873031984286667,0.6789703206856377
0.0415,1.7673340309879921,1.0,2953.534404754322,0.37323114888402886,1.3169967375315335,0.9670581296522394,0.2872810293014957,0.6795697334003957
0.042,1.7668061946267775,1.0,2960.0095292379015,0.3767468295665977,1.3167018105960742,0.9676233625132366,0.28725886017432467,0.6801656988685216
0.0425,1.7662783582655626,1.0,2966.333536814844,0.3802427942306798,1.316408263082587,0.9681707991567724,0.28723669104715366,0.6807583260620548
0.043000000000000003,1.765750521904348,1.0,2972.5116623268914,0.38371915079497393,1.316116044985788,0.9687011930269297,0.2872145219199826,0.681347723541273
0.043500000000000004,1.7652226855431332,1.0,2978.549176548795,0.3871760071781792,1.3158251063003938,0.9692152577039237,0.2871923527928116,0.6819339994590081
0.044,1.7646948491819183,1.0,2984.4513847416442,0.3906134712989943,1.3155353970211208,0.9697136694117084,0.28717018366564057,0.6825172615648076
0.0445,1.7641670128207037,1.0,2990.2236252623875,0.3940316510761184,1.3152468671426851,0.9701970693438327,0.28714801453846955,0.6830976172089358
0.045,1.7636391764594888,1.0,2995.87126822838,0.3974306544282504,1.3149594666598035,0.9706660658223885,0.28712584541129854,0.6836751733462123
0.0455,1.763111340098274,1.0,3001.399714237789,0.40081058927408914,1.3146731455671918,0.9711212363035507,0.28710367628412753,0.6842500365396967
0.046,1.7625835037370594,1.0,3006.8143931446766,0.40417156353233363,1.3143878538595668,0.9715631292419973,0.28708150715695646,0.6848223129642081
0.0465,1.7620556673758445,1.0,3012.1207628904913,0.40751368512168284,1.3141035415316449,0.9719922658254081,0.28705933802978545,0.6853921084096883
0.047,1.7615278310146298,1.0,3017.3243083902084,0.4108370619608356,1.3138201585781422,0.9724091415892546,0.28703716890261444,0.685959528284406
0.0475,1.760999994653415,1.0,3022.4247729802314,0.4141417787258546,1.3135377048129562,0.9728142284665572,0.2870149997754434,0.6865245779994373
0.048,1.7604721582922003,1.0,3027.4319868348534,0.4174279669950929,1.313256093042805,0.9732079755135447,0.2869928306482724,0.6870874367715483
0.0485,1.7599443219309854,1.0,3032.350432211675,0.4206957341438877,1.3129752825255756,0.9735908104607162,0.2869706615211014,0.6876481904592989
0.049,1.7594164855697707,1.0,3037.18276415229,0.423945179584824,1.3126952484343124,0.9739631409214689,0.2869484923939304,0.6882068928782005
0.0495,1.758888649208556,1.0,3041.931650966731,0.42717640273048657,1.31241596594206,0.9743253554326246,0.2869263232667594,0.6887635976546225
0.05,1.7583608128473411,1.0,3046.5997738128444,0.43038950299346046,1.3121374102218628,0.9746778245196397,0.2869041541395883,0.6893183582270043
0.0505,1.7578329764861265,1.0,3051.1898262900345,0.43358457978633047,1.311859556446765,0.9750209016930772,0.2868819850124173,0.6898712278470249
0.051000000000000004,1.7573051401249116,1.0,3055.7045140450678,0.4367617325216815,1.3115823797898112,0.9753549243813533,0.2868598158852463,0.690422259580733
0.051500000000000004,1.756777303763697,1.0,3060.146554393218,0.4399210606120985,1.3113058554240458,0.975680214804366,0.28683764675807527,0.6909715063096401
0.052000000000000005,1.756249467402482,1.0,3064.518675952062,0.4430626634701664,1.3110299585225131,0.9759970807922398,0.28681547763090426,0.6915190207317723
0.0525,1.7557216310412673,1.0,3068.823618289435,0.44618664050846996,1.310754664258258,0.9763058165530872,0.2867933085037332,0.692064855362683
0.053,1.7551937946800527,1.0,3073.064131584875,0.4492930911395942,1.310479947804324,0.9766067033933783,0.2867711393765622,0.6926090625364292
0.0535,1.7546659583188378,1.0,3077.242976304662,0.45238211477612406,1.3102057843337562,0.9769000103942241,0.28674897024939117,0.6931516944065024
0.054,1.754138121957623,1.0,3081.362922890353,0.45545381083064435,1.309932149019599,0.9771859950466323,0.28672680112222015,0.6936928029467255
0.0545,1.7536102855964082,1.0,3085.4267514617113,0.45850827871573996,1.3096590170348965,0.9774649038485472,0.28670463199504914,0.6942324399521099
0.055,1.7530824492351935,1.0,3089.435448059828,0.46154560127116173,1.3093863789610856,0.9777369722032844,0.28668246286787813,0.6947706266369501
0.0555,1.7525546128739786,1.0,3093.3895043892094,0.46456586227084434,1.3091142296388496,0.9780024260127231,0.2866602937407071,0.6953073757486625
0.056,1.752026776512764,1.0,3097.295593800136,0.4675692038395102,1.3088425111883937,0.97826148411814,0.2866381246135361,0.6958428038356088
0.0565,1.7514989401515493,1.0,3101.154913740963,0.4705557158592028,1.3085712125835565,0.9785143542048849,0.2866159554863651,0.6963769348364592
0.057,1.7509711037903344,1.0,3104.968666072414,0.473525488211966,1.3083003227981773,0.9787612354900775,0.286593786359194,0.6969097926101393
0.0575,1.7504432674291197,1.0,3108.7380569666448,0.4764786107798434,1.3080298308060951,0.9790023191361134,0.286571617232023,0.6974414009361238
0.058,1.7499154310679048,1.0,3112.464296808082,0.47941517344487866,1.3077597255811493,0.979237788640769,0.286549448104852,0.6979717835147184
0.0585,1.7493875947066901,1.0,3116.1486000980904,0.4823352660891155,1.3074899960971784,0.9794678202054148,0.286527278977681,0.6985009639673381
0.059000000000000004,1.7488597583454752,1.0,3119.7921853612743,0.48523897859459747,1.3072206313280221,0.9796925830827198,0.28650510985051,0.6990289658367714
0.059500000000000004,1.7483319219842606,1.0,3123.3962750554965,0.48812640084336845,1.3069516202475189,0.9799122399051509,0.2864829407233389,0.6995558125874457
0.06,1.747804085623046,1.0,3126.9620954836096,0.4909976227174719,1.3066829518295084,0.980126946995463,0.2864607715961679,0.7000815276056741
0.0605,1.747276249261831,1.0,3130.490876708584,0.49385273409895164,1.3064146150478295,0.9803368546603025,0.2864386024689969,0.7006061341999058
0.061,1.7467484129006163,1.0,3133.983852470945,0.49669182486985136,1.306146598876321,0.9805421074679667,0.28641643334182587,0.7011296556009599
0.0615,1.7462205765394014,1.0,3137.442260109154,0.49951498491221463,1.3058788922888225,0.9807428445112834,0.28639426421465486,0.7016521149622543
0.062,1.7456927401781868,1.0,3140.8673404825754,0.5023223041080852,1.3056114842591726,0.9809391996565235,0.28637209508748385,0.7021735353600302
0.0625,1.7451649038169719,1.0,3144.260337897037,0.5051138723395068,1.3053443637612108,0.9811313017791814,0.28634992596031283,0.7026939397935632
0.063,1.7446370674557572,1.0,3147.6225000333675,0.5078897794885229,1.3050775197687758,0.9813192749874101,0.2863277568331418,0.7032133511853705
0.0635,1.7441092310945425,1.0,3150.9550778782022,0.5106501154371773,1.3048109412557072,0.9815032388338504,0.2863055877059708,0.7037317923814089
0.064,1.7435813947333276,1.0,3154.259325657951,0.5133949700675138,1.3045446171958435,0.9816833085165299,0.28628341857879974,0.7042492861512665
0.0645,1.743053558372113,1.0,3157.5365007752757,0.5161244332615758,1.304278536563024,0.9818595950694796,0.28626124945162873,0.7047658551883432
0.065,1.742525722010898,1.0,3160.7856578344463,0.5188385504304192,1.304012706963894,0.9820322034104126,0.2862390803244577,0.705281485983691
0.0655,1.7419978856496834,1.0,3164.009197818112,0.5215374485968486,1.3037471077412923,0.9822012389143998,0.2862169111972867,0.7057962198303565
0.066,1.7414700492884685,1.0,3167.2085719594247,0.5242212286494161,1.3034817262974647,0.9823668018314393,0.2861947420701157,0.7063100822816031
0.0665,1.7409422129272538,1.0,3170.384297211989,0.5268899707376095,1.3032165579425425,0.9825289878972941,0.2861725729429446,0.7068230835123621
0.067,1.7404143765660391,1.0,3173.5368919503107,0.529543755010916,1.3029515979866564,0.9826878895280627,0.2861504038157736,0.7073352336649597
0.0675,1.7398865402048243,1.0,3176.6668759475647,0.5321826616188234,1.3026868417399378,0.9828435959586728,0.2861282346886026,0.7078465428491769
0.068,1.7393587038436096,1.0,3179.774770354662,0.5348067707108194,1.3024222845125173,0.9829961933746622,0.2861060655614316,0.7083570211423151
0.0685,1.7388308674823947,1.0,3182.8610976786777,0.5374161624363913,1.3021579216145263,0.9831457650376186,0.2860838964342606,0.7088666785892532
0.069,1.73830303112118,1.0,3185.9263817631067,0.5400109169450269,1.3018937483560955,0.983292391404626,0.28606172730708956,0.709375525202508
0.0695,1.7377751947599651,1.0,3188.971147767265,0.5425911143862137,1.3016297600473563,0.9834361502420386,0.28603955817991855,0.7098835709622904
0.07,1.7372473583987504,1.0,3191.995922147236,0.5451568349094391,1.3013659519984395,0.983577116733893,0.28601738905274754,0.7103908258165633
