Time [s],Phi [rad],STIM [ ],Fsee [N],Gamma [ ],Lcerel [ ],q [ ],Lmtc [m],fisomrel [ ]
0.0,1.8,1.0,17.973269137304136,9.16981135631263e-05,1.3793390616449477,0.005002202170837692,0.288653,0.5411411872140643
0.0005,1.79999375,1.0,18.309856272138003,0.005700393068481203,1.3792987113412418,0.013168883948518374,0.2886527375,0.5412387996647746
0.001,1.799975,1.0,21.712317951543255,0.01127762767922773,1.3789287182933445,0.03603557934604917,0.28865195,0.5421333751676121
0.0015,1.79994375,1.0,31.29301511902426,0.016823578414385355,1.3780271727234858,0.07118540061793584,0.2886506375,0.5443094919728566
0.002,1.7999,1.0,54.065004793509274,0.022338420750769875,1.3763368921718804,0.11540860604575437,0.2886488,0.5483754578775846
0.0025,1.79984375,1.0,97.92989725339348,0.027822329181539797,1.3738961702902155,0.16532585923730037,0.28864643749999996,0.5542144574053258
0.003,1.7997750000000001,1.0,162.01311760272606,0.033275477223161765,1.3711749204360084,0.21805499718269916,0.28864354999999997,0.5606797781866162
0.0035,1.79969375,1.0,238.87516555675023,0.038698037415611335,1.368548068499249,0.27138313024549937,0.2886401375,0.5668760242521456
0.004,1.7996,1.0,322.73470996200047,0.04409018133298029,1.366122542594442,0.3236615175504184,0.2886362,0.5725583029470056
0.0045000000000000005,1.7994937500000001,1.0,410.5807067996461,0.04945207958871286,1.3638920187630847,0.3737423266710921,0.2886317375,0.5777506335475981
0.005,1.799375,1.0,500.7531979439694,0.05478390182716176,1.3618298930316013,0.4209096368411874,0.28862675,0.5825227312140944
0.0055,1.79924375,1.0,592.1417915295059,0.06008581676647167,1.3599124475406192,0.4647867458489725,0.2886212375,0.5869356827338043
0.006,1.7991000000000001,1.0,683.8707718499381,0.0653579921526484,1.3581218390954406,0.5052433344757054,0.2886152,0.5910355496265924
0.006500000000000001,1.79894375,1.0,775.2262027716519,0.07060059480472118,1.3564443044918317,0.5423158585001415,0.2886086375,0.5948579649085917
0.007,1.798775,1.0,865.5963478702073,0.07581379025254856,1.35486923364865,0.5761463737318556,0.28860155,0.5984305708214918
0.0075,1.79859375,1.0,954.5491799170711,0.08099774450660989,1.3533866989826184,0.6069368478772162,0.2885939375,0.6017788296625263
0.008,1.7984,1.0,1041.645935548849,0.08615262075403497,1.3519896966423477,0.63491990063954,0.2885858,0.6049210888317221
0.0085,1.79819375,1.0,1126.5630340450832,0.09127858180719581,1.350671567891388,0.660336824263696,0.2885771375,0.6078745263794503
0.009000000000000001,1.797975,1.0,1209.0862651075759,0.09637579029477425,1.3494258325919333,0.6834246497597443,0.28856795,0.6106555724407979
0.0095,1.79774375,1.0,1289.0431272426977,0.10144440772362605,1.3482468974348545,0.7044089274188448,0.2885582375,0.6132783750860904
0.01,1.7975,1.0,1366.2930084795596,0.10648459410040409,1.34712991664238,0.7234995127775522,0.288548,0.6157551689153518
0.0105,1.79724375,1.0,1440.7442006260103,0.11149650884743977,1.3460703730727712,0.7408885449547866,0.2885372375,0.6180972477081408
0.011,1.796975,1.0,1512.3675369997488,0.1164803111092526,1.3450637867800623,0.7567499966153409,0.28852595000000003,0.6203156347353433
0.0115,1.79669375,1.0,1581.1294607147997,0.12143615804296057,1.344106437511163,0.7712406003202417,0.2885141375,0.6224195142327041
0.012,1.7964,1.0,1647.029644839296,0.12636420640601137,1.343194782126828,0.7845006239517605,0.28850180000000003,0.6244175431151757
0.0125,1.79609375,1.0,1710.1018592370472,0.13126461219827426,1.3423253779338498,0.7966551654384209,0.2884889375,0.6263180345103538
0.013000000000000001,1.7957750000000001,1.0,1770.395328409355,0.13613753117737373,1.3414950405080444,0.8078156374857578,0.28847555,0.6281286266212027
0.0135,1.79544375,1.0,1827.944461761893,0.14098311666269928,1.3407011202430836,0.8180812628348955,0.2884616375,0.6298556972739409
0.014,1.7951000000000001,1.0,1882.8110869834843,0.14580152197364046,1.3399409675326388,0.8275401843752486,0.2884472,0.6315055439826959
0.0145,1.79474375,1.0,1935.059045313205,0.1505928991716067,1.3392121811896807,0.8362707995087114,0.2884322375,0.6330838524634543
0.015,1.794375,1.0,1984.797504745441,0.15535740193105982,1.3385121072422734,0.8443427104962022,0.28841675,0.6345967897015166
0.0155,1.79399375,1.0,2032.087520751991,0.16009517980038596,1.3378388179867653,0.8518180747593602,0.2884007375,0.6360488936903868
0.016,1.7936,1.0,2076.9983944423225,0.1648063818866874,1.3371904649340387,0.8587522678358641,0.2883842,0.6374444845585676
0.0165,1.7931937500000001,1.0,2119.6136193896677,0.16949115729706643,1.3365651995949757,0.8651946621907387,0.2883671375,0.6387878393545734
0.017,1.792775,1.0,2160.014691623987,0.17414965450448938,1.3359613264876782,0.8711893830021935,0.28834955,0.6400828670428562
0.0175,1.7923437500000001,1.0,2198.312228797392,0.17878202191017536,1.335376969711323,0.8767758319317873,0.2883314375,0.6413338271277118
0.018000000000000002,1.791901157678252,1.0,2234.6378900786085,0.18338840616971908,1.334810674405863,0.8819894078932402,0.2883128486224866,0.6425440443363878
0.0185,1.7914565374511375,1.0,2269.4477396995894,0.1879689519241342,1.3342615372928845,0.8868620016882193,0.28829417457294776,0.6437156399445075
0.019,1.791011917224023,1.0,2302.883722912611,0.1925238038144346,1.333728655093974,0.8914222561337087,0.288275500523409,0.6448507167384163
0.0195,1.7905672969969086,1.0,2335.001847275846,0.197053106481634,1.3332111245307172,0.895695938875715,0.2882568264738702,0.6459513599775984
0.02,1.7901226767697942,1.0,2365.8521906054975,0.20155700332984672,1.332708140912803,0.8997062912506439,0.2882381524243314,0.6470194291146252
0.0205,1.7896780565426795,1.0,2395.482270265842,0.20603563763603094,1.3322189594918263,0.9034743031314159,0.28821947837479256,0.6480566420732405
0.021,1.789233436315565,1.0,2423.9344247257795,0.21048915013416344,1.3317429165183963,0.9070189649977604,0.28820080432525375,0.649064532333764
0.021500000000000002,1.7887888160884506,1.0,2451.2537701545725,0.21491768155101706,1.3312793485343297,0.9103574713384394,0.28818213027571493,0.6500446212840245
0.022,1.7883441958613362,1.0,2477.4788585717383,0.21932136984009293,1.3308276796949685,0.913505431389861,0.2881634562261761,0.6509982345269238
0.0225,1.7878995756342217,1.0,2502.666141231641,0.2237003579403493,1.3303871856420386,0.9164769959283964,0.2881447821766373,0.6519270011592255
0.023,1.787454955407107,1.0,2526.8659683940164,0.22805478685143177,1.3299572223973153,0.9192850523138911,0.2881261081270985,0.6528323704969663
0.0235,1.7870103351799926,1.0,2550.1116227781495,0.23238479194218636,1.3295373260196195,0.9219413721628396,0.2881074340775597,0.6537154042086704
0.024,1.7865657149528782,1.0,2572.4379838506866,0.23669050858145912,1.3291270325677729,0.9244566952656382,0.28808876002802086,0.6545771569934062
0.0245,1.7861210947257637,1.0,2593.881426661235,0.24097207213809607,1.3287258781005964,0.9268408342486327,0.28807008597848205,0.6554186768717853
0.025,1.7856764744986493,1.0,2614.479725450229,0.24522961798094325,1.3283333986769115,0.9291027673538448,0.28805141192894324,0.656241005463228
0.025500000000000002,1.7852318542715346,1.0,2634.271962028702,0.24946328147884667,1.3279491303555395,0.9312507208065112,0.2880327378794044,0.6570451782495068
0.026000000000000002,1.7847872340444202,1.0,2653.298438930797,0.25367319800065236,1.3275726091953017,0.9332922420471195,0.28801406382986566,0.6578322248245603
0.0265,1.7843426138173057,1.0,2671.584977239263,0.2578594969275699,1.3272035147662917,0.9352342850267642,0.28799538978032685,0.6586028696574782
0.027,1.7838979935901913,1.0,2689.180936517473,0.26202231865365866,1.3268413189223545,0.9370832189973747,0.28797671573078804,0.6593582660876779
0.0275,1.7834533733630769,1.0,2706.1115170086305,0.2661617924698337,1.3264857240068741,0.9388449405742862,0.2879580416812492,0.660099081695495
0.028,1.7830087531359622,1.0,2722.401902309263,0.2702780473562328,1.3261364389528025,0.9405248880768666,0.2879393676317104,0.6608259667958702
0.0285,1.7825641329088477,1.0,2738.077932473794,0.274371212292994,1.3257931726930923,0.9421280824001875,0.2879206935821716,0.6615395683245184
0.029,1.7821195126817333,1.0,2753.1660642337606,0.2784414162602552,1.325455634160695,0.9436591645061818,0.2879020195326328,0.6622405299523595
0.029500000000000002,1.7816748924546189,1.0,2767.6933330954325,0.2824887882381545,1.325123532288563,0.9451224290972579,0.287883345483094,0.6629294921945399
0.03,1.7812302722275044,1.0,2781.687317315384,0.2865134572068297,1.3247965760096487,0.9465218549027655,0.2878646714335552,0.6636070925140577
0.0305,1.78078565200039,1.0,2795.1719301550775,0.29051554940776175,1.3244745117450354,0.9478611359159742,0.2878459973840164,0.6642738878438167
0.031,1.7803410317732753,1.0,2808.1709600324334,0.294495192129819,1.3241570909555747,0.9491437027016925,0.2878273233344776,0.6649304221403677
0.0315,1.7798964115461609,1.0,2820.7146143587643,0.29845251731860317,1.323844011334864,0.9503727383172138,0.28780864928493877,0.6655773479672975
0.032,1.7794517913190464,1.0,2832.8194804164423,0.3023876474040971,1.3235350959576266,0.9515512164226178,0.28778997523539995,0.6662150563893154
0.0325,1.779007171091932,1.0,2844.5024338141952,0.3063007048162839,1.3232301678985858,0.952681906156313,0.28777130118586114,0.6668439367354975
0.033,1.7785625508648175,1.0,2855.7806224991045,0.3101918119851464,1.322929050232465,0.9537673886947022,0.2877526271363223,0.6674643766452744
0.0335,1.7781179306377028,1.0,2866.671451462531,0.3140610913406677,1.3226315660339876,0.9548100722818583,0.2877339530867835,0.6680767621124257
0.034,1.7776733104105884,1.0,2877.192568139829,0.3179086653128306,1.3223375383778768,0.9558122058868715,0.2877152790372447,0.6686814775270753
0.0345,1.777228690183474,1.0,2887.361848504856,0.3217346563316182,1.322046790338856,0.9567758916287318,0.2876966049877059,0.6692789057156918
0.035,1.7767840699563595,1.0,2897.1973838576732,0.32553918682701344,1.3217591449916484,0.9577030960929594,0.28767793093816707,0.6698694279790924
0.035500000000000004,1.776339449729245,1.0,2906.7102130932553,0.3293223716265352,1.3214744893162107,0.9585956655309641,0.28765925688862826,0.6704532931086784
0.036000000000000004,1.7758948295021304,1.0,2915.921752341645,0.3330843389460166,1.3211926203077464,0.9594553239550824,0.28764058283908944,0.671030933226543
0.0365,1.775450209275016,1.0,2924.8476233140814,0.3368252103450464,1.3209133875992962,0.9602836920544312,0.2876219087895507,0.6716026711082395
0.037,1.7750055890479015,1.0,2933.4980900126848,0.34054510125142506,1.3206366891378947,0.961082294474556,0.28760323474001187,0.6721687295238811
0.0375,1.774560968820787,1.0,2941.8835290248094,0.3442441270929527,1.320362422870576,0.9618525634022799,0.28758456069047306,0.6727293303969843
0.038,1.7741163485936726,1.0,2950.014423903758,0.34792240329742957,1.3200904867443741,0.9625958452012373,0.28756588664093424,0.6732846948206304
0.0385,1.7736717283665582,1.0,2957.9013597814333,0.3515800452926559,1.3198207787063232,0.9633134065010823,0.28754721259139543,0.6738350430729625
0.039,1.7732271081394435,1.0,2965.5550182110837,0.3552171685064319,1.3195531967034575,0.9640064397908217,0.2875285385418566,0.6743805946320198
0.0395,1.772782487912329,1.0,2972.986172241572,0.3588338883665579,1.3192876386828114,0.9646760685615969,0.2875098644923178,0.6749215681899059
0.04,1.7723378676852146,1.0,2980.20568172239,0.362430320300834,1.3190240025914186,0.965323352039653,0.28749119044277904,0.6754581816662963
0.0405,1.7718932474581002,1.0,2987.2244888390314,0.3660065797370605,1.3187621863763137,0.9659492895461818,0.28747251639324023,0.6759906522212763
0.041,1.7714486272309857,1.0,2994.0476732236257,0.3695627710705014,1.3185021395420804,0.9665548270099354,0.2874538423437014,0.6765190915405521
0.0415,1.771004007003871,1.0,3000.6888721591326,0.373099018031189,1.3182437378196599,0.9671408551583902,0.2874351682941626,0.6770437606459554
0.042,1.7705593867767566,1.0,3007.1584481996447,0.37661543758512855,1.3179868860123916,0.9677082172382628,0.2874164942446238,0.6775648607274947
0.0425,1.7701147665496422,1.0,3013.4622018911996,0.38011213759514645,1.3177315289419187,0.9682577126492952,0.287397820195085,0.6780825112124703
0.043000000000000003,1.7696701463225277,1.0,3019.605975712724,0.38358922592406913,1.3174776114298854,0.9687900980238241,0.28737914614554616,0.6785968311249193
0.043500000000000004,1.7692255260954133,1.0,3025.5956522813817,0.38704681043472317,1.317225078297935,0.9693060899458734,0.28736047209600735,0.6791079390907815
0.044,1.7687809058682988,1.0,3031.4371526250875,0.39048499898993494,1.316973874367711,0.9698063674711318,0.28734179804646853,0.6796159533428652
0.0445,1.7683362856411842,1.0,3037.136434522624,0.393903899452531,1.3167239444608574,0.9702915744642356,0.2873231239969297,0.6801209917256241
0.045,1.7678916654140697,1.0,3042.699490911267,0.3973036196853378,1.3164752333990173,0.9707623217682793,0.2873044499473909,0.6806231716997371
0.0455,1.7674470451869553,1.0,3048.1323483618435,0.40068426755118175,1.3162276860038349,0.971219189220125,0.2872857758978521,0.6811226103464925
0.046,1.7670024249598408,1.0,3053.4410656215027,0.40404595091288936,1.3159812470969534,0.9716627275238698,0.2872671018483133,0.6816194243719838
0.0465,1.7665578047327264,1.0,3058.631732223889,0.4073887776332872,1.3157358615000168,0.9720934599937231,0.2872484277987745,0.6821137301111041
0.047,1.7661131845056117,1.0,3063.7104671663296,0.41071285557520154,1.3154914740346684,0.9725118841765658,0.2872297537492357,0.6826056435313526
0.0475,1.7656685642784973,1.0,3068.676902181374,0.4140182699485416,1.3152480853769792,0.9729184743989777,0.2872110796996969,0.6830951679405256
0.048,1.7652239440513828,1.0,3073.5426265530223,0.41730515369296145,1.3150055938315917,0.9733136810311293,0.2871924056501581,0.683582512292112
0.0485,1.7647793238242684,1.0,3078.3118763902903,0.4205736111553894,1.3147639610114439,0.9736979336529863,0.28717373160061926,0.6840677578073541
0.049,1.764334703597154,1.0,3082.9876490875304,0.4238237419791619,1.3145231592859146,0.9740716416802071,0.28715505755108045,0.684550963880125
0.0495,1.7638900833700393,1.0,3087.5729565401803,0.42705564580761557,1.3142831610243824,0.9744351953563546,0.28713638350154164,0.6850321897210527
0.05,1.7634454631429248,1.0,3092.0708246438116,0.4302694222840869,1.3140439385962257,0.9747889668239264,0.2871177094520028,0.6855114943589605
0.0505,1.7630008429158104,1.0,3096.484292810624,0.43346517105191235,1.3138054643708235,0.9751333111262428,0.28709903540246406,0.6859889366422571
0.051000000000000004,1.762556222688696,1.0,3100.816413502378,0.43664299175442856,1.313567710717554,0.9754685671452368,0.28708036135292525,0.6864645752402817
0.051500000000000004,1.7621116024615815,1.0,3105.070251780745,0.439802984034972,1.3133306500057964,0.9757950584797831,0.28706168730338644,0.6869384686445954
0.052000000000000005,1.761666982234467,1.0,3109.248884874237,0.44294524753687914,1.3130942546049291,0.9761130942688272,0.2870430132538476,0.687410675170229
0.0525,1.7612223620073524,1.0,3113.355401762126,0.44606988190348656,1.3128584968843309,0.976422969963235,0.2870243392043088,0.6878812529568786
0.053,1.760777741780238,1.0,3117.3929027754375,0.4491769867781308,1.31262334921338,0.9767249680499799,0.28700566515477,0.6883502599700542
0.0535,1.7603331215531235,1.0,3121.364499214553,0.4522666618041484,1.3123887839614559,0.9770193587319945,0.2869869911052312,0.6888177540021775
0.054,1.759888501326009,1.0,3125.2733129842622,0.4553390066248758,1.3121547734979362,0.9773064005667583,0.28696831705569237,0.6892837926736357
0.0545,1.7594438810988946,1.0,3129.122476245117,0.45839412088364967,1.3119212901922004,0.9775863410664558,0.28694964300615355,0.6897484334337791
0.055,1.75899926087178,1.0,3132.9095014910267,0.46143206117598834,1.3116883541764637,0.9778594159908753,0.28693096895661474,0.6902116386185183
0.0555,1.7585546406446655,1.0,3136.642600076609,0.4644529752116972,1.311455894832919,0.9781258545076212,0.2869122949070759,0.6906735509369444
0.056,1.758110020417551,1.0,3140.3242017457083,0.467456962036938,1.3112238907206317,0.9783858745038531,0.2868936208575371,0.6911342150660469
0.0565,1.7576654001904366,1.0,3143.955671725049,0.4704441120042818,1.3109923294767254,0.9786396846131824,0.28687494680799835,0.6915936575466833
0.057,1.7572207799633222,1.0,3147.5383799435185,0.4734145154663001,1.3107611987383236,0.9788874849553555,0.28685627275845954,0.6920519048428575
0.0575,1.7567761597362075,1.0,3151.07370091261,0.476368262775564,1.3105304861425502,0.9791294675522579,0.2868375987089207,0.6925089833420646
0.058,1.756331539509093,1.0,3154.563013610184,0.47930544428464483,1.3103001793265288,0.9793658167203643,0.2868189246593819,0.6929649193556253
0.0585,1.7558869192819786,1.0,3158.0077013674772,0.4822261503461138,1.310070265927383,0.9795967094411491,0.2868002506098431,0.6934197391190113
0.059000000000000004,1.7554422990548642,1.0,3161.4091517595025,0.48513047131254233,1.3098407335822366,0.9798223157108585,0.2867815765603043,0.6938734687921604
0.059500000000000004,1.7549976788277497,1.0,3164.7687564990797,0.48801849753650156,1.3096115699282134,0.9800427988709469,0.28676290251076547,0.6943261344597802
0.06,1.754553058600635,1.0,3168.0879113338733,0.4908903193705628,1.3093827626024366,0.9802583159203905,0.28674422846122666,0.6947777621316467
0.0605,1.7541084383735206,1.0,3171.368015947166,0.4937460271672973,1.3091542992420304,0.9804690178110034,0.28672555441168784,0.6952283777428863
0.061,1.7536638181464062,1.0,3174.61047386199,0.4965857112792764,1.3089261674841182,0.9806750497268071,0.2867068803621491,0.6956780071542557
0.0615,1.7532191979192917,1.0,3177.8166923480417,0.4994094620590714,1.3086983549658235,0.980876551348429,0.28668820631261027,0.6961266761524056
0.062,1.7527745776921773,1.0,3180.9880823331578,0.5022173698592534,1.3084708493242705,0.9810736571034412,0.28666953226307146,0.6965744104501378
0.0625,1.7523299574650628,1.0,3184.1260583171133,0.5050095250323938,1.3082436381965823,0.981266496403483,0.28665085821353264,0.6970212356866534
0.063,1.7518853372379481,1.0,3187.232038289201,0.5077860179310638,1.3080167092198831,0.9814551938689665,0.28663218416399383,0.697467177427787
0.0635,1.7514407170108337,1.0,3190.3074436493744,0.5105469389078349,1.3077900500312962,0.9816398695420977,0.286613510114455,0.6979122611662378
0.064,1.7509960967837193,1.0,3193.353699132358,0.513292378315278,1.3075636482679454,0.9818206390889017,0.2865948360649162,0.6983565123217845
0.0645,1.7505514765566048,1.0,3196.3694408512847,0.5160223781323675,1.307337515017677,0.9819976117962189,0.2865761620153774,0.6987999102766557
0.065,1.7501068563294904,1.0,3199.3580392001663,0.5187370768106667,1.3071116216038074,0.9821708977288268,0.2865574879658386,0.6992425123593106
0.0655,1.7496622361023757,1.0,3202.3207402956014,0.5214365676893437,1.3068859572331992,0.982340600795015,0.28653881391629976,0.6996843407304305
0.066,1.7492176158752613,1.0,3205.258131932446,0.5241209315153011,1.3066605166576732,0.9825068206557437,0.28652013986676095,0.7001254066430131
0.0665,1.7487729956481468,1.0,3208.170803390901,0.526790249035442,1.306435294629051,0.982669653486908,0.28650146581722213,0.7005657213188992
0.067,1.7483283754210324,1.0,3211.059345411022,0.5294446009966692,1.3062102858991531,0.9828291921258921,0.2864827917676834,0.7010052959488486
0.0675,1.747883755193918,1.0,3213.92435016717,0.5320840681458856,1.3059854852198014,0.9829855262109699,0.28646411771814456,0.7014441416926107
0.068,1.7474391349668033,1.0,3216.766411244063,0.534708731229994,1.3057608873428168,0.9831387423139417,0.28644544366860575,0.7018822696789965
0.0685,1.7469945147396888,1.0,3219.586123612414,0.5373186709958974,1.3055364870200206,0.9832889240663862,0.28642676961906693,0.7023196910059465
0.069,1.7465498945125744,1.0,3222.384083605956,0.5399139681904985,1.3053122790032339,0.9834361522798715,0.2864080955695281,0.7027564167405979
0.0695,1.74610527428546,1.0,3225.160888898477,0.5424947035607004,1.305088258044278,0.9835805050604558,0.2863894215199893,0.7031924579193497
