Time [s],Phi [rad],STIM [ ],Fsee [N],Gamma [ ],Lcerel [ ],q [ ],Lmtc [m],fisomrel [ ]
0.0,1.8,1.0,17.994726294881435,0.00017422216901025268,1.3793366588513358,0.0050079091948040865,0.288653,0.5411470001642387
0.0005,1.79999375,1.0,18.3580601964493,0.005782454229252474,1.3792933651837442,0.013402716662304096,0.2886527375,0.5412517319119605
0.001,1.799975,1.0,21.82177361091255,0.011359228541778928,1.378917577241443,0.03646947405242855,0.28865195,0.5421602986526628
0.0015,1.79994375,1.0,31.535194375650804,0.016904721560643973,1.3780066534120698,0.07177681482357468,0.2886506375,0.5443589603833141
0.002,1.7999,1.0,54.57111873800036,0.02241910874807474,1.376304281126016,0.11610740858544022,0.2886488,0.5484537245096694
0.0025,1.79984375,1.0,98.76754763567257,0.0279025645830292,1.373856058985172,0.1660850756205775,0.28864643749999996,0.5543100993624859
0.003,1.7997750000000001,1.0,163.0946219437273,0.0333552625674739,1.3711346378271503,0.21883758968941355,0.28864354999999997,0.5607751294799426
0.0035,1.79969375,1.0,240.09248888070974,0.03877737522718337,1.368510712911245,0.27216105207186847,0.2886401375,0.5669638216506567
0.004,1.7996,1.0,324.02708172627257,0.04416907412213736,1.3660884140413885,0.32441443731779146,0.2886362,0.5726379882163932
0.0045000000000000005,1.7994937500000001,1.0,411.91713818576164,0.04953052985182708,1.3638607232698008,0.3744568220356395,0.2886317375,0.5778232591249282
0.005,1.799375,1.0,502.11544416130766,0.05486191204712464,1.3618010037953339,0.42157794994908715,0.28862675,0.5825893930251557
0.0055,1.79924375,1.0,593.5149807026359,0.06016338940932437,1.3598856649041706,0.4654054018926434,0.2886212375,0.5869971562387851
0.006,1.7991000000000001,1.0,685.2438501113908,0.0654351296741739,1.3580969173866146,0.505811822103543,0.2886152,0.5910924673412121
0.006500000000000001,1.79894375,1.0,776.5893275309691,0.07067729963567394,1.356421065462876,0.5428356217968476,0.2886086375,0.5949107911170541
0.007,1.798775,1.0,866.9604921500525,0.07589006519365366,1.354847223703002,0.5766198396296678,0.28860155,0.5984803821118356
0.0075,1.79859375,1.0,955.8689138622684,0.08107359118310475,1.3533664210078715,0.6073676523700173,0.2885939375,0.6018245296686471
0.008,1.7984,1.0,1042.9334989969914,0.08622804183704562,1.351970757434448,0.6353113718160813,0.2885858,0.6049636030325926
0.0085,1.79819375,1.0,1127.830661280213,0.09135357998131899,1.3506536379415752,0.6606923545687314,0.2885771375,0.6079146243569473
0.009000000000000001,1.797975,1.0,1210.32510392788,0.09645036783306368,1.3494089179683473,0.6837477004328112,0.28856795,0.6106932654470305
0.0095,1.79774375,1.0,1290.2490922098366,0.10151856701669626,1.3482309501480232,0.7047027129521866,0.2885582375,0.613313792598868
0.01,1.7975,1.0,1367.4585460112546,0.10655833740245524,1.3471149457004037,0.7237670214432139,0.288548,0.6157883114521869
0.0105,1.79724375,1.0,1441.8677650502316,0.11156983834017563,1.3460563188358268,0.741132458789728,0.2885372375,0.6181282659240963
0.011,1.796975,1.0,1513.4509566389804,0.11655322928321861,1.3450505592837174,0.7569727202695982,0.28852595000000003,0.6203447434247252
0.0115,1.79669375,1.0,1582.1780879970177,0.12150866745808137,1.3440939161130037,0.7714442753326144,0.2885141375,0.6224469926467385
0.012,1.7964,1.0,1648.0405290044164,0.1264363091384639,1.343182955212779,0.7846872092362164,0.28850180000000003,0.6244434287354074
0.0125,1.79609375,1.0,1711.067984067627,0.13133631036489823,1.3423142849518883,0.7968264269690808,0.2884889375,0.62634225228915
0.013000000000000001,1.7957750000000001,1.0,1771.314059581501,0.13620882673481147,1.341484672761533,0.8079731252515457,0.28847555,0.6281512062147598
0.0135,1.79544375,1.0,1828.831717317064,0.14105401268789297,1.3406912664845274,0.818226277519345,0.2884616375,0.6298771075930125
0.014,1.7951000000000001,1.0,1883.6670016925661,0.14587202064093746,1.3399316012955718,0.8276739487806231,0.2884472,0.6315258496193509
0.0145,1.79474375,1.0,1935.889931747349,0.15066300301073962,1.339203212369366,0.8363943782294309,0.2884322375,0.6331032548415267
0.015,1.794375,1.0,1985.5763087758746,0.15542711120415378,1.3385038065393797,0.844457170423862,0.28841675,0.6346147096886167
0.0155,1.79399375,1.0,2032.8261099068152,0.16016449766402932,1.3378310379859437,0.8519242318126996,0.2884007375,0.6360656561649868
0.016,1.7936,1.0,2077.7102704647373,0.16487531151976484,1.3371830477944093,0.8588508457359721,0.2883842,0.6374604345665595
0.0165,1.7931937500000001,1.0,2120.3001311753637,0.16955970092411404,1.3365581189655817,0.8652863455389784,0.2883671375,0.6388030374947364
0.017,1.792775,1.0,2160.679461387547,0.1742178140298307,1.3359545345002664,0.871274776800046,0.28834955,0.6400974194793028
0.0175,1.7923437500000001,1.0,2198.9380386780113,0.17884979840894996,1.3353706316826335,0.876855536967084,0.2883314375,0.641347383306095
0.018000000000000002,1.7919,1.0,2235.167484843958,0.1834558014598773,1.3348048317044352,0.8820639295497646,0.2883128,0.6425565199852195
0.0185,1.79144375,1.0,2269.4538244616115,0.1880359696097907,1.334255701659395,0.8869316561739933,0.2882936375,0.6437280800643672
0.019,1.790975,1.0,2301.8653265062344,0.1925904464493754,1.333722061771591,0.8914872568388612,0.28827395,0.6448647496394082
0.0195,1.79049375,1.0,2332.476713336436,0.19711937556931655,1.333202732265102,0.8957564100300235,0.2882537375,0.6459691939128529
0.02,1.79,1.0,2361.368623279121,0.20162290056029938,1.3326965333640064,0.8997622575627239,0.288233,0.6470440583149637
0.0205,1.78949375,1.0,2388.615627119591,0.20610116339353218,1.3322023968092007,0.9035257134942579,0.2882117375,0.6480917332723928
0.021,1.788975,1.0,2414.306437791595,0.21055430821351684,1.3317191629638019,0.9070656683008544,0.28818995000000003,0.6491147861052126
0.021500000000000002,1.78844375,1.0,2438.5087833705525,0.2149824755749599,1.3312459169800537,0.910399279087373,0.2881676375,0.6501152502679954
0.022,1.7879,1.0,2461.281499396564,0.21938580417040543,1.3307818634356907,0.9135421302492885,0.2881448,0.6510948942028446
0.0225,1.78734375,1.0,2482.686480777299,0.22376443269239765,1.3303262069084474,0.9165083778220858,0.28812143749999997,0.6520554752215485
0.023,1.786775,1.0,2502.7884271300186,0.2281184998334806,1.3298781519760585,0.9193109001676291,0.28809755,0.6529987399517234
0.0235,1.78619375,1.0,2521.6524821513613,0.23244814390614402,1.3294369232646999,0.9219614345422312,0.28807313749999996,0.6539263826208171
0.024,1.7856,1.0,2539.3340546389068,0.23675350110840768,1.3290018588885197,0.9244707103103137,0.2880482,0.6548398496425336
0.0245,1.78499375,1.0,2555.911881308762,0.2410347113945667,1.328572096088854,0.9268484975788582,0.2880227375,0.6557410002288804
0.025,1.784375,1.0,2571.4302694696885,0.24529190819469354,1.3281471135795027,0.9291037928246653,0.28799675,0.6566309689076562
0.025500000000000002,1.78374375,1.0,2585.9349469541767,0.24952522493886062,1.3277263900742657,0.9312448390226512,0.2879702375,0.6575108840844714
0.026000000000000002,1.7831000000000001,1.0,2599.4729446366214,0.25373479505714036,1.3273094042869429,0.9332791989843422,0.2879432,0.6583818681930056
0.0265,1.78244375,1.0,2612.092484976084,0.2579207519796052,1.3268956349313346,0.9352138206643313,0.2879156375,0.6592450378279326
0.027,1.781775,1.0,2623.842876584594,0.2620832291363276,1.3264845607212403,0.9370550953997596,0.28788755,0.6601015038605189
0.0275,1.7810937500000001,1.0,2634.7682336493717,0.26622235612850964,1.3260757175560525,0.9388089169353523,0.2878589375,0.6609522526157701
0.028,1.7804,1.0,2644.91969192383,0.270338269126258,1.3256685843089164,0.9404807146145626,0.2878298,0.66179838391016
0.0285,1.77969375,1.0,2654.3318138966433,0.27443109635826635,1.3252628000914817,0.9420755211246352,0.2878001375,0.6626406596831915
0.029,1.778975,1.0,2663.039342989545,0.278500965806391,1.3248580080077736,0.9435979886832625,0.28776995,0.6634798298253229
0.029500000000000002,1.7782437500000001,1.0,2671.077580263362,0.28254800545248854,1.3244538511618171,0.9450524222841278,0.2877392375,0.664316640517428
0.03,1.7775,1.0,2678.4823333097556,0.2865723432784153,1.3240499726576376,0.9464428100582521,0.287708,0.6651518342493123
0.0305,1.77674375,1.0,2685.2898679669875,0.2905741072660278,1.32364601559926,0.9477728506195715,0.2876762375,0.6659861498301134
0.031,1.775975,1.0,2691.528364311965,0.2945534205155127,1.323241700882233,0.9490459860637458,0.28764395,0.6668201620241103
0.0315,1.7751937500000001,1.0,2697.231185308043,0.29851041157192404,1.322836705065645,0.9502654114224335,0.2876111375,0.6676545339998651
0.032,1.7744,1.0,2702.4399039478435,0.30244521412207126,1.3224306326413244,0.951434091689868,0.2875778,0.6684900737707759
0.0325,1.77359375,1.0,2707.1758537735664,0.3063579493652581,1.3220232756940618,0.9525548066062915,0.2875439375,0.6693271999721502
0.033,1.772775,1.0,2711.4605786602565,0.31024873850078855,1.3216144263086482,0.9536301470252387,0.28750955,0.6701663290502522
0.0335,1.7719437500000002,1.0,2715.315813193809,0.31411770272796635,1.3212038765698746,0.9546625300184328,0.2874746375,0.6710078752438928
0.034,1.7711000000000001,1.0,2718.763464006732,0.3179649632460955,1.3207914185625318,0.9556542126016464,0.2874392,0.6718522505632607
0.0345,1.7702437500000001,1.0,2721.8255920728147,0.3217906412544798,1.3203768443714108,0.9566073042220046,0.2874032375,0.6726998647659976
0.035,1.7693750000000001,1.0,2724.5243959598815,0.32559485795242316,1.3199599460813025,0.957523778131514,0.28736675,0.6735511253305165
0.035500000000000004,1.76849375,1.0,2726.8821960412542,0.3293777345392294,1.319540515776998,0.9584054817578123,0.2873297375,0.6744064374265629
0.036000000000000004,1.7676,1.0,2728.9214196654316,0.3331393922142024,1.319118345543288,0.9592541461709816,0.2872922,0.6752662038830186
0.0365,1.76669375,1.0,2730.6613733771896,0.3368799488385534,1.3186932566719458,0.9600713969434075,0.2872541375,0.676130765790272
0.037,1.765775,1.0,2732.1182055535405,0.340599521964447,1.3182650998447536,0.9608587625838744,0.28721555,0.6770004024898247
0.0375,1.76484375,1.0,2733.3150260288317,0.3442982376450068,1.3178336630870784,0.9616176744130399,0.2871764375,0.6778755185224794
0.038,1.7639,1.0,2734.26426919956,0.34797620988067346,1.317398831919958,0.9623494846446261,0.28713679999999997,0.678756318545428
0.0385,1.76294375,1.0,2734.978413082714,0.3516335526718878,1.3169604918644304,0.9630554652437633,0.28709663750000003,0.6796430057304157
0.039,1.761975,1.0,2735.4699737477363,0.35527038001909034,1.316518528441533,0.9637368135593397,0.28705595,0.6805357817385409
0.0395,1.7609937500000001,1.0,2735.751500040079,0.35888680592272193,1.3160728271723041,0.964394657502528,0.2870147375,0.681434846694218
0.04,1.76,1.0,2735.835568594428,0.36248294438322326,1.3156232735777809,0.965030060312519,0.286973,0.6823403991583077
0.0405,1.7589937500000001,1.0,2735.734779139226,0.366058909401035,1.3151697531790016,0.9656440249464131,0.2869307375,0.6832526361004057
0.041,1.757975,1.0,2735.461750091168,0.369614814976598,1.314712151497004,0.966237498126554,0.28688795,0.6841717528703024
0.0415,1.75694375,1.0,2735.029114440559,0.3731507751103528,1.3142503540528254,0.9668113740753448,0.2868446375,0.685097943168603
0.042,1.7559,1.0,2734.4427072505514,0.3766668925290633,1.3137843081998057,0.9673665012695697,0.28680079999999997,0.686031275279239
0.0425,1.75484375,1.0,2733.7170518173584,0.38016328784485665,1.3133138824776978,0.9679036785911257,0.2867564375,0.6869719740011205
0.043000000000000003,1.753775,1.0,2732.8662478889873,0.38364008092782487,1.3128389493077575,0.9684236621918761,0.28671155,0.6879202544515892
0.043500000000000004,1.75269375,1.0,2731.8966113562756,0.3870973780899423,1.3123594518374273,0.9689271715863993,0.28666613750000003,0.6888761889280037
0.044,1.7516,1.0,2730.814461718402,0.3905352856431833,1.3118753332141502,0.9694148884864844,0.2866202,0.6898398486369988
0.0445,1.75049375,1.0,2729.626120757105,0.39395390989952234,1.3113865365853685,0.9698874591576738,0.2865737375,0.6908113036778347
0.045,1.7493750000000001,1.0,2728.337911281188,0.39735335717093373,1.3108930050985252,0.9703454966065427,0.28652675,0.6917906230255368
0.0455,1.74824375,1.0,2726.9561559433105,0.4007337337693918,1.310394681901063,0.9707895826124068,0.2864792375,0.6927778745138327
0.046,1.7471,1.0,2725.487176128702,0.40409514600687096,1.3098915101404243,0.9712202696159297,0.2864312,0.6937731248178804
0.0465,1.7459437500000001,1.0,2723.937290914787,0.4074377001953456,1.309383432964052,0.9716380824759857,0.28638263750000004,0.6947764394367921
0.047,1.744775,1.0,2722.312816103065,0.41076150264679,1.3088703935193886,0.9720435201051426,0.28633355,0.6957878826759504
0.0475,1.74359375,1.0,2720.620063322813,0.4140666596731786,1.3083523349538773,0.9724370569932186,0.28628393750000003,0.6968075176291195
0.048,1.7424,1.0,2718.8653392054403,0.41735327758648577,1.30782920041496,0.9728191446275529,0.2862338,0.6978354061603518
0.0485,1.74119375,1.0,2717.0549446319415,0.42062146269868583,1.30730093305008,0.973190212817894,0.2861831375,0.6988716088856832
0.049,1.739975,1.0,2715.192030670977,0.4238712981491682,1.306767504653988,0.9735506700984714,0.28613195,0.6999161291083082
0.0495,1.73874375,1.0,2713.2857233548784,0.4271029170602568,1.3062288325252795,0.9739009080731108,0.2860802375,0.7009690756702943
0.05,1.7375,1.0,2711.3388646745907,0.4303164182588028,1.3056848911680858,0.9742412998150746,0.286028,0.7020304442332765
0.0505,1.73624375,1.0,2709.3541968208215,0.43351189992541356,1.3051356559694058,0.9745722011554194,0.2859752375,0.7031002278575268
0.051000000000000004,1.734975,1.0,2707.3344588933014,0.43668946024069644,1.3045811023162384,0.9748939516471643,0.28592195,0.7041784187239322
0.051500000000000004,1.73369375,1.0,2705.282386715717,0.4398491973852588,1.3040212055955827,0.975206875451056,0.2858681375,0.7052650081256648
0.052000000000000005,1.7324,1.0,2703.2007126640437,0.442991209539708,1.3034559411944378,0.9755112821656062,0.2858138,0.7063599864598149
0.0525,1.73109375,1.0,2701.0921655086017,0.4461155948846514,1.3028852844998025,0.9758074676053634,0.28575893750000003,0.7074633432189852
0.053,1.729775,1.0,2698.959470269152,0.44922245160069646,1.302309210898676,0.9760957145310682,0.28570355000000003,0.7085750669828439
0.0535,1.72844375,1.0,2696.805348083817,0.45231187786845045,1.3017276957780572,0.9763762933350562,0.2856476375,0.7096951454096434
0.054,1.7271,1.0,2694.6325160911056,0.45538397186852075,1.3011407145249454,0.9766494626850076,0.2855912,0.7108235652276956
0.0545,1.7257437500000001,1.0,2692.443687325629,0.45843883178151484,1.300548242526339,0.9769154701289098,0.2855342375,0.7119603122268141
0.055,1.724375,1.0,2690.2415706267293,0.4614765557880399,1.2999502551692377,0.9771745526638722,0.28547675,0.7131053712497105
0.0555,1.72299375,1.0,2688.028870561582,0.46449724206870346,1.29934672784064,0.9774269372712411,0.2854187375,0.7142587261833602
0.056,1.7216,1.0,2685.8054754266586,0.467500964681767,1.2987376616940245,0.9776728406862268,0.2853602,0.7154203108596511
0.0565,1.72019375,1.0,2683.5736429824556,0.4704878250634125,1.2981230361644138,0.9779124719399446,0.28530113749999997,0.7165900998345396
0.057,1.718775,1.0,2681.338698017238,0.4734579522590327,1.2975028025257616,0.9781460323052541,0.28524155,0.7177681201827734
0.0575,1.71734375,1.0,2679.1014751404737,0.4764114352450529,1.2968769531670938,0.9783737135483035,0.2851814375,0.7189543197647423
0.058,1.7159,1.0,2676.8628075833676,0.47934836299789846,1.2962454804774366,0.9785956996814782,0.2851208,0.7201486457164947
0.0585,1.71444375,1.0,2674.623527194699,0.4822688244939948,1.2956083768458162,0.9788121673365995,0.2850596375,0.7213510444470086
0.059000000000000004,1.7129750000000001,1.0,2672.384464437358,0.48517290870976726,1.2949656346612586,0.979023286117299,0.28499795,0.7225614616354622
0.059500000000000004,1.71149375,1.0,2670.14644838688,0.4880607046216412,1.2943172463127903,0.9792292189318867,0.2849357375,0.723779842228496
0.06,1.71,1.0,2667.9103067309725,0.4909323012060419,1.2936632041894371,0.9794301223079359,0.284873,0.7250061304374775
0.0605,1.7084937500000001,1.0,2665.6768657701655,0.49378778743939494,1.2930035006802256,0.9796261466897207,0.2848097375,0.7262402697357558
0.061,1.7069750000000001,1.0,2663.446950420131,0.49662725229812554,1.2923381281741817,0.9798174367195669,0.28474595,0.7274822028559175
0.0615,1.7054437500000001,1.0,2661.221384214679,0.49945078475865917,1.2916670790603315,0.9800041315041035,0.2846816375,0.7287318717870355
0.062,1.7039,1.0,2659.0009893111296,0.5022584737974211,1.2909903457277012,0.9801863648663286,0.2846168,0.7299892177719163
0.0625,1.70234375,1.0,2656.786586495326,0.5050504083908367,1.2903079205653172,0.9803642655843524,0.2845514375,0.7312541813043416
0.063,1.7007750000000001,1.0,2654.5789951895777,0.5078266775153313,1.2896197959622053,0.9805379576176108,0.28448555,0.7325267021263091
0.0635,1.69919375,1.0,2652.3790334610826,0.5105873701473305,1.288925964307392,0.9807075603212982,0.28441913750000003,0.7338067192252666
0.064,1.6976,1.0,2650.1875180312086,0.5133325752632594,1.2882264179899034,0.9808731886497133,0.2843522,0.7350941708313439
0.0645,1.69599375,1.0,2648.0052642874543,0.5160623818395434,1.2875211493987655,0.9810349533491689,0.2842847375,0.7363889944145816
0.065,1.694375,1.0,2645.833086295012,0.518776878852608,1.2868101509230045,0.9811929611410735,0.28421675,0.7376911266821535
0.0655,1.69274375,1.0,2643.67179681071,0.5214761552788786,1.286093414951647,0.9813473148957519,0.2841482375,0.7390005035755891
0.066,1.6911,1.0,2641.521636079103,0.5241602460382566,1.2853709391516408,0.9814981103265555,0.2840792,0.7403170506623422
0.0665,1.6894437500000001,1.0,2639.383703690489,0.5268292992181414,1.2846427132433207,0.9816454471233161,0.2840096375,0.7416407072623747
0.067,1.687775,1.0,2637.2579978997005,0.5294834002702831,1.2839087371152846,0.9817894176680344,0.28393955,0.7429713934617481
0.0675,1.68609375,1.0,2635.1444453962577,0.5321226285780815,1.283169011318678,0.9819301107357309,0.2838689375,0.7443090275153139
0.068,1.6844000000000001,1.0,2633.0429730381334,0.5347470635249363,1.2824235364046455,0.982067612019283,0.2837978,0.7456535270557841
0.0685,1.68269375,1.0,2630.9535078502836,0.5373567844942474,1.2816723129243321,0.9822020042563434,0.2837261375,0.7470048090939321
0.069,1.680975,1.0,2628.8759770238025,0.5399518708694144,1.2809153414288827,0.9823333673501781,0.28365395,0.7483627900187955
0.0695,1.67924375,1.0,2626.810307914242,0.5425324020338372,1.2801526224694426,0.9824617784847514,0.28358123749999997,0.7497273855978761
0.07,1.6775,1.0,2624.756428040681,0.5450984573709156,1.2793841565971564,0.9825873122343713,0.283508,0.7510985109773456
0.07050000000000001,1.67574375,1.0,2622.7142650842834,0.5476501162640491,1.2786099443631695,0.9827100406681859,0.2834342375,0.7524760806822436
0.07100000000000001,1.673975,1.0,2620.6837468871267,0.5501874580966378,1.2778299863186264,0.982830033449805,0.28335995,0.7538600086166832
0.07150000000000001,1.67219375,1.0,2618.6648014509638,0.5527105622520814,1.2770442830146724,0.9829473579323058,0.2832851375,0.75525020806405
0.07200000000000001,1.6704,1.0,2616.6573569360644,0.5552195081137795,1.2762528350024525,0.9830620792488666,0.2832098,0.7566465916872059
0.0725,1.66859375,1.0,2614.6613416598007,0.5577143750651319,1.2754556428331116,0.9831742603992548,0.2831339375,0.7580490715286902
0.073,1.6667750000000001,1.0,2612.6766840958203,0.5601952424895384,1.2746527070577944,0.9832839623323856,0.28305755,0.7594575590109227
0.0735,1.66494375,1.0,2610.7033128722933,0.562662189770399,1.2738440282276464,0.9833912440251547,0.2829806375,0.7608719649364031
0.074,1.6631,1.0,2608.7411567710988,0.5651152962911131,1.2730296068938123,0.9834961625577355,0.2829032,0.7622921994879156
0.0745,1.6612437500000001,1.0,2606.790144726568,0.5675546414350807,1.272209443607437,0.9835987731855205,0.2828252375,0.7637181722287296
0.075,1.659375,1.0,2604.850205824265,0.5699803045857016,1.2713835389196655,0.9836991294078775,0.28274675,0.7651497921028011
0.0755,1.65749375,1.0,2602.9212692998717,0.5723923651263754,1.2705518933816429,0.9837972830338811,0.2826677375,0.766586967434975
