Time [s],Phi [rad],STIM [ ],Fsee [N],Gamma [ ],Lcerel [ ],q [ ],Lmtc [m],fisomrel [ ]
0.0,1.8,1.0,17.967277776638063,1.0054719408478184e-05,1.379339732819529,0.0050000269430832975,0.288653,0.5411395634706901
0.0005,1.79999375,1.0,18.276617064348592,0.005619207629178625,1.379302401905834,0.012940666186777326,0.2886527375,0.5412298721570956
0.001,1.799975,1.0,21.618270500163433,0.011196897626047059,1.3789383134566158,0.03560886266630785,0.28865195,0.542110186845203
0.0015,1.79994375,1.0,31.069119150505937,0.01674330119293918,1.3780462136845242,0.07060209705724951,0.2886506375,0.5442635852002394
0.002,1.7999,1.0,53.58217729419817,0.022258593821129997,1.3763681453460674,0.114718300867511,0.2886488,0.5483004437779384
0.0025,1.79984375,1.0,97.11857350604784,0.027742950017806297,1.3739351848066361,0.164575178931377,0.28864643749999996,0.5541214208023817
0.003,1.7997750000000001,1.0,160.9578309369842,0.03319654331378515,1.3712143563287318,0.2172807482466703,0.28864354999999997,0.5605864210951701
0.0035,1.79969375,1.0,237.68302567956945,0.03861954626310434,1.368584743654559,0.27061318031225706,0.2886401375,0.5667898174269866
0.004,1.7996,1.0,321.4665120426732,0.0440121304538048,1.3661560992639337,0.3229160836829539,0.2886362,0.5724799457009578
0.0045000000000000005,1.7994937500000001,1.0,409.2675507886421,0.0493744665131151,1.3639228188613561,0.3730347751679961,0.2886317375,0.5776791515051167
0.005,1.799375,1.0,499.413345169205,0.0547067240985412,1.3618583457255198,0.42024771139588624,0.28862675,0.582457071520377
0.0055,1.79924375,1.0,590.7902982525683,0.060009071945335626,1.3599388373607277,0.46417393082189756,0.2886212375,0.586875106375662
0.006,1.7991000000000001,1.0,682.5180219592638,0.06528167780964458,1.3581464163173527,0.504680176554818,0.2886152,0.5909794147928491
0.006500000000000001,1.79894375,1.0,773.8814192050298,0.07052470852391984,1.3564672508630284,0.5418009549654574,0.2886086375,0.5948058005808506
0.007,1.798775,1.0,864.2854724814648,0.07573832998140193,1.3548904004678184,0.5756769647972539,0.28860155,0.5983826647187229
0.0075,1.79859375,1.0,953.242518116157,0.08092270714465588,1.3534067899162567,0.6065100879467159,0.2885939375,0.6017335486004043
0.008,1.7984,1.0,1040.353461429224,0.08607800398497872,1.3520087198589414,0.6345322542628039,0.2885858,0.6048783837476699
0.0085,1.79819375,1.0,1125.3190911209117,0.09120438385792148,1.3506891726477757,0.6599845369136138,0.2885771375,0.6078351536594981
0.009000000000000001,1.797975,1.0,1207.8848385777962,0.09630200866095215,1.349442244681484,0.6831044395147623,0.28856795,0.6106189975509115
0.0095,1.79774375,1.0,1287.870644770706,0.10137103971874367,1.3482624091136393,0.7041177493953538,0.2885582375,0.6132439234641714
0.01,1.7975,1.0,1365.1627197492387,0.10641163782296179,1.3471444409252913,0.7232343654536019,0.288548,0.6157230138222798
0.0105,1.79724375,1.0,1439.660386928444,0.11142396197782765,1.3460839352767526,0.7406467546048238,0.2885372375,0.6180673142326419
0.011,1.796975,1.0,1511.311394674663,0.11640817066572424,1.345076685808285,0.7565292816335853,0.28852595000000003,0.6202872478047519
0.0115,1.79669375,1.0,1580.1136430076426,0.12136442230854702,1.3441185710982892,0.7710387333240438,0.2885141375,0.6223928859224224
0.012,1.7964,1.0,1646.0651740713852,0.12629287347236612,1.3432060694076937,0.7843156257873289,0.28850180000000003,0.624392837760591
0.0125,1.79609375,1.0,1709.1769248260057,0.13119367955428682,1.342336000906448,0.7964853837926665,0.2884889375,0.6262948421026162
0.013000000000000001,1.7957750000000001,1.0,1769.4922898481555,0.13606699565833488,1.341505233787666,0.8076596226062414,0.28847555,0.6281064263253557
0.0135,1.79544375,1.0,1827.076621993443,0.14091297662108612,1.3407107606859097,0.8179375903274847,0.2884616375,0.6298347498495817
0.014,1.7951000000000001,1.0,1881.9922444238564,0.14573177607271529,1.3399499300836102,0.8274075889823949,0.2884472,0.6314861129979227
0.0145,1.79474375,1.0,1934.2930621250825,0.15052354553014372,1.339220451132179,0.8361481956894519,0.2884322375,0.6330659615232174
0.015,1.794375,1.0,1984.0540236824268,0.15528843651029267,1.3385200329830271,0.8442292541999917,0.28841675,0.6345796787919968
0.0155,1.79399375,1.0,2031.357772557196,0.1600265996467767,1.3378465062491836,0.8517129363527313,0.2884007375,0.6360323284924119
0.016,1.7936,1.0,2076.301186017426,0.16473818639151602,1.337197730482012,0.8586546186757007,0.2883842,0.637428860197004
0.0165,1.7931937500000001,1.0,2118.961703996889,0.16942334555735494,1.3365719244613636,0.8651037831206342,0.2883671375,0.6387734045420094
0.017,1.792775,1.0,2159.409873286236,0.17408222428179942,1.3359675068563197,0.8711046634078029,0.28834955,0.640069624798306
0.0175,1.7923437500000001,1.0,2197.727121073916,0.17871496970235543,1.335382896335961,0.8766968073737836,0.2883314375,0.641321150654662
0.018000000000000002,1.7919,1.0,2234.004834856749,0.1833217289565289,1.3348165115693689,0.881915628052106,0.2883128,0.6425315802950213
0.0185,1.79144375,1.0,2268.321874906297,0.18790264716433638,1.3342669868250883,0.8867929411327368,0.2882936375,0.6437040227004984
0.019,1.790975,1.0,2300.781453768516,0.19245787188636787,1.3337327912064663,0.8913572863989797,0.28827395,0.6448419134998125
0.0195,1.79049375,1.0,2331.4485217823417,0.19698754567562948,1.333212843416673,0.8956344491945711,0.2882537375,0.6459477072135706
0.02,1.79,1.0,2360.3923746944615,0.20149181094697133,1.332706074735275,0.8996476686318968,0.288233,0.6470238132469566
0.0205,1.78949375,1.0,2387.687446684406,0.20597081011524354,1.3322114164418393,0.9034179206487906,0.2882117375,0.6480726236789122
0.021,1.788975,1.0,2413.4128769829304,0.21042468559529626,1.3317277998159318,0.906964169220243,0.28818995000000003,0.6490965141239831
0.021500000000000002,1.78844375,1.0,2437.6350111726933,0.2148535772497896,1.3312543205215226,0.9103036202863507,0.2881676375,0.650097497244338
0.022,1.7879,1.0,2460.4427493556227,0.21925762861457804,1.3307898927099586,0.9134518433091041,0.2881448,0.6510779556152234
0.0225,1.78734375,1.0,2481.891415224933,0.22363697724686352,1.330333785075069,0.9164230489370049,0.28812143749999997,0.6520395103251855
0.023,1.786775,1.0,2502.0384381923564,0.22799176061239834,1.3298852716926362,0.9192301653113125,0.28809755,0.6529837612253687
0.0235,1.78619375,1.0,2520.943691220528,0.2323221161769349,1.3294436266384442,0.9218849706400186,0.28807313749999996,0.6539122986840223
0.024,1.7856,1.0,2538.6692835790664,0.23662818140622546,1.3290081239882756,0.9243982113710664,0.2880482,0.6548267039212865
0.0245,1.78499375,1.0,2555.271196789617,0.24091009184411238,1.3285781145559203,0.9267797194188081,0.2880227375,0.6557283885040706
0.025,1.784375,1.0,2570.81250800145,0.245167985459429,1.3281528991595235,0.9290384835484357,0.28799675,0.6566188608839274
0.025500000000000002,1.78374375,1.0,2585.3475529510047,0.24940199767490476,1.3277318757831071,0.9311827550378028,0.2879702375,0.6574994183535907
0.026000000000000002,1.7831000000000001,1.0,2598.9192968538005,0.2536122606569326,1.3273145613378516,0.9332201222087614,0.2879432,0.6583711031129138
0.0265,1.78244375,1.0,2611.5718498229066,0.25779890657190535,1.3269004727349378,0.9351575560813016,0.2879156375,0.659234951931359
0.027,1.781775,1.0,2623.350369266637,0.26196206758621604,1.3264891268855463,0.9370014688709094,0.28788755,0.6600919962548266
0.0275,1.7810937500000001,1.0,2634.3009674597483,0.2661018758662575,1.326080040700858,0.9387577662303332,0.2878589375,0.6609432622975984
0.028,1.7804,1.0,2644.4678399695485,0.2702184625760962,1.3256727568041347,0.9404318973553224,0.2878298,0.6617897177155452
0.0285,1.77969375,1.0,2653.8895232620976,0.27431195718229745,1.3252668770435718,0.9420289009908995,0.2878001375,0.662632202481894
0.029,1.778975,1.0,2662.617892848227,0.27838249428626466,1.324861886491507,0.9435534199620672,0.28776995,0.6634717943404951
0.029500000000000002,1.7782437500000001,1.0,2670.683077472476,0.28243020030809574,1.3244574761804528,0.9450097759463255,0.2877392375,0.6643091395108766
0.03,1.7775,1.0,2678.115675630831,0.28645520166788857,1.3240533371429228,0.9464019723068192,0.287708,0.6651448810157372
0.0305,1.77674375,1.0,2684.946713983552,0.2904576247857412,1.3236491604114298,0.9477337215778981,0.2876762375,0.6659796586893387
0.031,1.775975,1.0,2691.2076078840278,0.29443759608175146,1.323244637018487,0.9490084702527917,0.28764395,0.6668141091798043
0.0315,1.7751937500000001,1.0,2696.930124024304,0.2983952419760173,1.3228394579966074,0.9502294211674586,0.2876111375,0.6676488659453341
0.032,1.7744,1.0,2702.1463451972545,0.3023306888886367,1.3224333143783042,0.9513995537397253,0.2875778,0.6684845592443291
0.0325,1.77359375,1.0,2706.882926262896,0.3062440587623068,1.3220259493225106,0.9525216472050877,0.2875439375,0.6693217090654842
0.033,1.772775,1.0,2711.172951033946,0.31013548118549505,1.3216170494871577,0.9535982875244036,0.28750955,0.6701609485943085
0.0335,1.7719437500000002,1.0,2715.0380964588035,0.3140050777449925,1.3212064075594685,0.9546318971293954,0.2874746375,0.6710026905061882
0.034,1.7711000000000001,1.0,2718.499057738945,0.31785296909807137,1.320793826714949,0.9556247389019298,0.2874392,0.6718473237933011
0.0345,1.7702437500000001,1.0,2721.5766798045142,0.3216792759020038,1.320379110129105,0.9565789277065159,0.2874032375,0.6726952353089377
0.035,1.7693750000000001,1.0,2724.2919415694964,0.32548411881406203,1.3199620609774418,0.9574964418029306,0.28736675,0.6735468097419254
0.035500000000000004,1.76849375,1.0,2726.665941047029,0.3292676184915182,1.3195424824354658,0.9583791332523168,0.2873297375,0.6744024295885843
0.036000000000000004,1.7676,1.0,2728.7198813225727,0.33302989559164453,1.3191201776786827,0.9592287374159956,0.2872922,0.6752624751222129
0.0365,1.76669375,1.0,2730.46472339387,0.3367710611786172,1.3186950437980052,0.9600468890001688,0.2872541375,0.6761271334776389
0.037,1.765775,1.0,2731.928726726035,0.3404912439870961,1.3182668213401043,0.9608351104608508,0.28721555,0.6769969082718945
0.0375,1.76484375,1.0,2733.1341997579743,0.34419056750004917,1.3178353056092578,0.9615948359522244,0.2871764375,0.677872189120758
0.038,1.7639,1.0,2734.09307746453,0.34786914532231905,1.3174003866562127,0.9623274205348316,0.28713679999999997,0.6787531713982355
0.0385,1.76294375,1.0,2734.8173378650486,0.3515270910587486,1.3169619545317164,0.9630341388238223,0.28709663750000003,0.679640049041563
0.039,1.761975,1.0,2735.3189966918017,0.35516451831418056,1.316519899286516,0.963716190636997,0.28705595,0.6805330145269574
0.0395,1.7609937500000001,1.0,2735.6101023272545,0.3587815406934578,1.3160741109713583,0.9643747061876319,0.2870147375,0.6814322588445966
0.04,1.76,1.0,2735.702731008309,0.3623782718014231,1.3156244796369907,0.9650107508632676,0.286973,0.6823379714728279
0.0405,1.7589937500000001,1.0,2735.6089822995295,0.3659548252429193,1.3151708953341605,0.9656253296275146,0.2869307375,0.6832503403516059
0.041,1.757975,1.0,2735.3409748338713,0.3695113146227891,1.3147132481136148,0.9662193910782837,0.28688795,0.6841695518551605
0.0415,1.75694375,1.0,2734.9108423214648,0.37304785354587533,1.3142514280261008,0.9667938311925701,0.2868446375,0.6850957907638915
0.042,1.7559,1.0,2734.330729826698,0.3765645556170208,1.3137853251223655,0.9673494967850037,0.28680079999999997,0.6860292402354956
0.0425,1.75484375,1.0,2733.6106095241757,0.3800615303771689,1.3133148492607913,0.9678871896792561,0.2867564375,0.6869700421960703
0.043000000000000003,1.753775,1.0,2732.758071168374,0.3835388850069815,1.3128399319972197,0.9684076700456744,0.28671155,0.6879182938392059
0.043500000000000004,1.75269375,1.0,2731.788446188952,0.38699674309054277,1.3123604345963003,0.9689116545920579,0.28666613750000003,0.6888742311824312
0.044,1.7516,1.0,2730.707816501077,0.39043521061501574,1.311876302355011,0.969399826257401,0.2866202,0.689837921012008
0.0445,1.75049375,1.0,2729.5222662977462,0.39385439356756363,1.3113874805703298,0.9698728324611103,0.2865737375,0.6908094290308114
0.045,1.7493750000000001,1.0,2728.237880856936,0.3972543979353495,1.3108939145392344,0.9703312872954006,0.28652675,0.6917888198420639
0.0455,1.74824375,1.0,2726.8607454160538,0.40063532970553645,1.3103955495587027,0.9707757735617207,0.2864792375,0.6927761569328792
0.046,1.7471,1.0,2725.3969441123036,0.4039972948652876,1.3098923309257127,0.9712068446637149,0.2864312,0.6937715026576167
0.0465,1.7459437500000001,1.0,2723.8525589897963,0.40734039940176614,1.3093842039372416,0.9716250263681087,0.28638263750000004,0.6947749182210436
0.047,1.744775,1.0,2722.233669072152,0.41066474930213503,1.308871113890268,0.9720308184439076,0.28633355,0.6957864636613045
0.0475,1.74359375,1.0,2720.5463495029594,0.4139704505535576,1.3083530060817694,0.97242469618939,0.28628393750000003,0.696806197832705
0.048,1.7424,1.0,2718.7966707506084,0.41725760914319676,1.3078298258087238,0.9728071118555642,0.2862338,0.6978341783882998
0.0485,1.74119375,1.0,2716.990697881509,0.42052633105821574,1.3073015183681085,0.973178495974,0.2861831375,0.6988704617622931
0.049,1.739975,1.0,2715.127730480837,0.4237766950860302,1.3067680906598105,0.9735392595394352,0.28613195,0.6999149826305303
0.0495,1.73874375,1.0,2713.222350082711,0.4270088394055736,1.3062294102863568,0.973889791865308,0.2860802375,0.7009679473076218
0.05,1.7375,1.0,2711.2780169328803,0.43022286587169556,1.3056854461034213,0.9742304665429538,0.286028,0.7020293623742102
0.0505,1.73624375,1.0,2709.297067295838,0.43341887219336184,1.3051361771849848,0.9745616401017815,0.2859752375,0.7030992135616505
0.051000000000000004,1.734975,1.0,2707.2818348860646,0.43659695607953797,1.304581582605027,0.9748836527581694,0.28592195,0.7041774857711003
0.051500000000000004,1.73369375,1.0,2705.234650714739,0.43975721523918954,1.304021641437529,0.9751968293033881,0.2858681375,0.705264163066424
0.052000000000000005,1.7324,1.0,2703.1578429465553,0.44289974738128224,1.3034563327564708,0.9755014799356515,0.2858138,0.706359228667073
0.0525,1.73109375,1.0,2701.053736766082,0.4460246502147816,1.3028856356358325,0.9757979010402686,0.28575893750000003,0.7074626649409366
0.053,1.729775,1.0,2698.9246542535366,0.44913202144865333,1.3023095291495945,0.9760863759215542,0.28570355000000003,0.7085744533971635
0.0535,1.72844375,1.0,2696.772914270731,0.45222195879186294,1.3017279923717375,0.9763671754898712,0.2856476375,0.7096945746789562
0.054,1.7271,1.0,2694.600832356618,0.45529455995337614,1.3011410043762415,0.9766405589069134,0.2855912,0.710823008556341
0.0545,1.7257437500000001,1.0,2692.410720632264,0.45834992264215846,1.300548544237087,0.9769067741921033,0.2855342375,0.7119597339189023
0.055,1.724375,1.0,2690.204887715685,0.46138814456717553,1.299950591028254,0.9771660587927488,0.28547675,0.7131047287684984
0.0555,1.72299375,1.0,2687.985638646623,0.464409323437393,1.2993471238237235,0.9774186401204161,0.2854187375,0.7142579702119398
0.056,1.7216,1.0,2685.7552748206767,0.46741355696177644,1.2987381216974752,0.9776647360557787,0.2853602,0.7154194344536496
0.0565,1.7201958310712335,1.0,2683.618617135087,0.4704009428492915,1.2981235637234898,0.9779045554240421,0.2853012249049918,0.7165890967882855
0.057,1.7187905440304625,1.0,2682.016927336029,0.47337157424323206,1.2975036028364881,0.9781383080177164,0.2852422028492794,0.7177666017197357
0.0575,1.7173852569896915,1.0,2680.9447231683025,0.47632554374051284,1.2968787898833332,0.9783662176618142,0.285183180793567,0.7189508422111216
0.058,1.7159799699489204,1.0,2680.3645506238327,0.47926294384486967,1.2962494655010979,0.9785884873350914,0.2851241587378547,0.7201411166782966
0.0585,1.7145746829081494,1.0,2680.239185064875,0.48218386704751537,1.2956159696770002,0.9788053118813055,0.2850651366821423,0.7213367298211955
0.059000000000000004,1.7131693958673784,1.0,2680.5315276078304,0.48508840583966273,1.2949786423982583,0.9790168784450114,0.2850061146264299,0.7225369914823994
0.059500000000000004,1.7117641088266073,1.0,2681.2065132099096,0.4879766522251317,1.294337805876169,0.9792233658322818,0.2849470925707175,0.7237412501020493
0.06,1.7103588217858363,1.0,2682.2303718797143,0.490848698328819,1.2936937710841752,0.9794249453161168,0.2848880705150051,0.7249488801860846
0.0605,1.7089535347450653,1.0,2683.574661567452,0.4937046350658651,1.2930468005828093,0.9796217788884033,0.28482904845929274,0.7261593516204694
0.061,1.7075482477042943,1.0,2685.215730742411,0.49654455205985326,1.2923971133260421,0.9798140199438624,0.28477002640358035,0.7273722197659365
0.0615,1.7061429606635232,1.0,2687.1299505031407,0.4993685389343666,1.2917449282678444,0.9800018160830477,0.284711004347868,0.7285870434629794
0.062,1.704737673622752,1.0,2689.2937019196975,0.5021766853129884,1.291090464362187,0.9801853093810939,0.2846519822921556,0.72980338506826
0.0625,1.703332386581981,1.0,2691.6859794366583,0.5049690799309579,1.2904339166273242,0.9803646353313731,0.2845929602364432,0.7310208548230628
0.063,1.70192709954121,1.0,2694.2851432645284,0.5077458122789011,1.2897754858189525,0.9805399247944111,0.2845339381807308,0.7322390555433356
0.0635,1.7005218125004389,1.0,2697.075404442421,0.510506969533372,1.2891153190367801,0.9807113009466527,0.2844749161250184,0.7334576922776175
0.064,1.6991165254596678,1.0,2700.04178989607,0.5132526385392333,1.2884535558137717,0.9808788820975716,0.28441589406930606,0.7346764864106865
0.0645,1.6977112384188968,1.0,2703.1693109770513,0.5159829061413473,1.2877903356828924,0.9810427823087849,0.28435687201359366,0.7358951616311484
0.065,1.6963059513781258,1.0,2706.445495410765,0.5186978572966111,1.2871257750217282,0.9812031102925763,0.28429784995788127,0.7371134863462114
0.0655,1.6949006643373548,1.0,2709.859116981846,0.5213975764013287,1.2864599786746485,0.9813599703110801,0.2842388279021689,0.7383312519697702
0.066,1.6934953772965837,1.0,2713.3874500006978,0.524082157402957,1.285793156155664,0.9815134687707794,0.2841798058464565,0.7395480608883429
0.0665,1.6920900902558127,1.0,2717.0231777058375,0.5267516829270438,1.2851253761247259,0.9816637007556227,0.2841207837907441,0.7407637751585894
0.067,1.6906848032150417,1.0,2720.7589695598863,0.5294062355991364,1.2844567072417847,0.981810758065933,0.2840617617350317,0.7419782579883979
0.0675,1.6892795161742706,1.0,2724.587479844281,0.5320458980447824,1.2837872181667918,0.9819547293567075,0.2840027396793194,0.7431913737409239
0.068,1.6878742291334996,1.0,2728.501346358376,0.5346707528895293,1.2831169775596976,0.9820957002691806,0.283943717623607,0.7444029879383346
0.0685,1.6864689420927284,1.0,2732.4931892231916,0.5372808827589246,1.2824460540804534,0.9822337535560185,0.2838846955678946,0.7456129672652474
0.069,1.6850636550519573,1.0,2736.5556097898207,0.5398763702785158,1.2817745163890097,0.9823689692004998,0.2838256735121822,0.746821179571874
0.0695,1.6836583680111863,1.0,2740.6811896518275,0.5424572980738503,1.2811024331453174,0.9825014245300077,0.28376665145646984,0.7480274938768572
0.07,1.6822530809704153,1.0,2744.8624897624304,0.5450237487704759,1.2804298730093278,0.9826311943241414,0.28370762940075744,0.7492317803698096
0.07050000000000001,1.6808477939296442,1.0,2749.0933701419954,0.5475758025531131,1.2797568926811278,0.9827583502166719,0.28364860734504505,0.7504339317519131
0.07100000000000001,1.6794425068888732,1.0,2753.3722302738843,0.550113533813716,1.2790835076152407,0.9828829592774148,0.28358958528933265,0.751633915105784
0.07150000000000001,1.6780372198481022,1.0,2757.686791178564,0.5526370384396259,1.2784098297940591,0.9830050920894776,0.2835305632336203,0.7528315263840657
0.07200000000000001,1.6766319328073311,1.0,2762.0344308141543,0.5551463934585849,1.2777358835969383,0.983124811904729,0.2834715411779079,0.7540267186308288
0.0725,1.67522664576656,1.0,2766.4125191513,0.5576416758983346,1.2770616934032328,0.9832421799624557,0.2834125191221955,0.7552194453078221
0.073,1.673821358725789,1.0,2770.8184180342955,0.5601229627866172,1.2763872835922976,0.9833572555673502,0.28335349706648316,0.7564096602948689
0.0735,1.672416071685018,1.0,2775.249481055757,0.5625903311511744,1.2757126785434871,0.9834700961639966,0.28329447501077076,0.7575973178902288
