Time [s],Phi [rad],STIM [ ],Fsee [N],Gamma [ ],Lcerel [ ],q [ ],Lmtc [m],fisomrel [ ]
0.0,1.8,1.0,17.970923331842474,5.765558081109629e-05,1.3793393244175025,0.005000873783836878,0.288653,0.5411405515002321
0.0005,1.79999375,1.0,18.296061710320668,0.0056665414874074345,1.3793002425508378,0.013073343169726914,0.2886527375,0.5412350956660574
0.001,1.799975,1.0,21.67308826374833,0.011243965978756668,1.3789327181593065,0.0358573310043096,0.28865195,0.5421237088915802
0.0015,1.79994375,1.0,31.199457089781315,0.016790105529425305,1.3780351209403785,0.07094194192177908,0.2886506375,0.5442903295140096
0.002,1.7999,1.0,53.86324823180065,0.02230513562225613,1.3763499347263766,0.11512061791714595,0.2886488,0.5483441537992733
0.0025,1.79984375,1.0,97.59119312326744,0.02778923075625727,1.3739124379928815,0.16501277014576526,0.28864643749999996,0.5541756655427919
0.003,1.7997750000000001,1.0,161.57288679550894,0.033242564453880456,1.371191356129848,0.2177321372312762,0.28864354999999997,0.5606408709645545
0.0035,1.79969375,1.0,238.37800739214615,0.038665309260962684,1.3685633519914127,0.2710621053339581,0.2886401375,0.5668401006659887
0.004,1.7996,1.0,322.205901775009,0.044057636757412866,1.3661365268940524,0.3233507447995567,0.2886362,0.5725256494705384
0.0045000000000000005,1.7994937500000001,1.0,410.033183208441,0.04941971756242429,1.3639048549432646,0.37344736838244463,0.2886317375,0.5777208435864845
0.005,1.799375,1.0,500.19454378538165,0.054751721325800015,1.361841751803805,0.42063371346109113,0.28862675,0.5824953655980661
0.0055,1.79924375,1.0,591.5783873420505,0.060053816772858634,1.3599234451409612,0.4645313026016066,0.2886212375,0.5869104388962421
0.006,1.7991000000000001,1.0,683.3070756738621,0.06532617165379363,1.3581320775632084,0.5050085936573218,0.2886152,0.5910121652431762
0.006500000000000001,1.79894375,1.0,774.6682929912807,0.0705689527970908,1.3564538218253746,0.5421012085346828,0.2886086375,0.5948363294199112
0.007,1.798775,1.0,865.0637445500904,0.07578232607457171,1.3548778317064591,0.5759505787549387,0.28860155,0.5984111114901852
0.0075,1.79859375,1.0,954.0078084436261,0.08096645640398652,1.3533950213173946,0.6067589382580746,0.2885939375,0.6017600730487187
0.008,1.7984,1.0,1041.1117126216125,0.08612150803376625,1.3519975581444192,0.6347582857360277,0.2885858,0.6049034408812698
0.0085,1.79819375,1.0,1126.048163183436,0.09124764371235555,1.35067885336138,0.6601899572916313,0.2885771375,0.6078582327970272
0.009000000000000001,1.797975,1.0,1208.5860717099226,0.09634502564038998,1.3494326644936894,0.6832911772574494,0.28856795,0.6106403475281912
0.0095,1.79774375,1.0,1288.565721782308,0.1014138158508361,1.3482532125496967,0.704287480473778,0.2885582375,0.613264349326581
0.01,1.7975,1.0,1365.8327637679752,0.10645417394755498,1.3471358300911724,0.7233889235119658,0.288548,0.6157420773817368
0.0105,1.79724375,1.0,1440.2999225507388,0.11146625934274051,1.3460759318888387,0.7407877163299312,0.2885372375,0.6180849788497191
0.011,1.796975,1.0,1511.9262839284836,0.11645023074469334,1.3450691754071167,0.7566580035901896,0.28852595000000003,0.6203037760964686
0.0115,1.79669375,1.0,1580.707826868415,0.12140624669506164,1.3441114733066557,0.7711564479849646,0.2885141375,0.6224084628148048
0.012,1.7964,1.0,1646.6300082608848,0.1263344631527488,1.343199458705544,0.7844235002898544,0.28850180000000003,0.6244073072200944
0.0125,1.79609375,1.0,1709.714320850185,0.1312350358350864,1.3423298285047338,0.796584405779258,0.2884889375,0.6263083179716822
0.013000000000000001,1.7957750000000001,1.0,1770.0047642476677,0.13610811980085616,1.3414994487821863,0.8077506692778204,0.28847555,0.628119025769971
0.0135,1.79544375,1.0,1827.5725517117091,0.14095387043927218,1.3407052513447795,0.8180214186901728,0.2884616375,0.6298467210015646
0.014,1.7951000000000001,1.0,1882.4690926353592,0.14577244051044322,1.3399447105570208,0.8274849169171609,0.2884472,0.6314974290953551
0.0145,1.79474375,1.0,1934.750073538063,0.15056398174128496,1.339215516808477,0.8362196548227345,0.2884322375,0.633076636340427
0.015,1.794375,1.0,1984.4923142584018,0.15532864585871312,1.3385153604887148,0.8442954001190378,0.28841675,0.6345897663048325
0.0155,1.79399375,1.0,2031.7704181197635,0.16006658360830164,1.3378421586520528,0.8517742922791716,0.2884007375,0.6360416959098252
0.016,1.7936,1.0,2076.7007179645493,0.16477794634248477,1.3371935668453583,0.8587115858045106,0.2883842,0.6374378140245692
0.0165,1.7931937500000001,1.0,2119.3497254608187,0.16946288225464456,1.3365679216816184,0.8651567547003666,0.2883671375,0.6387819964761352
0.017,1.792775,1.0,2159.7802374117873,0.17412153885654466,1.335963722167917,0.8711540149818874,0.28834955,0.6400777340149193
0.0175,1.7923484925311453,1.0,2198.2770989819683,0.17875406365994873,1.3353794673113384,0.8767428981039497,0.2883316366863081,0.6413284850317695
0.018000000000000002,1.7919218812077695,1.0,2235.26170478465,0.18336060340671734,1.3348137671492228,0.8819588313222976,0.28831371901072633,0.6425374404570983
0.0185,1.791495269884394,1.0,2270.7881518239906,0.1879413049913443,1.3342656695114454,0.8868337022519781,0.28829580133514454,0.6437068309504629
0.019,1.7910686585610183,1.0,2304.9009136452983,0.1924963127242861,1.3337343228459575,0.8913961737194075,0.28827788365956275,0.6448386535540505
0.0195,1.7906420472376428,1.0,2337.646897201828,0.1970257700013246,1.3332188957905269,0.8956720348266634,0.28825996598398096,0.6459348453065752
0.02,1.790215435914267,1.0,2369.0771351164376,0.2015298202182415,1.332718556982922,0.8996845233732939,0.2882420483083992,0.6469973272933739
0.0205,1.7897888245908913,1.0,2399.235960277488,0.20600860425371528,1.3322325772432062,0.9034546338032646,0.28822413063281743,0.6480277889615339
0.021,1.7893622132675158,1.0,2428.1896277313535,0.2104622678841808,1.331760048080318,0.9070013090577982,0.28820621295723564,0.6490282860259728
0.021500000000000002,1.78893560194414,1.0,2455.985938784851,0.21489095201651356,1.3313002715091162,0.9103417432348345,0.2881882952816539,0.6500004148532713
0.022,1.7885089906207645,1.0,2482.6641938840285,0.21929479489500786,1.33085265701912,0.9134915495897292,0.2881703776060721,0.6509455336204995
0.0225,1.7880823792973888,1.0,2508.2660451333354,0.22367393476395805,1.3304166140998472,0.9164649090444555,0.2881524599304903,0.6518649908379868
0.023,1.7876557679740133,1.0,2532.835340928791,0.2280285098676584,1.3299915522408166,0.9192747214211203,0.28813454225490853,0.6527601257962259
0.0235,1.7872291566506375,1.0,2556.4179783227964,0.23235865845040327,1.3295768809315465,0.9219327389243039,0.28811662457932674,0.6536322689905397
0.024,1.7868025453272618,1.0,2579.060373152026,0.2366645182919855,1.3291720226591033,0.9244496862359173,0.288098706903745,0.6544827152376109
0.0245,1.7863759340038863,1.0,2600.7981819970714,0.240946223717219,1.3287765164238443,0.926835381452495,0.2880807892281632,0.6553125071690103
0.025,1.7859493226805105,1.0,2621.686892878046,0.2452039160612316,1.3283897305650487,0.9290987820024603,0.2880628715525814,0.6561230384547663
0.025500000000000002,1.785522711357135,1.0,2641.75662653176,0.2494377275867236,1.3280112827529844,0.9312481328834141,0.2880449538769997,0.6569151734271101
0.026000000000000002,1.7850961000337593,1.0,2661.038610529864,0.25364779055639525,1.3276407906579193,0.9332909985124012,0.2880270362014179,0.6576897713554002
0.0265,1.7846694887103838,1.0,2679.565110219308,0.2578342372329468,1.3272778719501213,0.9352343281106692,0.2880091185258361,0.6584476866447706
0.027,1.784242877387008,1.0,2697.3693629035065,0.26199719987907855,1.3269221442998576,0.9370845140098469,0.2879912008502543,0.6591897690254565
0.0275,1.7838162660636323,1.0,2714.485515264357,0.2661368107574907,1.3265732253773965,0.9388474437219149,0.2879732831746725,0.6599168637327939
0.028,1.7833896547402568,1.0,2730.9485640256876,0.2702532021308835,1.3262307328530059,0.9405285465074339,0.2879553654990908,0.6606298116779041
0.0285,1.782963043416881,1.0,2746.780118937932,0.2743464998584208,1.3258944128898869,0.9421328510125049,0.287937447823509,0.661329182548329
0.029,1.7825364320935055,1.0,2762.0252124750054,0.2784168424840202,1.3255638052805756,0.9436649812226778,0.28791953014792726,0.6620159715919371
0.029500000000000002,1.7821098207701298,1.0,2776.705254793195,0.2824643561221781,1.3252386698412026,0.9451292418978429,0.28790161247234547,0.6626907131375166
0.03,1.7816832094467543,1.0,2790.8419345845127,0.286489166782865,1.3249187682646077,0.9465296212133975,0.2878836947967637,0.663353935042762
0.0305,1.7812565981233786,1.0,2804.457397315223,0.29049140047605165,1.32460386224363,0.9478698178780378,0.2878657771211819,0.6640061626802247
0.031,1.7808299868000028,1.0,2817.5742182016797,0.2944711832117084,1.3242937134711088,0.949153265800719,0.2878478594456001,0.6646479190150458
0.0315,1.7804033754766273,1.0,2830.2153764449927,0.2984286409998058,1.3239880836398839,0.9503831563658673,0.28782994177001836,0.6652797246790677
0.032,1.7799767641532516,1.0,2842.4042307252867,0.3023638998503145,1.323686734442794,0.9515624585746801,0.28781202409443657,0.6659020980413269
0.0325,1.779550152829876,1.0,2854.1641474782937,0.3062770854918754,1.3233894306702514,0.9526939375661229,0.2877941064188548,0.6665155488863861
0.033,1.7791235415065003,1.0,2865.507555560102,0.31016831559729774,1.3230960370835743,0.9537801801971583,0.28777618874327304,0.6671203788931429
0.0335,1.7786969301831248,1.0,2876.4674296515336,0.3140377255435299,1.322806238514757,0.9548235843458854,0.28775827106769125,0.6677172588518936
0.034,1.778270318859749,1.0,2887.0574962036803,0.31788543467071356,1.322519893119265,0.9558264044254572,0.28774035339210946,0.6683065004538835
0.0345,1.7778437075363733,1.0,2897.291681047503,0.3217115623189904,1.3222368590525628,0.9567907476211674,0.28772243571652767,0.6688884141197027
0.035,1.7774170962129978,1.0,2907.1840987572023,0.3255162278285021,1.3219569944701155,0.9577185852358017,0.2877045180409459,0.6694633090298789
0.035500000000000004,1.776990484889622,1.0,2916.7490424592374,0.3292995505393903,1.321680157527388,0.9586117630349682,0.28768660036536414,0.6700314931541929
0.036000000000000004,1.7765638735662466,1.0,2926.000974087498,0.3330616497917967,1.3214062063798455,0.9594720106909697,0.28766868268978235,0.6705932732797071
0.0365,1.7761372622428708,1.0,2934.9545150852805,0.33680264492586287,1.3211349991829526,0.9603009504131031,0.28765076501420056,0.671148955037516
0.037,1.7757106509194953,1.0,2943.6244375521624,0.34052265528173065,1.3208663940921743,0.9611001048428554,0.2876328473386188,0.6716988429282063
0.0375,1.7752840395961196,1.0,2952.0256558378123,0.3442218001995415,1.3206002492629756,0.9618709042841341,0.28761492966303703,0.6722432403460393
0.038,1.7748574282727438,1.0,2960.1639078723724,0.3479001872197969,1.3203365041173907,0.9626146986378348,0.28759701198745524,0.6727822835773245
0.0385,1.7744308169493683,1.0,2968.0615384873104,0.35155794858676453,1.3200749539927,0.9633327493659317,0.28757909431187345,0.6733164025081985
0.039,1.7740042056259926,1.0,2975.728205788351,0.35519519852016873,1.3198155060552175,0.9640262507898691,0.28756117663629166,0.6738457974701695
0.0395,1.773577594302617,1.0,2983.1721469920885,0.35881204916995846,1.319558080566604,0.9646963289143856,0.2875432589607099,0.6743706414049355
0.04,1.7731509829792413,1.0,2990.4016730481585,0.36240861268608265,1.3193025977885213,0.9653440453386106,0.28752534128512813,0.674891106650197
0.0405,1.7727243716558656,1.0,2997.425165134878,0.3659850012184903,1.3190489779826304,0.9659704016246687,0.28750742360954634,0.6754073649497417
0.041,1.77229776033249,1.0,3004.2510712949047,0.36954132691713043,1.3187971414105928,0.9665763433256589,0.2874895059339646,0.6759195874631203
0.0415,1.7718711490091144,1.0,3010.887903211964,0.37307770193195194,1.3185470083340696,0.9671627637028666,0.2874715882583828,0.6764279447749177
0.042,1.7714445376857388,1.0,3017.3442331290307,0.37659423841290385,1.3182984990147222,0.9677305071591639,0.287453670582801,0.676932606903619
0.0425,1.771017926362363,1.0,3023.62869090707,0.38009104850993514,1.3180515337142116,0.9682803724129702,0.28743575290721923,0.6774337433100693
0.043000000000000003,1.7705913150389876,1.0,3029.749961224679,0.3835682443729948,1.3178060326941994,0.9688131154348395,0.28741783523163744,0.6779315229055276
0.043500000000000004,1.7701647037156119,1.0,3035.7146907600195,0.3870259329822131,1.3175619342314264,0.9693294527953161,0.2873999175560557,0.6784260775739643
0.044,1.7697380923922361,1.0,3041.5274366557637,0.3904642186028996,1.317319194953605,0.9698300645630294,0.2873819998804739,0.6789175016390181
0.0445,1.7693114810688606,1.0,3047.201780216754,0.3938832290572233,1.3170776941295737,0.9703155930969041,0.2873640822048921,0.679406045553165
0.045,1.7688848697454849,1.0,3052.7421840994316,0.39728306869377134,1.3168373899453523,0.9707866503251605,0.2873461645293104,0.679891799530028
0.0455,1.7684582584221094,1.0,3058.1531383767533,0.40066384186113096,1.3165982405869616,0.9712438171260794,0.2873282468537286,0.6803748534988532
0.046,1.7680316470987336,1.0,3063.439159449233,0.40402565290788933,1.3163602042404217,0.9716876452032341,0.2873103291781468,0.6808552971076489
0.0465,1.767605035775358,1.0,3068.604788993019,0.40736860618263376,1.3161232390917528,0.9721186588300993,0.287292411502565,0.681333219726207
0.047,1.7671784244519824,1.0,3073.654592947699,0.4106928060339514,1.3158873033269753,0.9725373564742987,0.2872744938269832,0.6818087104490163
0.0475,1.7667518131286066,1.0,3078.593160542532,0.4139983568104295,1.3156523551321095,0.9729442123108615,0.2872565761514015,0.6822818580980632
0.048,1.7663252018052311,1.0,3083.4251033613004,0.4172853628606552,1.315418352693176,0.9733396776330406,0.2872386584758197,0.6827527512255206
0.0485,1.7658985904818554,1.0,3088.1550544466245,0.4205539285332158,1.3151852541961948,0.9737241821685274,0.2872207408002379,0.6832214781163267
0.049,1.7654719791584799,1.0,3092.787667442206,0.42380415817669853,1.3149530178271862,0.9740981353082192,0.28720282312465617,0.6836881267906509
0.0495,1.7650453678351041,1.0,3097.3276157741857,0.42703615613969054,1.3147216017721706,0.9744619272541039,0.2871849054490744,0.6841527850062477
0.05,1.7646187565117286,1.0,3101.779591871333,0.43025002677077906,1.314490964217168,0.9748159300922755,0.2871669877734926,0.6846155402607013
0.0505,1.7641921451883529,1.0,3106.143249715167,0.4334458493464883,1.314261106435016,0.9751604987783095,0.2871490700979108,0.6850763934382638
0.051000000000000004,1.7637655338649771,1.0,3110.4260076823734,0.43662374757050626,1.3140319636166076,0.9754959728255069,0.287131152422329,0.6855354777649798
0.051500000000000004,1.7633389225416016,1.0,3114.6336618340997,0.4397838359587627,1.3138034849664597,0.9758226762507044,0.28711323474674727,0.6859928980322223
0.052000000000000005,1.762912311218226,1.0,3118.768364671543,0.44292621000434,1.313575650835424,0.9761409184801465,0.2870953170711655,0.6864486964385852
0.0525,1.7624856998948504,1.0,3122.83227764501,0.44605096520032084,1.3133484415743522,0.9764509952515896,0.28707739939558374,0.686902915060347
0.053,1.7620590885714746,1.0,3126.8275708771603,0.44915819703978777,1.3131218375340956,0.9767531893377868,0.28705948172000195,0.6873555958522686
0.0535,1.7616324772480991,1.0,3130.756422895313,0.45224800101582335,1.312895819065506,0.9770477712257383,0.28704156404442016,0.6878067806483614
0.054,1.7612058659247234,1.0,3134.621020371777,0.45532047262151015,1.3126703665194352,0.9773349997547583,0.28702364636883837,0.688256511162634
0.0545,1.7607792546013477,1.0,3138.423557873238,0.45837570734993077,1.3124454602467348,0.9776151227161893,0.2870057286932566,0.6887048289898152
0.055,1.7603526432779721,1.0,3142.1662376184577,0.4614138006941677,1.3122210805982564,0.9778883774173723,0.28698781101767484,0.6891517756060495
0.0555,1.7599260319545964,1.0,3145.851269244359,0.46443484814730357,1.3119972079248512,0.978154991212282,0.28696989334209305,0.6895973923695702
0.056,1.759499420631221,1.0,3149.4808695813044,0.4674389452024209,1.3117738225773714,0.9784151820010613,0.28695197566651126,0.6900417205213448
0.0565,1.7590728093078452,1.0,3153.0572624361585,0.4704261873526023,1.3115509049066685,0.978669158700516,0.2869340579909295,0.6904848011857017
0.057,1.7586461979844694,1.0,3156.5826783842276,0.4733966700909303,1.3113284352635939,0.9789171216874837,0.28691614031534773,0.6909266753709256
0.0575,1.758219586661094,1.0,3160.0593545701167,0.4763504889104875,1.3111063939989995,0.9791592632168479,0.28689822263976594,0.6913673839698319
0.058,1.7577929753377182,1.0,3163.489534516611,0.4792877393043564,1.310884761463737,0.9793957678158398,0.28688030496418415,0.691806967760317
0.0585,1.7573663640143427,1.0,3166.8754679424037,0.4822085167656197,1.3106635180086574,0.9796268126561534,0.28686238728860236,0.692245467405882
0.059000000000000004,1.756939752690967,1.0,3170.2175998381954,0.48511289664028623,1.3104426592568017,0.9798525670751334,0.2868444696130206,0.6926828932192772
0.059500000000000004,1.7565131413675914,1.0,3173.5171392949123,0.48800097075107196,1.310222174407589,0.9800731947914311,0.28682655193743883,0.6931192681946028
0.06,1.7560865300442157,1.0,3176.77833758416,0.4908728644440785,1.3100020270590857,0.9802888544722339,0.28680863426185704,0.6935546658777356
0.0605,1.75565991872084,1.0,3180.002152060171,0.49372866383884584,1.3097822086296522,0.980499696994613,0.2867907165862753,0.693989104644562
0.061,1.7552333073974644,1.0,3183.1895428760286,0.4965684550549138,1.309562710537648,0.9807058674792565,0.2867727989106935,0.6944226028207411
0.0615,1.7548066960740887,1.0,3186.3414729221167,0.4993923242118225,1.3093435242014335,0.9809075055539078,0.2867548812351117,0.6948551786818786
0.062,1.7543800847507132,1.0,3189.458907766057,0.5022003574291117,1.3091246410393682,0.9811047456028221,0.28673696355952993,0.6952868504537046
0.0625,1.7539534734273374,1.0,3192.542815593815,0.5049926408263216,1.3089060524698126,0.9812977170030794,0.28671904588394814,0.6957176363122366
0.063,1.753526862103962,1.0,3195.594167153367,0.5077692605229918,1.3086877499111262,0.9814865443485399,0.2867011282083664,0.6961475543839477
0.0635,1.7531002507805862,1.0,3198.6139356988256,0.5105303026386624,1.3084697247816695,0.9816713476621768,0.2866832105327846,0.6965766227459219
0.064,1.7526736394572104,1.0,3201.60309693744,0.5132758532928734,1.308251968499802,0.9818522425974693,0.2866652928572028,0.6970048594260112
0.0645,1.752247028133835,1.0,3204.562628977452,0.5160059986051646,1.3080344724838837,0.9820293406294972,0.2866473751816211,0.697432282402983
0.065,1.7518204168104592,1.0,3207.4935122774345,0.5187208246950762,1.3078172281522749,0.9822027492363319,0.2866294575060393,0.6978589096066657
0.0655,1.7513938054870837,1.0,3210.396729597983,0.5214204176821478,1.3076002269233353,0.9823725720712867,0.2866115398304575,0.6982847589180887
0.066,1.750967194163708,1.0,3213.273265954465,0.5241048636859196,1.307383460215425,0.982538909126548,0.2865936221548757,0.698709848169618
0.0665,1.7505405828403324,1.0,3216.1241085716874,0.5267742488259313,1.307166919446904,0.9827018568886755,0.2865757044792939,0.6991341951450867
0.067,1.7501139715169567,1.0,3218.9502468400246,0.5294286592217231,1.306950596036132,0.9828615084864335,0.2865577868037122,0.6995578175799212
0.0675,1.749687360193581,1.0,3221.7526722730254,0.5320681809928347,1.3067344814014694,0.9830179538313796,0.2865398691281304,0.6999807331612615
0.068,1.7492607488702054,1.0,3224.532378467341,0.5346929002588062,1.306518566961276,0.9831712797516163,0.2865219514525486,0.7004029595280796
0.0685,1.7488341375468297,1.0,3227.28962316143,0.5373028830911931,1.3063028503022351,0.983321569170314,0.28650403377696687,0.7008245022217046
0.069,1.7484075262234542,1.0,3230.0239567105687,0.5398981846127929,1.306087334928047,0.983468901832211,0.2864861161013851,0.7012453552188952
0.0695,1.7479809149000785,1.0,3232.7383910661956,0.5424789555416734,1.3058719954266764,0.9836133592543818,0.2864681984258033,0.7016655689212477
