Time [s],Phi [rad],STIM [ ],Fsee [N],Gamma [ ],Lcerel [ ],q [ ],Lmtc [m],fisomrel [ ]
0.0,1.8,1.0,18.924598930828797,0.0009985693526092928,1.3792338729823417,0.005256139360264495,0.288653,0.5413956300472358
0.0005,1.79999375,1.0,19.525460750092048,0.006602177477029954,1.3791659712724451,0.015911113592683126,0.2886527375,0.5415598412915285
0.001,1.799975,1.0,23.60191973467985,0.01217435379124665,1.378740158198901,0.040944177359067975,0.28865195,0.5425889431360698
0.0015,1.79994375,1.0,34.72836196695769,0.01771527460089061,1.3777431338309483,0.07778367908096427,0.2886506375,0.544994020547112
0.002,1.7999,1.0,60.51631882517856,0.02322511522637951,1.3759319752385881,0.12314545746107074,0.2886488,0.5493467793150943
0.0025,1.79984375,1.0,107.98065134502122,0.028704050003138557,1.3734256361045876,0.1736935736365918,0.28864643749999996,0.5553357598848347
0.003,1.7997750000000001,1.0,174.59657644175763,0.03415225228768263,1.370714223839374,0.22665521094543178,0.28864354999999997,0.5617696563876613
0.0035,1.79969375,1.0,252.8279124126751,0.03956989446445334,1.3681254443074133,0.2799141319766631,0.2886401375,0.5678688050174411
0.004,1.7996,1.0,337.4236524168386,0.044957147950943646,1.3657385739834287,0.3319056180311325,0.2886362,0.5734543861625259
0.0045000000000000005,1.7994937500000001,1.0,425.6882955523192,0.05031418321227663,1.3635411519842398,0.38155685750088325,0.2886317375,0.5785645115241451
0.005,1.799375,1.0,516.0727047218272,0.055641169652966095,1.3615072396791772,0.4282133520736401,0.28862675,0.5832669504449679
0.0055,1.79924375,1.0,607.5684921309385,0.06093827612847476,1.3596133270168058,0.47154350486681923,0.2886212375,0.5876219867088772
0.006,1.7991000000000001,1.0,699.2556616114329,0.0662056698604822,1.3578440133162877,0.5114497521607846,0.2886152,0.5916698409875399
0.006500000000000001,1.79894375,1.0,790.4754595749076,0.07144351768539015,1.3561854821886703,0.5479888097432203,0.2886086375,0.5954461169579861
0.007,1.798775,1.0,880.6537674522863,0.07665198535386286,1.3546272401264183,0.5813149663257581,0.28860155,0.5989780630112234
0.0075,1.79859375,1.0,969.3108501908771,0.08183123759267362,1.3531606750970826,0.61163741315192,0.2885939375,0.602288066214837
0.008,1.7984,1.0,1056.0708539252412,0.08698143845251743,1.3517781798361415,0.6391909050249442,0.2885858,0.605395765915725
0.0085,1.79819375,1.0,1140.623277783931,0.09210275061578273,1.3504732537391435,0.6642168419059246,0.2885771375,0.6083179158593685
0.009000000000000001,1.797975,1.0,1222.7495896275861,0.09719533609727479,1.349239755313941,0.686950929485163,0.28856795,0.6110701317227634
0.0095,1.79774375,1.0,1302.2943019699464,0.10225935675766795,1.3480720753915219,0.7076163247241917,0.2885582375,0.6136665508056083
0.01,1.7975,1.0,1379.108076979847,0.1072949719912084,1.3469656605109168,0.7264202334251328,0.288548,0.6161187194713751
0.0105,1.79724375,1.0,1453.1123888167401,0.11230234117207089,1.3459159646631826,0.7435518380116451,0.2885372375,0.6184379636197059
0.011,1.796975,1.0,1524.2730608971644,0.11728162278248754,1.3449186909188837,0.7591823054483628,0.28852595000000003,0.6206348745370012
0.0115,1.79669375,1.0,1592.5899409086883,0.12223297534446345,1.3439698151976245,0.7734654821470587,0.2885141375,0.622719280079439
0.012,1.7964,1.0,1658.0492597590403,0.12715655453101038,1.3430660525084859,0.7865392155279153,0.28850180000000003,0.6246992462252705
0.0125,1.79609375,1.0,1720.6755823678516,0.1320525159119612,1.3422041411092216,0.7985263609704606,0.2884889375,0.6265826715806759
0.013000000000000001,1.7957750000000001,1.0,1780.5172299806127,0.13692101438359722,1.341380964336442,0.8095362598970416,0.28847555,0.6283770318517885
0.0135,1.79544375,1.0,1837.645012141234,0.14176220523491478,1.3405935165395588,0.819666124079747,0.2884616375,0.6300894658520959
0.014,1.7951000000000001,1.0,1892.1140222173212,0.14657624130160088,1.339839279807222,0.8290024908749863,0.2884472,0.631725969069224
0.0145,1.79474375,1.0,1943.9794745789923,0.15136327398764843,1.3391159919768474,0.8376223358167679,0.2884322375,0.6332919132192564
0.015,1.794375,1.0,1993.317152160143,0.1561234546970503,1.3384213908858507,0.8455940873432815,0.28841675,0.6347926090270608
0.0155,1.79399375,1.0,2040.2134551685374,0.16085693415029648,1.3377533002948936,0.8529786567748702,0.2884007375,0.6362331254461334
0.016,1.7936,1.0,2084.7613334066077,0.16556386327247294,1.3371096502583075,0.8598303328979309,0.2883842,0.6376182516030663
0.0165,1.7931937500000001,1.0,2127.040051691322,0.1702443909565124,1.3364886647254395,0.8661976186195051,0.2883671375,0.6389520998446773
0.017,1.792775,1.0,2167.1209502644306,0.17489866421399985,1.3358887755085698,0.872123886155842,0.28834955,0.6402382987479389
0.0175,1.7923437500000001,1.0,2205.0860302000406,0.17952683005652031,1.3353084144199794,0.8776479233227401,0.2883314375,0.6414804439386459
0.018000000000000002,1.7919,1.0,2241.025749519545,0.18412903533846706,1.334746026326592,0.8828044754491735,0.2883128,0.6426820722530504
0.0185,1.79144375,1.0,2275.0218427657746,0.18870542527736764,1.3342002312692458,0.8876247574721355,0.2882936375,0.6438463183022405
0.019,1.790975,1.0,2307.173367621072,0.19325614716162612,1.333669553037408,0.8921367949541109,0.28827395,0.6449764967341082
0.0195,1.79049375,1.0,2337.5442523421043,0.1977813432934221,1.3331529310287147,0.8963659084616223,0.2882537375,0.6460750144992873
0.02,1.79,1.0,2366.203917138023,0.20228115597493507,1.332649304640802,0.9003349218316079,0.288233,0.6471442605930835
0.0205,1.78949375,1.0,2393.2268233594496,0.20675572750834464,1.3321576132713062,0.9040644420116172,0.2882117375,0.6481866069703743
0.021,1.788975,1.0,2418.692047628049,0.2112052001958304,1.3316767963178637,0.9075731046167145,0.28818995000000003,0.6492044093887702
0.021500000000000002,1.78844375,1.0,2442.6651474695846,0.21562971362074387,1.3312059635694482,0.910877823903391,0.2881676375,0.6501996482654124
0.022,1.7879,1.0,2465.2364287653586,0.22002941146848182,1.3307440216946935,0.9139939049950371,0.2881448,0.6511747197487886
0.0225,1.78734375,1.0,2486.4603784742485,0.22440443111881314,1.3302902525441702,0.916935325791213,0.28812143749999997,0.6521312151604217
0.023,1.786775,1.0,2506.3932607003544,0.2287549098171328,1.3298439458233144,0.9197148064759828,0.28809755,0.6530706996291659
0.0235,1.78619375,1.0,2525.093718147993,0.2330809848088357,1.3294043912375617,0.9223439387539831,0.28807313749999996,0.6539947290606231
0.024,1.7856,1.0,2542.622571292552,0.23738279333931686,1.328970878492348,0.9248333015482824,0.2880482,0.6549048504590971
0.0245,1.78499375,1.0,2559.036281379681,0.2416604713499098,1.3285427568787789,0.9271925732976156,0.2880227375,0.6558024773676391
0.025,1.784375,1.0,2574.3937243857176,0.2459141553150915,1.3281193693125448,0.9294306110582988,0.28799675,0.6566890289602609
0.025500000000000002,1.78374375,1.0,2588.757199301644,0.2501439819042705,1.3277000415694178,0.9315555293924771,0.2879702375,0.657565952663909
0.026000000000000002,1.7831000000000001,1.0,2602.1680640111317,0.25435008301244844,1.3272843079573982,0.9335748070061425,0.2879432,0.6584342530766805
0.0265,1.78244375,1.0,2614.6687800428435,0.25853259053462685,1.3268717027844859,0.9354953157302307,0.2879156375,0.6592949295879169
0.027,1.781775,1.0,2626.3028195784736,0.26269163636580734,1.3264617603586806,0.937323377896249,0.28788755,0.6601489764780339
0.0275,1.7810937500000001,1.0,2637.114577268174,0.26682735240099154,1.3260540149879825,0.9390648175894177,0.2878589375,0.6609973830045169
0.028,1.7804,1.0,2647.1492868550604,0.270939870535181,1.3256480009803915,0.9407250064987658,0.2878298,0.661841133474091
0.0285,1.77969375,1.0,2656.4407929952913,0.2750293183412019,1.3252433645874984,0.9423089193375261,0.2878001375,0.6626809751014147
0.029,1.7789783331757258,1.0,2665.203965280894,0.2790958311805239,1.3248395977545657,0.9438211364143658,0.2877700899933805,0.6635179710798851
0.029500000000000002,1.7782624616692022,1.0,2673.8609843566533,0.28313953560292465,1.3244367329727997,0.9452659676914871,0.2877400233901065,0.6643520608990314
0.03,1.7775465901626786,1.0,2682.428992752597,0.2871605579130815,1.3240348130282058,0.9466474067706548,0.2877099567868325,0.665183163092397
0.0305,1.7768307186561547,1.0,2690.9028226292007,0.2911590244156716,1.3236338807067902,0.9479691569216484,0.2876798901835585,0.6660111966156348
0.031,1.776114847149631,1.0,2699.277282992291,0.29513506141537227,1.323233978794559,0.9492346558329344,0.2876498235802845,0.6668360808438729
0.0315,1.7753989756431074,1.0,2707.5471606505207,0.29908879521686077,1.3228351500775182,0.9504470979644903,0.2876197569770105,0.6676577355689615
0.032,1.7746831041365836,1.0,2715.7072925137713,0.3030203520052063,1.3224374366919334,0.9516094546455544,0.2875896903737365,0.6684760823327024
0.0325,1.77396723263006,1.0,2723.756407478958,0.306929853483815,1.322040845180477,0.9527244869563283,0.2875596237704625,0.6692911161844517
0.033,1.773251361123536,1.0,2731.6897421451745,0.31081742960741343,1.32164541385388,0.9537947744313716,0.28752955716718853,0.6701027670496373
0.0335,1.7725354896170125,1.0,2739.5076010671355,0.3146832010525737,1.321251134898374,0.9548227156164764,0.28749949056391455,0.6709110597146261
0.034,1.7718196181104888,1.0,2747.2103025911115,0.31852728849586814,1.320858000500192,0.9558105503251021,0.2874694239606405,0.6717160188616671
0.0345,1.771103746603965,1.0,2754.798178656489,0.32234981261386897,1.3204660028455661,0.9567603720205551,0.28743935735736653,0.6725176690694694
0.035,1.7703878750974413,1.0,2762.271574597671,0.3261508940831485,1.3200751341207289,0.9576741390946697,0.28740929075409255,0.6733160348137673
0.035500000000000004,1.7696720035909177,1.0,2769.6308489479497,0.32993065358027895,1.3196853865119127,0.958553685152845,0.2873792241508185,0.6741111404678859
0.036000000000000004,1.7689561320843938,1.0,2776.876373244935,0.33368921178183264,1.3192967522053498,0.9594007284032907,0.28734915754754453,0.6749030103033018
0.0365,1.7682402605778702,1.0,2784.0101533863967,0.33742666753249295,1.3189092087930034,0.9602168738386748,0.28731909094427055,0.6756916981728971
0.037,1.7675243890713466,1.0,2791.0323174897594,0.3411431685360342,1.3185227509328548,0.961003640564013,0.28728902434099657,0.6764772230171128
0.0375,1.7668085175648227,1.0,2797.9445783029473,0.34483883445767105,1.318137359153921,0.9617624478213621,0.28725895773772253,0.6772596323678862
0.038,1.766092646058299,1.0,2804.749067502972,0.3485137780389237,1.3177530103935093,0.9624946280072739,0.28722889113444855,0.6780389808222651
0.0385,1.7653767745517754,1.0,2811.447936597651,0.35216811202131265,1.3173696815889269,0.9632014346687557,0.28719882453117457,0.6788153227300484
0.039,1.7646609030452516,1.0,2818.0433563985703,0.3558019491463582,1.3169873496774807,0.963884048029895,0.28716875792790053,0.6795887121953017
0.0395,1.763945031538728,1.0,2824.5375165054097,0.3594154021555808,1.3166059915964772,0.9645435800738472,0.28713869132462655,0.6803592030778426
0.04,1.7632291600322043,1.0,2830.9326248018265,0.3630085837905009,1.316225584283224,0.9651810792203438,0.28710862472135257,0.6811268489946862
0.0405,1.7625132885256805,1.0,2837.230906963631,0.36658160679263874,1.3158461046750278,0.9657975346348661,0.2870785581180786,0.6818917033214649
0.041,1.7617974170191568,1.0,2843.4346059784225,0.3701345839035148,1.3154675297091958,0.9663938802020758,0.2870484915148046,0.6826538191938064
0.0415,1.7610815455126332,1.0,2849.5459816772536,0.37366762786464935,1.3150898363230348,0.9669709981929039,0.2870184249115306,0.6834132495086835
0.042,1.7603656740061093,1.0,2855.5673102776464,0.3771808514175629,1.3147130014538517,0.967529722651847,0.2869883583082566,0.6841700469257268
0.0425,1.7596498024995857,1.0,2861.5008839391808,0.3806743673037758,1.3143370020389538,0.96807084252849,0.2869582917049826,0.6849242638685038
0.043000000000000003,1.7589339309930618,1.0,2867.349010329892,0.3841482882648084,1.3139618150156478,0.9685951045749793,0.28692822510170857,0.6856759525257659
0.043500000000000004,1.7582180594865382,1.0,2873.1134705687364,0.3876027202570517,1.3135874221198907,0.9691032153669994,0.2868981584984346,0.6864251552557447
0.044,1.7575021879800146,1.0,2878.7929020508705,0.3910377242798285,1.313213833023031,0.9695958399684014,0.2868680918951606,0.6871718584280002
0.0445,1.7567863164734907,1.0,2884.396171699399,0.3944534888192213,1.3128409669444465,0.9700736210078674,0.2868380252918866,0.6879162289581113
0.045,1.756070444966967,1.0,2889.9249276505834,0.39785011573728113,1.3124688072191188,0.9705371601925812,0.28680795868861264,0.688658305213843
0.0455,1.7553545734604434,1.0,2895.380828633723,0.401227706896059,1.3120973371820297,0.970987028763868,0.2867778920853386,0.6893981253950461
0.046,1.7546387019539196,1.0,2900.7655437137173,0.4045863641576062,1.3117265401681608,0.9714237693338091,0.2867478254820646,0.6901357275344007
0.0465,1.753922830447396,1.0,2906.080752038769,0.4079261893839736,1.3113563995124935,0.9718478975941561,0.28671775887879064,0.6908711494981394
0.047,1.7532069589408723,1.0,2911.328142594927,0.4112472844372125,1.3109868985500095,0.9722599039075596,0.2866876922755166,0.6916044289867542
0.0475,1.7524910874343484,1.0,2916.509413966849,0.4145497511793739,1.3106180206156905,0.9726602547902539,0.2866576256722426,0.6923356035356838
0.048,1.7517752159278248,1.0,2921.626274104386,0.41783369147250893,1.3102497490445182,0.9730493942945581,0.28662755906896864,0.6930647105159868
0.0485,1.7510593444213012,1.0,2926.6804400953256,0.4210992071786687,1.3098820671714737,0.9734277452988304,0.28659749246569466,0.6937917871349946
0.049,1.7503434729147773,1.0,2931.673637944694,0.4243464001599043,1.3095149583315393,0.9737957107118728,0.2865674258624207,0.6945168704369435
0.0495,1.7496276014082537,1.0,2936.60760235968,0.42757537227826686,1.309148405859696,0.9741536745981954,0.28653735925914664,0.695239997303599
0.05,1.74891172990173,1.0,2941.4840765413237,0.4307862253958074,1.308782393090926,0.9745020032300115,0.28650729265587266,0.6959612044548499
0.0505,1.7481958583952062,1.0,2946.3048119816813,0.43397906137457715,1.3084169033602104,0.9748410460713566,0.2864772260525987,0.6966805284492941
0.051000000000000004,1.7474799868886826,1.0,2951.0715682675263,0.43715398207662703,1.308051920002531,0.9751711366992815,0.28644715944932464,0.6973980056848033
0.051500000000000004,1.7467641153821587,1.0,2955.786112890545,0.4403110893640083,1.3076874263528693,0.9754925936666652,0.28641709284605066,0.6981136723990677
0.052000000000000005,1.746048243875635,1.0,2960.4502210628402,0.44345048509877205,1.307323405746207,0.9758057213108341,0.2863870262427767,0.6988275646701281
0.0525,1.7453323723691114,1.0,2965.0656755393393,0.44657227114296927,1.306959841517526,0.9761108105118342,0.2863569596395027,0.6995397184168854
0.053,1.7446165008625876,1.0,2969.6342664458516,0.4496765493586512,1.3065967170018076,0.976408139403906,0.28632689303622866,0.7002501693995967
0.0535,1.743900629356064,1.0,2974.1577911141026,0.45276342160786887,1.3062340155340333,0.9766979740434253,0.2862968264329547,0.7009589532203491
0.054,1.7431847578495403,1.0,2978.634852028771,0.45583293960841437,1.3058717483094606,0.9769805657821783,0.2862667598296807,0.7016660509761288
0.0545,1.7424688863430164,1.0,2983.069536827136,0.45888525051593204,1.3055098788085284,0.9772561617686195,0.28623669322640666,0.7023715368316272
0.055,1.7417530148364928,1.0,2987.463705128286,0.4619204617237729,1.3051483899876883,0.977524995945892,0.2862066266231327,0.703075446708934
0.0555,1.7410371433299692,1.0,2991.818223974047,0.46493866409684825,1.3047872734796881,0.9777872914016703,0.2861765600198587,0.7037777995051588
0.056,1.7403212718234453,1.0,2996.1339641489344,0.46793994850006937,1.3044265209172754,0.9780432619823575,0.2861464934165847,0.7044786140376393
0.0565,1.7396054003169217,1.0,3000.411800111414,0.47092440579834743,1.3040661239331974,0.9782931127515161,0.28611642681331073,0.7051779090441372
0.057,1.738889528810398,1.0,3004.6526099273315,0.47389212685659377,1.303706074160202,0.9785370404219541,0.2860863602100367,0.705875703183029
0.0575,1.7381736573038742,1.0,3008.8572752049313,0.47684320253971957,1.3033463632310363,0.9787752337631793,0.2860562936067627,0.7065720150334955
0.058,1.7374577857973506,1.0,3013.026681030807,0.4797777237126361,1.3029869827784482,0.9790078739858115,0.28602622700348873,0.7072668630957026
0.0585,1.736741914290827,1.0,3017.161715908023,0.48269578124025464,1.302627924435185,0.9792351351044338,0.2859961604002147,0.707960265790982
0.059000000000000004,1.736026042784303,1.0,3021.2632716957205,0.4855974659874864,1.3022691798339945,0.97945718428025,0.2859660937969407,0.7086522414620036
0.059500000000000004,1.7353101712777794,1.0,3025.33224354993,0.48848286881924263,1.301910740607624,0.9796741821448232,0.28593602719366673,0.7093428083729463
0.06,1.7345942997712558,1.0,3029.3695298661796,0.4913520806004345,1.3015525983888212,0.9798862831060802,0.28590596059039275,0.710031984709663
0.0605,1.733878428264732,1.0,3033.3760322236876,0.4942051921959734,1.3011947448103334,0.980093635637684,0.28587589398711877,0.7107197885798411
0.061,1.7331625567582083,1.0,3037.3526553309016,0.49704229447077053,1.3008371715049083,0.9802963825527984,0.28584582738384473,0.7114062380131582
0.0615,1.7324466852516847,1.0,3041.300306973073,0.49986347828973715,1.3004798701052935,0.9804946612632001,0.28581576078057075,0.7120913509614347
0.062,1.7317308137451608,1.0,3045.2198979606246,0.5026688345177844,1.3001228322442364,0.9806886040246288,0.28578569417729677,0.7127751452987816
0.0625,1.7310149422386372,1.0,3049.1123420795507,0.5054584540198237,1.2997660495544845,0.9808783381692048,0.28575562757402273,0.7134576388217422
0.063,1.7302990707321135,1.0,3052.9785560437217,0.5082324276607662,1.2994095136687855,0.9810639863256846,0.28572556097074875,0.7141388492494303
0.0635,1.7295831992255897,1.0,3056.819459447696,0.510990846305523,1.299053216219887,0.9812456666282823,0.28569549436747477,0.7148187942236658
0.064,1.728867327719066,1.0,3060.6348699686423,0.5137337678105488,1.2986971583235638,0.9814234910453887,0.2856654277642008,0.7154974732443491
0.0645,1.7281514562125422,1.0,3064.425583210118,0.51646128908921,1.298341332706901,0.9815975698691399,0.28563536116092675,0.7161749017814737
0.065,1.7274355847060185,1.0,3068.193384967908,0.5191735345657751,1.2979857236289405,0.9817680109132704,0.28560529455765277,0.7168511113307932
0.0655,1.726719713199495,1.0,3071.9386899529895,0.521870584966023,1.297630327137674,0.9819349157126384,0.2855752279543788,0.7175261108670957
0.066,1.726003841692971,1.0,3075.6619143057533,0.5245525210157328,1.2972751392810935,0.9820983822345384,0.28554516135110475,0.7181999093284646
0.0665,1.7252879701864474,1.0,3079.36347557776,0.5272194234406832,1.2969201561071917,0.9822585050295278,0.28551509474783077,0.7188725156163295
0.067,1.7245720986799238,1.0,3083.04379271325,0.5298713729666532,1.2965653736639606,0.9824153753748498,0.2854850281445568,0.7195439385955211
0.0675,1.7238562271734,1.0,3086.7032860314484,0.5325084503194216,1.2962107879993927,0.98256908141086,0.2854549615412828,0.7202141870943203
0.068,1.7231403556668763,1.0,3090.342377209608,0.5351307362247674,1.2958563951614799,0.982719708270851,0.2854248949380088,0.7208832699045098
0.0685,1.7224244841603527,1.0,3093.961489265237,0.5377383114084694,1.2955021911982143,0.9828673382046311,0.28539482833473484,0.7215511957814222
0.069,1.7217086126538288,1.0,3097.5610465397995,0.5403312565963064,1.2951481721575884,0.9830120506962051,0.2853647617314608,0.7222179734439879
0.0695,1.7209927411473052,1.0,3101.1414746825462,0.5429096525140575,1.2947943340875943,0.9831539225758708,0.2853346951281868,0.7228836115747828
0.07,1.7202768696407815,1.0,3104.7032006339264,0.5454735798875017,1.2944406730362243,0.9832930281270394,0.28530462852491284,0.7235481188200741
0.07050000000000001,1.7195609981342577,1.0,3108.246652610114,0.5480231194424174,1.2940871850514706,0.9834294391880553,0.2852745619216388,0.7242115037898664
