Time [s],Phi [rad],STIM [ ],Fsee [N],Gamma [ ],Lcerel [ ],q [ ],Lmtc [m],fisomrel [ ]
0.0,1.8,1.0,19.163684176918846,0.0011160826037848277,1.3792078557201646,0.005319650052715787,0.288653,0.5414585528064887
0.0005,1.79999375,1.0,19.79430187004325,0.006719031571790761,1.3791371777255554,0.016293982811261824,0.2886527375,0.5416294657726423
0.001,1.799975,1.0,23.960881098510637,0.012290552426235543,1.3787052023813322,0.04160244969088229,0.28865195,0.5426733727337827
0.0015,1.79994375,1.0,35.301644916001045,0.01783082145410442,1.377697125873346,0.07865421932851793,0.2886506375,0.5451048504687943
0.002,1.7999,1.0,61.49690553397589,0.02334001395307781,1.3758723557244275,0.12415693546394768,0.2886488,0.5494897072773262
0.0025,1.79984375,1.0,109.41757921979091,0.028818304238944166,1.3733601857935487,0.1747815954704049,0.28864643749999996,0.5554916188271901
0.003,1.7997750000000001,1.0,176.33919474005057,0.03426586564729698,1.3706517508676161,0.22776947293483438,0.28864354999999997,0.5619173455955695
0.0035,1.79969375,1.0,254.7267746563669,0.0396828705427514,1.3680688392580305,0.2810166221810361,0.2886401375,0.5680016886710655
0.004,1.7996,1.0,339.40279458009377,0.045069490320703405,1.3656874833636772,0.3329690358917527,0.2886362,0.573573547548279
0.0045000000000000005,1.7994937500000001,1.0,427.7120875101313,0.05042589543159751,1.3634946263684198,0.38256345741908016,0.2886317375,0.5786723743663358
0.005,1.799375,1.0,518.1333207724413,0.05575225532995767,1.3614642072227312,0.4291529816755363,0.28862675,0.5833661571965639
0.0055,1.79924375,1.0,609.6104129383729,0.061048738587318276,1.3595740205312379,0.4724124644264939,0.2886212375,0.587712129333549
0.006,1.7991000000000001,1.0,701.2883477612887,0.0663155127085244,1.3578075358690334,0.5122475266658092,0.2886152,0.5917530844238852
0.006500000000000001,1.79894375,1.0,792.4913669969022,0.07155274447152098,1.3561514541325093,0.5487177226866976,0.2886086375,0.595523411094704
0.007,1.798775,1.0,882.628444217863,0.07676059938104172,1.3545956582778331,0.5819790716530815,0.28860155,0.5990494870233105
0.0075,1.79859375,1.0,971.2505193277657,0.08193924249354209,1.3531311040709653,0.6122412669278928,0.2885939375,0.6023546662551693
0.008,1.7984,1.0,1057.9656339564601,0.08708883745816176,1.3517505037305304,0.6397395511916301,0.2885858,0.605457854353693
0.0085,1.79819375,1.0,1142.4680721486538,0.09220954708097168,1.3504473245622628,0.6647152820634804,0.2885771375,0.6083758696018879
0.009000000000000001,1.797975,1.0,1224.5490037467007,0.09730153388663175,1.3492153271937128,0.6874039021279843,0.28856795,0.6111245384342733
0.0095,1.79774375,1.0,1304.0260284902852,0.102364958612077,1.3480492946523328,0.7080284642837966,0.2885582375,0.6137171189158598
0.01,1.7975,1.0,1380.7722915382953,0.10739998134539468,1.3469443856571384,0.726795646505107,0.288548,0.6161657948373434
0.0105,1.79724375,1.0,1454.7215565747306,0.11240676150616796,1.3458959236850698,0.7438941882113667,0.2885372375,0.6184821746749118
0.011,1.796975,1.0,1525.8394808742462,0.11738545804991732,1.3448996427746296,0.7594949097729434,0.28852595000000003,0.6206767742791228
0.0115,1.79669375,1.0,1594.0902469389823,0.12233622776837537,1.3439519662340744,0.7737515113551598,0.2885141375,0.6227584340679659
0.012,1.7964,1.0,1659.4820271566884,0.12725922729038697,1.3430493465821127,0.7868013854259541,0.28850180000000003,0.6247357965866884
0.0125,1.79609375,1.0,1722.052918365105,0.13215461260681946,1.3421883762210198,0.7987670287628197,0.2884889375,0.6266170764643553
0.013000000000000001,1.7957750000000001,1.0,1781.857563113743,0.13702253961015037,1.3413658828088662,0.8097575012954926,0.28847555,0.6284098662440162
0.0135,1.79544375,1.0,1838.9285180935178,0.14186316115520553,1.3405793004994042,0.8198699480750279,0.2884616375,0.6301203446152313
0.014,1.7951000000000001,1.0,1893.3248088630098,0.14667663009681084,1.3398260634463866,0.8291906640836951,0.2884472,0.6317546128907285
0.0145,1.79474375,1.0,1945.1252339589591,0.15146309894832888,1.3391036532319889,0.8377963388011771,0.2884322375,0.6333185981017826
0.015,1.794375,1.0,1994.4144919665678,0.1562227196341051,1.3384097206253227,0.845755207986328,0.28841675,0.6348177965124078
0.0155,1.79399375,1.0,2041.280598804746,0.1609556437396532,1.3377420822887274,0.8531280407822299,0.2884007375,0.6362572890665641
0.016,1.7936,1.0,2085.786855874464,0.16566201970171954,1.337098985500752,0.8599690978922262,0.2883842,0.6376411797651906
0.0165,1.7931937500000001,1.0,2128.010099366234,0.17034199595705057,1.3364786775399455,0.8663267684383863,0.2883671375,0.6389735317632952
0.017,1.792775,1.0,2168.039561245558,0.17499572094239269,1.335879405684857,0.8722442658075585,0.28834955,0.6402583700152653
0.0175,1.7923437500000001,1.0,2205.95902675994,0.1796233415685311,1.3352995867891362,0.8777602847648183,0.2883314375,0.6414993211066152
0.018000000000000002,1.7919,1.0,2241.8695766471487,0.18422500643371614,1.334737562308915,0.8829094667388899,0.2883128,0.6427001415162157
0.0185,1.79144375,1.0,2275.8426444434795,0.18880086004940108,1.3341920599220962,0.8877229878530521,0.2882936375,0.6438637343272515
0.019,1.790975,1.0,2307.9500561980544,0.19335104620594207,1.3336618748689668,0.8922288773268302,0.28827395,0.6449928356470853
0.0195,1.79049375,1.0,2338.2700789216774,0.19787570869369503,1.333145802389813,0.8964523612059812,0.2882537375,0.6460901605549989
0.02,1.79,1.0,2366.8868767413164,0.20237499130301606,1.3326426377249223,0.9004161799973633,0.288233,0.6471584042328
0.0205,1.78949375,1.0,2393.870884185717,0.2068490354454113,1.3321513616434764,0.9041409073622092,0.2882117375,0.6481998499948488
0.021,1.788975,1.0,2419.3146508924883,0.21129798592246804,1.3316707848498923,0.9076451144616031,0.28818995000000003,0.6492171252457157
0.021500000000000002,1.78844375,1.0,2443.2773086879756,0.21572198181639163,1.3312000819893535,0.9109456974111377,0.2881676375,0.6502120717163442
0.022,1.7879,1.0,2465.8199959314547,0.22012116201221057,1.3307384405505474,0.9140579865019455,0.2881448,0.6511864921626023
0.0225,1.78734375,1.0,2487.006901048516,0.22449566539495344,1.3302850480221624,0.9169959106556499,0.28812143749999997,0.6521421781026717
0.023,1.786775,1.0,2506.9050049162015,0.2288456308496487,1.3298390918928866,0.9197721449324958,0.28809755,0.6530809102655482
0.0235,1.78619375,1.0,2525.5760557639783,0.2331711953016009,1.3293998331882237,0.922398253407464,0.28807313749999996,0.6540043045139361
0.024,1.7856,1.0,2543.0860177485147,0.23747249829488878,1.3289665140756772,0.9248847883670551,0.2880482,0.6549140070691877
0.0245,1.78499375,1.0,2559.489951624047,0.24174967609664086,1.328538498245878,0.9272414141949425,0.2880227375,0.655811400415635
0.025,1.784375,1.0,2574.835634589288,0.24600286235889868,1.3281152334577069,0.9294769891832679,0.28799675,0.656697683587355
0.025500000000000002,1.78374375,1.0,2589.172293292712,0.25023219073370384,1.3276961674700436,0.9315996316891954,0.2879702375,0.6575740491882818
0.026000000000000002,1.7831000000000001,1.0,2602.5504799222413,0.2544377948730978,1.3272807480417688,0.9336167919822392,0.2879432,0.6584416835498096
0.0265,1.78244375,1.0,2615.0219550561583,0.2586198084291222,1.3268684229317627,0.9355353162385206,0.2879156375,0.6593017668689488
0.027,1.781775,1.0,2626.633164781687,0.26277836459041964,1.3264586993164091,0.9373615126091946,0.28788755,0.6601553496193826
0.0275,1.7810937500000001,1.0,2637.436465598067,0.266913595195761,1.3260510384264976,0.9391011848166599,0.2878589375,0.6610035725159521
0.028,1.7804,1.0,2647.469436816953,0.2710256305860767,1.3256450461096687,0.9407597067943709,0.2878298,0.6618472702303309
0.0285,1.7796946064583048,1.0,2656.7971311039646,0.27511460036873736,1.3252404682682886,0.9423420606876715,0.2878001734712488,0.6626869827826033
0.029,1.7789867337099314,1.0,2665.893361318708,0.2791806340853705,1.3248370504697276,0.9438528519652678,0.2877704428158171,0.6635232482210704
0.029500000000000002,1.778278860961558,1.0,2674.8865839307814,0.2832238606175766,1.3244347212030108,0.9452963675357788,0.28774071216038544,0.66435622346277
0.03,1.7775709882131847,1.0,2683.764506858452,0.28724440834529463,1.3240335876612586,0.9466766023241412,0.2877109815049538,0.6651856953679001
0.0305,1.7768631154648113,1.0,2692.523418972487,0.2912424037390696,1.3236336778796056,0.9479972497522227,0.28768125084952206,0.6660116152491061
0.031,1.776155242716438,1.0,2701.1595990081078,0.29521797326944677,1.3232350198931866,0.9492617384934797,0.2876515201940904,0.6668339346768217
0.0315,1.7754473699680646,1.0,2709.673531439034,0.2991712353308348,1.322837603283492,0.9504732474354153,0.2876217895386587,0.6676526846497787
0.032,1.7747394972196913,1.0,2718.0570454784597,0.30310232725724473,1.322441496629743,0.9516347492415405,0.28759205888322703,0.6684677335815414
0.0325,1.774031624471318,1.0,2726.3087604606435,0.3070113745143584,1.3220467064329184,0.9527490007010109,0.28756232822779537,0.6692790780475435
0.033,1.7733237517229445,1.0,2734.4297731458905,0.31089849779422296,1.3216532167604504,0.9538185673527388,0.28753259757236366,0.6700867606749192
0.0335,1.7726158789745712,1.0,2742.421202065887,0.3147638177888856,1.3212610116797707,0.954845842821807,0.287502866916932,0.670890823898247
0.034,1.7719080062261978,1.0,2750.2841870665443,0.3186074551903937,1.3208700752583116,0.9558330623901679,0.2874731362615003,0.6716913099608592
0.0345,1.7712001334778245,1.0,2758.0198888575956,0.32242953069079433,1.3204803915635048,0.9567823153441605,0.2874434056060686,0.6724882609161436
0.035,1.7704922607294513,1.0,2765.629488566792,0.32623016498213475,1.3200919446627823,0.9576955562219296,0.28741367495063697,0.6732817186288211
0.035500000000000004,1.769784387981078,1.0,2773.1141873003917,0.33000947875646214,1.3197047186235762,0.9585746150702313,0.28738394429520525,0.6740717247762117
0.036000000000000004,1.7690765152327046,1.0,2780.4752057093087,0.33376759270582373,1.3193186975133184,0.9594212068081701,0.2873542136397736,0.6748583208494829
0.0365,1.7683686424843312,1.0,2787.71378356013,0.3375046275222667,1.3189338653994407,0.96023693978483,0.2873244829843419,0.6756415481548834
0.037,1.7676607697359579,1.0,2794.831540806128,0.3412206845657773,1.3185502031021694,0.9610233190595491,0.2872947523289102,0.6764214544118834
0.0375,1.7669528969875845,1.0,2801.831701485126,0.344915904342937,1.3181676772308337,0.961781765563511,0.28726502167347856,0.6771981159615307
0.038,1.7662450242392111,1.0,2808.716833742325,0.3485904079942955,1.317786260517154,0.9625136114296672,0.28723529101804685,0.6779715963855981
0.0385,1.7655371514908378,1.0,2815.4894288161454,0.35224430769171633,1.3174059265892049,0.9632201081752748,0.2872055603626152,0.6787419571621438
0.039,1.7648292787424644,1.0,2822.1520000561623,0.35587771560706283,1.317026649075061,0.963902434144889,0.28717582970718347,0.6795092594905552
0.0395,1.764121405994091,1.0,2828.707082298068,0.3594907439121985,1.3166484016027975,0.9645616995798001,0.2871460990517518,0.6802735642933466
0.04,1.7634135332457177,1.0,2835.15723125336,0.36308350477898665,1.3162711578004884,0.9651989512841501,0.28711636839632015,0.6810349322179163
0.0405,1.7627056604973443,1.0,2841.5050229149774,0.3666561103792909,1.3158948912962087,0.9658151769237558,0.28708663774088844,0.6817934236382541
0.041,1.761997787748971,1.0,2847.75305297803,0.3702086728849746,1.3155195757180331,0.9664113089901261,0.2870569070854568,0.6825490986566083
0.0415,1.7612899150005976,1.0,2853.9039362762073,0.37374130446790116,1.3151451846940365,0.9669882284589747,0.28702717643002507,0.6833020171051072
0.042,1.7605820422522245,1.0,2859.9603062334113,0.377254117299934,1.3147716918522931,0.9675467681697115,0.2869974457745934,0.6840522385473374
0.0425,1.7598741695038511,1.0,2865.924814330805,0.38074722355293666,1.314399070820878,0.9680877159498366,0.28696771511916175,0.6847998222798743
0.043000000000000003,1.7591662967554778,1.0,2871.8001295894896,0.38422073539877244,1.3140272952278655,0.9686118175059109,0.2869379844637301,0.6855448273337723
0.043500000000000004,1.7584584240071044,1.0,2877.588938068256,0.3876747650093048,1.313656338701331,0.9691197791007359,0.2869082538082984,0.6862873124760076
0.044,1.757750551258731,1.0,2883.2909466619335,0.3911093915263908,1.313286201363108,0.9696122671533091,0.2868785231528667,0.6870272832763846
0.0445,1.7570426785103577,1.0,2888.908165113991,0.39452471522687244,1.3129168630276538,0.9700899152973114,0.286848792497435,0.6877647858193003
0.045,1.7563348057619843,1.0,2894.449420646222,0.3979209139988573,1.3125482434493034,0.9705533312933355,0.28681906184200334,0.688499985703938
0.0455,1.755626933013611,1.0,2899.9163608744584,0.4012980886203566,1.312180326035486,0.9710030856955613,0.2867893311865717,0.6892329210343675
0.046,1.7549190602652376,1.0,2905.310643843895,0.4046563398693814,1.3118130941936312,0.9714397204780183,0.28675960053113997,0.6899636297493421
0.0465,1.7542111875168642,1.0,2910.6339377738877,0.4079957685239428,1.3114465313311676,0.9718637507396459,0.2867298698757083,0.6906921496230358
0.047,1.7535033147684909,1.0,2915.8879208084304,0.41131647536205207,1.311080620855525,0.9722756662919984,0.2867001392202766,0.6914185182657561
0.0475,1.7527954420201175,1.0,2921.074280773674,0.4146185611617203,1.3107153461741319,0.9726759331387048,0.28667040856484494,0.6921427731246472
0.048,1.7520875692717444,1.0,2926.1947149402317,0.41790212670095866,1.310350690694418,0.9730649948550187,0.2866406779094133,0.6928649514843677
0.0485,1.751379696523371,1.0,2931.2509297930105,0.4211672727577783,1.3099866378238123,0.9734432738750647,0.28661094725398156,0.6935850904677572
0.049,1.7506718237749976,1.0,2936.2446408062015,0.4244141001101904,1.3096231709697441,0.9738111726937646,0.2865812165985499,0.6943032270364815
0.0495,1.7499639510266243,1.0,2941.177572224504,0.42764270953620603,1.3092602735396424,0.9741690749898221,0.2865514859431182,0.6950193979916632
0.05,1.749256078278251,1.0,2946.051456850798,0.4308532018138364,1.3088979289409366,0.9745173466756282,0.28652175528768653,0.6957336399744901
0.0505,1.7485482055298776,1.0,2950.868035839748,0.4340456777210927,1.3085361205810555,0.9748563368794588,0.28649202463225487,0.6964459894668125
0.051000000000000004,1.7478403327815042,1.0,2955.629058497106,0.43722023803598603,1.3081748318674287,0.9751863788648991,0.28646229397682316,0.6971564827917158
0.051500000000000004,1.7471324600331308,1.0,2960.336282086101,0.44037698353652754,1.3078140462074852,0.9755077908920328,0.2864325633213915,0.6978651561140822
0.052000000000000005,1.7464245872847575,1.0,2964.9914716386415,0.4435160150007284,1.3074537470086542,0.9758208770245607,0.2864028326659598,0.6985720454411302
0.0525,1.745716714536384,1.0,2969.596399773954,0.4466374332065997,1.307093917678365,0.9761259278866969,0.2863731020105281,0.6992771866229389
0.053,1.7450088417880107,1.0,2974.152846522226,0.44974133893215273,1.3067345416240466,0.9764232213733698,0.28634337135509647,0.699980615352953
0.0535,1.7443009690396374,1.0,2978.6625991548726,0.4528278329553986,1.306375602253128,0.9767130233169893,0.28631364069966475,0.7006823671684728
0.054,1.743593096291264,1.0,2983.1274520209754,0.45589701605434835,1.306017082973039,0.9769955881137906,0.2862839100442331,0.7013824774511228
0.0545,1.7428852235428907,1.0,2987.5492063896468,0.45894898900701325,1.3056589671912084,0.9772711593125211,0.2862541793888014,0.7020809814273079
0.055,1.7421773507945175,1.0,2991.9291744869265,0.4619838443253173,1.3053012426196218,0.9775399696380962,0.2862244487333697,0.702777905787356
0.0555,1.7414694780461442,1.0,2996.2658686462028,0.46500163580547677,1.3049439213058607,0.9778022398991287,0.28619471807793806,0.7034732297787152
0.056,1.7407616052977708,1.0,3000.564126002944,0.46800252489515254,1.3045869604399647,0.9780581885390899,0.2861649874225064,0.7041670393174215
0.0565,1.7400537325493974,1.0,3004.824752744861,0.4709866010493089,1.3042303522635448,0.9783080203754481,0.2861352567670747,0.7048593519183657
0.057,1.739345859801024,1.0,3009.04855844009,0.47395395372291005,1.3038740890182117,0.9785519318908338,0.286105526111643,0.7055501850234438
0.0575,1.7386379870526507,1.0,3013.2363559766354,0.4769046723709203,1.3035181629455765,0.9787901116394029,0.2860757954562113,0.7062395560017298
0.058,1.7379301143042774,1.0,3017.388961504396,0.479838846448304,1.3031625662872501,0.9790227406302383,0.28604606480077965,0.706927482149645
0.0585,1.737222241555904,1.0,3021.5071943772477,0.48275656541002526,1.3028072912848436,0.979249992689264,0.286016334145348,0.707613980691122
0.059000000000000004,1.7365143688075306,1.0,3025.591877097355,0.4856579187110484,1.3024523301799675,0.9794720348010325,0.2859866034899163,0.7082990687777675
0.059500000000000004,1.7358064960591573,1.0,3029.643835260579,0.48854299580633775,1.302097675214233,0.9796890274316582,0.2859568728344846,0.7089827634890171
0.06,1.735098623310784,1.0,3033.6638975027354,0.4914118861508574,1.301743318629251,0.9799011248340718,0.2859271421790529,0.7096650818322904
0.0605,1.7343907505624105,1.0,3037.6528954482214,0.49426467919957184,1.3013892526666326,0.9801084753366982,0.28589741152362125,0.7103460407431399
0.061,1.7336828778140372,1.0,3041.6116636586685,0.49710146440744524,1.3010354695679884,0.9803112216165752,0.2858676808681896,0.7110256570853977
0.0615,1.732975005065664,1.0,3045.5410395840986,0.49992233122944185,1.3006819615749297,0.9805095009578647,0.2858379502127579,0.7117039476513155
0.062,1.7322671323172907,1.0,3049.441863515007,0.502727369120526,1.3003287209290668,0.9807034454966441,0.2858082195573262,0.7123809291617051
0.0625,1.7315592595689173,1.0,3053.3149785350824,0.5055166675356618,1.2999757398720113,0.9808931824528045,0.2857784889018945,0.7130566182660696
0.063,1.730851386820544,1.0,3057.1612304767186,0.5082903159298137,1.2996230106453737,0.9810788343498236,0.28574875824646284,0.713731031542737
0.0635,1.7301435140721706,1.0,3060.9814678763,0.5110484037579458,1.2992705254907653,0.9812605192231353,0.2857190275910312,0.7144041854989835
0.064,1.7294356413237972,1.0,3064.776541932002,0.5137910204750225,1.2989182766497966,0.9814383508177675,0.28568929693559947,0.7150760965711596
0.0645,1.7287277685754239,1.0,3068.547306462404,0.516518255536008,1.2985662563640787,0.981612438775874,0.2856595662801678,0.7157467811248062
0.065,1.7280198958270505,1.0,3072.2946178661587,0.5192301983958666,1.2982144568752227,0.9817828888147497,0.2856298356247361,0.7164162554547702
0.0655,1.7273120230786772,1.0,3076.0180911259213,0.5219269008210002,1.2978628810760424,0.9819498008533923,0.28560010496930444,0.7170845155519114
0.066,1.7266041503303038,1.0,3079.7190219585873,0.5246084772506876,1.2975115174727847,0.9821132748418515,0.2855703743138728,0.7177515847290845
0.0665,1.7258962775819304,1.0,3083.3985405193052,0.5272750319237225,1.2971603560178697,0.9822734065934835,0.28554064365844106,0.7184174834545055
0.067,1.725188404833557,1.0,3087.0570369307866,0.5299266445618465,1.2968093930151703,0.9824302872772392,0.2855109130030094,0.7190822200828003
0.0675,1.7244805320851837,1.0,3090.6949026061693,0.5325633948868017,1.2964586247685586,0.9825840049309521,0.2854811823475777,0.7197458029347417
0.068,1.7237726593368103,1.0,3094.3125302331914,0.5351853626203298,1.2961080475819071,0.9827346445908237,0.28545145169214603,0.7204082402972929
0.0685,1.7230647865884372,1.0,3097.9103137580273,0.5377926274841728,1.2957576577590884,0.9828822884146879,0.28542172103671437,0.7210695404236542
0.069,1.7223569138400638,1.0,3101.4886483699956,0.5403852692000725,1.2954074516039749,0.9830270157993954,0.2853919903812827,0.7217297115333077
0.0695,1.7216490410916905,1.0,3105.0479304862474,0.5429633674897707,1.2950574254204392,0.9831689034926339,0.285362259725851,0.7223887618120598
0.07,1.7209411683433171,1.0,3108.588557737186,0.5455270020750094,1.2947075755123536,0.9833080256994868,0.2853325290704193,0.7230466994120868
0.07050000000000001,1.7202332955949438,1.0,3112.110928951447,0.5480762526775302,1.2943578981835906,0.9834444541840078,0.2853027984149876,0.7237035324519736
