Time [s],Phi [rad],STIM [ ],Fsee [N],Gamma [ ],Lcerel [ ],q [ ],Lmtc [m],fisomrel [ ]
0.0,1.8,1.0,17.97416039339384,8.606859374705553e-05,1.379338961812673,0.005001941050143623,0.288653,0.5411414287336844
0.0005,1.79999375,1.0,18.30873010613188,0.005694795125817588,1.3792988363251215,0.013153044353547978,0.2886527375,0.5412384973291093
0.001,1.799975,1.0,21.706909624100152,0.011272061136596167,1.3789292695125082,0.03600606274695769,0.28865195,0.5421320430698883
0.0015,1.79994375,1.0,31.278596699502813,0.01681804309565411,1.378028396864264,0.07114510246931927,0.2886506375,0.5443065407022787
0.002,1.7999,1.0,54.0326915881505,0.02233291648080512,1.3763389794205931,0.11536094939014833,0.2886488,0.5483704482419209
0.0025,1.79984375,1.0,97.87491987660253,0.02781685578617348,1.3738988088972026,0.16527405892407504,0.28864643749999996,0.5542081655142002
0.003,1.7997750000000001,1.0,161.9412888142677,0.033270034529216896,1.3711776005852252,0.21800158849726517,0.28864354999999997,0.5606734337493464
0.0035,1.79969375,1.0,238.79383175468848,0.038692625250879825,1.368550567750537,0.27133003142390577,0.2886401375,0.5668701499067502
0.004,1.7996,1.0,322.64804959036115,0.044084799526215655,1.366124833537233,0.32361011907674186,0.2886362,0.5725529536585889
0.0045000000000000005,1.7994937500000001,1.0,410.4908685444121,0.04944672796961873,1.363894124350017,0.37369354700746393,0.2886317375,0.5777457470138216
0.005,1.799375,1.0,500.6614378411758,0.05477858022632957,1.3618318404053023,0.42086400755773484,0.28862675,0.5825182374646425
0.0055,1.79924375,1.0,592.0492050349618,0.060080525015716174,1.3599142544615148,0.4647445046998419,0.2886212375,0.5869315351894515
0.006,1.7991000000000001,1.0,683.7781372386582,0.0653527300844342,1.358123521336961,0.50520451725366,0.2886152,0.5910317074783651
0.006500000000000001,1.79894375,1.0,775.133533301659,0.07059536225362822,1.3564458850948786,0.5422803745960116,0.2886086375,0.5948543718078081
0.007,1.798775,1.0,865.5107551960117,0.07580858721266148,1.3548706152317185,0.5761139783728099,0.28860155,0.5984274440212425
0.0075,1.79859375,1.0,954.4607446317635,0.08099257051615985,1.353388058309371,0.6069074240667663,0.2885939375,0.6017757660852445
0.008,1.7984,1.0,1041.5560830091147,0.08614747562581551,1.351991018750671,0.6348931937151452,0.2885858,0.6049181209147475
0.0085,1.79819375,1.0,1126.479579345031,0.09127346558834218,1.350672748669988,0.6603125286516828,0.2885771375,0.6078718856512608
0.009000000000000001,1.797975,1.0,1209.0143093627044,0.0963707028734849,1.3494268153139117,0.6834025006961024,0.28856795,0.6106533824603873
0.0095,1.79774375,1.0,1288.9729789354496,0.10143934886301262,1.3482478252826884,0.7043887859387687,0.2885582375,0.6132763143682339
0.01,1.7975,1.0,1366.2186363142923,0.1064795635652248,1.3471308721447992,0.7234812172912831,0.288548,0.6157530535841552
0.0105,1.79724375,1.0,1440.6582364478559,0.11149150601215929,1.3460714485913872,0.7408719508869125,0.2885372375,0.618094873947254
0.011,1.796975,1.0,1512.2905009367016,0.1164753366413719,1.3450647274955954,0.7567348105204762,0.28852595000000003,0.6203135645356841
0.0115,1.79669375,1.0,1581.067766365607,0.12143121201255519,1.3441071743173882,0.7712266441660135,0.2885141375,0.6224178972681842
0.012,1.7964,1.0,1646.9767001752602,0.12635928825122342,1.34319540165685,0.7844878062830809,0.28850180000000003,0.6244161871224281
0.0125,1.79609375,1.0,1710.0457638135265,0.13125972148289086,1.3423260221140638,0.7966434283746021,0.2884889375,0.6263166281363568
0.013000000000000001,1.7957750000000001,1.0,1770.3260078930787,0.13613266728105516,1.341495822889036,0.8078049171301649,0.28847555,0.6281269226700901
0.0135,1.79544375,1.0,1827.8781621548765,0.1409782802058734,1.3407018566549398,0.8180713889911403,0.2884616375,0.6298540971679747
0.014,1.7951000000000001,1.0,1882.7527698055553,0.14579671294057162,1.3399416057724156,0.8275310540405302,0.2884472,0.6315041602833915
0.0145,1.79474375,1.0,1935.016220851948,0.15058811783282294,1.3392126435010547,0.8362623127026743,0.2884322375,0.6330828523247014
0.015,1.794375,1.0,1984.742426339193,0.1553526463897428,1.3385126943444,0.8443349048144677,0.28841675,0.6345955222184149
0.0155,1.79399375,1.0,2032.030136515409,0.1600904506292998,1.3378394225084,0.8518108525754017,0.2884007375,0.6360475911963992
0.016,1.7936,1.0,2076.94598147074,0.16480167946271582,1.3371910110826333,0.8587455518883021,0.2883842,0.6374433100927025
0.0165,1.7931937500000001,1.0,2119.5662579157156,0.16948648153260665,1.3365656881198291,0.8651884063114916,0.2883671375,0.6387867907539092
0.017,1.792775,1.0,2159.9781769075526,0.17414500528910473,1.335961699590723,0.8711835287352282,0.28834955,0.6400820676279105
0.0175,1.7923437500000001,1.0,2198.270538975028,0.1787773982109244,1.3353773919663163,0.8767703888663878,0.2883314375,0.6413329239728056
0.018000000000000002,1.7919,1.0,2234.5396087587974,0.18338380837670815,1.3348111389071087,0.8819843393927956,0.2883128,0.6425430524991225
0.0185,1.79144375,1.0,2268.8532702944017,0.18796438014704514,1.3342616886368355,0.8868571828749029,0.2882936375,0.6437153173139389
0.019,1.790975,1.0,2301.2866997097694,0.19251925788252472,1.333727789379231,0.8914174863728429,0.28827395,0.644852559298634
0.0195,1.79049375,1.0,2331.921759580606,0.19704858594373606,1.33320818935803,0.8956909526368724,0.2882537375,0.645957597400329
0.02,1.79,1.0,2360.8346208619478,0.20155250710665656,1.332701752195348,0.8997007712094712,0.288233,0.6470329849685756
0.0205,1.78949375,1.0,2388.1174210069976,0.20603116633548652,1.3322072379302567,0.9034678524164195,0.2882117375,0.6480814766159113
0.021,1.788975,1.0,2413.8396257032396,0.21048470492164445,1.3317236748098271,0.9070111588739878,0.28818995000000003,0.6491052409778829
0.021500000000000002,1.78844375,1.0,2438.0622036540917,0.21491326239492928,1.3312502117914293,0.9103478862647723,0.2881676375,0.6501061772580778
0.022,1.7879,1.0,2460.849596256249,0.21931697828513985,1.3307859978324335,0.9134936297858935,0.2881448,0.6510861723150554
0.0225,1.78734375,1.0,2482.269428533481,0.2236959921220752,1.330330181890209,0.9164625552452624,0.28812143749999997,0.652047101187441
0.023,1.786775,1.0,2502.3884024112185,0.22805044274923103,1.3298819493161294,0.9192675565308203,0.28809755,0.65299075100571
0.0235,1.78619375,1.0,2521.2686816713544,0.2323804680049226,1.3294405529318452,0.921920393464492,0.28807313749999996,0.6539187566452811
0.024,1.7856,1.0,2538.9852052963793,0.23668620766600468,1.3290051464984596,0.9244317789672442,0.2880482,0.6548329514589515
0.0245,1.78499375,1.0,2555.5850154732884,0.24096779604503293,1.3285751665093413,0.926811549775453,0.2880227375,0.6557345661778019
0.025,1.784375,1.0,2571.11677865677,0.24522536745456294,1.328150049457859,0.9290687062481859,0.28799675,0.6566248247474638
0.025500000000000002,1.78374375,1.0,2585.6306507633194,0.24945905620715034,1.327729231837382,0.9312114948981494,0.2879702375,0.6575049445130089
0.026000000000000002,1.7831000000000001,1.0,2599.1781494052448,0.25366899661535075,1.3273121501412786,0.9332474817732922,0.2879432,0.6583761363835878
0.0265,1.78244375,1.0,2611.8092237111287,0.2578553227929303,1.326898266968806,0.9351836218743144,0.2879156375,0.6592395505509924
0.027,1.781775,1.0,2623.5767614171964,0.26201816747552736,1.3264870278914136,0.9370263096631003,0.28788755,0.6600963667685948
0.0275,1.7810937500000001,1.0,2634.5333112425437,0.26615766248102724,1.3260778910092434,0.9387814362897736,0.2878589375,0.6609477327645534
0.028,1.7804000549628054,1.0,2644.702173850744,0.27027393792996757,1.3256706176936037,0.9404544785670591,0.2878298023084378,0.6617941606220237
0.0285,1.7797012271701815,1.0,2654.4628240943034,0.274367123942886,1.3252649693158016,0.9420504922515155,0.28780045154114764,0.6626361598724191
0.029,1.7790023993775577,1.0,2664.0883322387886,0.27843735019133214,1.3248607297079897,0.9435741528732444,0.2877711007738574,0.6634741909872208
0.029500000000000002,1.778303571584934,1.0,2673.5709822210224,0.28248474626927433,1.3244579621077275,0.9450298247325012,0.2877417500065672,0.6643081340079735
0.03,1.7776047437923101,1.0,2682.9047059905547,0.28650943991936706,1.324056714323471,0.9464215469042553,0.28771239923927705,0.66513790147282
0.0305,1.7769059159996863,1.0,2692.087806551659,0.29051155785764815,1.3236569939626466,0.9477530585612071,0.28768304847198684,0.6659634893465031
0.031,1.7762070882070624,1.0,2701.1185967002293,0.29449122680015544,1.3232588086326802,0.9490278302518108,0.2876536977046966,0.6667848936268503
0.0315,1.7755082604144388,1.0,2709.9991157521076,0.2984485629231194,1.322862132038346,0.9502490789917885,0.2876243469374064,0.6676021801519567
0.032,1.774809432621815,1.0,2718.724079436682,0.30238370697091554,1.3224670048965135,0.9514198128009584,0.2875949961701162,0.6684152766360714
0.0325,1.774110604829191,1.0,2727.293878274658,0.30629678495575186,1.3220734162030203,0.9525428212331903,0.28756564540282603,0.6692242173957782
0.033,1.7734117770365674,1.0,2735.710839501151,0.31018791735380596,1.3216813375824126,0.9536207003103915,0.2875362946355358,0.6700290722295597
0.0335,1.7727129492439435,1.0,2743.977324956789,0.31405722464125535,1.3212907406592362,0.9546558717286637,0.2875069438682456,0.6708299106079063
0.034,1.7720141214513196,1.0,2752.095730146214,0.3179048272942776,1.3209015970580373,0.9556505966478429,0.28747759310095544,0.6716268016760238
0.0345,1.7713152936586958,1.0,2760.06848331467,0.32173084578905026,1.3205138784033623,0.956606988235606,0.2874482423336652,0.6724198142564881
0.035,1.7706164658660721,1.0,2767.8980445432944,0.32553540060175096,1.320127556319757,0.9575270230917224,0.287418891566375,0.6732090168518521
0.035500000000000004,1.7699176380734483,1.0,2775.586904860883,0.32931861220855724,1.3197426024317673,0.9584125516641193,0.28738954079908485,0.6739944776471964
0.036000000000000004,1.7692188102808244,1.0,2783.1375853744576,0.3330806010856466,1.3193589883639396,0.9592653077562184,0.28736019003179464,0.674776264512631
0.0365,1.7685199824882005,1.0,2790.5526364174902,0.33682148770919657,1.3189766857408198,0.960086917214215,0.2873308392645044,0.6755544450057471
0.037,1.7678211546955769,1.0,2797.834636715913,0.34054139255538485,1.318595666186954,0.960878905873456,0.2873014884972142,0.6763290863740146
0.0375,1.767122326902953,1.0,2804.984475054772,0.3442404060077159,1.3182159167269736,0.9616427019174273,0.287272137729924,0.6771002243036092
0.038,1.7664234991103291,1.0,2812.009142955897,0.3479186843539581,1.317837369896637,0.9623796565269486,0.28724278696263383,0.6778680047741976
0.0385,1.7657246713177055,1.0,2818.9118906019175,0.35157634393540044,1.3174599921215862,0.9630910354689486,0.2872134361953436,0.6786325044711814
0.039,1.7650258435250816,1.0,2825.6955811111743,0.35521349596589,1.317083753532447,0.9637780296539431,0.2871840854280534,0.6793937922378008
0.0395,1.7643270157324578,1.0,2832.3631024498936,0.35883025165927424,1.3167086242598465,0.9644417610370049,0.28715473466076324,0.6801519366053425
0.04,1.763628187939834,1.0,2838.9173666877477,0.3624267222294003,1.3163345744344097,0.9650832873505006,0.28712538389347303,0.6809070057952835
0.0405,1.7629293601472102,1.0,2845.3613092730384,0.36600301889011555,1.3159615741867636,0.9657036064636682,0.2870960331261828,0.6816590677213721
0.041,1.7622305323545864,1.0,2851.6978883280913,0.36955925285526725,1.315589593647534,0.9663036604020817,0.28706668235889266,0.6824081899916595
0.0415,1.7615317045619625,1.0,2857.930083963394,0.3730955353387027,1.3152186029473467,0.9668843390568309,0.28703733159160244,0.6831544399104688
0.042,1.7608328767693386,1.0,2864.0608976126873,0.3766119775542692,1.3148485722168284,0.9674464836103384,0.2870079808243122,0.6838978844803081
0.0425,1.760134048976715,1.0,2870.0933513872396,0.38010869071581393,1.314479471586605,0.9679908897031717,0.286978630057022,0.6846385904037298
0.043000000000000003,1.7594352211840911,1.0,2876.0304874499934,0.38358578603718435,1.3141112711873026,0.9685183103638729,0.2869492792897318,0.6853766240851302
0.043500000000000004,1.7587363933914673,1.0,2881.875367409501,0.3870433747322276,1.3137439411495473,0.9690294587217726,0.28691992852244164,0.6861120516324918
0.044,1.7580375655988436,1.0,2887.6310717333336,0.39048156801479095,1.3133774516039654,0.9695250105208862,0.2868905777551514,0.68684493885907
0.0445,1.7573387378062197,1.0,2893.300699182112,0.3939004770987219,1.313011772681183,0.970005606451318,0.2868612269878612,0.6875753512850238
0.045,1.7566399100135959,1.0,2898.8868983294196,0.3973002087716402,1.3126468786390257,0.9704718539917261,0.28683187622057105,0.6883033459096757
0.0455,1.755941082220972,1.0,2904.385474843146,0.40068080451396604,1.312282804169064,0.9709243251542369,0.28680252545328083,0.689028859120874
0.046,1.7552422544283484,1.0,2909.809366716346,0.40404246960343915,1.3119194330452622,0.9713635748435389,0.2867731746859906,0.6897521278339357
0.0465,1.7545434266357245,1.0,2915.1602421876055,0.4073853038488012,1.3115567486291047,0.9717901229803361,0.28674382391870046,0.6904731899989187
0.047,1.7538445988431006,1.0,2920.4397796310727,0.41070940705879366,1.3111947342820751,0.97220446392217,0.28671447315141024,0.69119208340277
0.0475,1.7531457710504768,1.0,2925.6496673064426,0.41401487904215817,1.3108333733656579,0.9726070679611637,0.28668512238412003,0.6919088456700432
0.048,1.752446943257853,1.0,2930.791603114832,0.41730181960763624,1.3104726492413368,0.9729983827204788,0.2866557716168298,0.6926235142636029
0.0485,1.7517481154652292,1.0,2935.867294360597,0.4205703285639695,1.3101125452705962,0.9733788344572147,0.2866264208495396,0.6933361264853075
0.049,1.7510492876726054,1.0,2940.878457519862,0.42382050571989943,1.30975304481492,0.9737488292788287,0.28659707008224944,0.694046719476678
0.0495,1.7503504598799817,1.0,2945.8268180142677,0.42705245088416766,1.3093941312357922,0.9741087542795585,0.2865677193149592,0.6947553302195453
0.05,1.7496516320873579,1.0,2950.714109991847,0.4302662638655158,1.309035787894697,0.9744589786027905,0.286538368547669,0.6954619955366832
0.0505,1.748952804294734,1.0,2955.5420761136616,0.4334620444726853,1.3086779981531182,0.9747998544348259,0.28650901778037885,0.696166752092422
0.051000000000000004,1.7482539765021101,1.0,2960.3124673458274,0.43663989251441787,1.3083207453725403,0.9751317179350507,0.28647966701308863,0.6968696363932436
0.051500000000000004,1.7475551487094865,1.0,2965.027042759351,0.439799907799455,1.307964012914447,0.9754548901071112,0.2864503162457984,0.697570684788362
0.052000000000000005,1.7468563209168626,1.0,2969.6875693343277,0.44294219013653824,1.3076077841403224,0.9757696776153238,0.28642096547850826,0.6982699334702832
0.0525,1.7461574931242387,1.0,2974.295821771232,0.44606683933440916,1.3072520424116505,0.9760763735502151,0.286391614711218,0.6989674184753487
0.053,1.745458665331615,1.0,2978.8535823086586,0.44917395520180936,1.3068967710899158,0.9763752581467733,0.28636226394392783,0.6996631756842597
0.0535,1.7447598375389912,1.0,2983.3626405459636,0.45226363754748045,1.3065419535366016,0.9766665994587206,0.2863329131766376,0.7003572408225892
0.054,1.7440610097463674,1.0,2987.824793273351,0.4553359861801639,1.3061875731131927,0.9769506539918507,0.2863035624093474,0.7010496494612669
0.0545,1.7433621819537435,1.0,2992.2418443074425,0.45839110090860136,1.3058336131811727,0.977227667299244,0.28627421164205724,0.7017404370170561
0.055,1.7426633541611198,1.0,2996.6156043327787,0.46142908154153434,1.305480057102026,0.97749787454096,0.286244860874767,0.7024296387530069
0.0555,1.741964526368496,1.0,3000.9478907502485,0.46445002788770445,1.3051268882372364,0.977761501010606,0.2862155101074768,0.7031172897788935
0.056,1.741265698575872,1.0,3005.238474059457,0.46745400744558246,1.3047741077366724,0.9780187606934474,0.28618615934018665,0.7038033904761327
0.0565,1.7405668707832482,1.0,3009.4887958327395,0.47044112610414296,1.3044217022899862,0.9782698614661425,0.28615680857289644,0.7044879693076116
0.057,1.7398680429906246,1.0,3013.701945749526,0.47341151211661603,1.3040696443758828,0.9785150038670787,0.2861274578056062,0.7051710821719521
0.0575,1.7391692151980007,1.0,3017.878717281955,0.47636525422271564,1.30371792640672,0.9787543779079663,0.286098107038316,0.70585274610715
0.058,1.7384703874053768,1.0,3022.0199071129573,0.4793024411621558,1.3033665407948554,0.9789881659875399,0.2860687562710258,0.706532978080878
0.0585,1.7377715596127532,1.0,3026.126315079537,0.4822231616746505,1.303015479952647,0.9792165432571509,0.28603940550373563,0.7072117949906473
0.059000000000000004,1.7370727318201293,1.0,3030.1987441174247,0.4851275044999139,1.3026647362924522,0.9794396779660097,0.2860100547364454,0.7078892136639681
0.059500000000000004,1.7363739040275055,1.0,3034.238000207427,0.4880155583776598,1.3023143022266293,0.9796577317873608,0.2859807039691552,0.7085652508585021
0.06,1.7356750762348816,1.0,3038.2448923225325,0.49088741204760233,1.3019641701675357,0.9798708601267815,0.28595135320186504,0.709239923262218
0.0605,1.734976248442258,1.0,3042.220232376088,0.49374315424945553,1.3016143325275296,0.9800792124137218,0.28592200243457483,0.7099132474935359
0.061,1.734277420649634,1.0,3046.164835172319,0.4965828737229334,1.3012647817189684,0.9802829323773109,0.2858926516672846,0.7105852401014743
0.0615,1.7335785928570102,1.0,3050.0795183570613,0.49940665920775,1.30091551015421,0.980482158307401,0.28586330089999445,0.7112559175657893
0.062,1.7328797650643866,1.0,3053.965102369968,0.5022145994436192,1.300566510245612,0.9806770233017381,0.28583395013270424,0.7119252962971121
0.0625,1.7321809372717627,1.0,3057.8224103985917,0.5050067831702552,1.3002177744055328,0.9808676555001016,0.285804599365414,0.7125933926370811
0.063,1.7314821094791388,1.0,3061.652268333006,0.5077832991273719,1.2998692950463295,0.9810541783061885,0.2857752485981238,0.7132602228584737
0.0635,1.730783281686515,1.0,3065.455504722159,0.5105442360546834,1.2995210645803603,0.9812367105979733,0.2857458978308336,0.7139258031653304
0.064,1.7300844538938913,1.0,3069.2329507314007,0.5132896826919036,1.2991730754199828,0.9814153669272212,0.28571654706354344,0.714590149693078
0.0645,1.7293856261012674,1.0,3072.9854401009356,0.5160197277787466,1.2988253199775548,0.9815902577087887,0.2856871962962532,0.715253278508648
0.065,1.7286867983086436,1.0,3076.713809106354,0.5187344600549264,1.2984777906654343,0.9817614894003087,0.285657845528963,0.7159152056105904
0.0655,1.7279879705160197,1.0,3080.418896519741,0.521433968260157,1.2981304798959787,0.9819291646728098,0.28562849476167285,0.7165759469291882
0.066,1.727289142723396,1.0,3084.1014592508177,0.5241183383979473,1.2977833808025863,0.9820933824239706,0.28559914399438263,0.7172355169572127
0.0665,1.7265903149307722,1.0,3087.7605940371423,0.5267876092164133,1.2974365007255704,0.9822542356404523,0.2855697932270924,0.7178939031764279
0.067,1.7258914871381483,1.0,3091.398704327255,0.5294419299379782,1.2970898187478166,0.982411820011143,0.28554044245980226,0.7185511466721604
0.0675,1.7251926593455247,1.0,3095.01616841789,0.5320813796646524,1.2967433312905736,0.9825662241431101,0.28551109169251204,0.7192072555311635
0.068,1.7244938315529008,1.0,3098.613365841191,0.5347060374984456,1.2963970347750897,0.9827175336192594,0.2854817409252218,0.7198622378078261
0.0685,1.723795003760277,1.0,3102.1906773489254,0.537315982541368,1.2960509256226134,0.9828658311226358,0.2854523901579316,0.7205161015242151
0.069,1.723096175967653,1.0,3105.7484848978634,0.5399112938954298,1.295705000254393,0.9830111965547906,0.2854230393906414,0.7211688546701193
0.0695,1.7223973481750294,1.0,3109.287171634809,0.5424920506626408,1.2953592550916773,0.9831537071485325,0.28539368862335124,0.7218205052030916
0.07,1.7216985203824056,1.0,3112.807121882085,0.5450583319450113,1.2950136865557145,0.983293437575367,0.285364337856061,0.7224710610484906
0.07050000000000001,1.7209996925897817,1.0,3116.3087211237334,0.5476102168445511,1.2946682910677532,0.9834304600479116,0.2853349870887708,0.7231205300995214
