Time [s],Phi [rad],STIM [ ],Fsee [N],Gamma [ ],Lcerel [ ],q [ ],Lmtc [m],fisomrel [ ]
0.0,1.8,1.0,18.254324111321672,0.0005451806132417303,1.3793077015638184,0.005076742267018444,0.288653,0.5412170520866495
0.0005,1.79999375,1.0,18.730826439725572,0.006151331889985002,1.3792522575443138,0.01449284011021262,0.2886527375,0.5413511643735379
0.001,1.799975,1.0,22.469634683726103,0.011726037090526178,1.3788521985636895,0.03845174671479268,0.28865195,0.5423182769242947
0.0015,1.79994375,1.0,32.79709707305413,0.017269472603388628,1.3779009875684376,0.07445789385305075,0.2886506375,0.5446136594221926
0.002,1.7999,1.0,57.04722179462475,0.022781813825750674,1.3761468719550076,0.1192617989422852,0.2886488,0.548831411729793
0.0025,1.79984375,1.0,102.73327652945764,0.02826323517144399,1.3736684265070234,0.16950340452912607,0.28864643749999996,0.5547573566063944
0.003,1.7997750000000001,1.0,168.11868581577602,0.03371391007945357,1.370949235094537,0.22235555112806676,0.28864354999999997,0.5612138551746747
0.0035,1.79969375,1.0,245.69531446617316,0.039134011010672876,1.3683399893751889,0.27565402008495005,0.2886401375,0.5673649624588195
0.004,1.7996,1.0,329.9463179474902,0.04452370946117449,1.3659329634232207,0.3277922655288051,0.2886362,0.573000849108099
0.0045000000000000005,1.7994937500000001,1.0,418.020690414257,0.04988317596464574,1.3637184362781845,0.37766023941166516,0.2886317375,0.5781533772683427
0.005,1.799375,1.0,508.31889969726154,0.05521258007823635,1.3616699396058065,0.42457300730382314,0.28862675,0.5828917563314167
0.0055,1.79924375,1.0,599.766564330015,0.06051209050214777,1.3597641240038656,0.4681769218892686,0.2886212375,0.5872760684940409
0.006,1.7991000000000001,1.0,691.4854193221294,0.06578187481645378,1.357983944816378,0.5083580432492706,0.2886152,0.5913504312937005
0.006500000000000001,1.79894375,1.0,782.7857319461236,0.07102209981932087,1.3563156831573142,0.5451632013163628,0.2886086375,0.5951502995412515
0.007,1.798775,1.0,873.0794789034446,0.0762329313192424,1.354748708570027,0.5787406648513393,0.28860155,0.5987032964537568
0.0075,1.79859375,1.0,961.8750042646686,0.0814145340373298,1.353274312559553,0.609296458466826,0.2885939375,0.602032079354513
0.008,1.7984,1.0,1048.8117566468268,0.08656707233926801,1.351884440297657,0.6370638694048422,0.2885858,0.605157336340576
0.0085,1.79819375,1.0,1133.5640126650069,0.09169070882728782,1.3505726681349803,0.6622843879110495,0.2885771375,0.6080956771579111
0.009000000000000001,1.797975,1.0,1215.8943311166395,0.09678560557398212,1.3493329846187627,0.6851945801178498,0.28856795,0.6108624549022554
0.0095,1.79774375,1.0,1295.643882301599,0.10185192428573793,1.3481597022772227,0.7060187556579831,0.2885582375,0.6134720080045779
0.01,1.7975,1.0,1372.6782186623286,0.10688982494756141,1.3470479788736325,0.7249653724938874,0.288548,0.6159365445144348
0.0105,1.79724375,1.0,1446.9099337467549,0.11189946675326123,1.3459933156005068,0.7422251106782325,0.2885372375,0.6182673008921176
0.011,1.796975,1.0,1518.299089540448,0.11688100823817303,1.3449914262262272,0.7579705871301149,0.28852595000000003,0.6204748591530409
0.0115,1.79669375,1.0,1586.8433012085156,0.12183460786843714,1.3440382601879977,0.7723570030444279,0.2885141375,0.6225691183890805
0.012,1.7964,1.0,1652.5287599819312,0.1267604215151391,1.3431304885733313,0.7855234535807872,0.28850180000000003,0.6245582519497034
0.0125,1.79609375,1.0,1715.3793300771597,0.13165860489929554,1.3422648204874266,0.7975939370098084,0.2884889375,0.6264502316859365
0.013000000000000001,1.7957750000000001,1.0,1775.4368538286215,0.1365293129480164,1.3414381807040618,0.8086788526095143,0.28847555,0.6282524513950907
0.0135,1.79544375,1.0,1832.7792026458558,0.14137270112207495,1.3406474551112684,0.8188762986789524,0.2884616375,0.6299722937698227
0.014,1.7951000000000001,1.0,1887.455117018023,0.14618892188349353,1.3398901736430628,0.8282736599112721,0.2884472,0.6316156564441601
0.0145,1.79474375,1.0,1939.5213790905343,0.15097812694593826,1.339164036082285,0.8369486323524106,0.2884322375,0.6331879994527249
0.015,1.794375,1.0,1989.0556912434479,0.15574046802307528,1.3384667422117744,0.8449702813454326,0.28841675,0.634694720716034
0.0155,1.79399375,1.0,2036.1366120180228,0.16047609581827887,1.3377961838415962,0.8524001149164535,0.2884007375,0.6361407467540006
0.016,1.7936,1.0,2080.868273155469,0.1651851615405452,1.3371501594169137,0.8592928845102357,0.2883842,0.6375311543531559
0.0165,1.7931937500000001,1.0,2123.321871766632,0.169867813243919,1.3365269665853021,0.8656975632858939,0.2883671375,0.638869900385507
0.017,1.792775,1.0,2163.571792259537,0.17452419844491587,1.335924995559813,0.8716579056656703,0.28834955,0.6401607058614147
0.0175,1.7923437500000001,1.0,2201.7033120106116,0.17915446466005128,1.3353426365534975,0.8772130368682975,0.2883314375,0.6414072580017502
0.018000000000000002,1.7919,1.0,2237.7989211545337,0.18375875825653254,1.3347784077726466,0.8823980304940521,0.2883128,0.642612939059986
0.0185,1.79144375,1.0,2271.957301292117,0.18833722663120278,1.3342307528078394,0.8872443286456748,0.2882936375,0.6437812623644927
0.019,1.790975,1.0,2304.2513045479063,0.1928900137526758,1.3336984514790757,0.8917802626153805,0.28827395,0.6449149983433258
0.0195,1.79049375,1.0,2334.752401987723,0.19741726281773747,1.3331803612509778,0.8960313444380983,0.2882537375,0.6460167311118237
0.02,1.79,1.0,2363.537838069142,0.2019191170231736,1.3326753395881688,0.9000205681223686,0.288233,0.6470890256055377
0.0205,1.78949375,1.0,2390.685455254704,0.20639571883879293,1.3321822894759068,0.903768701899923,0.2882117375,0.6481343321382171
0.021,1.788975,1.0,2416.2739724862877,0.21084721074674634,1.3317001510810953,0.9072945332854996,0.28818995000000003,0.6491550056529929
0.021500000000000002,1.78844375,1.0,2440.3808948195597,0.21527373490724844,1.3312279169353303,0.9106150885756614,0.2881676375,0.6501532750085521
0.022,1.7879,1.0,2463.0641264094697,0.21967542980344965,1.330764803059527,0.9137458558395927,0.2881448,0.6511308834725522
0.0225,1.78734375,1.0,2484.384586817349,0.22405243391850047,1.3303100254746008,0.9167009049909985,0.28812143749999997,0.652089563364058
0.023,1.786775,1.0,2504.4059611720095,0.22840488573555132,1.3298628002014665,0.9194930372694258,0.28809755,0.653031036489947
0.0235,1.78619375,1.0,2523.1944639574003,0.23273292373775262,1.32942234326104,0.9221339171989212,0.28807313749999996,0.6539570145421096
0.024,1.7856,1.0,2540.805356524432,0.23703668309074916,1.3289879955969695,0.924634210195253,0.2880482,0.6548689373504095
0.0245,1.78499375,1.0,2557.314269102077,0.24131630473772658,1.3285589249598877,0.9270036350148128,0.2880227375,0.6557685995829174
0.025,1.784375,1.0,2572.766381857909,0.24557192207947692,1.328134602736071,0.9292511345649684,0.28799675,0.6566571507883957
0.025500000000000002,1.78374375,1.0,2587.2076851772104,0.24980366836388282,1.3277145060305724,0.9313849043977582,0.2879702375,0.6575357223760776
0.026000000000000002,1.7831000000000001,1.0,2600.6854671079786,0.2540116768388269,1.3272981119484455,0.9334124644935594,0.2879432,0.6584054397799198
0.0265,1.78244375,1.0,2613.2482019574486,0.25819608075219186,1.3268848975947432,0.9353407240671566,0.2879156375,0.6592674225907982
0.027,1.781775,1.0,2624.945444950922,0.26235701335186024,1.3264743400745185,0.9371760393666864,0.28788755,0.6601227846712616
0.0275,1.7810937500000001,1.0,2635.817263246878,0.266494603966134,1.3260660133348303,0.9389242782538294,0.2878589375,0.6609724328696756
0.028,1.7804,1.0,2645.919125763785,0.27060898898922553,1.3256593565941366,0.9405908352758576,0.2878298,0.6618175493070568
0.0285,1.77969375,1.0,2655.288217057347,0.27470029789249917,1.3252539853078036,0.9421807141789089,0.2878001375,0.662658944647293
0.029,1.778975,1.0,2663.9572560872307,0.27876865815915963,1.3248495617810596,0.9436985461603495,0.28776995,0.6634973284778494
0.029500000000000002,1.7782437500000001,1.0,2671.959500126015,0.2828141972724117,1.324445748319133,0.9451486170364929,0.2877392375,0.6643334068802227
0.03,1.7775,1.0,2679.328696660982,0.28683704271546007,1.3240422072272515,0.9465348974188297,0.287708,0.6651678824467187
0.0305,1.77674375,1.0,2686.0990378242323,0.2908373219715095,1.3236386008106436,0.9478610698953294,0.2876762375,0.6660014542899519
0.031,1.775975,1.0,2692.3051173510235,0.2948151625237648,1.3232345913745374,0.9491305535465994,0.28764395,0.666834818045076
0.0315,1.7751937500000001,1.0,2697.972777108925,0.2987706873011011,1.3228299245400028,0.9503465350382994,0.2876111375,0.6676684943287503
0.032,1.7744,1.0,2703.1366094757063,0.30270402557746784,1.3224242686346908,0.9515119714833907,0.2875778,0.6685031600618137
0.0325,1.77359375,1.0,2707.831958986728,0.30661530614300114,1.3220172877694845,0.952629616033889,0.2875439375,0.6693394973775033
0.033,1.772775,1.0,2712.0800121586763,0.31050464993104976,1.32160877751621,0.9537020481533355,0.28750955,0.6701779152567888
0.0335,1.7719437500000002,1.0,2715.9021422622245,0.31437217787496224,1.321198533446694,0.9547316744324873,0.2874746375,0.6710188205092251
0.034,1.7711000000000001,1.0,2719.319891130458,0.31821801090808716,1.3207863511327622,0.9557207422322237,0.2874392,0.6718626177516843
0.0345,1.7702437500000001,1.0,2722.354951894318,0.3220422699637732,1.320372026146241,0.9566713520963636,0.2874032375,0.6727097093844141
0.035,1.7693750000000001,1.0,2725.0291526439014,0.32584507597536894,1.3199553540589568,0.9575854690582317,0.28736675,0.6735604955644374
0.035500000000000004,1.76849375,1.0,2727.364441017431,0.329626549876223,1.3195361304427353,0.958464932951131,0.2873297375,0.6744153741762858
0.036000000000000004,1.7676,1.0,2729.382869715522,0.33338681259968395,1.319114150869403,0.959311467820833,0.2872922,0.6752747408000632
0.0365,1.76669375,1.0,2731.1018048909827,0.3371259813756779,1.3186892543287163,0.9601266940923495,0.2872541375,0.6761389004317818
0.037,1.765775,1.0,2732.5384560119146,0.34084417571389186,1.3182612819044681,0.9609121333548845,0.28721555,0.6770081519149385
0.0375,1.76484375,1.0,2733.7164295440193,0.34454151958605056,1.317830017161821,0.9616692101358276,0.2871764375,0.6778829087720556
0.038,1.7639,1.0,2734.6479762488875,0.3482181271295419,1.3173953473300315,0.9623992714039431,0.28713679999999997,0.6787633721085735
0.0385,1.76294375,1.0,2735.345389874246,0.35187411248175376,1.316957159638356,0.9631035842478795,0.28709663750000003,0.6796497415624545
0.039,1.761975,1.0,2735.8210016935664,0.3555095897800741,1.3165153413160509,0.9637833414788067,0.28705595,0.6805422152792853
0.0395,1.7609937500000001,1.0,2736.087175328946,0.3591246731618908,1.3160697795923724,0.9644396667819308,0.2870147375,0.6814409898865725
0.04,1.76,1.0,2736.1563018545726,0.3627194767645917,1.315620361696577,0.9650736194576393,0.286973,0.6823462604672257
0.0405,1.7589937500000001,1.0,2736.0407951830675,0.36629411472556483,1.3151669748579211,0.9656861987889928,0.2869307375,0.6832582205322275
0.041,1.757975,1.0,2735.753087733194,0.3698487011821981,1.314709506305661,0.9662783480686288,0.28688795,0.6841770619924971
0.0415,1.75694375,1.0,2735.3056263799303,0.37338335027187936,1.3142478432690534,0.9668509583149287,0.2868446375,0.6851029751299376
0.042,1.7559,1.0,2734.7116910861896,0.3768981716851098,1.313781865509177,0.9674048703376149,0.28680079999999997,0.6860361635126936
0.0425,1.75484375,1.0,2733.9798457810402,0.3803932807010073,1.3133114956803549,0.9679408838364967,0.2867564375,0.6869767432223819
0.043000000000000003,1.753775,1.0,2733.117863104151,0.38386878619190395,1.3128366636821511,0.9684597551473024,0.28671155,0.6879248145925404
0.043500000000000004,1.75269375,1.0,2732.1335767377564,0.3873247967295849,1.3123572989033345,0.9689622003783547,0.28666613750000003,0.688880477748128
0.044,1.7516,1.0,2731.0348233542422,0.3907614208858352,1.3118733307326726,0.9694488980317341,0.2866202,0.689843831561572
0.0445,1.75049375,1.0,2729.8294409302243,0.3941787672324401,1.3113846885589342,0.9699204913463514,0.2865737375,0.6908149736321925
0.045,1.7493750000000001,1.0,2728.525267170736,0.3975769443411846,1.310891301770887,0.9703775904727693,0.28652675,0.6917940002653167
0.0455,1.74824375,1.0,2727.128227118333,0.40095606070300205,1.3103931171344398,0.970820775792997,0.2864792375,0.6927809720521872
0.046,1.7471,1.0,2725.6460750554197,0.40431622329581746,1.3098900647674148,0.9712505969800149,0.2864312,0.6937759813726004
0.0465,1.7459437594011258,1.0,2724.1035974087486,0.40765753865792514,1.3093819240268918,0.9716675651631355,0.2863826378948473,0.6947794167264623
0.047,1.74478174419814,1.0,2722.8022866484607,0.4109801117220969,1.3088689845150565,0.9720722029938359,0.2863338332563219,0.6957906581780542
0.0475,1.743619728995154,1.0,2721.99666074959,0.4142840474211048,1.3083515358340951,0.9724650074479851,0.2862850286177965,0.6968090891223047
0.048,1.742457713792168,1.0,2721.655311547292,0.41756945046925176,1.307829861880846,0.9728464509054572,0.28623622397927106,0.6978341075714902
0.0485,1.741295698589182,1.0,2721.7401180372453,0.42083642525526116,1.3073043088583667,0.9732169873039564,0.28618741934074565,0.6988649928478368
0.049,1.7401336833861962,1.0,2722.2142316840723,0.42408507534798473,1.3067752123339893,0.9735770481095564,0.28613861470222024,0.6999010494178437
0.0495,1.7389716681832101,1.0,2723.0485511861684,0.42731550285891146,1.3062428380656284,0.9739270395235737,0.2860898100636948,0.7009417223645068
0.05,1.7378096529802243,1.0,2724.2140328254836,0.4305278098995302,1.3057074518111977,0.9742673487913808,0.2860410054251694,0.70198646016296
0.0505,1.7366476377772384,1.0,2725.682680630496,0.4337220982459141,1.3051693101535495,0.9745983446194584,0.285992200786644,0.7030347325905826
0.051000000000000004,1.7354856225742525,1.0,2727.4277394747533,0.4368984695851285,1.3046286586050153,0.9749203781127744,0.2859433961481186,0.7040860343000925
0.051500000000000004,1.7343236073712665,1.0,2729.426709704317,0.44005702429443116,1.3040857040895766,0.9752337818355594,0.2858945915095932,0.7051399380368191
0.052000000000000005,1.7331615921682806,1.0,2731.6599301681904,0.44319786173988257,1.3035406277780577,0.975538871688445,0.28584578687106776,0.7061960691584905
0.0525,1.7319995769652947,1.0,2734.107738828656,0.4463210812875434,1.302993610841283,0.9758359495487109,0.28579698223254235,0.7072540554507691
0.053,1.7308375617623086,1.0,2736.757353772339,0.4494267780512723,1.3024447719131669,0.9761252996778605,0.28574817759401694,0.7083136477754862
0.0535,1.7296755465593228,1.0,2739.583034536375,0.4525150557422045,1.3018943471785076,0.9764072020955359,0.2856993729554915,0.7093743722629551
0.054,1.728513531356337,1.0,2742.5655978482687,0.45558601477590277,1.3013425130426117,0.9766819207437277,0.2856505683169661,0.7104358731924854
0.0545,1.7273515161533508,1.0,2745.694801103064,0.4586397500766143,1.3007893646302418,0.9769497028333609,0.2856017636784407,0.7114979532057891
0.055,1.726189500950365,1.0,2748.960389828043,0.4616763565685863,1.30023499706616,0.9772107851169695,0.28555295903991534,0.7125604162521777
0.0555,1.725027485747379,1.0,2752.3520950111174,0.46469592917606606,1.299679505475129,0.9774653944206478,0.28550415440138993,0.7136230675962443
0.056,1.7238654705443932,1.0,2755.8596306299405,0.4676985628233008,1.299122984981911,0.9777137481447337,0.2854553497628645,0.7146857138249727
0.0565,1.7227034553414071,1.0,2759.472691381716,0.4706843524345377,1.2985655307112687,0.9779560547353028,0.2854065451243391,0.7157481628542681
0.057,1.7215414401384213,1.0,2763.1809506132904,0.4736533929340241,1.2980072377879646,0.9781925141284001,0.2853577404858137,0.7168102239349092
0.0575,1.7203794249354354,1.0,2766.974058452077,0.47660577924600706,1.2974482013367608,0.9784233181687914,0.2853089358472883,0.7178717076579268
0.058,1.7192174097324493,1.0,2770.8433682370483,0.47954160394808515,1.2968885008922748,0.9786486499258903,0.28526013120876287,0.7189324554781178
0.0585,1.7180553945294634,1.0,2774.7837515373412,0.48246095724257887,1.296328184078377,0.9788686832154275,0.28521132657023746,0.7199923702832002
0.059000000000000004,1.7168933793264776,1.0,2778.782061531876,0.4853639415110501,1.2957673706426,0.9790835900015872,0.28516252193171204,0.7210512195891672
0.059500000000000004,1.7157313641234917,1.0,2782.8342009297176,0.48825064595811585,1.2952060985406093,0.9792935299605339,0.28511371729318663,0.7221089266085207
0.06,1.7145693489205056,1.0,2786.9360616363642,0.491121159788393,1.2946444057280688,0.979498656585903,0.2850649126546612,0.723165415092963
0.0605,1.7134073337175197,1.0,2791.0835243836705,0.4939755722064987,1.2940823301606434,0.9796991174771132,0.28501610801613586,0.7242206093344589
0.061,1.7122453185145339,1.0,2795.2724583915074,0.4968139724170498,1.2935199097939976,0.9798950546120999,0.28496730337761045,0.7252744341662103
0.0615,1.7110833033115478,1.0,2799.4987210619006,0.49963644962466336,1.2929571825837958,0.9800866046054294,0.28491849873908504,0.7263268149635349
0.062,1.709921288108562,1.0,2803.7581577049027,0.5024430930339564,1.292394186485703,0.98027389895268,0.2848696941005596,0.7273776776446556
0.0625,1.708759272905576,1.0,2808.0466012960496,0.5052339918495459,1.2918309594553832,0.9804570642619198,0.2848208894620342,0.7284269486713983
0.063,1.7075972577025902,1.0,2812.359872266347,0.5080092352760487,1.2912675394485014,0.9806362224730526,0.2847720848235088,0.729474555049795
0.0635,1.706435242499604,1.0,2816.6937783236094,0.510768912518082,1.290703964420722,0.9808114910657562,0.2847232801849834,0.730520424330598
0.064,1.7052732272966182,1.0,2821.048608995838,0.5135130965042572,1.290140232141046,0.9809829800555713,0.284674475546458,0.7315645589704718
0.0645,1.7041112120936324,1.0,2825.4177657313926,0.5162418914336975,1.2895764019248923,0.9811508008191313,0.28462567090793256,0.7326068477303356
0.065,1.7029491968906463,1.0,2829.7974011615906,0.5189553900206731,1.2890125083451214,0.9813150587028211,0.28457686626940715,0.7336472258292767
0.0655,1.7017871816876604,1.0,2834.186251879771,0.5216536747879567,1.2884485628185791,0.9814758534692272,0.28452806163088173,0.7346856715813017
0.066,1.7006251664846745,1.0,2838.5830505346134,0.5243368282583198,1.2878845767621112,0.9816332813771393,0.2844792569923563,0.735722163464605
0.0665,1.6994631512816885,1.0,2842.9865258186,0.5270049329545348,1.2873205615925636,0.9817874353300629,0.2844304523538309,0.7367566801216003
0.067,1.6983011360787026,1.0,2847.3954024590353,0.5296580713993735,1.2867565287267824,0.9819384050174225,0.2843816477153055,0.7377892003589479
0.0675,1.6971391208757167,1.0,2851.8084012120535,0.5322963261156082,1.2861924895816137,0.9820862770488681,0.2843328430767801,0.7388197031475701
0.068,1.6959771056727306,1.0,2856.2242388600207,0.5349197796260107,1.285628455573903,0.9822311350820648,0.28428403843825467,0.7398481676226623
0.0685,1.6948150904697448,1.0,2860.6416282108876,0.537528514453353,1.2850644381204965,0.9823730599443264,0.28423523379972926,0.7408745730836914
0.069,1.693653075266759,1.0,2865.0592781011023,0.5401226131204075,1.28450044863824,0.9825121297484295,0.28418642916120385,0.7418988989943882
0.0695,1.692491060063773,1.0,2869.4758934014117,0.5427021581499459,1.2839364985439796,0.9826484200029244,0.28413762452267843,0.7429211249827317
0.07,1.691329044860787,1.0,2873.890175025155,0.5452672320647405,1.2833725992545613,0.9827820037172419,0.284088819884153,0.7439412308409242
0.07050000000000001,1.690167029657801,1.0,2878.3008199398437,0.5478179173875631,1.2828087621868307,0.9829129515018721,0.2840400152456276,0.7449591965253592
0.07100000000000001,1.6890050144548152,1.0,2882.7065211814024,0.550354296641186,1.282244998757634,0.9830413316638806,0.28399121060710225,0.7459750021565789
0.07150000000000001,1.6878429992518291,1.0,2887.1067517942265,0.5528764412152717,1.2816813134554743,0.9831672093230404,0.28394240596857684,0.7469886404655575
0.07200000000000001,1.6866809840488433,1.0,2891.501853964586,0.5553844200031857,1.2811177030798524,0.9832906470232277,0.2838936013300514,0.7480001180328697
0.0725,1.6855189688458574,1.0,2895.889077653545,0.557878347560585,1.280554191728066,0.9834117091883368,0.283844796691526,0.7490093925504195
