Time [s],Phi [rad],STIM [ ],Fsee [N],Gamma [ ],Lcerel [ ],q [ ],Lmtc [m],fisomrel [ ]
0.0,1.8,1.0,18.01139347659426,0.0002139491070406738,1.3793347934323315,0.005011907994872525,0.288653,0.5411515130473548
0.0005,1.79999375,1.0,18.387248926112314,0.005821958330581297,1.3792901313577195,0.01351640963440403,0.2886527375,0.5412595543834309
0.001,1.799975,1.0,21.880340947701487,0.011398511056338616,1.3789116273817599,0.03667926421040008,0.28865195,0.5421746767694718
0.0015,1.79994375,1.0,31.658189993408214,0.016943783731367557,1.3779962624343838,0.07206215924121571,0.2886506375,0.5443840101582795
0.002,1.7999,1.0,54.8219726483285,0.022457951810879666,1.3762881736093682,0.11644417296760497,0.2886488,0.5484923801075446
0.0025,1.79984375,1.0,99.17778759822902,0.027941189766987205,1.373836476494105,0.16645070458852057,0.28864643749999996,0.5543567884007417
0.003,1.7997750000000001,1.0,163.6212065193678,0.033393671094682095,1.3711150725698718,0.21921431365225358,0.28864354999999997,0.5608214378554173
0.0035,1.79969375,1.0,240.68348600703888,0.03881556831290542,1.3684926113327247,0.2725354129398935,0.2886401375,0.5670063628609359
0.004,1.7996,1.0,324.6534912125153,0.044207052974838096,1.3660718965036898,0.32477668450991676,0.2886362,0.5726765516268872
0.0045000000000000005,1.7994937500000001,1.0,412.56421424637233,0.049568295673247324,1.3638455887960859,0.37480052533876246,0.2886317375,0.5778583785511149
0.005,1.799375,1.0,502.774410949717,0.05489946603235254,1.3617870431113883,0.4218994003850492,0.28862675,0.5826216053466787
0.0055,1.79924375,1.0,594.1789096242271,0.06020073274613561,1.3598727267679562,0.46570294202448165,0.2886212375,0.5870268511753696
0.006,1.7991000000000001,1.0,685.9079361748785,0.06547226354461795,1.3580848730194015,0.5060852121228879,0.2886152,0.5911199735799717
0.006500000000000001,1.79894375,1.0,777.2483038750514,0.07071422520842478,1.3564098383162986,0.5430855710462169,0.2886086375,0.5949363110693556
0.007,1.798775,1.0,867.6112571030649,0.07592678365365196,1.354836729960454,0.5768476047303213,0.28860155,0.5985041296905991
0.0075,1.79859375,1.0,956.5069446581944,0.08111010366709173,1.3533566225575062,0.6075748120169703,0.2885939375,0.6018466112715309
0.008,1.7984,1.0,1043.5579692038425,0.08626434951661854,1.3519615761002177,0.6354995988859906,0.2885858,0.6049842122099829
0.0085,1.79819375,1.0,1128.4427430435176,0.09138968402774537,1.3506449839601666,0.6608633223077313,0.2885771375,0.6079339771159901
0.009000000000000001,1.797975,1.0,1210.9160314942383,0.09648626932117765,1.3494008527225552,0.683903105310697,0.28856795,0.6107112376171917
0.0095,1.79774375,1.0,1290.8199601441013,0.10155426711968676,1.348223403775918,0.7048440720851866,0.2885582375,0.6133305518581441
0.01,1.7975,1.0,1368.0133432963096,0.10659383731974748,1.3471078217550867,0.7238957180410688,0.288548,0.6158040818763998
0.0105,1.79724375,1.0,1442.407600850898,0.11160513927807732,1.3460495681841445,0.7412497749379212,0.2885372375,0.6181431644118851
0.011,1.796975,1.0,1513.9687910777936,0.116588332033798,1.3450442387029145,0.7570798614739255,0.28852595000000003,0.62035865222553
0.0115,1.79669375,1.0,1582.6747427856687,0.12154357322892556,1.3440879871294644,0.7715422790923362,0.2885141375,0.6224600035497243
0.012,1.7964,1.0,1648.5184219017528,0.12647101912891973,1.3431773653322014,0.7847769955353132,0.28850180000000003,0.6244556630218392
0.0125,1.79609375,1.0,1711.5261084070057,0.13137082552350876,1.3423090258928723,0.7969088331445364,0.2884889375,0.6263537333937275
0.013000000000000001,1.7957750000000001,1.0,1771.7560495962782,0.13624314845392343,1.3414796859269595,0.8080488764586975,0.28847555,0.6281620666429371
0.0135,1.79544375,1.0,1829.256704519194,0.14108814198966796,1.3406865474720107,0.8182960383502269,0.2884616375,0.6298873608788311
0.014,1.7951000000000001,1.0,1884.0742150300855,0.1459059585347857,1.3399271459249422,0.8277383096671901,0.2884472,0.6315355084927393
0.0145,1.79474375,1.0,1936.2786883737592,0.15069675049331996,1.3391990166826715,0.8364538639002178,0.2884322375,0.633112331254811
0.015,1.794375,1.0,1985.9503986728196,0.15546066946732245,1.338499819967381,0.8445122318120041,0.28841675,0.6346233159504167
0.0155,1.79399375,1.0,2033.1829333164658,0.1601978675454276,1.3378272798581414,0.8519752928458014,0.2884007375,0.6360737531366358
0.016,1.7936,1.0,2078.050583987516,0.16490849417949452,1.3371795024673208,0.8588982735324425,0.2883842,0.6374680584052617
0.0165,1.7931937500000001,1.0,2120.6247211222444,0.16959269747332342,1.3365547715691215,0.8653304678035976,0.2883671375,0.6388102223662515
0.017,1.792775,1.0,2160.989131844893,0.17425062553071452,1.335951370937746,0.87131588649726,0.28834955,0.6401041975926308
0.0175,1.7923437500000001,1.0,2199.233178107067,0.17888242583776384,1.3353676429054235,0.8768938975813241,0.2883314375,0.6413537758037637
0.018000000000000002,1.7919,1.0,2235.448582222989,0.18348824582672416,1.3348020082844465,0.8820997771657175,0.2883128,0.6425625486246858
0.0185,1.79144375,1.0,2269.7224032835366,0.18806823203139497,1.3342530244297914,0.8869652002684338,0.2882936375,0.6437337871796469
0.019,1.790975,1.0,2302.12233397655,0.19262252798002177,1.3337195179828103,0.891518687308175,0.28827395,0.6448701636394156
0.0195,1.79049375,1.0,2332.7224963772996,0.1971512772008498,1.3332003155848546,0.8957858993976854,0.2882537375,0.6459743293818664
0.02,1.79,1.0,2361.6029077044323,0.20165462322212444,1.3326942438772758,0.8997899629129981,0.288233,0.6470489161062748
0.0205,1.78949375,1.0,2388.8397754454695,0.20613270823015137,1.332200218901077,0.9035517733381738,0.2882117375,0.648096347455601
0.021,1.788975,1.0,2414.518444728385,0.21058567584690419,1.3317171140121105,0.9070902148633346,0.28818995000000003,0.6491191207636369
0.021500000000000002,1.78844375,1.0,2438.7101980185503,0.21501366720548085,1.331243980079604,0.9104224253096816,0.2881676375,0.6501193420313229
0.022,1.7879,1.0,2461.4733405118195,0.21941682090689993,1.3307800271512151,0.9135639797074608,0.2881448,0.6510987679778106
0.0225,1.78734375,1.0,2482.8692227922643,0.22379527555218004,1.3303244652746005,0.9165290257110669,0.28812143749999997,0.6520591442635499
0.023,1.786775,1.0,2502.961988077792,0.2281491697423397,1.3298765044974168,0.9193304341684991,0.28809755,0.6530022059329266
0.0235,1.78619375,1.0,2521.818333301585,0.2324786420783975,1.3294353548673215,0.9219799320294877,0.28807313749999996,0.6539296778170982
0.024,1.7856,1.0,2539.4935604719685,0.23678382781838817,1.3290003557562122,0.9244882416101504,0.2880482,0.6548430035468298
0.0245,1.78499375,1.0,2556.0643744324993,0.24106486781437272,1.3285706637089385,0.9268651309776116,0.2880227375,0.6557440017534045
0.025,1.784375,1.0,2571.5756809291383,0.2453218954798415,1.3281457518448294,0.9291195898678505,0.28799675,0.6566338187059683
0.025500000000000002,1.78374375,1.0,2586.073462310721,0.24955504414533236,1.3277250965615899,0.9312598556977874,0.2879702375,0.6575135876393386
0.026000000000000002,1.7831000000000001,1.0,2599.6050062196887,0.2537644471413832,1.3273081742569242,0.93329348626677,0.2879432,0.6583844357927263
0.0265,1.78244375,1.0,2612.218793681183,0.2579502377985319,1.3268944613285372,0.9352274250031558,0.2879156375,0.6592474845431299
0.027,1.781775,1.0,2623.9643932711792,0.2621125494473163,1.3264834341741334,0.9370680591510807,0.28788755,0.660103849521251
0.0275,1.7810937500000001,1.0,2634.8823196442436,0.26625151134688124,1.326074662091137,0.9388212840494314,0.2878589375,0.6609544475196136
0.028,1.7804,1.0,2645.02909036371,0.2703672602482578,1.3256675741544905,0.9404925185585485,0.2878298,0.661800481965336
0.0285,1.77969375,1.0,2654.4403528512444,0.2744599250906686,1.3252617996516682,0.9420867916764911,0.2878001375,0.6626427349724427
0.029,1.778975,1.0,2663.149116148876,0.27852963350501775,1.3248569978475238,0.9436087554986726,0.28776995,0.6634819226705801
0.029500000000000002,1.7782437500000001,1.0,2671.1889332296073,0.2825765131222094,1.3244528280069108,0.9450627149003432,0.2877392375,0.6643187576476977
0.03,1.7775,1.0,2678.5938522893703,0.28660069157314755,1.324048949394683,0.946452657896842,0.287708,0.6651539489674815
0.0305,1.77674375,1.0,2685.3983706127115,0.29060229648873637,1.3236450212756938,0.94778228298847,0.2876762375,0.6659882021793868
0.031,1.775975,1.0,2691.637391012829,0.29458145549988,1.323240702914797,0.9490550238222443,0.28764395,0.6668222193212625
0.0315,1.7751937500000001,1.0,2697.33263137518,0.2985382899140417,1.3228357774684572,0.9502740849315878,0.2876111375,0.6676564438339823
0.032,1.7744,1.0,2702.5267766746865,0.3024729328935078,1.3224298390638733,0.9514424278568911,0.2875778,0.6684917056162141
0.0325,1.77359375,1.0,2707.2504783341406,0.3063855103741305,1.3220225945986759,0.952562821784023,0.2875439375,0.6693285987497986
0.033,1.772775,1.0,2711.525131416819,0.31027614342648213,1.321613837603358,0.9536378565722169,0.28750955,0.6701675365498754
0.0335,1.7719437500000002,1.0,2715.3723198730268,0.314144953121135,1.3212033616084118,0.954669948380796,0.2874746375,0.671008930138571
0.034,1.7711000000000001,1.0,2718.813798093911,0.31799206052866136,1.3207909601443308,0.9556613533872877,0.2874392,0.6718531884237193
0.0345,1.7702437500000001,1.0,2721.8714734116493,0.3218175867196336,1.3203764267416078,0.9566141802678013,0.2874032375,0.6727007180748699
0.035,1.7693750000000001,1.0,2724.5673895438867,0.32562165276462396,1.3199595549307355,0.9575304015643628,0.28736675,0.6735519234965742
0.035500000000000004,1.76849375,1.0,2726.9237109839273,0.3294043797342048,1.3195401382422067,0.9584118640501124,0.2873297375,0.6744072067989522
0.036000000000000004,1.7676,1.0,2728.9627083356245,0.33316588869894825,1.3191179702065146,0.9592602981911378,0.2872922,0.6752669677655424
0.0365,1.76669375,1.0,2730.7057567378897,0.3369062998149026,1.3186928533314075,0.960077327497126,0.2872541375,0.6761315855723405
0.037,1.765775,1.0,2732.166427359586,0.34062573123574036,1.3182646617387637,0.9608644823779997,0.28721555,0.6770012917356836
0.0375,1.76484375,1.0,2733.3592280682524,0.3443243001394065,1.3178332615893564,0.9616231992377097,0.2871764375,0.6778763323580094
0.038,1.7639,1.0,2734.299459582595,0.34800212268977737,1.3173985123324972,0.9623548273683523,0.28713679999999997,0.6787569654627477
0.0385,1.76294375,1.0,2735.002469806354,0.3516593150507292,1.3169602734174979,0.9630606359984696,0.28709663750000003,0.6796434473058195
0.039,1.761975,1.0,2735.4835818320857,0.3552959933822767,1.316518404884391,0.963741819965639,0.28705595,0.6805360311525535
0.0395,1.7609937500000001,1.0,2735.760455030109,0.3589122730033931,1.3160727458679493,0.9643995027600653,0.2870147375,0.6814350105851236
0.04,1.760004215605716,1.0,2736.048945046391,0.36250826842968903,1.3156232401732055,0.9650347527140105,0.28697317705544007,0.6823404663984918
0.0405,1.7590144815758553,1.0,2736.721947889568,0.36608409296865957,1.3151701538742644,0.9656486056984177,0.2869316082261859,0.6832518306979354
0.041,1.7580247475459947,1.0,2737.7604966236727,0.36963985980802044,1.3147137505581887,0.9662420389637469,0.2868900393969318,0.6841685433979534
0.0415,1.757035013516134,1.0,2739.1330472508052,0.3731756818278622,1.3142543183296753,0.9668159773350263,0.2868484705676776,0.6850899981222931
0.042,1.7560452794862733,1.0,2740.810656250433,0.3766916707752019,1.3137921220065023,0.9673712925101519,0.2868069017384235,0.6860156382865319
0.0425,1.7550555454564125,1.0,2742.767768959112,0.3801879375944085,1.3133273958451257,0.9679088060299067,0.28676533290916933,0.6869449713421936
0.043000000000000003,1.754065811426552,1.0,2744.979448463225,0.3836645930149997,1.3128603685792861,0.9684292946950784,0.2867237640799152,0.6878775184069937
0.043500000000000004,1.7530760773966911,1.0,2747.4221476491853,0.3871217474544039,1.3123912563240205,0.968933492857582,0.286682195250661,0.6888128283555488
0.044,1.7520863433668303,1.0,2750.0761452714946,0.39055950994948946,1.311920240445684,0.9694220932197645,0.28664062642140686,0.6897505216846513
0.0445,1.7510966093369698,1.0,2752.922748647574,0.39397798913078413,1.3114474928839503,0.9698957516006427,0.2865990575921527,0.6906902397203498
0.045,1.750106875307109,1.0,2755.9520610784402,0.3973772877222762,1.3109731058483696,0.9703550830587517,0.28655748876289855,0.6916317839254424
0.0455,1.7491171412772484,1.0,2759.1333977470176,0.4007575229565043,1.3104973594520473,0.9708006875810502,0.28651591993364445,0.692574584736308
0.046,1.7481274072473876,1.0,2762.452746737585,0.40411880163255814,1.3100203826462309,0.9712331220821419,0.2864743511043903,0.6935183748210606
0.0465,1.747137673217527,1.0,2765.900236992022,0.40746122779378235,1.309542266779634,0.9716529125503631,0.28643278227513613,0.6944629626177485
0.047,1.7461479391876662,1.0,2769.465981335118,0.4107849054835214,1.3090631032009692,0.9720605590170724,0.286391213445882,0.6954081576523823
0.0475,1.7451582051578054,1.0,2773.140074259894,0.41408993874512,1.3085829832589502,0.9724565370847942,0.2863496446166278,0.6963537705453013
0.048,1.7441684711279448,1.0,2776.9125898984053,0.41737643162192256,1.3081019983022901,0.9728412993516592,0.28630807578737366,0.6972996130170142
0.0485,1.743178737098084,1.0,2780.7735801774165,0.42064448815727373,1.3076202396797019,0.9732152767400756,0.2862665069581195,0.6982454978935038
0.049,1.7421890030682234,1.0,2784.713073158532,0.42389421239451797,1.3071377987398989,0.9735788797368908,0.2862249381288654,0.6991912391109993
0.0495,1.7411992690383626,1.0,2788.7210715639962,0.42712570837699987,1.3066547668315942,0.9739324995517022,0.28618336929961125,0.7001366517202188
0.05,1.7402095350085018,1.0,2792.790584684928,0.4303390760643117,1.3061712080470695,0.9742765069013724,0.2861418004703571,0.7010816051116009
0.0505,1.7392198009786413,1.0,2796.9135837317885,0.4335344201517114,1.3056871956312488,0.9746112565918555,0.28610023164110293,0.7020259516170364
0.051000000000000004,1.7382300669487805,1.0,2801.081868385799,0.4367118453406185,1.3052028041659893,0.9749370873292743,0.2860586628118488,0.7029695418661249
0.051500000000000004,1.7372403329189199,1.0,2805.2914454341394,0.43987144981117565,1.304718070300169,0.9752543193519199,0.2860170939825946,0.7039123011241748
0.052000000000000005,1.736250598889059,1.0,2809.538310230335,0.44301333174352525,1.3042330306826662,0.9755632585894453,0.28597552515334046,0.7048541551072702
0.0525,1.7352608648591983,1.0,2813.8184464310616,0.44613758931780995,1.3037477219623586,0.9758641974279525,0.28593395632408636,0.7057950299830285
0.053,1.7342711308293377,1.0,2818.1278257624567,0.44924432071417225,1.3032621807881244,0.9761574154277848,0.2858923874948322,0.7067348523712722
0.0535,1.733281396799477,1.0,2822.462407816384,0.45233362411275474,1.302776443808842,0.9764431799973343,0.28585081866557804,0.7076735493446145
0.054,1.7322916627696163,1.0,2826.818139876669,0.4554055976936999,1.3022905476733893,0.9767217470259092,0.2858092498363239,0.7086110484289617
0.0545,1.7313019287397555,1.0,2831.190956774455,0.4584603396371504,1.3018045290306441,0.9769933614784776,0.28576768100706973,0.7095472776039257
0.055,1.730312194709895,1.0,2835.5778088474185,0.46149794402251415,1.3013184153611452,0.9772582570156082,0.28572611217781557,0.7104821829217103
0.0555,1.7293224606800341,1.0,2839.978765961185,0.46451849528652833,1.3008322062627493,0.9775166549588818,0.2856845433485614,0.7114157642700467
0.056,1.7283327266501733,1.0,2844.38490703967,0.46752211633622914,1.3003459813918619,0.977768775694758,0.28564297451930726,0.7123478681816307
0.0565,1.7273429926203128,1.0,2848.7950679077962,0.47050889832556847,1.2998597511430967,0.9780148235768441,0.2856014056900531,0.713278474631378
0.057,1.726353258590452,1.0,2853.2080807725456,0.47347893240849825,1.2993735259110681,0.9782549946285308,0.285559836860799,0.7142075637231347
0.0575,1.7253635245605914,1.0,2857.6227742227843,0.4764323097389704,1.2988873160903904,0.9784894769503139,0.28551826803154484,0.7151351156896781
0.058,1.7243737905307306,1.0,2862.037973231918,0.4793691214709367,1.2984011320756772,0.9787184511040382,0.2854766992022907,0.7160611108927113
0.0585,1.72338405650087,1.0,2866.452499162407,0.4822894587583491,1.2979149842615427,0.9789420904755535,0.2854351303730365,0.7169855298228468
0.059000000000000004,1.7223943224710092,1.0,2870.8651697729447,0.4851934127551595,1.2974288830426013,0.9791605616171463,0.28539356154378237,0.7179083530995874
0.059500000000000004,1.7214045884411484,1.0,2875.274799228098,0.48808107461531974,1.2969428388134667,0.9793740245710354,0.2853519927145282,0.7188295614712995
0.06,1.7204148544112878,1.0,2879.68019811008,0.4909525354927818,1.2964568619687533,0.9795826331751132,0.28531042388527406,0.7197491358151771
0.0605,1.719425120381427,1.0,2884.0801734334113,0.49380788654149743,1.295970962903075,0.979786535352041,0.28526885505601995,0.7206670571372025
0.061,1.7184353863515665,1.0,2888.473528661081,0.49664721891541863,1.2954851520110457,0.9799858733827207,0.2852272862267658,0.7215833065720956
0.0615,1.7174456523217057,1.0,2892.8590637242078,0.49947062376849727,1.2949994396872797,0.9801807841651101,0.28518571739751164,0.7224978653832622
0.062,1.716455918291845,1.0,2897.2355750433517,0.5022781922546853,1.294513836326391,0.9803713994592615,0.2851441485682575,0.7234107149627288
0.0625,1.7154661842619843,1.0,2901.601855552402,0.5050700155279344,1.2940283523229938,0.9805578461194261,0.2851025797390033,0.724321836831076
0.063,1.7144764502321235,1.0,2905.959604664783,0.5078461447496769,1.2935429724370922,0.9807402420471477,0.28506101090974917,0.7252312606275401
0.0635,1.713486716202263,1.0,2910.3055686721077,0.5106067199549444,1.293057725076127,0.9809187095734875,0.285019442080495,0.7261389342257818
0.064,1.712496982172402,1.0,2914.6395647866107,0.5133518248669284,1.2925726115511973,0.9810933610991411,0.2849778732512409,0.7270448564097967
0.0645,1.7115072481425413,1.0,2918.961465405588,0.5160815422902809,1.2920876326854818,0.9812643048903222,0.2849363044219867,0.7279490268883644
0.065,1.7105175141126807,1.0,2923.2711427697373,0.518795955029654,1.2916027893021584,0.9814316453478305,0.2848947355927326,0.7288514453801053
0.0655,1.70952778008282,1.0,2927.5684689642285,0.5214951458896999,1.2911180822244057,0.9815954831732201,0.28485316676347844,0.7297521116134699
0.066,1.7085380460529593,1.0,2931.853315922242,0.5241791976750707,1.2906335122754016,0.9817559155266736,0.2848115979342243,0.7306510253267346
0.0665,1.7075483120230985,1.0,2936.125555427085,0.5268481931904184,1.2901490802783242,0.9819130361770528,0.2847700291049701,0.7315481862679929
0.067,1.706558577993238,1.0,2940.3850591145365,0.5295022152403952,1.2896647870563522,0.9820669356445618,0.28472846027571597,0.732443594195147
0.0675,1.7055688439633772,1.0,2944.6316984757423,0.5321413466296533,1.2891806334326639,0.9822177013364436,0.28468689144646186,0.7333372488759033
0.068,1.7045791099335164,1.0,2948.8653448592136,0.5347656701628446,1.288696620230437,0.9823654176760884,0.28464532261720765,0.734229150087764
0.0685,1.7035893759036558,1.0,2953.0858694742337,0.5373752686446214,1.2882127482728503,0.9825101662259261,0.28460375378795355,0.7351192976180186
0.069,1.702599641873795,1.0,2957.293143392438,0.5399702248796358,1.2877290183830816,0.9826520258044329,0.2845621849586994,0.7360076912637381
0.0695,1.7016099078439344,1.0,2961.4870375511186,0.5425506216725398,1.2872454313843094,0.9827910725975818,0.28452061612944524,0.7368943308317667
0.07,1.7006201738140736,1.0,2965.667422755514,0.5451165418279856,1.2867619880997119,0.9829273802650319,0.2844790473001911,0.737779216138714
0.07050000000000001,1.699630439784213,1.0,2969.834169681598,0.5476680681506253,1.2862786893524671,0.983061020041339,0.2844374784709369,0.738662347010949
0.07100000000000001,1.6986407057543522,1.0,2973.987148878539,0.550205283445111,1.2857955359657538,0.9831920608324564,0.2843959096416828,0.7395437232845903
0.07150000000000001,1.6976509717244914,1.0,2978.1262307712072,0.5527282705160949,1.2853125287627498,0.9833205693077698,0.2843543408124286,0.7404233448055009
