Time [s],Phi [rad],STIM [ ],Fsee [N],Gamma [ ],Lcerel [ ],q [ ],Lmtc [m],fisomrel [ ]
0.0,1.8,1.0,17.966744534667782,1.8213917114221524e-05,1.3793397925607072,0.005000087999040697,0.288653,0.5411394189413256
0.0005,1.79999375,1.0,18.27888408885565,0.005627321060240921,1.3793021500904723,0.01296333473503571,0.2886527375,0.5412304813033956
0.001,1.799975,1.0,21.62664960530265,0.01120496554717557,1.3789374577350677,0.03565139611536855,0.28865195,0.5421122548637876
0.0015,1.79994375,1.0,31.090413833332498,0.016751323859413136,1.3780443997580194,0.07066031487356476,0.2886506375,0.5442679585829044
0.002,1.7999,1.0,53.629243099824826,0.02226657148678116,1.3763650926233515,0.11478724733859114,0.2886488,0.5483077712200768
0.0025,1.79984375,1.0,97.19849512037678,0.027750882935066133,1.3739313343595683,0.16465018634261955,0.28864643749999996,0.5541306032655382
0.003,1.7997750000000001,1.0,161.06228275355858,0.03320443173365053,1.3712104472278395,0.2173581302228875,0.28864354999999997,0.5605956756023833
0.0035,1.79969375,1.0,237.80130233600758,0.03862739043516613,1.368581100871446,0.2706901463154167,0.2886401375,0.5667983803583961
0.004,1.7996,1.0,321.59250634820523,0.044019930626260556,1.3661527624815928,0.3229906087367793,0.2886362,0.5724877376501859
0.0045000000000000005,1.7994937500000001,1.0,409.398130501598,0.04938222293278605,1.3639197539014736,0.37310551967194633,0.2886317375,0.5776862650519481
0.005,1.799375,1.0,499.54666211676175,0.054714437010908445,1.361855512940042,0.4203138986057075,0.28862675,0.5824636089123059
0.0055,1.79924375,1.0,590.9248808708306,0.06001674159423094,1.359936208092202,0.4642352098458086,0.2886212375,0.5868811419139257
0.006,1.7991000000000001,1.0,682.6528404276238,0.06528930443782102,1.3581439657973031,0.5047364912254757,0.2886152,0.5909850119992991
0.006500000000000001,1.79894375,1.0,774.0173756229832,0.07053229237090958,1.3564649300999372,0.5418524247360545,0.2886086375,0.594811076558823
0.007,1.798775,1.0,864.4230569418839,0.07574587129468545,1.354888178125922,0.5757238366896626,0.28860155,0.5983876945996933
0.0075,1.79859375,1.0,953.3794904601771,0.08093020615236678,1.3534046832149569,0.6065527017041427,0.2885939375,0.6017382968167602
0.008,1.7984,1.0,1040.49344651405,0.08608546099641629,1.3520066589249784,0.6345709222668448,0.2885858,0.6048830104351848
0.0085,1.79819375,1.0,1125.4526837932033,0.09121179894009368,1.3506872815269244,0.660019687974345,0.2885771375,0.6078393832119122
0.009000000000000001,1.797975,1.0,1208.010290077243,0.09630938203741128,1.3494405305694908,0.6831364174224,0.28856795,0.6106228175870945
0.0095,1.79774375,1.0,1287.9690170108709,0.10137837083529837,1.3482611073997932,0.7041469958739922,0.2885582375,0.6132468146449928
0.01,1.7975,1.0,1365.2747556242646,0.10641892847843352,1.3471430009886984,0.723260883526823,0.288548,0.6157262017364813
0.0105,1.79724375,1.0,1439.7931443941188,0.11143121269804258,1.346082273754003,0.740670781634425,0.2885372375,0.6180709814836075
0.011,1.796975,1.0,1511.4503768798465,0.11641538122535139,1.3450749881135038,0.7565511594068495,0.28852595000000003,0.6202909839874529
0.0115,1.79669375,1.0,1580.2278714432775,0.12137159179158581,1.3441172064849978,0.7710588498892624,0.2885141375,0.6223958807428617
0.012,1.7964,1.0,1646.1557533389891,0.12630000201934935,1.3432050092103907,0.784334153125579,0.28850180000000003,0.6243951583319377
0.0125,1.79609375,1.0,1709.2664512742026,0.1312007682221752,1.3423349725598026,0.7965023739706096,0.2884889375,0.6262970872528035
0.013000000000000001,1.7957750000000001,1.0,1769.5844640349558,0.1360740450999833,1.3415041932286897,0.8076752142337525,0.28847555,0.6281086926250694
0.0135,1.79544375,1.0,1827.1596430802792,0.1409199865222868,1.3407098383428617,0.8179519724083715,0.2884616375,0.629836754006317
0.014,1.7951000000000001,1.0,1882.0465713056908,0.14573874499714404,1.3399493353943326,0.8274209563825847,0.2884472,0.6314874023117079
0.0145,1.79474375,1.0,1934.34950821277,0.15053047566344463,1.3392198416557437,0.836160530310598,0.2884322375,0.6330672800607531
0.015,1.794375,1.0,1984.1260019255062,0.15529532904153492,1.3385192656075187,0.844240607077821,0.28841675,0.6345813354991908
0.0155,1.79399375,1.0,2031.4390740512854,0.1600334548122396,1.3378456496289084,0.8517234215880448,0.2884007375,0.6360341741926686
0.016,1.7936,1.0,2076.3678145528515,0.16474500265638328,1.3371970360991636,0.8586643933806427,0.2883842,0.6374303534628167
0.0165,1.7931937500000001,1.0,2119.0060090538627,0.16943012225479062,1.336571467397535,0.8651129346440106,0.2883671375,0.638774385630963
0.017,1.792775,1.0,2159.4379543452224,0.1740889618182875,1.3359672198893533,0.8711132292396322,0.28834955,0.64007023966779
0.0175,1.7923437500000001,1.0,2197.764395273011,0.17872167022526278,1.335382518757707,0.8767047683607325,0.2883314375,0.6413219582644651
0.018000000000000002,1.7919,1.0,2234.0556238668482,0.1833283928894213,1.3348160012846022,0.8819230248098208,0.2883128,0.6425326699100423
0.0185,1.79144375,1.0,2268.386140409777,0.18790927490931772,1.3342663460437194,0.8867998218513518,0.2882936375,0.6437053887199631
0.019,1.790975,1.0,2300.837977251482,0.19246446138350684,1.333732231608739,0.8913637451693276,0.28827395,0.6448431045454432
0.0195,1.79049375,1.0,2331.49090681124,0.19699409622884068,1.3332124265617136,0.8956405352703258,0.2882537375,0.6459485930639498
0.02,1.79,1.0,2360.4348603916806,0.20149832462551018,1.3327056594600022,0.8996533808824657,0.288233,0.6470246943982305
0.0205,1.78949375,1.0,2387.7408852819776,0.20597728859694564,1.3322108971024509,0.9034232657994302,0.2882117375,0.6480737239999516
0.021,1.788975,1.0,2413.4741459712673,0.21043112872271635,1.331727207559865,0.9069691821794251,0.28818995000000003,0.6490977671062956
0.021500000000000002,1.78844375,1.0,2437.703798375265,0.21485998558239164,1.3312536589030493,0.910308327357558,0.2881676375,0.6500988949723925
0.022,1.7879,1.0,2460.50265403299,0.21926399975554073,1.3307893192028093,0.9134562982148338,0.2881448,0.6510791655017282
0.0225,1.78734375,1.0,2481.9348358508832,0.22364330954342085,1.3303333711800784,0.9164272837970259,0.28812143749999997,0.6520403822857288
0.023,1.786775,1.0,2502.0792107373677,0.22799805696435155,1.3298848846075482,0.9192341724877553,0.28809755,0.6529845755977827
0.0235,1.78619375,1.0,2520.9919152857055,0.23232837892677807,1.329443170530595,0.921888749721416,0.28807313749999996,0.6539132569858079
0.024,1.7856,1.0,2538.7246804388565,0.23663441096303287,1.3290076018721677,0.9244017789523478,0.2880482,0.6548277994589451
0.0245,1.78499375,1.0,2555.3311265591296,0.24091628860544828,1.328577551555215,0.9267830946238383,0.2880227375,0.6557295682843752
0.025,1.784375,1.0,2570.8666038598817,0.24517414738635676,1.3281523925026857,0.9290416950997303,0.28799675,0.6566199212205464
0.025500000000000002,1.78374375,1.0,2585.3880415562257,0.2494081228380907,1.3277314976375287,0.9311858251693569,0.2879702375,0.6575002087253269
0.026000000000000002,1.7831000000000001,1.0,2598.942245841023,0.2536183469396807,1.3273143475645097,0.933223065334247,0.2879432,0.6583715493572045
0.0265,1.78244375,1.0,2611.5921169956323,0.25780495796166497,1.3269002844009445,0.935160360435649,0.2879156375,0.6592353445745587
0.027,1.781775,1.0,2623.3788093128956,0.2619680872335999,1.3264888631987701,0.9370041290599179,0.28788755,0.6600925453034909
0.0275,1.7810937500000001,1.0,2634.3401291032005,0.2661078647032921,1.326079678362779,0.9387602879910215,0.2878589375,0.6609440158125848
0.028,1.7804,1.0,2644.5146755814785,0.27022442031854826,1.325672324297764,0.940434293117577,0.2878298,0.6617906160283549
0.0285,1.77969375,1.0,2653.9417718151108,0.27431788402717516,1.3252663954085175,0.9420311813833603,0.2878001375,0.6626332015878506
0.029,1.778975,1.0,2662.6613993192163,0.27838838577697933,1.324861486099833,0.9435556084135083,0.28776995,0.6634726238807656
0.029500000000000002,1.7782437500000001,1.0,2670.7141362989632,0.2824360555157676,1.3244571907765021,0.9450118823092502,0.2877392375,0.6643097300810603
0.03,1.7775,1.0,2678.130427274418,0.2864610160110883,1.3240532017760098,0.946404004620033,0.287708,0.665145160773969
0.0305,1.77674375,1.0,2684.959977727694,0.2904634051791847,1.3236490388529834,0.9477356688778537,0.2876762375,0.6659799095967478
0.031,1.775975,1.0,2691.228983108859,0.29444334729645427,1.3232444413487747,0.9490103276803867,0.28764395,0.6668145125545872
0.0315,1.7751937500000001,1.0,2696.9629338872073,0.2984009659760158,1.322839157972864,0.9502311904345289,0.2876111375,0.6676494836714674
0.032,1.7744,1.0,2702.1876067013277,0.3023363848309879,1.322432937434732,0.9514012426042152,0.2875778,0.6684853343661042
0.0325,1.77359375,1.0,2706.929037429027,0.30624972747448925,1.3220255284438587,0.9525232640791214,0.2875439375,0.6693225734389463
0.033,1.772775,1.0,2711.213495656366,0.31014111751963847,1.3216166797097246,0.9535998458253363,0.28750955,0.6701617070551416
0.0335,1.7719437500000002,1.0,2715.0674605474105,0.3140106785795543,1.3212061399418102,0.9546334049970508,0.2874746375,0.6710032387234766
0.034,1.7711000000000001,1.0,2718.517598113691,0.3178585342673553,1.320793657849596,0.9556261986678681,0.2874392,0.6718476692712894
0.0345,1.7702437500000001,1.0,2721.5848885507476,0.32168480369448066,1.3203790354062264,0.9565803410174942,0.2874032375,0.672695387985255
0.035,1.7693750000000001,1.0,2724.2923070387146,0.3254896098277823,1.319962057652291,0.9574978088304603,0.28736675,0.6735468165271429
0.035500000000000004,1.76849375,1.0,2726.6686908516067,0.32927308050422865,1.3195424574278016,0.9583804484445065,0.2873297375,0.6744024805516633
0.036000000000000004,1.7676,1.0,2728.729278661982,0.33303533233907273,1.319120092248283,0.9592300001463727,0.2872922,0.6752626489905845
0.0365,1.76669375,1.0,2730.4893898608034,0.3367764819475674,1.3186948196292603,0.9600480958775551,0.2872541375,0.6761275890990857
0.037,1.765775,1.0,2731.9644156832564,0.34049664594496576,1.3182664970862583,0.9608362671992853,0.28721555,0.6769975664299832
0.0375,1.76484375,1.0,2733.169810785612,0.3441959409465208,1.3178349821348017,0.9615959525864769,0.2871764375,0.6778728448066655
0.038,1.7639,1.0,2734.1210852708928,0.3478744835674855,1.3174001322904159,0.9623285041139695,0.28713679999999997,0.6787536862947274
0.0385,1.76294375,1.0,2734.8337971664428,0.3515323904231129,1.3169618050686254,0.9630351935918137,0.28709663750000003,0.6796403511723175
0.039,1.761975,1.0,2735.323545349508,0.3551697781286559,1.3165198579849553,0.963717218200509,0.28705595,0.6805330978991828
0.0395,1.7609937500000001,1.0,2735.605962925183,0.35878676329936765,1.3160741485549305,0.9643757056719158,0.2870147375,0.6814321830844251
0.04,1.76,1.0,2735.691049458175,0.3623834570135231,1.3156245856975386,0.9650117226356608,0.286973,0.682337757982325
0.0405,1.7589937500000001,1.0,2735.593417138047,0.36595997708700856,1.3151710366577358,0.9656262727792962,0.2869307375,0.6832500562885464
0.041,1.757975,1.0,2735.329193514138,0.36951644146270324,1.314713355087077,0.9662203023228947,0.28688795,0.6841693371487096
0.0415,1.75694375,1.0,2734.906893876335,0.3730529598293344,1.3142514638804672,0.9667947094809916,0.2868446375,0.6850957189061971
0.042,1.7559,1.0,2734.3350451033657,0.37656964187562963,1.3137852859328107,0.9673503431914279,0.28680079999999997,0.686029318660919
0.0425,1.75484375,1.0,2733.622183274495,0.3800665972903163,1.3133147441390125,0.9678880063195177,0.2867564375,0.686970252248422
0.043000000000000003,1.753775,1.0,2732.7768514128315,0.38354393576212176,1.3128397613939775,0.968408458622426,0.28671155,0.68791863421862
0.043500000000000004,1.75269375,1.0,2731.8075973617006,0.3870017669797735,1.3123602605926101,0.9689124194939502,0.28666613750000003,0.6888745778141476
0.044,1.7516,1.0,2730.722971790663,0.3904402006319989,1.3118761646298154,0.9694005705080118,0.2866202,0.6898381949483301
0.0445,1.75049375,1.0,2729.5315263357766,0.3938593464075255,1.3113873964004978,0.9698735577774751,0.2865737375,0.6908095961827782
0.045,1.7493750000000001,1.0,2728.2418118697683,0.3972593139950807,1.3108938787995623,0.9703319941433977,0.28652675,0.6917888907046016
0.0455,1.74824375,1.0,2726.8577251337956,0.4006402010576337,1.3103955770252171,0.9707764627085228,0.2864792375,0.6927761025611687
0.046,1.7471,1.0,2725.389973186762,0.4040021261562472,1.3098923943365106,0.9712075154680119,0.2864312,0.6937713773354102
0.0465,1.7459437500000001,1.0,2723.84701831792,0.4073452026964464,1.309384254352063,0.9716256775991481,0.28638263750000004,0.6947748187468685
0.047,1.744775,1.0,2722.2331531803748,0.4106695329350888,1.308871118585784,0.9720314495573477,0.28633355,0.6957864544118832
0.0475,1.74359375,1.0,2720.552668333667,0.4139752191290318,1.308352948551583,0.9724253073083624,0.28628393750000003,0.6968063109679363
0.048,1.7424,1.0,2718.8098517053954,0.41726236353513285,1.3078297057633694,0.9728077037522351,0.2862338,0.6978344140613437
0.0485,1.74119375,1.0,2717.0089880870846,0.4205310684102494,1.307301351735053,0.9731790700516741,0.2861831375,0.6988707883348511
0.049,1.739975,1.0,2715.1543586615508,0.4237814360112388,1.3067678479805427,0.9735398168720913,0.28613195,0.699915457415136
0.0495,1.73874375,1.0,2713.250240564023,0.42701356859495854,1.3062291560137484,0.9738903355399304,0.2860802375,0.7009684439002146
0.05,1.7375,1.0,2711.3009064759117,0.4302275684182661,1.3056852373485794,0.974230999125367,0.286028,0.7020297693467559
0.0505,1.73624375,1.0,2709.310624251053,0.4334235377380188,1.3051360534989456,0.974562163454952,0.2859752375,0.7030994542572979
0.051000000000000004,1.734975,1.0,2707.2836565752855,0.43660157881107414,1.3045815659787559,0.9748841680593239,0.28592195,0.704177518067375
0.051500000000000004,1.73369375,1.0,2705.224260658475,0.43976179389428954,1.30402173630192,0.975197337060688,0.2858681375,0.7052639791325441
0.052000000000000005,1.7324,1.0,2703.1366108607613,0.4429042840195413,1.3034565266865563,0.975501979917761,0.2858138,0.7063588533524596
0.0525,1.73109375,1.0,2701.023671493366,0.4460291229979334,1.3028859103538362,0.9757983901245328,0.28575893750000003,0.7074621342765559
0.053,1.729775,1.0,2698.891067817981,0.44913644999526087,1.3023098361629473,0.9760868535397595,0.28570355000000003,0.708573861476824
0.0535,1.72844375,1.0,2696.740422783393,0.4522263589102417,1.3017282894946132,0.9763676410465927,0.2856476375,0.7096940029293843
0.054,1.7271,1.0,2694.573356999108,0.45529894364159423,1.3011412557295567,0.9766410117931088,0.2855912,0.7108225258215106
0.0545,1.7257437500000001,1.0,2692.39148868155,0.4583542980880365,1.3005487202485022,0.9769072137973832,0.2855342375,0.7119593965465165
0.055,1.724375,1.0,2690.1964336054275,0.46139251614828675,1.2999506684321727,0.9771664845164529,0.28547675,0.7131045806986378
0.0555,1.72299375,1.0,2687.9898050594434,0.4644136917210631,1.2993470856612919,0.9774190513816032,0.2854187375,0.7142580430678929
0.056,1.7216,1.0,2685.773213807038,0.46741791870508376,1.298737957316583,0.9776651323022365,0.2853602,0.7154197476349347
0.0565,1.72019375,1.0,2683.548268051546,0.47040529099906686,1.2981232687787696,0.9779049361404077,0.28530113749999997,0.7165896575658849
0.057,1.718775,1.0,2681.316573406708,0.47337590250173056,1.2975030054285754,0.9781386631579615,0.28524155,0.7177677352071589
0.0575,1.71734375,1.0,2679.0797328708823,0.47632984711179305,1.2968771526467238,0.9783665054380583,0.2851814375,0.718953942080274
0.058,1.7159,1.0,2676.839346806967,0.47926721872797257,1.2962456958139383,0.978588647282755,0.2851208,0.7201482388766439
0.0585,1.71444375,1.0,2674.597012926938,0.48218811124898714,1.2956086203109423,0.9788052655881759,0.2850596375,0.7213505854523634
0.059000000000000004,1.7129750000000001,1.0,2672.3543262804,0.485092618573555,1.2949659115184593,0.9790165301987082,0.28499795,0.7225609408229734
0.059500000000000004,1.71149375,1.0,2670.1128792486656,0.4879808346003944,1.294317554817213,0.9792226042415465,0.2849357375,0.723779263158217
0.06,1.71,1.0,2667.874261543177,0.49085285322822336,1.293663535587927,0.9794236444428264,0.284873,0.7250055097767807
0.0605,1.7084937500000001,1.0,2665.6392034096907,0.4937087166235972,1.2930038470920409,0.9796197976833262,0.2848097375,0.7262396224147447
0.061,1.7069750000000001,1.0,2663.409612637403,0.4965485709183106,1.2923384717443114,0.9798112129288262,0.28474595,0.7274815623029351
0.0615,1.7054437500000001,1.0,2661.186193233318,0.4993725179002819,1.2916674030116038,0.9799980304624316,0.2846816375,0.7287312691979169
0.062,1.7039,1.0,2658.9693509837916,0.5021806418538413,1.2909906370964275,0.9801803840133894,0.2846168,0.7299886770478803
0.0625,1.70234375,1.0,2656.7594910044536,0.5049730270633187,1.2903081702012933,0.9803584022778425,0.2845514375,0.7312537191147224
0.063,1.7007750000000001,1.0,2654.557017745331,0.5077497578130444,1.2896199985287111,0.9805322091441159,0.28448555,0.7325263279726701
0.0635,1.69919375,1.0,2652.36233499584,0.5105109183873485,1.288926118281191,0.9807019239062905,0.28441913750000003,0.7338064355068978
0.064,1.6976,1.0,2650.175845889151,0.5132565930705613,1.2882265256612437,0.9808676614667581,0.2843522,0.7350939729121442
0.0645,1.69599375,1.0,2647.997952908826,0.5159868661470128,1.2875212168713788,0.9810295325284012,0.2842847375,0.7363888706913315
0.065,1.694375,1.0,2645.8290578937276,0.5187018219010331,1.2868101881141065,0.9811876437770002,0.28421675,0.7376910586541799
0.0655,1.69274375,1.0,2643.6695620444834,0.5214015446169525,1.2860934355919373,0.9813420980544317,0.2841482375,0.7390004659158227
0.066,1.6911,1.0,2641.5198659300067,0.524086118579101,1.2853709555073811,0.9814929945231855,0.2840792,0.740317020895422
0.0665,1.6894437500000001,1.0,2639.3803694943717,0.5267556280718089,1.2846427440629484,0.9816404288226942,0.2840096375,0.7416406513147795
0.067,1.687775,1.0,2637.2514720634285,0.5294101573794061,1.283908797461149,0.9817844932179354,0.28393955,0.7429712841969526
0.0675,1.68609375,1.0,2635.1335723527036,0.5320497907862228,1.2831691119044935,0.9819252767407464,0.2838689375,0.7443088458648612
0.068,1.6844000000000001,1.0,2633.027068475105,0.5346746125765894,1.2824236835954916,0.9820628653242464,0.2837978,0.7456532619399032
0.0685,1.68269375,1.0,2630.932357948623,0.5372847070348359,1.2816725087366538,0.9821973419307599,0.2837261375,0.7470044573405602
0.069,1.680975,1.0,2628.849837705098,0.5398801584452922,1.2809155835304902,0.9823287866735869,0.28365395,0.7483623562810082
0.0695,1.67924375,1.0,2626.7799040985874,0.5424610510922888,1.280152904179511,0.9824572769329643,0.28358123749999997,0.749726882269725
0.07,1.6775,1.0,2624.722952914776,0.5450274692601558,1.2793844668862264,0.9825828874665272,0.283508,0.7510979581080965
0.07050000000000001,1.67574375,1.0,2622.679379379889,0.5475794972332231,1.2786102678531466,0.9827056905145712,0.2834342375,0.752475505889024
0.07100000000000001,1.673975,1.0,2620.645873991405,0.5501171792035645,1.2778303376445135,0.9828257550278524,0.28335995,0.7538593861107642
0.07150000000000001,1.67219375,1.0,2618.622653169005,0.5526406184593262,1.2770446741518042,0.9829431497871275,0.2832851375,0.7552495169774255
0.07200000000000001,1.6704,1.0,2616.6123074003935,0.5551499262562396,1.276253253223743,0.9830579407639446,0.2832098,0.7566458548574572
0.0725,1.66859375,1.0,2614.6146322875647,0.5576451771246479,1.2754560766291938,0.9831701907356722,0.2831339375,0.7580483094644507
0.073,1.6667750000000001,1.0,2612.629423805727,0.5601264455948943,1.274653146137021,0.9832799604400326,0.28305755,0.7594567899140185
0.0735,1.66494375,1.0,2610.6564782987152,0.5625938061973221,1.2738444635160886,0.9833873086532493,0.2829806375,0.7608712047244439
0.074,1.6631,1.0,2608.6955924750155,0.5650473334622748,1.273030030535261,0.9834922922647015,0.2829032,0.7622914618173291
0.0745,1.6612437500000001,1.0,2606.746563403447,0.5674871019200952,1.2722098489634026,0.98359496634826,0.2828252375,0.7637174685182447
0.075,1.659375,1.0,2604.8091885092617,0.5699131861011268,1.2713839205693775,0.9836953842304772,0.28274675,0.7651491315573782
0.0755,1.65749375,1.0,2602.883265569867,0.572325660535713,1.2705522471220498,0.9837935975557808,0.2826677375,0.7665863570701826
