Time [s],Phi [rad],STIM [ ],Fsee [N],Gamma [ ],Lcerel [ ],q [ ],Lmtc [m],fisomrel [ ]
0.0,1.8,1.0,18.34430240911626,0.000625681434836016,1.3792977128842079,0.005100964047821333,0.288653,0.5412412149260492
0.0005,1.79999375,1.0,18.844026972759625,0.006231381165629565,1.3792398552311587,0.014737792456488243,0.2886527375,0.5413811613655926
0.001,1.799975,1.0,22.642724740391532,0.011805637353034639,1.3788348913353174,0.038888740291606605,0.28865195,0.5423600928155556
0.0015,1.79994375,1.0,33.10800717833385,0.01734862637132985,1.3778752670986827,0.07504452428156894,0.2886506375,0.5446756457751889
0.002,1.7999,1.0,57.62727959769644,0.022860523603664355,1.376110493721353,0.11994912478245205,0.2886488,0.5489186751042093
0.0025,1.79984375,1.0,103.63232827771495,0.02834150344981356,1.3736263955345105,0.17024643836663383,0.28864643749999996,0.5548575145404642
0.003,1.7997750000000001,1.0,169.2417270430509,0.033791739334594464,1.370908172005439,0.22311899735873586,0.28864354999999997,0.5613109947053052
0.0035,1.79969375,1.0,246.93860940206847,0.0392114037052219,1.36830236972708,0.2764111638829275,0.2886401375,0.5674533305274787
0.004,1.7996,1.0,331.2543148113807,0.044600668043904786,1.3658988014725852,0.328523828450952,0.2886362,0.57308057104887
0.0045000000000000005,1.7994937500000001,1.0,419.36548837933356,0.049959702870652885,1.3636872260700486,0.37835359923348566,0.2886317375,0.5782257703873515
0.005,1.799375,1.0,509.68322677186137,0.0552886777286892,1.3616412221058918,0.42522097356574895,0.28862675,0.5829579925821335
0.0055,1.79924375,1.0,601.1376891444992,0.06058776130498624,1.359737551942553,0.4687763558692441,0.2886212375,0.5873370335535044
0.006,1.7991000000000001,1.0,692.8531366290343,0.06585712116599306,1.357959257287901,0.5089086230831739,0.2886152,0.5914067924805306
0.006500000000000001,1.79894375,1.0,784.1413161378674,0.07109692409580118,1.3562926843919003,0.5456664409952333,0.2886086375,0.5952025607423908
0.007,1.798775,1.0,874.415965721008,0.07630733589165374,1.3547272372343837,0.5791991744519017,0.28860155,0.598751872334379
0.0075,1.79859375,1.0,963.1864039353715,0.08148852125717529,1.3532542394258444,0.609713433193858,0.2885939375,0.6020773033407787
0.008,1.7984,1.0,1050.0935031245285,0.08664064454917095,1.3518656511053753,0.6374427347295717,0.2885858,0.6051995011868314
0.0085,1.79819375,1.0,1134.8128939857047,0.09176386835851529,1.3505550578674501,0.6626285740080173,0.2885771375,0.608135049118459
0.009000000000000001,1.797975,1.0,1217.1077379283672,0.09685835473971388,1.3493164635712993,0.6855073899343095,0.28856795,0.6108992610906924
0.0095,1.79774375,1.0,1296.819573427717,0.10192426537966426,1.3481441948659232,0.7063032876213228,0.2885582375,0.6135064399909379
0.01,1.7975,1.0,1373.8148703683316,0.10696176026787318,1.3470334128658377,0.7252244775077373,0.288548,0.615968783018779
0.0105,1.79724375,1.0,1448.0068520891557,0.11197099857419919,1.3459796238606119,0.7424613815334065,0.2885372375,0.6182975123509871
0.011,1.796975,1.0,1519.355592929371,0.11695213880557202,1.3449785525057312,0.7581863653263496,0.28852595000000003,0.6205031833898293
0.0115,1.79669375,1.0,1587.859418381765,0.12190533945760308,1.3440261487798233,0.7725543868401613,0.2885141375,0.6225956918230959
0.012,1.7964,1.0,1653.5049340933383,0.1268307563758414,1.3431190867048104,0.7857043168723925,0.28850180000000003,0.6245832026111505
0.0125,1.79609375,1.0,1716.3159496720848,0.1317285452368454,1.3422540827875609,0.7977599511709067,0.2884889375,0.6264736696914714
0.013000000000000001,1.7957750000000001,1.0,1776.3361118702608,0.13659886097247698,1.341428047095816,0.8088314976331126,0.28847555,0.6282745173990347
0.0135,1.79544375,1.0,1833.640711380628,0.14144185899241832,1.3406378998852906,0.8190169027483976,0.2884616375,0.6299930521739119
0.014,1.7951000000000001,1.0,1888.2803382602794,0.1462576918516541,1.3398811543603935,0.8284033968347747,0.2884472,0.6316352069854796
0.0145,1.79474375,1.0,1940.3114619935152,0.1510465112021212,1.3391555174762289,0.837068547674609,0.2884322375,0.6332064252724217
0.015,1.794375,1.0,1989.811407310142,0.15580846869575643,1.3384586961879017,0.845081307219157,0.28841675,0.6347120885675563
0.0155,1.79399375,1.0,2036.8603433276107,0.16054371502444073,1.337788567915938,0.8525030763452444,0.2884007375,0.6361571536521038
0.016,1.7936,1.0,2081.559881000506,0.16525240141364356,1.3371429601394285,0.8593885259869638,0.2883842,0.6375466340192084
0.0165,1.7931937500000001,1.0,2123.982782071119,0.16993467600418583,1.3365201559410858,0.8657865448008871,0.2883671375,0.6388845173641178
0.017,1.792775,1.0,2164.2030927463243,0.17459068621893253,1.335918550808404,0.8717408183873565,0.28834955,0.640174512827748
0.0175,1.7923437500000001,1.0,2202.3057187307622,0.1792205794807486,1.3353365402288773,0.8772904112297109,0.2883314375,0.6414202958779547
0.018000000000000002,1.7919,1.0,2238.375783379858,0.18382450217315446,1.3347726172073473,0.8824703351070387,0.2883128,0.6426253021943333
0.0185,1.79144375,1.0,2272.5074861285134,0.18840260162459327,1.3342252716839058,0.8873119963247428,0.2882936375,0.6437929456881994
0.019,1.790975,1.0,2304.7755688973925,0.19295502212510207,1.3336932652931448,0.8918436782457968,0.28827395,0.6449260353890272
0.0195,1.79049375,1.0,2335.250750554842,0.19748190669921806,1.3331754637221216,0.8960908564794422,0.2882537375,0.6460271376707565
0.02,1.79,1.0,2364.009496069962,0.20198339837147844,1.3326707326578937,0.9000764926918993,0.288233,0.6470987998496818
0.0205,1.78949375,1.0,2391.1333947393555,0.20645964014540566,1.332177939116253,0.9038213168592516,0.2882117375,0.6481435483561191
0.021,1.788975,1.0,2416.689675370583,0.21091077246821807,1.3316961352203025,0.9073441131716223,0.28818995000000003,0.6491635008925856
0.021500000000000002,1.78844375,1.0,2440.7723427774426,0.21533693990402758,1.331224154100226,0.9106618500247123,0.2881676375,0.6501612236625947
0.022,1.7879,1.0,2463.4372047642214,0.2197382805789626,1.330761233347957,0.9137899996825505,0.2881448,0.6511384136292676
0.0225,1.78734375,1.0,2484.7430281866705,0.22411493261915166,1.3303066105554289,0.9167426178957525,0.28812143749999997,0.6520967570898732
0.023,1.786775,1.0,2504.7512968171327,0.22846703415072317,1.3298595233145751,0.9195324931848585,0.28809755,0.6530379300978357
0.0235,1.78619375,1.0,2523.52598209765,0.23279472329980563,1.329419209217329,0.9221712786276036,0.28807313749999996,0.6539635988476712
0.024,1.7856,1.0,2541.126342981441,0.2370981366387477,1.3289849716465005,0.9246696195082318,0.2880482,0.6548752819858139
0.0245,1.78499375,1.0,2557.615570799726,0.24137741211836677,1.3285560956265667,0.9270372416074318,0.2880227375,0.6557745281461299
0.025,1.784375,1.0,2573.0524201677486,0.24563268632998164,1.3281319248053682,0.9292830549241943,0.28799675,0.6566627548581765
0.025500000000000002,1.78374375,1.0,2587.4813746214754,0.24986409209843718,1.3277119508694295,0.9314152475449258,0.2879702375,0.6575410626828847
0.026000000000000002,1.7831000000000001,1.0,2600.9481928557807,0.25407176224857825,1.3272956655052757,0.9334413326986162,0.2879432,0.6584105463694474
0.0265,1.78244375,1.0,2613.4998006682195,0.2582558296052497,1.3268825603994314,0.9353682134832012,0.2879156375,0.659272294983138
0.027,1.781775,1.0,2625.1841886314132,0.2624164269932964,1.3264721272384217,0.9372022405948658,0.28788755,0.6601273920166448
0.0275,1.7810937500000001,1.0,2636.0465603995995,0.26655368603606927,1.326063892440915,0.9389492686240827,0.2878589375,0.6609768432598198
0.028,1.7804,1.0,2646.127634582608,0.27066773757654533,1.3256574316640188,0.9406147039286032,0.2878298,0.6618215472002389
0.0285,1.77969375,1.0,2655.4797584945163,0.274758715996456,1.3252522201381451,0.9422035253711141,0.2878001375,0.6626626061709426
0.029,1.778975,1.0,2664.1348132053545,0.2788267484550948,1.3248479281476635,0.9437203602875497,0.28776995,0.6635007129405945
0.029500000000000002,1.7782437500000001,1.0,2672.1252093082376,0.2828719621117554,1.324444225976944,0.9451694909750491,0.2877392375,0.6643365568565743
0.03,1.7775,1.0,2679.4838401345746,0.28689448412573126,1.324040783910357,0.9465548848330455,0.287708,0.6651708238608462
0.0305,1.77674375,1.0,2686.2440373799486,0.2908944416563161,1.3236372722322718,0.9478802215135161,0.2876762375,0.666004196498898
0.031,1.775975,1.0,2692.439529139988,0.2948719618628035,1.3232333612270588,0.9491489174096585,0.28764395,0.6668373539217403
0.0315,1.7751937500000001,1.0,2698.1036919183903,0.29882717144916415,1.3228287276558794,0.9503641484365624,0.2876111375,0.6676709585461926
0.032,1.7744,1.0,2703.263626808008,0.3027601937525894,1.3224231084923788,0.9515288756322209,0.2875778,0.6685055456317339
0.0325,1.77359375,1.0,2707.9538553517796,0.30667115853457255,1.3220161753658712,0.9526458505537917,0.2875439375,0.6693417818964811
0.033,1.772775,1.0,2712.1960358344313,0.3105601872724329,1.3216077195346347,0.9537176496707093,0.28750955,0.6701800852542465
0.0335,1.7719437500000002,1.0,2716.012015131585,0.3144274014434898,1.3211975322569476,0.9547466768096207,0.2874746375,0.6710208714032115
0.034,1.7711000000000001,1.0,2719.4238101131473,0.3182729225250625,1.3207854047910879,0.9557351767771652,0.2874392,0.6718645538042662
0.0345,1.7702437500000001,1.0,2722.4535900136757,0.32209687199447035,1.3203711283953334,0.9566852477546105,0.2874032375,0.6727115436565714
0.035,1.7693750000000001,1.0,2725.123659767967,0.3258993713290327,1.3199544943279629,0.95759885258797,0.28736675,0.6735622498703366
0.035500000000000004,1.76849375,1.0,2727.4564443134227,0.32968054200606883,1.3195352938472538,0.9584778290835866,0.2873297375,0.6744170790368278
0.036000000000000004,1.7676,1.0,2729.4619776399563,0.33344049346927496,1.3191134317980446,0.9593239083382129,0.2872922,0.6752762042285546
0.0365,1.76669375,1.0,2731.1785061071982,0.33717936281305405,1.3186885573530198,0.9601386941814001,0.2872541375,0.6761403170033514
0.037,1.765775,1.0,2732.619882313883,0.34089726559706157,1.318260542187275,0.9609237093381907,0.28721555,0.6770096533375692
0.0375,1.76484375,1.0,2733.7990944223325,0.3445943165227957,1.3178292663546807,0.9616803847338478,0.2871764375,0.6778844306391756
0.038,1.7639,1.0,2734.7291811079613,0.3482706302917546,1.3173946099091072,0.9624100654517416,0.28713679999999997,0.6787648647979774
0.0385,1.76294375,1.0,2735.423225377904,0.3519263216054365,1.3169564529044253,0.9631140168216814,0.28709663750000003,0.6796511701602195
0.039,1.761975,1.0,2735.894348707671,0.35556150516533963,1.3165146753945052,0.9637934300127075,0.28705595,0.6805435595022673
0.0395,1.7609937500000001,1.0,2736.155705497936,0.3591762956729621,1.3160691574332175,0.9644494271755909,0.2870147375,0.6814422440033673
0.04,1.76,1.0,2736.220477849065,0.3627708078298022,1.3156197790744324,0.9650830661757259,0.286973,0.6823474332174952
0.0405,1.7589937500000001,1.0,2736.1018706557998,0.36634515633735804,1.3151664203720208,0.9656953449530485,0.2869307375,0.6832593350442815
0.041,1.757975,1.0,2735.8131070199165,0.3698994558971279,1.314708961379853,0.9662872055419993,0.28688795,0.6841781556990247
0.0415,1.75694375,1.0,2735.3649925228506,0.37343381623357674,1.3142473042291378,0.9668595388098971,0.2868446375,0.6851040554359684
0.042,1.7559,1.0,2734.767913156664,0.3769483500774696,1.3137813549616142,0.9674131876503063,0.28680079999999997,0.6860371851991501
0.0425,1.75484375,1.0,2734.034799767009,0.38044317730270605,1.3133109965813088,0.9679489485130396,0.2867564375,0.686977740501362
0.043000000000000003,1.753775,1.0,2733.172911656472,0.38391840536103355,1.3128361636454133,0.9684675773023128,0.28671155,0.6879258122309317
0.043500000000000004,1.75269375,1.0,2732.189513048264,0.3873741417041995,1.3123567907111189,0.9689697898190432,0.28666613750000003,0.6888814901041145
0.044,1.7516,1.0,2731.091871434569,0.39081049378395105,1.3118728123356171,0.9694562642846241,0.2866202,0.6898448626462785
0.0445,1.75049375,1.0,2729.8872560210234,0.3942275690520358,1.3113841630760994,0.9699276436817295,0.2865737375,0.6908160171728226
0.045,1.7493750000000001,1.0,2728.582936265367,0.39762547496020106,1.3108907774897574,0.9703845379270871,0.28652675,0.6917950397698156
0.0455,1.74824375,1.0,2727.1861805110484,0.40100431896019406,1.3103925901337825,0.9708275258898079,0.2864792375,0.6927820152743678
0.046,1.7471,1.0,2725.7042547165374,0.4043642085037622,1.3098895355653661,0.9712571572676382,0.2864312,0.6937770272547248
0.0465,1.7459437500000001,1.0,2724.144421278646,0.40770525104265287,1.3093815483416997,0.9716739543324155,0.28638263750000004,0.694780157990091
0.047,1.744775,1.0,2722.513937951163,0.41102755402861335,1.3088685630199748,0.9720784135549998,0.28633355,0.6957914884501781
0.0475,1.74359375,1.0,2720.8147373584,0.414331223327376,1.308350562586723,0.9724710103725234,0.28628393750000003,0.6968110030371536
0.048,1.7424,1.0,2719.0560887485194,0.4176163623386121,1.30782746321657,0.972852192164013,0.2862338,0.6978388166124082
0.0485,1.74119375,1.0,2717.2430953495123,0.42088307430366384,1.3072992189486063,0.973222387479338,0.2861831375,0.6988749682193128
0.049,1.739975,1.0,2715.3787798982826,0.42413146227770376,1.306765802736703,0.9735820057894284,0.28613195,0.6999194587732978
0.0495,1.73874375,1.0,2713.4655269050504,0.42736162920767123,1.3062271933300518,0.9739314376760136,0.2860802375,0.7009722769936195
0.05,1.737500680646042,1.0,2711.5430040138845,0.43057367756122833,1.3056833368381449,0.9742710532702451,0.2860280285871338,0.7020334744244173
0.0505,1.736254805709805,1.0,2710.0397203156217,0.43376770930660247,1.3051343949932412,0.9746012198221332,0.2859757018398118,0.7031026817350403
0.051000000000000004,1.7350089307735679,1.0,2709.054515959786,0.4369438248619584,1.3045807298435321,0.9749223006734647,0.28592337509248983,0.7041791422448384
0.051500000000000004,1.733763055837331,1.0,2708.5474306578444,0.4401021246454608,1.3040227034372087,0.9752346426577634,0.2858710483451679,0.7052621039372802
0.052000000000000005,1.732517180901094,1.0,2708.4801163965167,0.4432427087057518,1.303460664467248,0.9755385761134928,0.28581872159784594,0.7063508454116594
0.0525,1.731271305964857,1.0,2708.814630645552,0.44636567704226987,1.30289495898044,0.9758344164944331,0.285766394850524,0.7074446550517781
0.053,1.73002543102862,1.0,2709.519866073785,0.449471128117733,1.3023258714495614,0.9761224613410805,0.28571406810320205,0.7085429446819621
0.0535,1.728779556092383,1.0,2710.5673215497604,0.45255915978077443,1.3017536631618674,0.9764029937136549,0.28566174135588007,0.7096451746441146
0.054,1.727533681156146,1.0,2711.9285423468364,0.4556298698800277,1.3011785954046131,0.9766762844376323,0.28560941460855815,0.7107508088970165
0.0545,1.726287806219909,1.0,2713.5865739080577,0.45868335163769897,1.3006008248918117,0.976942585976541,0.2855570878612362,0.7118595155432472
0.055,1.725041931283672,1.0,2715.4984377697947,0.46171970972352516,1.300020745762369,0.9772021553829755,0.2855047611139142,0.7129705105618367
0.0555,1.723796056347435,1.0,2717.6467272911364,0.4647390386305038,1.2994385190180415,0.9774552241485737,0.2854524343665923,0.7140834608682461
0.056,1.7225501814111979,1.0,2720.015749010606,0.4677414321509091,1.2988542901006432,0.977702013161612,0.2854001076192703,0.7151980653330375
0.0565,1.721304306474961,1.0,2722.5898096390315,0.4707269840770154,1.2982682044519882,0.9779427342074261,0.28534778087194834,0.7163140249138615
0.057,1.720058431538724,1.0,2725.353209837349,0.473695788201097,1.2976804075138904,0.9781775904214601,0.2852954541246264,0.7174310426733552
0.0575,1.718812556602487,1.0,2728.2902384638005,0.47664793831542823,1.2970910447281632,0.9784067767162825,0.28524312737730445,0.7185488237956905
0.058,1.71756668166625,1.0,2731.3851672902974,0.47958352821228334,1.2965002615366206,0.9786304801842601,0.2851908006299825,0.7196670756017718
0.0585,1.7163208067300129,1.0,2734.622246187456,0.4825026516839367,1.2959082033810767,0.978848880477461,0.28513847388266056,0.7207855075630847
0.059000000000000004,1.715074931793776,1.0,2737.990022707565,0.4854053990550331,1.295314976461432,0.9790621477107979,0.2850861471353386,0.7219039052218874
0.059500000000000004,1.713829056857539,1.0,2741.475009487903,0.4882918646150268,1.2947207052602088,0.9792704466822022,0.2850338203880166,0.7230220213358582
0.06,1.712583181921302,1.0,2745.062827542206,0.4911621435924012,1.2941255220963441,0.9794739363032554,0.2849814936406947,0.7241395958276562
0.0605,1.711337306985065,1.0,2748.7465772064747,0.494016324632463,1.2935294912524828,0.9796727652016523,0.2849291668933727,0.7252564979753144
0.061,1.7100914320488279,1.0,2752.5193448185073,0.496854496380519,1.2929326770112701,0.9798670763462998,0.28487684014605075,0.7263725980198052
0.0615,1.708845557112591,1.0,2756.3742015557204,0.49967674748187607,1.2923351436553503,0.9800570073076588,0.28482451339872883,0.7274877671683856
0.062,1.707599682176354,1.0,2760.3042023639005,0.502483166581841,1.2917369554673686,0.9802426905042205,0.28477218665140686,0.7286018775976741
0.0625,1.706353807240117,1.0,2764.3023849786596,0.5052738423257205,1.2911381767299699,0.9804242534359549,0.2847198599040849,0.7297148024564695
0.063,1.7051079323038798,1.0,2768.3617690377864,0.5080488633588215,1.2905388717257986,0.9806018189055135,0.28466753315676296,0.7308264158683033
0.0635,1.7038620573676428,1.0,2772.4753552849475,0.5108083183264508,1.2899391047375002,0.9807755052279136,0.284615206409441,0.7319365929337274
0.064,1.702616182431406,1.0,2776.636296871242,0.5135522955155729,1.2893389384975855,0.9809454263251685,0.284562879662119,0.7330452125927629
0.0645,1.701370307495169,1.0,2780.8454387361353,0.5162808690823704,1.2887383662942153,0.9811116875364811,0.2845105529147971,0.7341522826203684
0.065,1.700124432558932,1.0,2785.088593204811,0.5189941468065289,1.288137516715712,0.981274399540583,0.2844582261674751,0.7352575620564501
0.0655,1.6988785576226948,1.0,2789.3632618324154,0.5216922114037911,1.2875364128606137,0.981433662144566,0.28440589942015315,0.7363610053547536
0.066,1.6976326826864578,1.0,2793.6669387549614,0.5243751455899001,1.2869350778274582,0.9815895716518608,0.28435357267283123,0.7374625673219085
0.0665,1.6963868077502209,1.0,2797.997110564358,0.5270430320805986,1.2863335347147837,0.981742221010935,0.28430124592550926,0.7385622031177862
0.067,1.695140932813984,1.0,2802.351256196596,0.5296959535916294,1.2857318066211278,0.9818916999566707,0.2842489191781873,0.739659868255824
0.0675,1.693895057877747,1.0,2806.726846830899,0.5323339928387355,1.2851299166450287,0.9820380951448284,0.28419659243086537,0.740755518603313
0.068,1.6926491829415098,1.0,2811.1213458005727,0.5349572325376596,1.2845278878850244,0.9821814902799871,0.2841442656835434,0.741849110381655
0.0685,1.6914033080052728,1.0,2815.5322085164134,0.5375657554041448,1.2839257434396527,0.9823219662373138,0.2840919389362214,0.7429406001665833
0.069,1.6901574330690359,1.0,2819.9568824015482,0.5401596441539336,1.2833235064074517,0.9824596011785044,0.2840396121888995,0.7440299448883503
0.0695,1.688911558132799,1.0,2824.392806837768,0.5427389815027691,1.2827211998869592,0.9825944706622118,0.2839872854415776,0.7451171018318816
0.07,1.687665683196562,1.0,2828.837413124263,0.5453038501663942,1.282118846976713,0.982726647749261,0.2839349586942556,0.746202028636894
0.07050000000000001,1.6864198082603248,1.0,2833.288124447981,0.5478543328605515,1.2815164707752515,0.9828562031029273,0.28388263194693364,0.7472846832979814
0.07100000000000001,1.6851739333240878,1.0,2837.7445798671965,0.5503904978443978,1.2809140745550764,0.9829832033089753,0.28383030519961167,0.7483650596838807
0.07150000000000001,1.6839280583878509,1.0,2842.205056908211,0.5529124298387647,1.2803116737063949,0.9831077143394021,0.28377797845228975,0.7494431300507641
0.07200000000000001,1.682682183451614,1.0,2846.665411811936,0.5554202293445588,1.2797093051220152,0.9832298019406353,0.2837256517049678,0.7505188285336716
0.0725,1.681436308515377,1.0,2851.125007359708,0.5579139720036024,1.2791069743933274,0.9833495269053595,0.28367332495764586,0.7515921455516661
