Time [s],Phi [rad],STIM [ ],Fsee [N],Gamma [ ],Lcerel [ ],q [ ],Lmtc [m],fisomrel [ ]
0.0,1.8,1.0,18.054407114454932,0.0003014801156742196,1.3793299832577512,0.005023580295343136,0.288653,0.5411631498777876
0.0005,1.79999375,1.0,18.45778690787495,0.005908998359483885,1.3792823270189538,0.013769507028879142,0.2886527375,0.5412784324333144
0.001,1.799975,1.0,22.01582114487052,0.011485062859508257,1.3788978943812051,0.03714364238175713,0.28865195,0.5422078623516873
0.0015,1.79994375,1.0,31.936921869998123,0.017029850047377417,1.3779727889160023,0.07269241330961229,0.2886506375,0.5444405957878163
0.002,1.7999,1.0,55.384106716638136,0.022543535362853535,1.3762522118509894,0.11718710992482534,0.2886488,0.5485786769044585
0.0025,1.79984375,1.0,100.09070033379444,0.028026293262950853,1.3737930441301105,0.16725674016858808,0.28864643749999996,0.5544603321426826
0.003,1.7997750000000001,1.0,164.7885839962895,0.033478297227304464,1.371071810596682,0.22004442153003653,0.28864354999999997,0.5609238245551665
0.0035,1.79969375,1.0,241.9912415549255,0.03889971975980399,1.368452635081523,0.27336003793137825,0.2886401375,0.5671003051705424
0.004,1.7996,1.0,326.038284703206,0.04429073239864062,1.3660354379046555,0.3255744285442995,0.2886362,0.5727616651720251
0.0045000000000000005,1.7994937500000001,1.0,413.9938711282219,0.04965150572175558,1.363812192548798,0.3755572939001502,0.2886317375,0.5779358691098097
0.005,1.799375,1.0,504.22960558918874,0.05498220933850181,1.3617562461425137,0.4226070807296695,0.28862675,0.5826926606405519
0.0055,1.79924375,1.0,595.6447428256113,0.06028301192753867,1.359844187310446,0.46635792006697147,0.2886212375,0.5870923496775657
0.006,1.7991000000000001,1.0,687.3734670296119,0.065554081205153,1.3580583136576312,0.5066869924630932,0.2886152,0.5911806250658591
0.006500000000000001,1.79894375,1.0,778.7030633087475,0.07079558392938226,1.356385070050694,0.5436357218280816,0.2886086375,0.5949926079239856
0.007,1.798775,1.0,869.0487681119647,0.07600768602968574,1.35481356368646,0.5773489024679473,0.28860155,0.5985565530105689
0.0075,1.79859375,1.0,957.9190968395059,0.08119055223296909,1.3533349472828147,0.6080307242261569,0.2885939375,0.6018954560862582
0.008,1.7984,1.0,1044.9402803802545,0.08634434681839141,1.351941262300731,0.6359138398836557,0.2885858,0.60502980832324
0.0085,1.79819375,1.0,1129.7918625601808,0.09146923265067111,1.35062591757812,0.6612396268242356,0.2885771375,0.6079766132732828
0.009000000000000001,1.797975,1.0,1212.2294702060697,0.09656537170128168,1.3493829333640703,0.6842450743134141,0.28856795,0.6107511666897882
0.0095,1.79774375,1.0,1292.091708877892,0.10163292572131809,1.348206598373138,0.7051551163731633,0.2885582375,0.6133678726065313
0.01,1.7975,1.0,1369.243918559023,0.1066720548539559,1.3470920255501655,0.724178939699704,0.288548,0.6158390491054951
0.0105,1.79724375,1.0,1443.59490117477,0.11168291817913796,1.3460347254256981,0.7415080178840849,0.2885372375,0.6181759209169697
0.011,1.796975,1.0,1515.0987905073996,0.11666567420374344,1.345030449913906,0.7573157623451916,0.28852595000000003,0.6203889943629067
0.0115,1.79669375,1.0,1583.7615737423616,0.12162048164581354,1.3440750159638777,0.7717580484205149,0.2885141375,0.6224884674408715
0.012,1.7964,1.0,1649.5723729966226,0.12654749656135486,1.3431650402013966,0.7849746352357447,0.28850180000000003,0.6244826377027228
0.0125,1.79609375,1.0,1712.5438600137206,0.13144687437039948,1.3422973450855,0.7970901970839389,0.2884889375,0.6263792332506956
0.013000000000000001,1.7957750000000001,1.0,1772.7223581718295,0.1363187702882994,1.3414687855367213,0.8082156667358207,0.28847555,0.6281858051788157
0.0135,1.79544375,1.0,1830.1725941184077,0.14116333896135724,1.3406763793950165,0.818449696557378,0.2884616375,0.6299094531961187
0.014,1.7951000000000001,1.0,1884.9575671160312,0.14598073401841025,1.339917482717161,0.8278800520292297,0.2884472,0.631556457089377
0.0145,1.79474375,1.0,1937.1318089845167,0.1507711069754624,1.3391898107869695,0.8365848341143075,0.2884322375,0.6331322457216193
0.015,1.794375,1.0,1986.7707629016936,0.15553460934851776,1.3384910788882567,0.8446334657623802,0.28841675,0.6346421859472704
0.0155,1.79399375,1.0,2033.954572106127,0.16027139159356144,1.3378191539482673,0.8520877570685861,0.2884007375,0.6360912602859594
0.016,1.7936,1.0,2078.7835513285745,0.16498160541917076,1.3371718675268742,0.8590027455201219,0.2883842,0.637484476238648
0.0165,1.7931937500000001,1.0,2121.3315517744245,0.1696653992057092,1.3365474831278548,0.8654276354647846,0.2883671375,0.6388258660724053
0.017,1.792775,1.0,2161.670531320413,0.1743229201339117,1.335944410626661,0.8714064003636502,0.28834955,0.6401191102318413
0.0175,1.7923437500000001,1.0,2199.8833147582604,0.17895431538451312,1.3353610598987455,0.8769783585429538,0.2883314375,0.6413678555599172
0.018000000000000002,1.7919,1.0,2236.061639820836,0.18355973201576367,1.3347958511796982,0.8821787231635633,0.2883128,0.6425756952578487
0.0185,1.79144375,1.0,2270.287640418642,0.1881393153679887,1.3342473905878778,0.8870391257003954,0.2882936375,0.6437457968277891
0.019,1.790975,1.0,2302.659297484401,0.1926932126483179,1.333714203724888,0.8915879640548913,0.28827395,0.6448814739549236
0.0195,1.79049375,1.0,2333.2409225021947,0.1972215663148828,1.3331952185384155,0.8958508860865242,0.2882537375,0.6459851605329641
0.02,1.79,1.0,2362.102411775771,0.20172451882581494,1.3326893629761465,0.899851006046686,0.288233,0.6470592722019319
0.0205,1.78949375,1.0,2389.318787428923,0.20620221263924585,1.3321955649857675,0.9036091889554576,0.2882117375,0.6481062072824831
0.021,1.788975,1.0,2414.9677918239754,0.21065478989080744,1.3317127715718857,0.9071443040670764,0.28818995000000003,0.649128307321741
0.021500000000000002,1.78844375,1.0,2439.118939792799,0.21508239103302054,1.331240049667304,0.9104734639576798,0.2881676375,0.6501276450778124
0.022,1.7879,1.0,2461.858064065095,0.21948515909282706,1.3307763448304568,0.9136121665677125,0.2881448,0.6511065360350853
0.0225,1.78734375,1.0,2483.240218476505,0.2238632315246131,1.330320929674882,0.9165745531867127,0.28812143749999997,0.6520665925341892
0.023,1.786775,1.0,2503.32311186926,0.22821674578276466,1.3298730768141178,0.9193734888665764,0.28809755,0.6530094170701121
0.0235,1.78619375,1.0,2522.1668892269063,0.23254583932166778,1.3294320588617028,0.9220206952527773,0.28807313749999996,0.653936602659884
0.024,1.7856,1.0,2539.8339245399193,0.23685064959570848,1.3289971484311751,0.924526868004471,0.2880482,0.6548497331765157
0.0245,1.78499375,1.0,2556.380435829188,0.24113131217828562,1.328567695055406,0.9269017933990261,0.2880227375,0.6557502224680414
0.025,1.784375,1.0,2571.8687981018174,0.24538796486936998,1.3281430070075033,0.9291544205149519,0.28799675,0.6566395629849286
0.025500000000000002,1.78374375,1.0,2586.3537605903934,0.24962074316005078,1.3277224791283464,0.9312929631359155,0.2879702375,0.6575190582715899
0.026000000000000002,1.7831000000000001,1.0,2599.878045582992,0.2538297791639289,1.327305631249927,0.9333249766257127,0.2879432,0.6583897441074198
0.0265,1.78244375,1.0,2612.485511216076,0.2580152049946051,1.3268919832042365,0.9352574021860509,0.2879156375,0.6592526508826567
0.027,1.781775,1.0,2624.221054754275,0.2621771527656803,1.326481054823267,0.9370966250160486,0.28788755,0.660108803703721
0.0275,1.7810937500000001,1.0,2635.1305209824445,0.2663157545907553,1.32607236593901,0.9388485262562016,0.2878589375,0.6609592224838534
0.028,1.7804,1.0,2645.258342180167,0.2704311417248824,1.3256654573754483,0.9405185321901495,0.2878298,0.6618048784197708
0.0285,1.77969375,1.0,2654.6428749369647,0.27452344331392586,1.3252599329926167,0.9421116610953578,0.2878001375,0.6626466071098167
0.029,1.778975,1.0,2663.3358143349706,0.2785927940989438,1.324855279851623,0.9436325373495654,0.28776995,0.6634854819914657
0.029500000000000002,1.7782437500000001,1.0,2671.3672282920443,0.28263932046490514,1.3244511898060713,0.9450854655448856,0.2877392375,0.6643221474280123
0.03,1.7775,1.0,2678.767651596822,0.2866631487967789,1.3240473547095652,0.9464744334431809,0.287708,0.6651572445973635
0.0305,1.77674375,1.0,2685.5680445467215,0.2906644054795342,1.3236434664157088,0.9478031393150627,0.2876762375,0.6659914115000765
0.031,1.775975,1.0,2691.7997536901603,0.2946432168981399,1.3232392167781055,0.9490750165970845,0.28764395,0.6668252829613421
0.0315,1.7751937500000001,1.0,2697.4944746746614,0.29859970943756503,1.3228342976503595,0.950293256159259,0.2876111375,0.6676594906269103
0.032,1.7744,1.0,2702.684217199984,0.3025340094827786,1.3224284008860745,0.9514608264403404,0.2875778,0.6684946629529618
0.0325,1.77359375,1.0,2707.390122644191,0.30644623568238927,1.3220213200958497,0.9525805015535134,0.2875439375,0.669331216210862
0.033,1.772775,1.0,2711.654331814237,0.3103365229140847,1.3216126593485047,0.9536548496692424,0.28750955,0.6701699532741795
0.0335,1.7719437500000002,1.0,2715.498096605806,0.31420499251033585,1.321202215388457,0.9546862851800543,0.2874746375,0.671011278155444
0.034,1.7711000000000001,1.0,2718.9408040130556,0.3180517643983811,1.3207898034555174,0.9556770643337471,0.2874392,0.671855554843656
0.0345,1.7702437500000001,1.0,2722.001985448798,0.32187695850545883,1.3203752387894965,0.9566292958821911,0.2874032375,0.6727031453143275
0.035,1.7693750000000001,1.0,2724.7013020595837,0.3256806947588073,1.3199583366302046,0.9575449524469796,0.28736675,0.6735544095052064
0.035500000000000004,1.76849375,1.0,2727.058530797634,0.3294630930856648,1.3195389122174526,0.9584258808833533,0.2873297375,0.6744097052898188
0.036000000000000004,1.7676,1.0,2729.093551249863,0.3332242734132697,1.319116780791051,0.9592738117410959,0.2872922,0.6752693884488401
0.0365,1.76669375,1.0,2730.8263332234565,0.3369643556688603,1.3186917575908106,0.960090367910414,0.2872541375,0.6761338126392857
0.037,1.765775,1.0,2732.276925088334,0.34068345977967496,1.318263657856542,0.9608770725313832,0.28721555,0.6770033293615241
0.0375,1.76484375,1.0,2733.4585094152953,0.3443816982342343,1.3178323598049122,0.9616353608071886,0.2871764375,0.6778781602705384
0.038,1.7639,1.0,2734.3954174302503,0.3480591973374178,1.3173976408854002,0.9623665750013125,0.28713679999999997,0.6787587294655055
0.0385,1.76294375,1.0,2735.100949921312,0.35171607229266444,1.3169593791794298,0.9630719849760812,0.28709663750000003,0.6796452549432093
0.039,1.761975,1.0,2735.586728972759,0.3553524364379016,1.3165174683506655,0.9637527871937551,0.28705595,0.6805379216482317
0.0395,1.7609937500000001,1.0,2735.864408295758,0.35896840311105666,1.3160718020627713,0.9644101087467684,0.2870147375,0.6814369130765061
0.04,1.76,1.0,2735.9456686469257,0.3625640856500571,1.3156222739794114,0.9650450121177226,0.286973,0.6823424112502083
0.0405,1.7589937500000001,1.0,2735.842213499168,0.3661395973928303,1.3151687777642502,0.9656584995641031,0.2869307375,0.6832545966919281
0.041,1.757975,1.0,2735.565764961913,0.36969505167730365,1.3147112070809517,0.9662515171609474,0.28688795,0.6841736483981198
0.0415,1.75694375,1.0,2735.128059952998,0.37323056184140463,1.3142494555931798,0.9668249585314492,0.2868446375,0.6850997438118307
0.042,1.7559,1.0,2734.5408466207946,0.3767462412230606,1.3137834169645994,0.967379668292574,0.28680079999999997,0.6860330587947077
0.0425,1.75484375,1.0,2733.8096829773126,0.380242187103118,1.313313041152259,0.9679164472749066,0.2867564375,0.6869736551145498
0.043000000000000003,1.753775,1.0,2732.951677782496,0.38371853080512147,1.3128381732667682,0.968436050285988,0.28671155,0.687921802765024
0.043500000000000004,1.75269375,1.0,2731.9753059952723,0.3871753837396195,1.3123587368518714,0.9689391951431457,0.28666613750000003,0.6888776132407632
0.044,1.7516,1.0,2730.886908823924,0.3906128517551143,1.3118746748602095,0.9694265626258658,0.2866202,0.689841158102164
0.0445,1.75049375,1.0,2729.6928296532737,0.3940310407001081,1.3113859302444235,0.9698987981278521,0.2865737375,0.690812507799155
0.045,1.7493750000000001,1.0,2728.399412790702,0.3974300564231029,1.310892445957154,0.970356513839801,0.28652675,0.6917917316542668
0.0455,1.74824375,1.0,2727.0130022849153,0.400810004772601,1.3103941649510418,0.9708002907769824,0.2864792375,0.6927788978454894
0.046,1.7471,1.0,2725.539940816834,0.4041709915971044,1.3098910301787274,0.971230680664055,0.2864312,0.6937740733889255
0.0465,1.7459437500000001,1.0,2723.986568662277,0.40751312274511536,1.309382984592852,0.971648207688452,0.28638263750000004,0.6947773241212345
0.047,1.744775,1.0,2722.3592227272557,0.41083650406513605,1.308869971146056,0.97205337013266,0.28633355,0.6957887146818702
0.0475,1.74359375,1.0,2720.6642356553975,0.4141412414056685,1.3083519327909805,0.9724466418948363,0.28628393750000003,0.6968083084951104
0.048,1.7424,1.0,2718.907935006828,0.417427440615215,1.307828812480266,0.9728284739063683,0.2862338,0.6978361677518791
0.0485,1.74119375,1.0,2717.0966425104934,0.4206952075422775,1.3073005531665531,0.9731992954542635,0.2861831375,0.6988723533913599
0.049,1.739975,1.0,2715.234922814839,0.4239446405387131,1.3067671137562638,0.9735595156052596,0.28613195,0.6999168938700624
0.0495,1.73874375,1.0,2713.32381895654,0.42717583131372383,1.3062284852187678,0.973909525576765,0.2860802375,0.7009697539560553
0.05,1.7375,1.0,2711.373396542162,0.4303889129025771,1.3056845762379923,0.9742496976624554,0.286028,0.7020310581957879
0.0505,1.73624375,1.0,2709.3861870842397,0.43358398255296476,1.3051353641117969,0.9745803873150859,0.2859752375,0.7031007958174782
0.051000000000000004,1.734975,1.0,2707.364719259625,0.4367611375125786,1.3045808261380414,0.9749019337339281,0.28592195,0.7041789551947328
0.051500000000000004,1.73369375,1.0,2705.311518742751,0.4399204750291105,1.3040209396145852,0.9752146607488166,0.2858681375,0.7052655238388544
0.052000000000000005,1.7324,1.0,2703.2291080505615,0.44306209235025223,1.3034556818392882,0.9755188776486052,0.2858138,0.706360488391112
0.0525,1.73109375,1.0,2701.120006399219,0.4461860867236956,1.30288503011001,0.975814879957979,0.28575893750000003,0.7074638346149822
0.053,1.729775,1.0,2698.9867295716886,0.4492925553971324,1.3023089617246097,0.9761029501662635,0.28570355000000003,0.708575547388356
0.0535,1.72844375,1.0,2696.831789797105,0.45238159561825453,1.3017274539809478,0.9763833584115854,0.2856476375,0.7096956106957113
0.054,1.7271,1.0,2694.6576956415365,0.4554533046347537,1.3011404841768837,0.9766563631234741,0.2855912,0.7108240076202554
0.0545,1.7257437500000001,1.0,2692.466951910109,0.4585077796943218,1.3005480296102765,0.9769222116267626,0.2855342375,0.7119607203360343
0.055,1.724375,1.0,2690.2620595602316,0.46154511804465065,1.2999500675789866,0.9771811407094225,0.28547675,0.7131057301000046
0.0555,1.72299375,1.0,2688.04551562716,0.46456541693343195,1.299346575380873,0.9774333771567693,0.2854187375,0.7142590172440794
0.056,1.7216,1.0,2685.8198131597524,0.46756877360835764,1.298737530313796,0.9776791382542938,0.2853602,0.7154205611671358
0.0565,1.72019375,1.0,2683.587441168886,0.4705552853171195,1.2981229096756146,0.9779186322612025,0.28530113749999997,0.716590340326994
0.057,1.718775,1.0,2681.351196724806,0.47352504918423816,1.297502687901608,0.978152058681216,0.28524155,0.7177683376636428
0.0575,1.71734375,1.0,2679.1147321940734,0.47647815734676746,1.2968768315374957,0.9783796079762553,0.2851814375,0.7189545500518413
0.058,1.7159,1.0,2676.8761955347272,0.4794147011200764,1.2962453575955406,0.9786014656671335,0.2851208,0.7201488778797522
0.0585,1.71444375,1.0,2674.635561662858,0.48233477301767536,1.295608266340681,0.9788178090006229,0.2850596375,0.7213512527776054
0.059000000000000004,1.7129750000000001,1.0,2672.3926415913684,0.4852384654889766,1.294965559543996,0.9790288082432809,0.28499795,0.7225616029429126
0.059500000000000004,1.71149375,1.0,2670.153468123464,0.48812587064787627,1.2943171818008108,0.9792346237788597,0.2849357375,0.7237799633189684
0.06,1.71,1.0,2667.9199441718993,0.49099707995537395,1.2936631155834428,0.9794354116978339,0.284873,0.7250062963833721
0.0605,1.7084937500000001,1.0,2665.6856013745382,0.49385218386615626,1.2930034203320115,0.9796313260750833,0.2848097375,0.7262404198780057
0.061,1.7069792935382373,1.0,2663.6549105014333,0.4966912727726876,1.2923381536544944,0.9798225149517593,0.28474613032860596,0.7274821553503865
0.0615,1.7054646539656384,1.0,2662.194129490271,0.4995144367385131,1.2916675657828878,0.9800091308645577,0.2846825154665568,0.7287309664231022
0.062,1.7039500143930395,1.0,2661.2630521921214,0.5023217651912305,1.2909921052136035,0.9801913309465874,0.2846189006045077,0.7299859524979435
0.0625,1.7024353748204408,1.0,2660.8211219437608,0.5051133465725203,1.2903121427600932,0.9803692624050967,0.28455528574245853,0.731246364049883
0.063,1.7009207352478417,1.0,2660.8299121920063,0.5078892688400024,1.2896280310608155,0.9805430660676786,0.28449167088040933,0.732511491147434
0.0635,1.699406095675243,1.0,2661.2545772625867,0.510649619232279,1.2889400909047612,0.9807128759563659,0.2844280560183602,0.7337806883544271
0.064,1.6978914561026441,1.0,2662.0477648358074,0.5133944885760132,1.2882487590398688,0.9808788273951341,0.28436444115631104,0.7350531023978816
0.0645,1.6963768165300452,1.0,2663.185111523446,0.5161239621941418,1.2875542611755126,0.9810410398853254,0.2843008262942619,0.7363282744891744
0.065,1.6948621769574463,1.0,2664.642302937958,0.5188381254096013,1.2868568230210664,0.9811996286813089,0.28423721143221276,0.7376057496373105
0.0655,1.6933475373848474,1.0,2666.3950584133495,0.5215370635453285,1.2861566702859049,0.9813547049781973,0.2841735965701636,0.7388850766928697
0.066,1.6918328978122485,1.0,2668.4191168560137,0.5242208619242599,1.2854540286794018,0.981506376090028,0.2841099817081144,0.7401658083887093
0.0665,1.6903182582396497,1.0,2670.690223725005,0.5268896058693321,1.2847491239109314,0.9816547456189504,0.28404636684606527,0.741447501377414
0.067,1.6888036186670508,1.0,2673.1863127760057,0.5295433796798533,1.284042161541625,0.981799912571628,0.2839827519840161,0.7427297527639074
0.0675,1.6872889790944519,1.0,2675.891799223557,0.5321822655791516,1.2833332875241743,0.9819419695848288,0.283919137121967,0.7440122709845141
0.068,1.685774339521853,1.0,2678.776886508803,0.534806353393796,1.2826227781477912,0.9820810128788748,0.28385552225991784,0.7452945321174247
0.0685,1.684259699949254,1.0,2681.8301103321464,0.537415724163514,1.2819107411817392,0.9822171269165219,0.28379190739786864,0.7465763201733497
0.069,1.6827450603766552,1.0,2685.0399959039023,0.5400104589280332,1.2811972843952817,0.9823503933423107,0.28372829253581955,0.7478574210737216
0.0695,1.6812304208040563,1.0,2688.3950544226886,0.5425906387270811,1.2804825155576818,0.9824808910986653,0.28366467767377035,0.7491376226608253
0.07,1.6797157812314574,1.0,2691.883779812171,0.5451563446003853,1.279766542438203,0.9826086965364813,0.2836010628117212,0.7504167147071849
0.07050000000000001,1.6782011416588585,1.0,2695.4946457143974,0.5477076575876735,1.2790494728061088,0.9827338835204923,0.28353744794967206,0.7516944889242115
0.07100000000000001,1.6766865020862596,1.0,2699.2161027412308,0.5502446587286731,1.2783314144306626,0.982856523529699,0.2834738330876229,0.7529707389701109
0.07150000000000001,1.6751718625136607,1.0,2703.036575982921,0.5527674290631118,1.2776124750811273,0.9829766857531207,0.2834102182255738,0.7542452604570486
0.07200000000000001,1.6736572229410618,1.0,2706.946275887612,0.5552760477815945,1.276892745977737,0.9830944363221923,0.2833466033635246,0.755517880181468
0.0725,1.6721425833684629,1.0,2710.9389446706414,0.5577705923555119,1.2761722859060922,0.9832098377209075,0.28328298850147543,0.7567884837289658
0.073,1.670627943795864,1.0,2715.0003640625478,0.5602511494378302,1.2754512260635997,0.9833229542384099,0.2832193736394263,0.7580568305486597
0.0735,1.669113304223265,1.0,2719.1257937582213,0.5627177953423658,1.2747296109652335,0.9834338437267423,0.28315575877737714,0.7593228343714651
0.074,1.6675986646506662,1.0,2723.3104807794994,0.5651706063829354,1.274007485125967,0.9835425622424885,0.283092143915328,0.7605864097415272
