Time [s],Phi [rad],STIM [ ],Fsee [N],Gamma [ ],Lcerel [ ],q [ ],Lmtc [m],fisomrel [ ]
0.0,1.8,1.0,18.215696268258906,0.0005074599891635609,1.3793119972731982,0.005066529207776856,0.288653,0.5412066604739072
0.0005,1.79999375,1.0,18.68120864842521,0.00611382284877845,1.379257705508362,0.014379088882656245,0.2886527375,0.5413379872848617
0.001,1.799975,1.0,22.39201914532593,0.011688738445381078,1.378859980964119,0.03824781936462552,0.28865195,0.5422994732903932
0.0015,1.79994375,1.0,32.65545674431588,0.017232383174165592,1.377912745373565,0.07418360652964617,0.2886506375,0.5445853216971146
0.002,1.7999,1.0,56.78011724590335,0.02274493243888902,1.3761636855533006,0.11894008368165022,0.2886488,0.5487910767568801
0.0025,1.79984375,1.0,102.30936778753981,0.028226560660921263,1.37368830817806,0.1691555063047996,0.28864643749999996,0.5547099755453422
0.003,1.7997750000000001,1.0,167.5954957813349,0.03367744128317576,1.3709684119381698,0.22199783548803673,0.28864354999999997,0.5611684864288022
0.0035,1.79969375,1.0,245.11809714657198,0.03909774677483609,1.368357487181063,0.27529910439155225,0.2886401375,0.567323857262924
0.004,1.7996,1.0,329.33904562953893,0.04448764863852594,1.365948847032283,0.3274492544253686,0.2886362,0.5729637798333636
0.0045000000000000005,1.7994937500000001,1.0,417.38673924302105,0.04984731738640366,1.363733166491938,0.3773352138875099,0.2886317375,0.5781192078882271
0.005,1.799375,1.0,507.69121504200314,0.05517692270563487,1.361683164581808,0.42426902005142275,0.28862675,0.5828612514607425
0.0055,1.79924375,1.0,599.1203269930253,0.060476633087314526,1.3597766584553022,0.467895864629833,0.2886212375,0.5872473087714823
0.006,1.7991000000000001,1.0,690.8466748095246,0.06574661631065949,1.3579954826261416,0.5080998082676054,0.2886152,0.5913240893471811
0.006500000000000001,1.79894375,1.0,782.1491079864651,0.07098703907967269,1.3563264909557045,0.5449271977674163,0.2886086375,0.5951257392959002
0.007,1.798775,1.0,872.4497896610105,0.07619806721106744,1.3547588305410387,0.5785256528211352,0.28860155,0.5986803958965389
0.0075,1.79859375,1.0,961.268630842211,0.08137986567474986,1.3532835987305833,0.6091008136850621,0.2885939375,0.6020111571044904
0.008,1.7984,1.0,1048.204664624313,0.08653259813549323,1.3518933436998226,0.6368862291562263,0.2885858,0.6051373554201483
0.0085,1.79819375,1.0,1132.9733044955485,0.09165642800829053,1.350581000991805,0.6621230012985128,0.2885771375,0.6080770463762248
0.009000000000000001,1.797975,1.0,1215.333829240487,0.09675151744161214,1.3493406188725061,0.6850478059251057,0.28856795,0.6108454464469848
0.0095,1.79774375,1.0,1295.0943274116305,0.10181802716115684,1.3481669533404113,0.7058852965640335,0.2885582375,0.6134559075307905
0.01,1.7975,1.0,1372.1355745176038,0.10685611749233845,1.3470549348973722,0.7248439149316719,0.288548,0.6159211484801683
0.0105,1.79724375,1.0,1446.3969324936936,0.11186594869083498,1.3459997206657026,0.7421142926785668,0.2885372375,0.6182531674083411
0.011,1.796975,1.0,1517.8186272007988,0.11684767877841423,1.344997282244538,0.7578693050368005,0.28852595000000003,0.6204619746297277
0.0115,1.79669375,1.0,1586.3703782431903,0.12180146490316901,1.3440438984223362,0.7722644153042845,0.2885141375,0.6225567473162029
0.012,1.7964,1.0,1652.0642444945545,0.12672746392096448,1.3431359153704496,0.7854386677250824,0.28850180000000003,0.62454637622093
0.0125,1.79609375,1.0,1714.9410450655935,0.13162583238164316,1.3422698461306501,0.7975160778410969,0.2884889375,0.626439261574302
0.013000000000000001,1.7957750000000001,1.0,1775.0388420858355,0.13649672527223022,1.3414426666598604,0.8086071634707341,0.28847555,0.6282426829853426
0.0135,1.79544375,1.0,1832.394435965448,0.14134029593369307,1.340651723387871,0.8188102816804738,0.2884616375,0.6299630208956424
0.014,1.7951000000000001,1.0,1887.071895606537,0.14615669770699918,1.3398943627444713,0.8282128058314177,0.2884472,0.6316065758116384
0.0145,1.79474375,1.0,1939.139200178331,0.15094608285982658,1.3391681573251497,0.8368924439597802,0.2884322375,0.6331790850021126
0.015,1.794375,1.0,1988.699713304367,0.1557086044806704,1.3384705327983784,0.8449182247437551,0.28841675,0.6346865383519831
0.0155,1.79399375,1.0,2035.8161177128788,0.1604444121810902,1.3377995568803374,0.8523517713260321,0.2884007375,0.6361334801385451
0.016,1.7936,1.0,2080.5597504714788,0.16515365518771793,1.3371533713632693,0.8592479866636519,0.2883842,0.637524248017798
0.0165,1.7931937500000001,1.0,2123.0160869691863,0.16983648272718546,1.336530118039417,0.8656558267746707,0.2883671375,0.6388631366466075
0.017,1.792775,1.0,2163.2682917132233,0.17449304290096385,1.3359280942376872,0.8716190497666244,0.28834955,0.6401540672890165
0.0175,1.7923437500000001,1.0,2201.4192026304986,0.17912348463305447,1.335345512015042,0.8771767616998577,0.2883314375,0.6414011083270708
0.018000000000000002,1.7919,1.0,2237.5425367356747,0.18372795349222895,1.3347809816089147,0.8823640914279465,0.2883128,0.6426074437275878
0.0185,1.79144375,1.0,2271.712109981425,0.18830659438791925,1.334233195698834,0.8872125688180109,0.2882936375,0.6437760551433193
0.019,1.790975,1.0,2304.00916839669,0.19285955222955742,1.3337008469643288,0.8917505199072344,0.28827395,0.6449099003038572
0.0195,1.79049375,1.0,2334.5146899617143,0.19738697098294875,1.3331826975540009,0.8960034502590742,0.2882537375,0.6460117667431097
0.02,1.79,1.0,2363.3161407994717,0.20188899537118266,1.3326775051801139,0.8999943481772739,0.288233,0.6470844309538755
0.0205,1.78949375,1.0,2390.48861565338,0.20636576799879464,1.3321842012984355,0.9037440052890464,0.2882117375,0.648130281912374
0.021,1.788975,1.0,2416.095652761669,0.21081742921710436,1.3317018738288313,0.9072712543660499,0.28818995000000003,0.6491513612832975
0.021500000000000002,1.78844375,1.0,2440.2047035455967,0.21524411937743154,1.3312296106911667,0.9105931506588394,0.2881676375,0.650149697070721
0.022,1.7879,1.0,2462.8868057072527,0.2196459788310959,1.3307664998053068,0.913725164183786,0.2881448,0.6511273042300574
0.0225,1.78734375,1.0,2484.209196347972,0.2240231462498429,1.3303116965329727,0.9166813614045015,0.28812143749999997,0.6520860431553233
0.023,1.786775,1.0,2504.2435579353964,0.22837576249712527,1.3298643413224536,0.919474539168348,0.28809755,0.6530277944002036
0.0235,1.78619375,1.0,2523.0506188542304,0.23270396570996976,1.3294237031808125,0.9221163807594418,0.28807313749999996,0.653954157470153
0.024,1.7856,1.0,2540.6823529444273,0.23700789116673632,1.328989154440199,0.9246175646470186,0.2880482,0.6548665059334275
0.0245,1.78499375,1.0,2557.1926097764067,0.24128767414578478,1.3285600674327618,0.9269878488575582,0.2880227375,0.6557662056396015
0.025,1.784375,1.0,2572.636955715928,0.24554344992547514,1.3281358144906503,0.9292361629384763,0.28799675,0.6566546149507575
0.025500000000000002,1.78374375,1.0,2587.0725237246284,0.24977535378416724,1.3277157679460134,0.9313706896144505,0.2879702375,0.6575330849475596
0.026000000000000002,1.7831000000000001,1.0,2600.5465611476,0.2539835180025894,1.327299405459496,0.9333989531785125,0.2879432,0.6584027397508305
0.0265,1.78244375,1.0,2613.1155202170767,0.25816807952356285,1.3268861301707797,0.935327857088531,0.2879156375,0.6592648530037375
0.027,1.781775,1.0,2624.827864048508,0.2623291718189096,1.326475429929942,0.9371637639698591,0.28788755,0.6601205154721288
0.0275,1.7810937500000001,1.0,2635.720438504721,0.26646692439937975,1.326066908947166,0.938912550393004,0.2878589375,0.6609705704389051
0.028,1.7804,1.0,2645.8308647679605,0.27058146677572364,1.3256601714326357,0.9405796357178008,0.2878298,0.6618158569593953
0.0285,1.77969375,1.0,2655.197472415684,0.27467292845869146,1.3252548215965343,0.9421700236605397,0.2878001375,0.6626572099113732
0.029,1.778975,1.0,2663.8592359685913,0.27874143895903347,1.3248504636490457,0.9436883395810007,0.28776995,0.6634954600350768
0.029500000000000002,1.7782437500000001,1.0,2671.8557149122844,0.2827871277874999,1.3244467018003536,0.9451388639767063,0.2877392375,0.6643314339632411
0.03,1.7775,1.0,2679.2222124658433,0.2868101226521568,1.3240431841581553,0.9465255678414104,0.287708,0.6651658635224613
0.0305,1.77674375,1.0,2685.991120531401,0.29081055107147913,1.3236395896409574,0.9478521380788815,0.2876762375,0.6659994133196196
0.031,1.775975,1.0,2692.205911911735,0.2947885442701617,1.3232354993303745,0.9491219864426181,0.28764395,0.6668329463413375
0.0315,1.7751937500000001,1.0,2697.891264137127,0.2987442256642261,1.322830669784201,0.9503383033404681,0.2876111375,0.667666959970294
0.032,1.7744,1.0,2703.072132535704,0.30267771866969395,1.3224248575602309,0.9515040568050155,0.2875778,0.6685019490665334
0.0325,1.77359375,1.0,2707.773724410813,0.306589146702587,1.3220178192162588,0.9526220107144205,0.2875439375,0.6693384059540971
0.033,1.772775,1.0,2712.0214745322464,0.31047863317892693,1.321609311310079,0.9536947413108271,0.28750955,0.6701768204038796
0.0335,1.7719437500000002,1.0,2715.841021941734,0.3143463015147353,1.3211990903994861,0.9547246521935827,0.2874746375,0.6710176796127001
0.034,1.7711000000000001,1.0,2719.2581880719513,0.3181922751260338,1.3207869130422742,0.955713987944303,0.2874392,0.6718614681785982
0.0345,1.7702437500000001,1.0,2722.292922489203,0.32201667429836217,1.3203725907127262,0.9566648517435079,0.2874032375,0.6727085558673982
0.035,1.7693750000000001,1.0,2724.970307046563,0.3258196230780217,1.3199558893846919,0.9575792071063819,0.28736675,0.6735594032144478
0.035500000000000004,1.76849375,1.0,2727.3144569749234,0.3296012435474681,1.3195365849587166,0.9584588930077202,0.2873297375,0.67441444793661
0.036000000000000004,1.7676,1.0,2729.3417408113783,0.3333616531850917,1.3191145247250298,0.9593056389981708,0.2872922,0.6752739799410663
0.0365,1.76669375,1.0,2731.0686095919837,0.33710096946928275,1.31868955597386,0.9601210670668275,0.2872541375,0.676138287350714
0.037,1.765775,1.0,2732.511587327198,0.3408193098784319,1.3182615259954371,0.9609066995405796,0.28721555,0.6770076564765808
0.0375,1.76484375,1.0,2733.6872619948213,0.3445167918909293,1.3178302820799899,0.9616639663185397,0.2871764375,0.6778823717887567
0.038,1.7639,1.0,2734.6122770497545,0.3481935329851654,1.3173956715177475,0.9623942115042562,0.28713679999999997,0.6787627158858359
0.0385,1.76294375,1.0,2735.3033234511004,0.35184965063953066,1.3169575415989394,0.9630986994919015,0.28709663750000003,0.6796489694628718
0.039,1.761975,1.0,2735.765037450018,0.3554852535504617,1.3165158494244775,0.9637786290069691,0.28705595,0.6805411896144817
0.0395,1.7609937500000001,1.0,2736.0236641327297,0.35910046813705365,1.3160703561931528,0.9644351148298119,0.2870147375,0.6814398276018288
0.04,1.76,1.0,2736.09422884819,0.36269540987285553,1.3156209252332325,0.9650692149724659,0.286973,0.6823451261317548
0.0405,1.7589937500000001,1.0,2735.986053917556,0.3662701896329734,1.3151674718427129,0.9656819312510693,0.2869307375,0.6832572215952577
0.041,1.757975,1.0,2735.7084790646436,0.3698249182925133,1.3147099113195908,0.9662742093504924,0.28688795,0.684176249098263
0.0415,1.75694375,1.0,2735.270858447827,0.37335970672658125,1.3142481589618624,0.9668469425499526,0.2868446375,0.6851023424396685
0.042,1.7559,1.0,2734.682557851491,0.37687466581028334,1.3137821300675243,0.9674009751642203,0.28680079999999997,0.6860356340889262
0.0425,1.75484375,1.0,2733.9529520361957,0.3803699064187256,1.3133117399345726,0.9679371057248224,0.2867564375,0.686976255163172
0.043000000000000003,1.753775,1.0,2733.0914222477104,0.3838455394270141,1.3128369038610042,0.9684560899233473,0.28671155,0.6879243354038931
0.043500000000000004,1.75269375,1.0,2732.107353885803,0.38730167571025487,1.3123575371448148,0.9689586433368591,0.28666613750000003,0.6888800031531429
0.044,1.7516,1.0,2731.0101343311153,0.390738426143554,1.3118735550840017,0.9694454439535833,0.2866202,0.6898433853292926
0.0445,1.75049375,1.0,2729.8069155030507,0.39415589636073056,1.3113848932946224,0.9699171353203636,0.2865737375,0.6908145670532418
0.045,1.7493750000000001,1.0,2728.505703798855,0.3975541971497457,1.3108914796266236,0.9703743280403727,0.28652675,0.6917936476261757
0.0455,1.74824375,1.0,2727.1156008418407,0.4009334424039041,1.310393231952551,0.9708176012949575,0.2864792375,0.6927807447641895
0.046,1.7471,1.0,2725.641820761369,0.40429373616342806,1.3098901034646844,0.971247506315459,0.2864312,0.6937759048936455
0.0465,1.7459437500000001,1.0,2724.089576172039,0.40763518246854,1.3093820473553028,0.9716645668372088,0.28638263750000004,0.6947791733872486
0.047,1.744775,1.0,2722.46407740477,0.41095788535946237,1.308869016816686,0.9720692807285665,0.28633355,0.6957905945494058
0.0475,1.74359375,1.0,2720.7705317865266,0.4142619488764174,1.3083509650411138,0.9724621215085824,0.28628393750000003,0.6968102116014472
0.048,1.7424,1.0,2719.014142968394,0.4175474770596275,1.3078278452208651,0.9728435397618835,0.2862338,0.6978380666667063
0.0485,1.74119375,1.0,2717.2001103025545,0.4208145739493151,1.3072996105482197,0.9732139644586282,0.2861831375,0.6988742007554607
0.049,1.739975,1.0,2715.3336282673163,0.42406334358570247,1.306766214215457,0.9735738041867206,0.28613195,0.6999186537497333
0.0495,1.73874375,1.0,2713.4198859413796,0.427293890009012,1.3062276094148566,0.9739234483028687,0.2860802375,0.700971464387953
0.05,1.7375,1.0,2711.4638329887453,0.4305063138798698,1.3056837514685133,0.97426326775911,0.286028,0.702032666097373
0.0505,1.73624375,1.0,2709.4691069172222,0.4337006988364288,1.3051346076151318,0.974593615235434,0.2859752375,0.7031022679705343
0.051000000000000004,1.734975,1.0,2707.441397665012,0.4368771807131561,1.304580126321839,0.9749148319326243,0.28592195,0.7041803145719789
0.051500000000000004,1.73369375,1.0,2705.383081989871,0.4400358556890669,1.304020286234485,0.9752272410732467,0.2858681375,0.705266790682085
0.052000000000000005,1.7324,1.0,2703.2965336647976,0.44317681994317604,1.3034550659989192,0.975531151375314,0.2858138,0.7063616802282895
0.0525,1.73109375,1.0,2701.1841233477076,0.4463001696544986,1.3028844442609924,0.9758268578266546,0.28575893750000003,0.7074649662777737
0.053,1.729775,1.0,2699.0482184608136,0.4494060010020496,1.3023083996665537,0.9761146424114612,0.28570355000000003,0.7085766310301251
0.0535,1.72844375,1.0,2696.891183080392,0.45249441016484404,1.3017269108614533,0.9763947747923565,0.2856476375,0.7096966558099637
0.054,1.7271,1.0,2694.715377836646,0.455565493321897,1.3011399564915411,0.9766675129510579,0.2855912,0.7108250210595431
0.0545,1.7257437500000001,1.0,2692.523159823559,0.4586193466522234,1.3005475152026669,0.9769331037904829,0.2855342375,0.7119617063313225
0.055,1.724375,1.0,2690.3168825187227,0.46165606633483836,1.299949565640681,0.9771917837009172,0.28547675,0.7131066902805064
0.0555,1.72299375,1.0,2688.0988957139575,0.4646757485487568,1.2993460864514328,0.977443779092676,0.2854187375,0.7142599506575616
0.056,1.7216,1.0,2685.8715454550393,0.46767848947299384,1.2987370562807725,0.9776893068975011,0.2853602,0.7154214643006969
0.0565,1.72019375,1.0,2683.6371739923484,0.47066438528656435,1.29812245377455,0.9779285750407688,0.28530113749999997,0.7165912071283206
0.057,1.718775,1.0,2681.398119741396,0.4736335321684835,1.297502257578615,0.9781617828864337,0.28524155,0.7177691541314649
0.0575,1.71734375,1.0,2679.156717253046,0.47658602629776614,1.2968764463388178,0.9783891216564911,0.2851814375,0.7189552793661831
0.058,1.7159,1.0,2676.9113897682932,0.4795219407283273,1.2962450345651968,0.9786107748338816,0.2851208,0.7201494881870707
0.0585,1.71444375,1.0,2674.660341638681,0.48244136048149644,1.2956080388021531,0.978826919717181,0.2850596375,0.7213516817459973
0.059000000000000004,1.7129750000000001,1.0,2672.412604032142,0.4853444290426814,1.2949653761647957,0.979037725997143,0.28499795,0.7225619479080376
0.059500000000000004,1.71149375,1.0,2670.1686719849895,0.4882312329031664,1.2943170420763144,0.9792433561108925,0.2849357375,0.7237802255849777
0.06,1.71,1.0,2667.92903970072,0.49110185855423577,1.2936630319598996,0.9794439661423147,0.284873,0.7250064529978284
0.0605,1.7084937500000001,1.0,2665.694200553105,0.4939563924871738,1.2930033412387414,0.9796397061177956,0.2848097375,0.7262405676751711
0.061,1.7069750000000001,1.0,2663.4646470894277,0.4967949211932648,1.2923379653360294,0.9798307202859904,0.28474595,0.7274825064515003
0.0615,1.7054437500000001,1.0,2661.240871033987,0.499617531163793,1.291666899674954,0.9800171473826003,0.2846816375,0.728732205465562
0.062,1.7039,1.0,2659.0233632932654,0.5024243088900426,1.2909901396787054,0.9801991208810669,0.2846168,0.7299896001586976
0.0625,1.70234375,1.0,2656.8126139596825,0.5052153408632981,1.2903076807704734,0.9803767692300326,0.2845514375,0.7312546252731789
0.063,1.7007750000000001,1.0,2654.6091123174656,0.5079907135748436,1.2896195183734482,0.9805502160783619,0.28448555,0.7325272148505482
0.0635,1.69919375,1.0,2652.4133468481405,0.5107505135159635,1.2889256479108198,0.9807195804884569,0.28441913750000003,0.7338073022299523
0.064,1.6976,1.0,2650.2258052365546,0.5134948271779418,1.2882260648057784,0.9808849771385646,0.2843522,0.7350948200464772
0.0645,1.69599375,1.0,2648.046974377783,0.5162237410520631,1.2875207644815139,0.9810465165147141,0.2842847375,0.7363897002294829
0.065,1.694375,1.0,2645.877340383982,0.5189373416296116,1.2868097423612164,0.981204305092889,0.28421675,0.7376918740009333
0.0655,1.69274375,1.0,2643.7173885919956,0.5216357154018715,1.2860929938680759,0.9813584455120011,0.2841482375,0.739001271873728
0.066,1.6911,1.0,2641.567603571305,0.5243189488601272,1.2853705144252825,0.9815090367381867,0.2840792,0.7403178236500307
0.0665,1.6894437500000001,1.0,2639.428469132788,0.5269871284956628,1.2846422994560265,0.9816561742209241,0.2840096375,0.7416414584195974
0.067,1.687775,1.0,2637.300468337011,0.5296403407997626,1.2839083443834978,0.981799950041433,0.28393955,0.7429721045581035
0.0675,1.68609375,1.0,2635.184083504504,0.5322786722637112,1.2831686446308863,0.981940453053787,0.2838689375,0.7443096897254682
0.068,1.6844000000000001,1.0,2633.0797962249508,0.5349022093787925,1.2824231956213823,0.982077769019149,0.2837978,0.7456541408641787
0.0685,1.68269375,1.0,2630.987430117303,0.5375110217980751,1.281671998863151,0.9822119799317865,0.2837261375,0.7470053732666997
0.069,1.680975,1.0,2628.906365630215,0.5401051845801231,1.2809150599720098,0.9823431655261861,0.28365395,0.7483632942631446
0.0695,1.67924375,1.0,2626.83775277034,0.542684814466813,1.280152368177356,0.9824714046975672,0.28358123749999997,0.7497278399381991
0.07,1.6775,1.0,2624.781478214643,0.5452499887095337,1.2793839244023055,0.9825967717157212,0.283508,0.7510989246988738
0.07050000000000001,1.67574375,1.0,2622.737428872656,0.5478007845596737,1.2786097295699743,0.982719338358859,0.2834342375,0.7524764623371996
0.07100000000000001,1.673975,1.0,2620.7054918837234,0.5503372792686219,1.2778297846034783,0.982839174012506,0.28335995,0.753860366030564
0.07150000000000001,1.67219375,1.0,2618.685554615392,0.5528595500877669,1.2770440904259335,0.9829563457638238,0.2832851375,0.7552505483420511
0.07200000000000001,1.6704,1.0,2616.67750466114,0.5553676742684973,1.276252647960456,0.9830709184915972,0.2832098,0.7566469212207795
0.0725,1.66859375,1.0,2614.681229838004,0.557861729062202,1.2754554581301616,0.9831829549521132,0.2831339375,0.7580493960022411
0.073,1.6667750000000001,1.0,2612.6966181849566,0.5603417917202697,1.2746525218581661,0.9832925158611444,0.28305755,0.7594578834086403
0.0735,1.66494375,1.0,2610.7235579602775,0.5628079394940889,1.2738438400675858,0.9833996599722402,0.2829806375,0.7608722935492299
0.074,1.6631,1.0,2608.761937639751,0.5652602496350486,1.2730294136815365,0.9835044441515104,0.2829032,0.7622925359206517
0.0745,1.6612437500000001,1.0,2606.81164591481,0.5676987993945374,1.272209243623134,0.9836069234490832,0.2828252375,0.7637185194072744
0.075,1.659375,1.0,2604.8725716901254,0.5701236660239439,1.2713833308154947,0.9837071511674035,0.28274675,0.7651501522815298
0.0755,1.65749375,1.0,2602.9446040819885,0.5725349267746569,1.270551676181734,0.9838051789265324,0.2826677375,0.7665873422042544
