Time [s],Phi [rad],STIM [ ],Fsee [N],Gamma [ ],Lcerel [ ],q [ ],Lmtc [m],fisomrel [ ]
0.0,1.8,1.0,17.9666435287842,1.0569540844575866e-05,1.3793398038768903,0.005000029761072146,0.288653,0.5411393915645486
0.0005,1.79999375,1.0,18.276214863299106,0.005619719562874024,1.3793024465829429,0.012942096791391317,0.2886527375,0.5412297640822505
0.001,1.799975,1.0,21.618286511307353,0.01119740668819898,1.3789383118213094,0.03561154957007928,0.28865195,0.5421101907972452
0.0015,1.79994375,1.0,31.06995345782923,0.01674380739965539,1.3780461426047488,0.07060577660519153,0.2886506375,0.5442637565742027
0.002,1.7999,1.0,53.58462728162462,0.02225909718842612,1.3763679864050127,0.11472265918156863,0.2886488,0.548300825285192
0.0025,1.79984375,1.0,97.12310586605128,0.027743450561610334,1.3739349664051637,0.164579919876968,0.28864643749999996,0.5541219416440343
0.003,1.7997750000000001,1.0,160.96395001114854,0.03319704104993411,1.3712141272879,0.2172856382908517,0.28864354999999997,0.5605869633350855
0.0035,1.79969375,1.0,237.69006677759663,0.038620041207346543,1.3685845267715806,0.27061804316258775,0.2886401375,0.5667903272467156
0.004,1.7996,1.0,321.4740872856968,0.04401262262180087,1.3661558986257811,0.32292079161890563,0.2886362,0.5724804142268709
0.0045000000000000005,1.7994937500000001,1.0,409.27545646112844,0.04937495592043916,1.36392263328594,0.3730392437669899,0.2886317375,0.5776795822137348
0.005,1.799375,1.0,499.42146151461355,0.054707210760686464,1.3618581732545272,0.42025189171323213,0.28862675,0.5824574695436754
0.0055,1.79924375,1.0,590.7985237241928,0.060009555877675654,1.3599386766555026,0.46417780086134997,0.2886212375,0.5868754752789718
0.006,1.7991000000000001,1.0,682.5262928832185,0.06528215902750072,1.3581462659744163,0.504683732792166,0.2886152,0.5909797581906334
0.006500000000000001,1.79894375,1.0,773.8896655574957,0.07052518704368281,1.356467110092771,0.5418042063750996,0.2886086375,0.5948061206062127
0.007,1.798775,1.0,864.2941071359912,0.07573880581475682,1.3548902609908005,0.5756799229182361,0.28860155,0.598382980401408
0.0075,1.79859375,1.0,953.2509008655555,0.08092318030632623,1.353406660981144,0.6065127793531362,0.2885939375,0.6017338392033125
0.008,1.7984,1.0,1040.3668910534293,0.08607847456190895,1.3520085221349456,0.6345346540345898,0.2885858,0.6048788276287358
0.0085,1.79819375,1.0,1125.3297764085376,0.09120485169557557,1.350689021384075,0.6599867362861231,0.2885771375,0.6078354919664535
0.009000000000000001,1.797975,1.0,1207.8943684455696,0.09630247389038565,1.349442114466599,0.6831064449480772,0.28856795,0.6106192877458941
0.0095,1.79774375,1.0,1287.8642982949277,0.10137150173091532,1.3482624930952922,0.7041196822862091,0.2885582375,0.6132437369357511
0.01,1.7975,1.0,1365.1699891520877,0.10641209772947545,1.3471443474937899,0.7232360370094988,0.288548,0.6157232206731853
0.0105,1.79724375,1.0,1439.6835074673786,0.1114244198988381,1.3460836459067156,0.7406481801375239,0.2885372375,0.6180679529206476
0.011,1.796975,1.0,1511.3383466376167,0.11640862625177528,1.3450763565786925,0.7565305577772377,0.28852595000000003,0.6202879723545123
0.0115,1.79669375,1.0,1580.12396765736,0.12136487480105908,1.3441184477543446,0.7710399859400198,0.2885141375,0.6223931566171568
0.012,1.7964,1.0,1646.0612883446358,0.12629332291451312,1.3432061148893613,0.7843168434209165,0.28850180000000003,0.6243927382096638
0.0125,1.79609375,1.0,1709.180088826432,0.1311941267766174,1.3423359645626591,0.7964864678036966,0.2884889375,0.6262949214507456
0.013000000000000001,1.7957750000000001,1.0,1769.5042947446661,0.13606744082116412,1.3415050982622576,0.8076605789860826,0.28847555,0.6281067214951714
0.0135,1.79544375,1.0,1827.0829841258846,0.14091341920940736,1.3407106900035037,0.817938493591608,0.2884616375,0.6298349034353838
0.014,1.7951000000000001,1.0,1881.986337364296,0.14573221531768316,1.3399499947457623,0.8274084696193673,0.2884472,0.6314859728072584
0.0145,1.79474375,1.0,1934.2913030836237,0.15052398260386898,1.3392204701255657,0.8361489941968369,0.2884322375,0.6330659204330046
0.015,1.794375,1.0,1984.0577666727074,0.15528887162495641,1.3385199930778608,0.8442299738572061,0.28841675,0.6345797649444038
0.0155,1.79399375,1.0,2031.36400916074,0.16002703293793702,1.337846440537594,0.8517135953018696,0.2884007375,0.6360324700767791
0.016,1.7936,1.0,2076.2932999877244,0.16473861611494434,1.3371978126686137,0.8586552749094681,0.2883842,0.6374286834550462
0.0165,1.7931937500000001,1.0,2118.9448551624578,0.16942377184701063,1.3365720982800848,0.8651044206608769,0.2883671375,0.6387730314392248
0.017,1.792775,1.0,2159.4046699049327,0.1740826488057292,1.3359675600311058,0.8711052240916228,0.28834955,0.6400695108633461
0.0175,1.7923437500000001,1.0,2197.739831119653,0.17871539295394193,1.3353827675860372,0.8766972805799288,0.2883314375,0.6413214260405935
0.018000000000000002,1.7919,1.0,2234.0268271066047,0.18332215025449075,1.3348162906092393,0.881916044231286,0.2883128,0.6425320521131039
0.0185,1.79144375,1.0,2268.3507650248853,0.18790306667021753,1.334266698765073,0.886793311566477,0.2882936375,0.6437046367879461
0.019,1.790975,1.0,2300.787338739871,0.19245828737323806,1.3337327329433417,0.8913576878270464,0.28827395,0.6448420375069138
0.0195,1.79049375,1.0,2331.4409546541174,0.1969879574703119,1.333212917839456,0.8956348564693872,0.2882537375,0.6459475490590432
0.02,1.79,1.0,2360.4095967456965,0.2014922210613783,1.3327059063983608,0.8996479946278799,0.288233,0.6470241704325419
0.0205,1.7894967830571784,1.0,2387.86350811747,0.20597121919818592,1.332211075190461,0.9034181875576492,0.2882118648884015,0.6480733466862177
0.021,1.7889929908944218,1.0,2414.253368770507,0.2104250929324834,1.3317278007861615,0.9069644946615214,0.2881907056175657,0.6490965120713545
0.021500000000000002,1.7884891987316651,1.0,2439.6509387088818,0.2148539833160194,1.3312554597558668,0.9103041718002727,0.2881695463467299,0.6500950905036011
0.022,1.7879854065689085,1.0,2464.1027020683696,0.21925803116680379,1.3307934370747867,0.9134528683292181,0.2881483870758942,0.6510704782788557
0.0225,1.787481614406152,1.0,2487.6431543918975,0.2236373762669328,1.33034125106114,0.9164248235245731,0.2881272278050584,0.652023781401023
0.023,1.7869778222433954,1.0,2510.3028945302626,0.22799215709219608,1.329898472367326,0.9192329983784321,0.2881060685342226,0.6529559882962521
0.0235,1.7864740300806388,1.0,2532.1135869334057,0.23232251072405904,1.329464675052638,0.9218891991979755,0.2880849092633868,0.6538680736366699
0.024,1.7859702379178821,1.0,2553.1082291738367,0.23662857424398714,1.3290394331763693,0.9244041966673995,0.288063749992551,0.6547610057875434
0.0245,1.7854664457551257,1.0,2573.3073176946123,0.24091047779188082,1.3286224495306416,0.926787850032909,0.2880425907217153,0.6556354772464317
0.025,1.784962653592369,1.0,2592.76569393764,0.2451683685205044,1.3282131155888313,0.9290491344013883,0.2880214314508795,0.6564928276641342
0.025500000000000002,1.7844588614296124,1.0,2611.511061488639,0.24940238000193207,1.3278110879418392,0.9311963106524445,0.2880002721800437,0.6573338348928182
0.026000000000000002,1.7839550692668558,1.0,2629.567350343343,0.25361264351131985,1.3274160664422439,0.9332369632650624,0.28797911290920797,0.6581591818733679
0.0265,1.7834512771040991,1.0,2646.9592723885708,0.2577992903238237,1.3270277509426236,0.9351780593664625,0.2879579536383722,0.6589695475555145
0.027,1.7829474849413427,1.0,2663.7122757772822,0.2619624517145997,1.3266458412955568,0.9370260072724008,0.2879367943675364,0.6597656070290749
0.0275,1.782443692778586,1.0,2679.8525013005906,0.26610225895880374,1.3262700373536218,0.9387867087648837,0.2879156350967006,0.6605480316494459
0.028,1.7819399006158294,1.0,2695.4067407572006,0.2702188433315919,1.3259000389693973,0.9404656058448481,0.2878944758258648,0.6613174891573511
0.0285,1.7814361084530728,1.0,2710.402397320669,0.2743123361081201,1.3255355459954616,0.9420677226036791,0.28787331655502907,0.6620746437928466
0.029,1.7809323162903163,1.0,2724.8674479031774,0.27838286856354433,1.325176258284393,0.9435977027763303,0.2878521572841933,0.6628201564035772
0.029500000000000002,1.7804285241275597,1.0,2738.8169310343224,0.28243056332590916,1.32482199797623,0.9450598570497513,0.2878309980133575,0.6635544312204404
0.03,1.779924731964803,1.0,2752.287584213966,0.2864555596539472,1.3244723941613197,0.9464581587494715,0.28780983874252175,0.6642782698572105
0.0305,1.7794209398020464,1.0,2765.297275549557,0.2904579827300083,1.3241272513325288,0.9477963108724015,0.28778867947168596,0.664992107600828
0.031,1.7789171476392898,1.0,2777.862703897345,0.2944379566716968,1.3237863875836788,0.949077752535785,0.28776752020085017,0.6656963495392593
0.0315,1.7784133554765333,1.0,2790.0008762840694,0.2983956055966171,1.32344962100859,0.9503056798069495,0.2877463609300144,0.6663913988182382
0.032,1.7779095633137767,1.0,2801.7290910152783,0.3023310536223736,1.3231167697010835,0.9514830658966263,0.2877252016591786,0.6670776566898501
0.0325,1.77740577115102,1.0,2813.06492151817,0.3062444248665707,1.3227876517549806,0.9526126794405737,0.28770404238834285,0.6677555225590095
0.033,1.7769019789882634,1.0,2824.0262009172848,0.31013584344681294,1.3224620852641016,0.953697101071034,0.28768288311750706,0.6684253940278293
0.0335,1.776398186825507,1.0,2834.6310073443806,0.3140054334807046,1.322139888322268,0.9547387384563282,0.2876617238466713,0.6690876669378722
0.034,1.7758943946627503,1.0,2844.897649981632,0.3178533190858501,1.3218208790233004,0.9557398399665259,0.28764056457583553,0.6697427354103006
0.0345,1.7753906024999937,1.0,2854.834035014884,0.32167961344112483,1.3215049698572714,0.9567025146366601,0.28761940530499974,0.6703907983325097
0.035,1.774886810337237,1.0,2864.4668258961847,0.3254844523792263,1.321191908069381,0.9576287233747878,0.28759824603416395,0.6710323921898925
0.035500000000000004,1.7743830181744804,1.0,2873.807630928347,0.3292679542466147,1.320881576476036,0.9585203121783847,0.28757708676332816,0.6716677738464728
0.036000000000000004,1.773879226011724,1.0,2882.8668918057197,0.33303023593077336,1.3205738694242704,0.9593790117460855,0.2875559274924924,0.6722971755177005
0.0365,1.7733754338489673,1.0,2891.6551724289493,0.3367714143191856,1.3202686812611186,0.960206445215097,0.28753476822165663,0.6729208284542858
0.037,1.7728716416862107,1.0,2900.1831528816215,0.3404916062993351,1.3199659063336153,0.9610041360651391,0.28751360895082084,0.6735389629595284
0.0375,1.772367849523454,1.0,2908.461623652731,0.34419092875870505,1.3196654389887952,0.9617735153566834,0.28749244967998505,0.6741518084059339
0.038,1.7718640573606976,1.0,2916.501480108238,0.34786949858477895,1.319367173573692,0.9625159283663149,0.2874712904091493,0.6747595932511201
0.0385,1.771360265197941,1.0,2924.313717208521,0.35152743266504016,1.3190710044353406,0.9632326406755217,0.2874501311383135,0.6753625450530065
0.039,1.7708564730351843,1.0,2931.9094244747444,0.35516484788697206,1.3187768259207757,0.9639248437634153,0.28742897186747773,0.6759608904842968
0.0395,1.7703526808724277,1.0,2939.2997812019316,0.3587818611380581,1.3184845323770311,0.9645936601487363,0.28740781259664194,0.6765548553462495
0.04,1.7698488887096713,1.0,2946.4883806945872,0.3623785754118633,1.318194085263029,0.9652401515256418,0.2873866533258062,0.6771445283916591
0.0405,1.7693450965469146,1.0,2953.492006126924,0.36595512167973077,1.3179053311713973,0.965865314570137,0.2873654940549704,0.6777302309081767
0.041,1.768841304384158,1.0,2960.319027990119,0.36951161394201504,1.3176181910252325,0.9664700935434278,0.2873443347841346,0.6783121324293971
0.0415,1.7683375122214013,1.0,2966.975406580275,0.3730481614009732,1.3173326072810014,0.9670553814731148,0.28732317551329883,0.678890358278832
0.042,1.7678337200586447,1.0,2973.4671483425045,0.3765648732588626,1.3170485223951713,0.9676220225463336,0.2873020162424631,0.6794650333132606
0.0425,1.7673299278958883,1.0,2979.8003039218715,0.3800618587179405,1.3167658788242087,0.9681708152821011,0.2872808569716273,0.6800362819283379
0.043000000000000003,1.7668261357331316,1.0,2985.9809662881557,0.38353922698046405,1.3164846190245805,0.9687025154664739,0.2872596977007915,0.6806042280639865
0.043500000000000004,1.766322343570375,1.0,2992.0152689333845,0.38699708724869053,1.3162046854527538,0.9692178388704834,0.2872385384299557,0.6811689952095823
0.044,1.7658185514076183,1.0,2997.9093841431904,0.3904355487248771,1.3159260205651955,0.969717463768944,0.28721737915911993,0.6817307064089275
0.0445,1.765314759244862,1.0,3003.669521341585,0.3938547206112812,1.3156485668183724,0.9702020332765707,0.2871962198882842,0.6822894842650111
0.045,1.7648109670821053,1.0,3009.301925508704,0.39725471211015984,1.3153722666687515,0.9706721575163333,0.2871750606174484,0.6828454509445596
0.0455,1.7643071749193486,1.0,3014.812875672819,0.4006356324237704,1.3150970625727998,0.9711284156336232,0.28715390134661267,0.6833987281823759
0.046,1.763803382756592,1.0,3020.208365206994,0.40399758959731763,1.314822899737167,0.9715713577127512,0.2871327420757769,0.6839494317636535
0.0465,1.7632995905938353,1.0,3025.487738228097,0.40734066981886746,1.3145497810353868,0.9720015077368243,0.2871115828049411,0.6844975613858107
0.047,1.762795798431079,1.0,3030.664220799799,0.41066501198069133,1.314277589645112,0.9724193622999647,0.2870904235341053,0.6850433566545236
0.0475,1.7622920062683223,1.0,3035.7409046902553,0.4139707169944258,1.3140062965436492,0.972825394992303,0.2870692642632695,0.685586880519585
0.048,1.7617882141055656,1.0,3040.7208984195163,0.41725788577170725,1.3137358727083048,0.9732200565655726,0.2870481049924338,0.686128195714153
0.0485,1.761284421942809,1.0,3045.6073266903854,0.4205266192241722,1.3134662891163857,0.9736037762460013,0.287026945721598,0.6866673647563855
0.049,1.7607806297800526,1.0,3050.403329838923,0.4237770182634572,1.3131975167451986,0.9739769629600439,0.2870057864507622,0.6872044499510238
0.0495,1.760276837617296,1.0,3055.112063302866,0.4270091838011986,1.31292952657205,0.9743400064794935,0.28698462717992645,0.6877395133909205
0.05,1.7597730454545393,1.0,3059.7366971087536,0.43022321674903297,1.3126622895742464,0.9746932784919536,0.28696346790909066,0.6882726169585145
0.0505,1.7592692532917826,1.0,3064.280415378288,0.4334192180185968,1.3123957767290946,0.9750371336021773,0.2869423086382549,0.6888038223272503
0.051000000000000004,1.758765461129026,1.0,3068.74641585295,0.43659728852152646,1.312129959013901,0.9753719102693081,0.2869211493674191,0.6893331909629479
0.051500000000000004,1.7582616689662696,1.0,3073.1379094371882,0.4397575291694585,1.3118648074059727,0.9756979316846713,0.2868999900965833,0.6898607841251134
0.052000000000000005,1.757757876803513,1.0,3077.4581197605953,0.4429000408740294,1.311600292882616,0.9760155065943704,0.28687883082574756,0.6903866628682013
0.0525,1.7572540846407563,1.0,3081.710282758517,0.4460249245468756,1.3113363864211376,0.9763249300706166,0.28685767155491176,0.6909108880428192
0.053,1.7567502924779996,1.0,3085.89764627158,0.4491322810996336,1.311073058998844,0.9766264842354084,0.286836512284076,0.6914335202968807
0.0535,1.7562465003152432,1.0,3090.022559631136,0.4522222043820724,1.3108102893673819,0.9769204387052832,0.28681535301324024,0.6919546046663404
0.054,1.7557427081524866,1.0,3094.0835888249394,0.4552947629411495,1.31054808865282,0.9772070509491061,0.28679419374240445,0.6924741219198988
0.0545,1.75523891598973,1.0,3098.089633740523,0.4583501081494006,1.310286379803381,0.9774865702752826,0.28677303447156866,0.6929922273868367
0.055,1.7547351238269733,1.0,3102.042116543474,0.4613883315776522,1.310025149739447,0.9777592333839169,0.28675187520073286,0.6935089493910505
0.0555,1.7542313316642169,1.0,3105.9424648626164,0.46440952479673075,1.3097643853814007,0.9780252670612167,0.2867307159298971,0.6940243161648056
0.056,1.7537275395014602,1.0,3109.7921116533435,0.46741377937746276,1.309504073649624,0.978284888676379,0.28670955665906134,0.6945383558491331
0.0565,1.7532237473387036,1.0,3113.5924950639705,0.4704011868906748,1.3092442014644992,0.97853830664963,0.28668839738822555,0.69505109649421
0.057,1.752719955175947,1.0,3117.345058306757,0.4733718389071933,1.308984755746409,0.9787857208933216,0.28666723811738976,0.6955625660597322
0.0575,1.7522161630131903,1.0,3121.0512495324433,0.4763258269978448,1.3087257234157352,0.9790273232278348,0.286646078846554,0.6960727924152772
0.058,1.7517123708504339,1.0,3124.7125217078765,0.47926324273345583,1.3084670913928604,0.979263297773928,0.28662491957571823,0.6965818033406528
0.0585,1.7512085786876772,1.0,3128.330332498766,0.4821841776848528,1.308208846598167,0.9794938213230329,0.28660376030488244,0.6970896265262361
0.059000000000000004,1.7507047865249206,1.0,3131.906144154892,0.48508872342286224,1.3079509759520371,0.9797190636869123,0.28658260103404665,0.6975962895733031
0.059500000000000004,1.750200994362164,1.0,3135.441423400133,0.4879769715183107,1.307693466374853,0.9799391880279745,0.28656144176321086,0.6981018199943471
0.06,1.7496972021994075,1.0,3138.9376413256127,0.4908490135420246,1.3074363047869972,0.9801543511714657,0.2865402824923751,0.6986062452133819
0.0605,1.7491934100366509,1.0,3142.3962732868904,0.49370494106483054,1.307179478108852,0.9803647039006591,0.28651912322153933,0.6991095925662416
0.061,1.7486896178738942,1.0,3145.8187988050818,0.49654484565755497,1.3069229732607994,0.9805703912361005,0.28649796395070354,0.6996118893008629
0.0615,1.7481858257111376,1.0,3149.206701471667,0.49936881889102436,1.3066667771632219,0.9807715526998784,0.2864768046798678,0.7001131625775601
0.062,1.747682033548381,1.0,3152.561468856712,0.5021769523360653,1.306410876736502,0.9809683225658363,0.286455645409032,0.7006134394692864
0.0625,1.7471782413856245,1.0,3155.8845924216776,0.5049693375635042,1.3061552589010215,0.9811608300965693,0.2864344861381962,0.7011127469618894
0.063,1.7466744492228679,1.0,3159.176671927242,0.5077460503498755,1.3058999181432245,0.9813491990038345,0.28641332686736043,0.7016110971937773
0.0635,1.7461706570601112,1.0,3162.437449014517,0.5105071599074748,1.3056448562118446,0.9815335483672414,0.28639216759652464,0.7021084881098243
0.064,1.7456668648973546,1.0,3165.6704994531374,0.513252804068371,1.3053900424954028,0.9817139961878352,0.2863710083256889,0.7026049806908676
0.0645,1.7451630727345981,1.0,3168.876439709283,0.5159830647398616,1.3051354714132586,0.9818906534736169,0.2863498490548531,0.7031005870070423
0.065,1.7446592805718415,1.0,3172.0558879860846,0.5186980238292429,1.304881137384771,0.9820636272612989,0.2863286897840173,0.7035953190910981
0.0655,1.7441554884090849,1.0,3175.2094641933822,0.5213977632438122,1.3046270348292992,0.9822330207870623,0.2863075305131816,0.704089188938485
0.066,1.7436516962463282,1.0,3178.3377899187026,0.524082364890866,1.3043731581662024,0.9823989336487915,0.2862863712423458,0.7045822085074361
0.0665,1.7431479040835716,1.0,3181.4414883993545,0.5267519106777016,1.3041195018148395,0.9825614619602654,0.28626521197151,0.7050743897190492
0.067,1.7426441119208151,1.0,3184.5211844945416,0.5294064825116155,1.3038660601945702,0.9827206984977597,0.2862440527006742,0.7055657444573656
0.0675,1.7421403197580585,1.0,3187.5775046585527,0.5320461622999049,1.3036128277247534,0.9828767328394862,0.2862228934298384,0.706056284569449
0.068,1.7416365275953019,1.0,3190.6110769145043,0.5346710319498664,1.3033597988247483,0.9830296514982634,0.2862017341590027,0.70654602186546
0.0685,1.7411327354325452,1.0,3193.6225308286644,0.5372811733687972,1.303106967913914,0.9831795380477938,0.2861805748881669,0.7070349681187293
0.069,1.7406289432697888,1.0,3196.612497486,0.539876668463994,1.3028543294116097,0.9833264732428986,0.28615941561733116,0.7075231350658298
0.0695,1.7401251511070321,1.0,3199.581609465458,0.5424575991427537,1.3026018777371946,0.9834705351340353,0.28613825634649537,0.7080105344066452
0.07,1.7396213589442755,1.0,3202.530500817142,0.5450240473123732,1.302349607310028,0.9836117991764118,0.2861170970756596,0.7084971778044383
