Time [s],Phi [rad],STIM [ ],Fsee [N],Gamma [ ],Lcerel [ ],q [ ],Lmtc [m],fisomrel [ ]
0.0,1.8,1.0,19.74723842934087,0.001362414445776602,1.3791450267326928,0.005475422454183731,0.288653,0.5416104869383472
0.0005,1.79999375,1.0,20.43779076641983,0.006963981686913309,1.379069042607764,0.017116790914991693,0.2886527375,0.5417941994146466
0.001,1.799975,1.0,24.791333212181883,0.012534128565444894,1.3786253228420438,0.04299854998434194,0.28865195,0.5428662783888972
0.0015,1.79994375,1.0,36.59597747414462,0.018073031323225845,1.3775946058767565,0.08049027625515935,0.2886506375,0.5453517653468651
0.002,1.7999,1.0,63.656864379306626,0.023580865216367076,1.3757426849646164,0.12628358816237165,0.2886488,0.5498004932894804
0.0025,1.79984375,1.0,112.52594246186186,0.02905780451689768,1.37322005823578,0.17706489882986562,0.28864643749999996,0.5558252172528091
0.003,1.7997750000000001,1.0,180.0619544206125,0.034504022518545265,1.3705193155696531,0.23010509451652025,0.28864354999999997,0.5622303469062366
0.0035,1.79969375,1.0,258.76693834800614,0.03991969154292838,1.367949099842852,0.2833254423221063,0.2886401375,0.5682827165970501
0.004,1.7996,1.0,343.6080098104504,0.045304982946660806,1.3655794199019822,0.33519446859442276,0.2886362,0.5738255348983745
0.0045000000000000005,1.7994937500000001,1.0,432.0037897146537,0.050660067126736576,1.3633963258441029,0.3846689674943098,0.2886317375,0.5789002243718324
0.005,1.799375,1.0,522.4500275390789,0.05598511345966607,1.3613743366680346,0.43111832856500826,0.28862675,0.5835733061152358
0.0055,1.79924375,1.0,613.9376401684738,0.061280290625152084,1.3594909394306465,0.4742288922688711,0.2886212375,0.5879026290410436
0.006,1.7991000000000001,1.0,705.5925389434665,0.06654576594757325,1.3577304693447447,0.5139148662418391,0.2886152,0.5919289263469026
0.006500000000000001,1.79894375,1.0,796.7400687671576,0.07178170610564182,1.356079878459868,0.5502411530926804,0.2886086375,0.595685969885222
0.007,1.798775,1.0,886.8157727688764,0.07698827681407934,1.3545288052194042,0.5833666875621675,0.28860155,0.5992006577477734
0.0075,1.79859375,1.0,975.3418549392281,0.08216564267656984,1.353068826708269,0.6135031313861262,0.2885939375,0.6024949094606071
0.008,1.7984,1.0,1061.9612899024164,0.08731396783092067,1.3516922222992314,0.6408860391644478,0.2885858,0.6055885866525129
0.0085,1.79819375,1.0,1146.3605354872652,0.09243341478908165,1.3503926833372606,0.6657568441319144,0.2885771375,0.6084979829837827
0.009000000000000001,1.797975,1.0,1228.3120906146014,0.0975241455376113,1.3491642989912427,0.6883507198325888,0.28856795,0.6112381770087822
0.0095,1.79774375,1.0,1307.6706276526907,0.10258632170714603,1.3480013995741935,0.7088897973610533,0.2885582375,0.6138234244081713
0.01,1.7975,1.0,1384.3008752417252,0.10762010293672322,1.3468993195988082,0.7275800873444211,0.288548,0.6162655040238647
0.0105,1.79724375,1.0,1458.1206488370722,0.11262564844270487,1.3458536269423664,0.7446096560494798,0.2885372375,0.6185754742691659
0.011,1.796975,1.0,1529.0998109265147,0.11760311674932067,1.3448600274961942,0.7601485189382771,0.28852595000000003,0.6207639076381513
0.0115,1.79669375,1.0,1597.232424903586,0.12255266585603092,1.3439146113108251,0.7743494833907558,0.2885141375,0.6228403703026916
0.012,1.7964,1.0,1662.5078639012024,0.1274744516260768,1.3430140893057276,0.78734938287493,0.28850180000000003,0.6248129290107217
0.0125,1.79609375,1.0,1724.953527844772,0.13236862978522315,1.342155196660557,0.7992701512270272,0.2884889375,0.6266894814992845
0.013000000000000001,1.7957750000000001,1.0,1784.6209642891454,0.13723535530474917,1.3413348067067654,0.8102202978024493,0.28847555,0.6284775182731348
0.0135,1.79544375,1.0,1841.5824929464454,0.1420747833914775,1.3405499209489018,0.8202962977856214,0.2884616375,0.630184156064084
0.014,1.7951000000000001,1.0,1895.8787089656742,0.14688706592025866,1.3397982001599071,0.8295840952602074,0.2884472,0.6318149973472185
0.0145,1.79474375,1.0,1947.5730151490961,0.15167235476594307,1.339077305112723,0.8381600496902851,0.2884322375,0.6333755776705785
0.015,1.794375,1.0,1996.7492521586755,0.15643080176736734,1.3383849010182642,0.8460920477299981,0.28841675,0.6348713608509551
0.0155,1.79399375,1.0,2043.4900186908767,0.16116255722691827,1.3377188657852372,0.8534405636976562,0.2884007375,0.6363072949385616
0.016,1.7936,1.0,2087.8971001421414,0.1658677726780755,1.3370770485965324,0.8602594596407915,0.2883842,0.6376883396347287
0.0165,1.7931937500000001,1.0,2130.0346406408116,0.17054659555871018,1.3364578410810701,0.8665969352375806,0.2883671375,0.639018243542938
0.017,1.792775,1.0,2169.978517050485,0.17519917330669335,1.3358596348677703,0.8724960358496289,0.28834955,0.6403007195997705
0.0175,1.7923437500000001,1.0,2207.815360079609,0.17982565335989617,1.3352808215855538,0.8779952611829237,0.2883314375,0.6415394473115945
0.018000000000000002,1.7919,1.0,2243.629054016703,0.18442618182571255,1.3347199189728978,0.8831291316675846,0.2883128,0.6427378056210994
0.0185,1.79144375,1.0,2277.5179927019417,0.18900090631645236,1.3341753858583556,0.8879286052164932,0.2882936375,0.6438992713214897
0.019,1.790975,1.0,2309.556763356142,0.19354997099537063,1.333645995423278,0.8924215785892938,0.28827395,0.6450266254400827
0.0195,1.79049375,1.0,2339.8140582282667,0.19807351861088765,1.33313064201834,0.8966331887187583,0.2882537375,0.6461223703713286
0.02,1.79,1.0,2368.364167675312,0.2025716919114236,1.3326282199942165,0.9005860966560117,0.288233,0.647188989998339
0.0205,1.78949375,1.0,2395.28651122614,0.20704463364539877,1.3321376237015827,0.9043007648563188,0.2882117375,0.6482289506437049
0.021,1.788975,1.0,2420.652840221937,0.21149248475052151,1.3316578667475671,0.9077957252830663,0.28818995000000003,0.649244449695322
0.021500000000000002,1.78844375,1.0,2444.5485997343408,0.21591538860512602,1.3311878699132151,0.9110877474083545,0.2881676375,0.6502378661426891
0.022,1.7879,1.0,2467.0375038462153,0.22031348458963612,1.3307267986231257,0.9141920941465522,0.2881448,0.6512110480628139
0.0225,1.78734375,1.0,2488.1761831890576,0.2246869104585386,1.3302739148952032,0.9171226524413314,0.28812143749999997,0.6521656286345539
0.023,1.786775,1.0,2508.023907516323,0.22903580396632026,1.3298284807473513,0.9198920596124209,0.28809755,0.6531032311476217
0.0235,1.78619375,1.0,2526.642365407146,0.23336030286746778,1.3293897581974743,0.9225118330894178,0.28807313749999996,0.6540254693705658
0.024,1.7856,1.0,2544.0941764073664,0.2376605446321846,1.3289570213112838,0.9249924871573635,0.2880482,0.6549339226084425
0.0245,1.78499375,1.0,2560.4322855165037,0.24193666414392115,1.3285296537006568,0.9273436502628831,0.2880227375,0.6558299318856076
0.025,1.784375,1.0,2575.7305474272976,0.24618880093766313,1.3281068590205123,0.9295741066697942,0.28799675,0.656715207473513
0.025500000000000002,1.78374375,1.0,2590.0315065463533,0.25041708745654906,1.327688149363098,0.931691956292318,0.2879702375,0.6575908060171809
0.026000000000000002,1.7831000000000001,1.0,2603.3789368167204,0.2546216561437174,1.3272730368206618,0.9337046326760935,0.2879432,0.6584577786038959
0.0265,1.78244375,1.0,2615.817739098913,0.2588026394423067,1.3268610334854507,0.9356189667999393,0.2879156375,0.6593171708827267
0.027,1.781775,1.0,2627.393843830421,0.26296016979545545,1.3264516514497124,0.937441243991601,0.28788755,0.6601700231688631
0.0275,1.7810937500000001,1.0,2638.1541189626946,0.26709437964630217,1.3260444028056948,0.9391772547746216,0.2878589375,0.6610173705327738
0.028,1.7804,1.0,2648.137349296869,0.2712053976486489,1.3256388820892304,0.9408323509081565,0.2878298,0.661860071657131
0.0285,1.77969375,1.0,2657.396013837889,0.2752933591481351,1.3252345641946108,0.9424114601461426,0.2878001375,0.6626992291235382
0.029,1.778975,1.0,2665.9642902371997,0.279358392368788,1.3248310990162468,0.943919160395512,0.28776995,0.6635355775251826
0.029500000000000002,1.7782437500000001,1.0,2673.8735154766537,0.2834006241179795,1.3244281674595617,0.9453596925740817,0.2877392375,0.6643697836697404
0.03,1.7775,1.0,2681.1554951474454,0.2874201812030813,1.3240254504299789,0.9467369862882401,0.287708,0.6652025110766878
0.0305,1.77674375,1.0,2687.8424608653067,0.2914171904314652,1.3236226288329218,0.9480546866291332,0.2876762375,0.6660344199849138
0.031,1.775975,1.0,2693.9670299431305,0.29539177861050286,1.3232193835738142,0.9493161783462004,0.28764395,0.666866167353838
0.0315,1.7751937500000001,1.0,2699.562167321002,0.2993440725475662,1.3228153955580793,0.9505246076831674,0.2876111375,0.6676984068580383
0.032,1.7744,1.0,2704.6322877466937,0.30327419169254316,1.3224106092384798,0.9516829319223234,0.2875778,0.6685312469721694
0.0325,1.77359375,1.0,2709.2481278575037,0.30718227050590247,1.3220043656189715,0.9527938376674923,0.2875439375,0.6693660348288384
0.033,1.772775,1.0,2713.4374449357974,0.31106843265241946,1.3215964009511731,0.9538598730718009,0.28750955,0.670203300048636
0.0335,1.7719437500000002,1.0,2717.2143027190273,0.31493279840520616,1.3211865780272298,0.9548834293803274,0.2874746375,0.6710433102524178
0.034,1.7711000000000001,1.0,2720.5929045597823,0.3187754880373746,1.3207747596392865,0.9558667397974769,0.2874392,0.6718863315636416
0.0345,1.7702437500000001,1.0,2723.587582114521,0.3225966218220369,1.3203608085794882,0.9568118917931019,0.2874032375,0.6727326285915067
0.035,1.7693750000000001,1.0,2726.212784449443,0.32639632003230507,1.3199445876399802,0.9577208383135158,0.28736675,0.6735824644128923
0.035500000000000004,1.76849375,1.0,2728.483067563894,0.3301747029412911,1.3195259596129072,0.9585954080062569,0.2873297375,0.6744361005530957
0.036000000000000004,1.7676017299493547,1.0,2730.4990509701875,0.33393189082210706,1.3191047872904145,0.9594373145556008,0.2872922726578729,0.6752937969653678
0.0365,1.7667083063263107,1.0,2732.741179331892,0.33766800394786495,1.3186809334646468,0.9602481652153287,0.28725474886570507,0.6761558120092519
0.037,1.7658148827032667,1.0,2735.292168191775,0.34138316063089785,1.3182542834641817,0.9610294704236801,0.2872172250735372,0.6770223566859065
0.0375,1.7649214590802227,1.0,2738.0947734461374,0.3450774794359848,1.3178253607068133,0.9617827112418541,0.2871797012813694,0.6778923472308163
0.038,1.7640280354571787,1.0,2741.1122758815886,0.34875107823762996,1.3173945017358848,0.9625092612143026,0.2871421774892015,0.6787650837622112
0.0385,1.7631346118341347,1.0,2744.327402714933,0.35240407152217024,1.3169618663256732,0.963210394781178,0.28710465369703364,0.6796402273448534
0.039,1.7622411882110907,1.0,2747.722862158165,0.35603657377594256,1.3165276142504563,0.9638873115705004,0.2870671299048658,0.6805174407427116
0.0395,1.7613477645880466,1.0,2751.281337408406,0.3596486994852838,1.3160919052845117,0.9645411416001527,0.28702960611269795,0.6813963884362477
0.04,1.7604543409650026,1.0,2754.9854812044305,0.3632405631365309,1.3156548992021169,0.9651729500651183,0.2869920823205301,0.6822767366380786
0.0405,1.7595609173419586,1.0,2758.8179109483854,0.3668122792160208,1.3152167557775496,0.9657837417470603,0.28695455852836227,0.6831581533070047
0.041,1.7586674937189144,1.0,2762.7696456658855,0.3703639556139406,1.314777558520438,0.9663744573461094,0.2869170347361944,0.6840404612624753
0.0415,1.7577740700958704,1.0,2766.8180033198464,0.3738957136915122,1.314337514466575,0.9669459982894759,0.28687951094402653,0.6849232366038769
0.042,1.7568806464728264,1.0,2770.951193510815,0.37740766581735635,1.3138967318393284,0.967499206723766,0.2868419871518587,0.6858062555503468
0.0425,1.7559872228497824,1.0,2775.161861316789,0.3808999206051101,1.3134552785916975,0.9680348752447056,0.28680446335969084,0.6866893760299786
0.043000000000000003,1.7550937992267384,1.0,2779.4426321362193,0.38437258666841023,1.3130132226766813,0.968553754019668,0.286766939567523,0.6875724567269079
0.043500000000000004,1.7542003756036944,1.0,2783.78611072837,0.3878257726208938,1.312570632047279,0.9690565534879477,0.28672941577535516,0.6884553570840706
0.044,1.7533069519806503,1.0,2788.1848803567796,0.39125958707619773,1.3121275746564898,0.9695439468632823,0.28669189198318734,0.6893379373056678
0.0445,1.7524135283576063,1.0,2792.631502034606,0.39467413864795897,1.3116841184573127,0.9700165724549196,0.28665436819101947,0.6902200583593363
0.045,1.7515201047345623,1.0,2797.1185138727874,0.39806953594981453,1.3112403314027472,0.9704750358220492,0.2866168443988516,0.6911015819780233
0.0455,1.7506266811115183,1.0,2801.638430530439,0.4014458875954013,1.3107962814457923,0.9709199117750703,0.2865793206066838,0.6919823706615684
0.046,1.7497332574884743,1.0,2806.185852186067,0.404803297698085,1.3103520176294234,0.9713517442182821,0.2865417968145159,0.692862325106333
0.0465,1.7488398338654303,1.0,2810.757550917509,0.40814186940115854,1.30990756938663,0.9717710484681593,0.28650427302234804,0.6937413853216554
0.047,1.7479464102423863,1.0,2815.3427963662825,0.4114617235770149,1.309463033203513,0.9721783216616793,0.28646674923018023,0.6946193593127594
0.0475,1.7470529866193423,1.0,2819.939325950545,0.4147629618018545,1.3090184295283533,0.9725740287458055,0.28642922543801236,0.6954962060326215
0.048,1.7461595629962983,1.0,2824.544869668848,0.4180456856518779,1.3085737788094305,0.9729586122757004,0.28639170164584454,0.6963718846660354
0.0485,1.7452661393732543,1.0,2829.157150073336,0.4213099967032855,1.3081291014950251,0.9733324937013177,0.2863541778536767,0.6972463546296828
0.049,1.7443727157502102,1.0,2833.7738822538236,0.4245559965322779,1.3076844180334173,0.9736960745686534,0.28631665406150886,0.6981195755721854
0.0495,1.7434792921271662,1.0,2838.392773829771,0.4277837867150554,1.3072397488728869,0.9740497376420466,0.286279130269341,0.6989915073741244
0.05,1.742585868504122,1.0,2843.011524952334,0.43099346882781864,1.3067951144617145,0.9743938479533897,0.2862416064771731,0.6998621101480342
0.0505,1.741692444881078,1.0,2847.6278283158504,0.4341851444467681,1.3063505352481801,0.9747287537836261,0.2862040826850053,0.7007313442383722
0.051000000000000004,1.740799021258034,1.0,2852.2393691774246,0.4373589151481042,1.305906031680564,0.975054787581472,0.28616655889283743,0.7015991702214599
0.051500000000000004,1.73990559763499,1.0,2856.8438253873283,0.44051488250802745,1.3054616242071464,0.9753722668239049,0.28612903510066956,0.7024655489053957
0.052000000000000005,1.739012174011946,1.0,2861.438867427827,0.4436531481027383,1.3050173332762072,0.9756814948225809,0.28609151130850174,0.7033304413299464
0.0525,1.738118750388902,1.0,2866.0236652592844,0.4467738025599674,1.3045731659699875,0.9759827594982481,0.2860539875163339,0.7041938347290129
0.053,1.737225326765858,1.0,2870.597350836087,0.44987694535157746,1.3041291296858117,0.9762763371232567,0.286016463724166,0.7050557158053276
0.0535,1.736331903142814,1.0,2875.1565302811273,0.4529626949923383,1.303685254168154,0.9765624952689931,0.2859789399319982,0.705916028063851
0.054,1.73543847951977,1.0,2879.7008670054606,0.4560311451042057,1.3032415420133778,0.9768414858383622,0.2859414161398303,0.7067747678486889
0.0545,1.734545055896726,1.0,2884.2300236696365,0.4590823893091354,1.3027979958178468,0.9771135500194043,0.2859038923476625,0.7076319315328292
0.055,1.733651632273682,1.0,2888.743662192873,0.4621165212290831,1.3023546181779244,0.9773789188310266,0.28586636855549463,0.7084875155181172
0.0555,1.732758208650638,1.0,2893.241443762822,0.4651336344860046,1.3019114116899737,0.9776378136365548,0.2858288447633268,0.709341516235227
0.056,1.731864785027594,1.0,2897.72302884531,0.4681338227018556,1.3014683789503585,0.977890446627247,0.28579132097115895,0.7101939301436322
0.0565,1.7309713614045499,1.0,2902.1880771942015,0.4711171794985919,1.3010255225554421,0.9781370212777665,0.2857537971789911,0.7110447537315785
0.057,1.7300779377815059,1.0,2906.6362478617075,0.47408379849816923,1.3005828451015882,0.9783777327754524,0.28571627338682326,0.7118939835160544
0.0575,1.7291845141584619,1.0,2911.067199208244,0.4770337733225433,1.3001403491851597,0.9786127684250951,0.2856787495946554,0.7127416160427626
0.058,1.7282910905354179,1.0,2915.4805889131103,0.47996719759366996,1.2996980374025207,0.9788423080308022,0.2856412258024875,0.7135876478860885
0.0585,1.7273976669123736,1.0,2919.8760739850118,0.48288416493350483,1.2992559123500342,0.9790665242564245,0.2856037020103197,0.714432075649071
0.059000000000000004,1.7265042432893296,1.0,2924.2533107724016,0.48578476896400374,1.2988139766240638,0.9792855829659045,0.28556617821815183,0.7152748959633719
0.059500000000000004,1.7256108196662856,1.0,2928.6119549747373,0.4886691033071224,1.2983722328209728,0.9794996435448193,0.28552865442598396,0.7161161054892449
0.06,1.7247173960432416,1.0,2932.9516616531555,0.4915372615848166,1.297930683537125,0.9797088592042904,0.28549113063381615,0.7169557009155023
0.0605,1.7238239724201976,1.0,2937.273141487495,0.494389284269584,1.2974893221138022,0.9799133725641113,0.2854536068416483,0.7177936965187195
0.061,1.7229305487971536,1.0,2941.5757666079903,0.49722531802887837,1.2970481536340908,0.9801133298138922,0.28541608304948046,0.7186300842556684
0.0615,1.7220371251741096,1.0,2945.859381045948,0.5000454669017663,1.2966071790394589,0.980308868024485,0.2853785592573126,0.7194648639740255
0.062,1.7211437015510656,1.0,2950.1241462561366,0.5028498149441029,1.296166396495542,0.9805001174510872,0.2853410354651448,0.7202980407743793
0.0625,1.7202502779280215,1.0,2954.370224546736,0.5056384462117434,1.2957258041679764,0.9806872035184034,0.2853035116729769,0.7211296197359811
0.063,1.7193568543049775,1.0,2958.5977790722136,0.5084114447605426,1.2952854002223975,0.9808702470359655,0.28526598788080904,0.7219596059167683
0.0635,1.7184634306819335,1.0,2962.806973825076,0.5111688946463558,1.294845182824441,0.9810493644023115,0.2852284640886412,0.7227880043533865
0.064,1.7175700070588895,1.0,2966.9979736284204,0.5139108799250381,1.2944051501397429,0.9812246677986798,0.28519094029647335,0.72361482006121
0.0645,1.7166765834358455,1.0,2971.170944128551,0.5166374846524445,1.2939653003339386,0.9813962653728286,0.2851534165043055,0.7244400580343663
0.065,1.7157831598128015,1.0,2975.3260517873705,0.5193487928844301,1.2935256315726642,0.9815642614135525,0.28511589271213766,0.7252637232457544
0.0655,1.7148897361897575,1.0,2979.4634638747725,0.5220448886768501,1.2930861420215551,0.9817287565164324,0.2850783689199698,0.7260858206470688
0.066,1.7139963125667135,1.0,2983.5833484617956,0.5247258560855594,1.2926468298462477,0.9818898477413169,0.285040845127802,0.7269063551688182
0.0665,1.7131028889436695,1.0,2987.685874412857,0.5273917791664132,1.292207693212377,0.9820476287620047,0.2850033213356341,0.7277253317203489
0.067,1.7122094653206252,1.0,2991.7712113789216,0.5300427419752667,1.2917687302855791,0.982202190008567,0.28496579754346624,0.7285427551898629
0.0675,1.7113160416975814,1.0,2995.8395297905004,0.5326788285679747,1.2913299392314896,0.9823536188027207,0.2849282737512984,0.7293586304444406
0.068,1.7104226180745372,1.0,2999.891000849901,0.5353001230003925,1.2908913182157447,0.9825019994866376,0.28489074995913055,0.7301729623300586
0.0685,1.7095291944514932,1.0,3003.925796525412,0.5379067093283751,1.2904528654039797,0.9826474135455537,0.28485322616696274,0.7309857556716124
0.069,1.7086357708284492,1.0,3007.944089543253,0.5404986716077778,1.2900145789618305,0.9827899397245129,0.28481570237479487,0.7317970152729343
0.0695,1.7077423472054052,1.0,3011.946053381667,0.5430760938944554,1.2895764570549328,0.9829296541395708,0.284778178582627,0.7326067459168133
0.07,1.7068489235823612,1.0,3015.931862263845,0.5456390602442631,1.2891384978489226,0.9830666303837501,0.2847406547904592,0.7334149523650145
0.07050000000000001,1.7059554999593172,1.0,3019.9016911509984,0.548187654713056,1.2887006995094352,0.9832009396280357,0.2847031309982913,0.7342216393582996
0.07100000000000001,1.7050620763362732,1.0,3023.8556429635614,0.5507219494401546,1.288263060830564,0.9833326500390871,0.28466560720612344,0.7350268104610794
