Time [s],Phi [rad],STIM [ ],Fsee [N],Gamma [ ],Lcerel [ ],q [ ],Lmtc [m],fisomrel [ ]
0.0,1.8,1.0,17.967345742312585,1.0080989378542768e-05,1.3793397252051327,0.005000027083497433,0.288653,0.5411395818918827
0.0005,1.79999375,1.0,18.276687592769864,0.005619233751794917,1.3793023940714795,0.012940738981090206,0.2886527375,0.541229891108559
0.001,1.799975,1.0,21.6183569010684,0.011196923602136147,1.3789383046320214,0.03560899910967581,0.28865195,0.5421102081715861
0.0015,1.79994375,1.0,31.069246669812646,0.01674332702332294,1.3780462028203078,0.07060228368415349,0.2886506375,0.5442636113939627
0.002,1.7999,1.0,53.58238889718881,0.022258619506625724,1.3763681316183423,0.11471852186214176,0.2886488,0.5483004767286932
0.0025,1.79984375,1.0,97.11888982804741,0.027742975559226706,1.373935169563818,0.1645754194470508,0.28864643749999996,0.5541214571533122
0.003,1.7997750000000001,1.0,160.95822180685127,0.0331965687119384,1.3712143416980942,0.2172809965156221,0.28864354999999997,0.5605864557323041
0.0035,1.79969375,1.0,237.68345535428156,0.03861957151879403,1.3685847304194387,0.2706134273693093,0.2886401375,0.56678984853836
0.004,1.7996,1.0,321.46696112299236,0.04401215556783004,1.3661560873695109,0.32291632299733664,0.2886362,0.572479973476566
0.0045000000000000005,1.7994937500000001,1.0,409.2680098808493,0.049374491486270516,1.3639228080847126,0.3730350024102221,0.2886317375,0.57767917651702
0.005,1.799375,1.0,499.41380867900864,0.05470674893161671,1.3618583358759757,0.42024792405395095,0.28862675,0.5824570942508596
0.0055,1.79924375,1.0,590.790762462881,0.06000909663911759,1.3599388282911848,0.4641741277465588,0.2886212375,0.5868751271950541
0.006,1.7991000000000001,1.0,682.5184834038171,0.06528170236491412,1.35814640792952,0.504680357561175,0.2886152,0.5909794339514727
0.006500000000000001,1.79894375,1.0,773.8818328499351,0.07052473294151336,1.3564672438018404,0.541801120954753,0.2886086375,0.5948058166336713
0.007,1.798775,1.0,864.2859508674567,0.07573835426201574,1.3548903927403513,0.5756771153594872,0.28860155,0.5983826822085434
0.0075,1.79859375,1.0,953.2431174660633,0.08092273128898671,1.3534067806976338,0.6065102236583675,0.2885939375,0.6017335693779802
0.008,1.7984,1.0,1040.3519677719903,0.08607802796571441,1.3520087418500955,0.634532395766522,0.2885858,0.6048783343785487
0.0085,1.79819375,1.0,1125.3180667262461,0.09120440773092801,1.3506891871494096,0.6599846620409959,0.2885771375,0.6078351212260409
0.009000000000000001,1.797975,1.0,1207.8859978401165,0.09630203242989657,1.3494422288414454,0.6831045368249951,0.28856795,0.6106190328517951
0.0095,1.79774375,1.0,1287.870869173593,0.10137106332347488,1.3482624061441644,0.7041178442290539,0.2885582375,0.6132439300595571
0.01,1.7975,1.0,1365.1600588897,0.1064116612539945,1.3471444751246,0.7232344708464018,0.288548,0.6157229381073532
0.0105,1.79724375,1.0,1439.658644124805,0.1114239853438779,1.3460839570892775,0.7406468455888636,0.2885372375,0.6180672660887344
0.011,1.796975,1.0,1511.3108538352192,0.1164081940335946,1.345076692414897,0.7565293583349757,0.28852595000000003,0.620287233265289
0.0115,1.79669375,1.0,1580.1095039916527,0.12136444533083536,1.3441186205453641,0.771038822639264,0.2885141375,0.6223927774041955
0.012,1.7964,1.0,1646.0630268006973,0.12629289637271549,1.3432060945410682,0.7843156978744299,0.28850180000000003,0.6243927827483016
0.0125,1.79609375,1.0,1709.1774629504027,0.13119370239369155,1.342335994725195,0.7964854373268221,0.2884889375,0.6262948555979315
0.013000000000000001,1.7957750000000001,1.0,1769.493138334534,0.13606701848431163,1.3415052242089376,0.8076596705807827,0.28847555,0.6281064471875104
0.0135,1.79544375,1.0,1827.0717390668283,0.14091299901009743,1.3407108149346285,0.8179376584746936,0.2884616375,0.629834631972517
0.014,1.7951000000000001,1.0,1881.988881543626,0.1457317984051063,1.3399499668956647,0.8274076462475383,0.2884472,0.6314860331876164
0.0145,1.79474375,1.0,1934.2932154647979,0.15052356793421176,1.3392204494764819,0.8361482356800777,0.2884322375,0.6330659651051455
0.015,1.794375,1.0,1984.0541101175977,0.15528845886228734,1.3385200320615147,0.8442292915567559,0.28841675,0.6345796807814766
0.0155,1.79399375,1.0,2031.357711982349,0.16002662226261768,1.3378465068874275,0.851712972089679,0.2884007375,0.6360323271172303
0.016,1.7936,1.0,2076.2904784853245,0.16473820809178605,1.3371978420737773,0.8586546859074194,0.2883842,0.6374286202193493
0.0165,1.7931937500000001,1.0,2118.951551375214,0.16942336703947436,1.336572029199429,0.8651038445463737,0.2883671375,0.6387731797212333
0.017,1.792775,1.0,2159.406605144942,0.17408224589853954,1.3359675402543478,0.8711047009755915,0.28834955,0.6400695532380203
0.0175,1.7923437500000001,1.0,2197.7319689022534,0.17871499146183845,1.335382847228499,0.8766968196770271,0.2883314375,0.6413212556916623
0.018000000000000002,1.7919,1.0,2234.0137385865105,0.183321750522228,1.3348164221118475,0.8819156280409737,0.2883128,0.6425317713144808
0.0185,1.79144375,1.0,2268.3360849061946,0.1879026686484689,1.3342668451386013,0.8867929267151535,0.2882936375,0.643704324748362
0.019,1.790975,1.0,2300.7943868669704,0.1924578926454154,1.3337326631646966,0.8913572746935907,0.28827395,0.6448421860235942
0.0195,1.79049375,1.0,2331.4646718691206,0.19698756638139542,1.3332126845808085,0.8956344298253199,0.2882537375,0.6459480447527124
0.02,1.79,1.0,2360.4137838913,0.20149183190261033,1.3327058654712054,0.8996476377691173,0.288233,0.6470242572737761
0.0205,1.78949375,1.0,2387.7136361923112,0.20597083125526164,1.3322111619201558,0.903417880205171,0.2882117375,0.6480731629325895
0.021,1.788975,1.0,2413.4407881554143,0.21042470648555073,1.3317275300119282,0.9069641261403568,0.28818995000000003,0.6490970849240602
0.021500000000000002,1.78844375,1.0,2437.667333885044,0.21485359811534144,1.3312540096296304,0.9103035694201507,0.2881676375,0.6500981540315458
0.022,1.7879,1.0,2460.472256952411,0.2192576484222567,1.33078961021332,0.9134517988674984,0.2881448,0.6510785515781881
0.0225,1.78734375,1.0,2481.9213530118136,0.2236369969499225,1.3303334997010887,0.9164230049432482,0.28812143749999997,0.6520401115281595
0.023,1.786775,1.0,2502.069877193098,0.22799178071035198,1.329884973217775,0.919230120098325,0.28809755,0.6529843891744509
0.0235,1.78619375,1.0,2520.975489346638,0.23232213671555835,1.3294433258882177,0.9218849263751089,0.28807313749999996,0.6539129305730536
0.024,1.7856,1.0,2538.6980528038866,0.23662820197755474,1.3290078528372549,0.9243981736324715,0.2880482,0.6548272728680461
0.0245,1.78499375,1.0,2555.2994441532132,0.24091011350835437,1.328577849189725,0.9267796841974127,0.2880227375,0.6557289445849945
0.025,1.784375,1.0,2570.8324914530076,0.24516800497783167,1.3281527119957321,0.9290384615298308,0.28799675,0.6566192525824173
0.025500000000000002,1.78374375,1.0,2585.3616657349157,0.24940201592795952,1.3277317439756415,0.9311827421438081,0.2879702375,0.6574996938478461
0.026000000000000002,1.7831000000000001,1.0,2598.931270129924,0.2536122789679637,1.3273144498048273,0.9332201128674464,0.2879432,0.658371335934194
0.0265,1.78244375,1.0,2611.583755608746,0.2577989256563652,1.3269003620995763,0.9351575473512186,0.2879156375,0.6592351825866261
0.027,1.781775,1.0,2623.3626010623952,0.2619620875516854,1.3264890134761749,0.9370014601932075,0.28788755,0.6600922323958995
0.0275,1.7810937500000001,1.0,2634.3122239976683,0.26610189621244523,1.32607993655091,0.9387577592049108,0.2878589375,0.6609434788869724
0.028,1.7804,1.0,2644.4778960764143,0.2702184831971659,1.3256726639400678,0.9404318921556614,0.2878298,0.6617899105936853
0.0285,1.77969375,1.0,2653.900609774788,0.2743119782253058,1.325266774846027,0.9420288946178562,0.2878001375,0.6626324144810716
0.029,1.778975,1.0,2662.617491826456,0.278382510732697,1.3248618901821403,0.9435534267468806,0.28776995,0.6634717866941551
0.029500000000000002,1.7782437500000001,1.0,2670.6796569302883,0.28243021531268847,1.3244575076124003,0.9450097857538209,0.2877392375,0.6643090744705012
0.03,1.7775,1.0,2678.1151476992522,0.28645521740682917,1.3240533419874387,0.946401978505822,0.287708,0.6651448710037375
0.0305,1.77674375,1.0,2684.952415579403,0.29045764245666805,1.323649108157887,0.9477337207471945,0.2876762375,0.6659797665452947
0.031,1.775975,1.0,2691.2202846898444,0.294437615903754,1.3232445209743764,0.9490084619135615,0.28764395,0.6668143484057587
0.0315,1.7751937500000001,1.0,2696.9479174653616,0.29839526318963605,1.322839295287539,0.9502294075397876,0.2876111375,0.6676492009510371
0.032,1.7744,1.0,2702.164782102116,0.302330709755863,1.3224331459480057,0.9513995395210132,0.2875778,0.6684849055933422
0.0325,1.77359375,1.0,2706.9006218058803,0.3062440810439839,1.3220257878064086,0.9525216344556293,0.2875439375,0.6693220407769832
0.033,1.772775,1.0,2711.185303869923,0.3101355022048198,1.3216169368258088,0.9535982803198586,0.28750955,0.670161179677244
0.0335,1.7719437500000002,1.0,2715.0453398484083,0.31400509631124796,1.3212063415447204,0.9546318946699384,0.2874746375,0.6710028257380627
0.034,1.7711000000000001,1.0,2718.5022080955187,0.3178529858590762,1.3207937980215254,0.9556247401374246,0.2874392,0.6718473824965714
0.0345,1.7702437500000001,1.0,2721.576510557579,0.3216792916031132,1.3203791116697332,0.9565789319135858,0.2874032375,0.6726952321610734
0.035,1.7693750000000001,1.0,2724.2889821831864,0.32548413429816775,1.3199620879028522,0.9574964485586674,0.28736675,0.6735467547986209
0.035500000000000004,1.76849375,1.0,2726.6604762331594,0.3292676346990485,1.3195425321343917,0.9583791424103638,0.2873297375,0.6744023283072107
0.036000000000000004,1.767601698532583,1.0,2728.7959802927408,0.3330299126896929,1.3191202529529846,0.9592287492098851,0.2872922713383685,0.6752623219235431
0.0365,1.766708214920737,1.0,2731.1521118577807,0.3367710878121577,1.3186953297384676,0.9600469240904592,0.2872547450266709,0.6761265523051321
0.037,1.765814731308891,1.0,2733.774878647757,0.3404912777253261,1.3182679939821547,0.9608352347947237,0.2872172187149734,0.6769945280821912
0.0375,1.764921247697045,1.0,2736.6391435955593,0.3441906000366853,1.3178384773426046,0.9615951533136133,0.2871796924032759,0.6778657599506843
0.038,1.7640277640851991,1.0,2739.720365357581,0.3478691721345098,1.3174070058972325,0.9623280622148854,0.2871421660915784,0.6787397723448796
0.0385,1.763134280473353,1.0,2742.996602712076,0.3515271105362447,1.316973781888442,0.9630352591867088,0.2871046397798808,0.6796161402912577
0.039,1.762240796861507,1.0,2746.448846237604,0.35516453068612214,1.3165389807092616,0.963717962761081,0.2870671134681833,0.6804944951898653
0.0395,1.761347313249661,1.0,2750.0587977142454,0.35878154773030585,1.3161027710331428,0.9643773198751627,0.28702958715648574,0.6813744838812772
0.04,1.760453829637815,1.0,2753.8094627220917,0.3623782763315161,1.3156653094217579,0.9650144103057504,0.28699206084478823,0.682255779424955
0.0405,1.759560346025969,1.0,2757.686293283581,0.36595483002353846,1.3152267299897786,0.9656302502459683,0.2869545345330907,0.6831381017217832
0.041,1.758666862414123,1.0,2761.6753403425896,0.36951132201973697,1.3147871611442408,0.9662257982296024,0.28691700822139315,0.6840211836057073
0.0415,1.7577733788022771,1.0,2765.763639473128,0.3730478650692752,1.3143467220945366,0.9668019586653895,0.28687948190969564,0.684904777769197
0.042,1.756879895190431,1.0,2769.940127093462,0.3765645708071408,1.3139055145962792,0.9673595846227047,0.2868419555979981,0.6857886731697868
0.0425,1.755986411578585,1.0,2774.199898985668,0.38006154393871094,1.3134635846036538,0.9678994770994495,0.28680442928630057,0.6866727714522577
0.043000000000000003,1.755092927966739,1.0,2778.525520788294,0.38353890364426274,1.3130210908472946,0.9684224056135914,0.28676690297460306,0.6875567496325568
0.043500000000000004,1.7541994443548932,1.0,2782.904913110904,0.3869967642530484,1.312578143381531,0.9689290940410613,0.28672937666290554,0.688440383546413
0.044,1.753305960743047,1.0,2787.3329887209575,0.3904352322616626,1.3121347890356891,0.969420221999319,0.286691850351208,0.6893235761276972
0.0445,1.752412477131201,1.0,2791.8046450283446,0.3938544141666999,1.3116910746390953,0.9698964338104282,0.2866543240395104,0.6902062308364985
0.045,1.7515189935193551,1.0,2796.3147636868753,0.39725441646475484,1.3112470470210755,0.9703583406826628,0.2866167977278129,0.6910882516602692
0.0455,1.7506255099075092,1.0,2800.858210244895,0.40063534565242204,1.310802753010956,0.9708065227367847,0.2865792714161154,0.6919695431148298
0.046,1.749732026295663,1.0,2805.429833844381,0.4039973082262959,1.3103582394380633,0.9712415308894546,0.2865417451044179,0.6928500102452353
0.0465,1.748838542683817,1.0,2810.0244669685676,0.40734041068297117,1.3099135531317232,0.9716638886051295,0.2865042187927203,0.6937295586265007
0.047,1.7479450590719712,1.0,2814.63692523872,0.41066475951904235,1.3094687409212618,0.9720740935267987,0.2864666924810228,0.6946080943641868
0.0475,1.7470515754601252,1.0,2819.262007258303,0.4139704612311039,1.3090238496360056,0.9724726189950093,0.28642916616932523,0.695485524094845
0.048,1.746158091848279,1.0,2823.8951252371344,0.41725762033543945,1.308578920468821,0.9728599148173862,0.2863916398576277,0.6963617660787534
0.0485,1.7452646082364331,1.0,2828.5362077301224,0.420526331117411,1.3081339541508368,0.9732364052046331,0.2863541135459302,0.6972368185566646
0.049,1.7443711246245872,1.0,2833.176803836857,0.4237767169141653,1.3076890261702998,0.9736025029606061,0.28631658723423264,0.6981105330815451
0.0495,1.743477641012741,1.0,2837.815541536799,0.4270088770292783,1.3072441486638853,0.9739585942926697,0.28627906092253513,0.6989828861983558
0.05,1.7425841574008951,1.0,2842.451044371091,0.4302229107663263,1.306799333768268,0.9743050474895403,0.28624153461083757,0.6998538545897542
0.0505,1.7416906737890492,1.0,2847.081931458069,0.43341891742888516,1.306354593620123,0.9746422139142843,0.28620400829914006,0.70072341507605
0.051000000000000004,1.7407971901772032,1.0,2851.7068175113764,0.4365969963205311,1.3059099403561258,0.9749704289337201,0.28616648198744254,0.7015915446151515
0.051500000000000004,1.739903706565357,1.0,2856.3243128619106,0.4397572467448402,1.3054653861129508,0.9752900127888356,0.286128955675745,0.702458220302506
0.052000000000000005,1.7390102229535112,1.0,2860.9330234830377,0.44289976800538844,1.3050209430272737,0.9756012714104524,0.28609142936404747,0.7033234193710225
0.0525,1.7381167393416652,1.0,2865.5315510185014,0.4460246594057519,1.3045766232357692,0.9759044971840265,0.28605390305234996,0.7041871191909959
0.053,1.7372232557298193,1.0,2870.118492814135,0.4491320202495069,1.3041324388751123,0.9761999696671774,0.2860163767406524,0.7050492972700131
0.0535,1.7363297721179731,1.0,2874.692441952772,0.4522219498402293,1.3036884020819786,0.9764879562632491,0.2859788504289549,0.7059099312528525
0.054,1.7354362885061272,1.0,2879.2519872921857,0.4552945474814952,1.3032445249930424,0.9767687128539512,0.28594132411725737,0.7067689989213778
0.0545,1.7345428048942813,1.0,2883.7957385549144,0.4583499121390839,1.3028008195234722,0.9770424843476648,0.2859037978055598,0.7076264786221736
0.055,1.7336493212824353,1.0,2888.325897826655,0.4613881011842338,1.3023572658098006,0.9773094994187819,0.2858662714938623,0.7084824101148648
0.0555,1.7327558376705892,1.0,2892.8379881837022,0.46440926852795095,1.3019139030231373,0.9775699898117552,0.2858287451821647,0.7093367192644633
0.056,1.7318623540587432,1.0,2897.331958568198,0.4674135048414803,1.3014707311674134,0.9778241693626064,0.2857912188704672,0.7101894076829884
0.0565,1.7309688704468973,1.0,2901.8077581632037,0.47040090079606667,1.3010277502465604,0.9780722431148865,0.2857536925587697,0.7110404769818064
0.057,1.7300753868350514,1.0,2906.2653363928885,0.47337154706295503,1.3005849602645096,0.9783144077529474,0.28571616624707213,0.71188992877163
0.0575,1.7291819032232052,1.0,2910.704642922781,0.4763255343133903,1.3001423612251923,0.9785508520104761,0.2856786399353746,0.7127377646625197
0.058,1.7282884196113593,1.0,2915.12562765928,0.4792629532186174,1.29969995313254,0.9787817570558921,0.28564111362367706,0.713583986263882
0.0585,1.7273949359995133,1.0,2919.528240750211,0.4821838944498812,1.2992577359904836,0.9790072968560919,0.28560358731197955,0.7144285951844709
0.059000000000000004,1.7265014523876672,1.0,2923.912432584301,0.48508844867842665,1.2988157098029547,0.9792276385199218,0.28556606100028203,0.7152715930323864
0.059500000000000004,1.7256079687758212,1.0,2928.278153791536,0.4879767065754986,1.2983738745738846,0.9794429426226573,0.2855285346885845,0.7161129814150757
0.06,1.7247144851639753,1.0,2932.6253552432104,0.49084875881234197,1.2979322303072047,0.9796533635126822,0.28549100837688696,0.7169527619393327
0.0605,1.7238210015521294,1.0,2936.9539880518396,0.4937046960602018,1.2974907770068462,0.9798590496014726,0.28545348206518945,0.7177909362112975
0.061,1.7229275179402832,1.0,2941.2640035710456,0.4965446089903228,1.2970495146767405,0.980060143637919,0.2854159557534919,0.7186275058364572
0.0615,1.7220340343284373,1.0,2945.5553533958405,0.4993685882739501,1.2966084433208187,0.9802567829679439,0.28537842944179437,0.719462472419645
0.062,1.7211405507165913,1.0,2949.827989362444,0.5021767245823284,1.2961675629430125,0.9804490997803113,0.28534090313009686,0.7202958375650406
0.0625,1.7202470671047454,1.0,2954.0818635482947,0.5049691085867029,1.295726873547253,0.9806372213394591,0.2853033768183993,0.7211276028761706
0.063,1.7193535834928992,1.0,2958.316928272412,0.5077458309583182,1.2952863751374715,0.9808212702061349,0.2852658505067018,0.7219577699559072
0.0635,1.7184600998810533,1.0,2962.5331360946943,0.5105069823684193,1.2948460677175995,0.9810013644465554,0.2852283241950042,0.7227863404064692
0.064,1.7175666162692074,1.0,2966.730727918749,0.5132526044813711,1.294405948779714,0.9811776141934009,0.2851907978833067,0.7236133205456521
0.0645,1.7166731326573614,1.0,2970.9099806634904,0.5159828329929725,1.2939660155112775,0.9813501323044073,0.2851532715716092,0.7244387172334927
0.065,1.7157796490455153,1.0,2975.0710389419232,0.5186977686787612,1.2935262662615883,0.9815190251501402,0.2851157452599116,0.7252625351228673
0.0655,1.7148861654336693,1.0,2979.2140928219155,0.5213974925245246,1.2930866989910597,0.9816843939261155,0.2850782189482141,0.726084779574375
0.066,1.7139926818218234,1.0,2983.3393332454325,0.5240820855160504,1.292647311660105,0.9818463362698872,0.28504069263651655,0.7269054559251066
0.0665,1.7130991982099775,1.0,2987.446952020558,0.5267516286391263,1.292208102229137,0.9820049464116557,0.28500316632481904,0.7277245694886679
0.067,1.7122057145981313,1.0,2991.53714181306,0.52940620287954,1.2917690686585694,0.9821603153174702,0.2849656400131215,0.7285421255552009
0.0675,1.7113122309862854,1.0,2995.6100961386674,0.5320458892230788,1.2913302089088152,0.9823125308254399,0.284928113701424,0.7293581293914098
0.068,1.7104187473744394,1.0,2999.6660093551286,0.5346707686555308,1.2908915209402878,0.9824616777753417,0.28489058738972645,0.7301725862405807
0.0685,1.7095252637625933,1.0,3003.7050766544335,0.5372809221626833,1.2904530027134005,0.9826078381319889,0.28485306107802894,0.7309855013226064
0.069,1.7086317801507473,1.0,3007.7274940548123,0.539876430730324,1.290014652188566,0.9827510911027016,0.28481553476633137,0.7317968798340085
0.0695,1.7077382965389014,1.0,3011.733458393593,0.5424573753442405,1.2895764673261982,0.9828915132491995,0.28477800845463386,0.7326067269479568
0.07,1.7068448129270555,1.0,3015.7231673192127,0.5450238369902205,1.28913844608671,0.9830291785942177,0.28474048214293635,0.7334150478142945
0.07050000000000001,1.7059513293152093,1.0,3019.696819283806,0.5475758966540517,1.2887005864305143,0.9831641587231307,0.2847029558312388,0.7342218475595572
0.07100000000000001,1.7050578457033634,1.0,3023.654613536407,0.5501136353215216,1.288262886318025,0.9832965228808463,0.28466542951954127,0.7350271312869943
0.07150000000000001,1.7041643620915174,1.0,3027.5967501147898,0.5526371339784177,1.287825343709655,0.9834263380642241,0.2846279032078437,0.7358309040765911
