Time [s],Phi [rad],STIM [ ],Fsee [N],Gamma [ ],Lcerel [ ],q [ ],Lmtc [m],fisomrel [ ]
0.0,1.8,1.0,17.975574565083637,0.0001026914178503782,1.3793388034121292,0.005002759369985126,0.288653,0.5411418119446874
0.0005,1.79999375,1.0,18.315739423449273,0.0057113247090273215,1.379298058481262,0.013199850016661113,0.2886527375,0.5412403789296723
0.001,1.799975,1.0,21.726353783422358,0.011288498001914681,1.378927288075242,0.03609322842442223,0.28865195,0.542136831479409
0.0015,1.79994375,1.0,31.32464298959773,0.016834387763160652,1.3780244884674882,0.0712640757384996,0.2886506375,0.5443159633893302
0.002,1.7999,1.0,54.13166995018956,0.022349169467636813,1.376332587953043,0.11550163032271939,0.2886488,0.5483857884074144
0.0025,1.79984375,1.0,98.0407529106073,0.027833017606610735,1.3738908520893351,0.1654269669153059,0.28864643749999996,0.5542271387879812
0.003,1.7997750000000001,1.0,162.15659553737885,0.033286105694617325,1.3711695686186403,0.21815924524780697,0.28864354999999997,0.560692446847744
0.0035,1.79969375,1.0,239.03685398776224,0.038708606269739675,1.3685431013483675,0.27148677555625594,0.2886401375,0.5668876991343332
0.004,1.7996,1.0,322.9064750838636,0.04410069090419027,1.3661180027418818,0.3237618456355239,0.2886362,0.5725689032790033
0.0045000000000000005,1.7994937500000001,1.0,410.75839794353675,0.04946253020955552,1.3638878547996098,0.3738375443133057,0.2886317375,0.5777602969685525
0.005,1.799375,1.0,500.9343766973573,0.05479429382840593,1.361826048499412,0.42099870648660415,0.28862675,0.5825316027656287
0.0055,1.79924375,1.0,592.324438383275,0.06009615047661129,1.3599088834131237,0.4648692020781248,0.2886212375,0.586943863648975
0.006,1.7991000000000001,1.0,684.0534498913642,0.06536826789862252,1.3581185220020133,0.505319106684181,0.2886152,0.5910431256348645
0.006500000000000001,1.79894375,1.0,775.4073783348257,0.07061081290081753,1.3564412145706313,0.5423851401660995,0.2886086375,0.5948649890159861
0.007,1.798775,1.0,865.7967375150623,0.07582395138907232,1.354865999352284,0.5762092936524207,0.28860155,0.5984378906368136
0.0075,1.79859375,1.0,954.7323736655627,0.08100784831398582,1.3533838833367124,0.60699419996235,0.2885939375,0.6017851753758444
0.008,1.7984,1.0,1041.809645491432,0.08616266746719045,1.3519872879279446,0.6349721467583345,0.2885858,0.6049264959729916
0.0085,1.79819375,1.0,1126.740027819025,0.09128857248495312,1.3506690637977643,0.660384145934112,0.2885771375,0.6078801265790801
0.009000000000000001,1.797975,1.0,1209.269521136058,0.09638572520485653,1.3494233299394414,0.6834675705750161,0.28856795,0.6106611495345418
0.0095,1.79774375,1.0,1289.2116731166516,0.10145428669604248,1.3482446681909697,0.7044480293579704,0.2885582375,0.6132833261369944
0.01,1.7975,1.0,1366.4488503660461,0.10649441746752528,1.347127914535453,0.7235351638365282,0.288548,0.6157596012444744
0.0105,1.79724375,1.0,1440.910780476382,0.11150627758540488,1.3460682890433162,0.7409209510103651,0.2885372375,0.6181018473170656
0.011,1.796975,1.0,1512.525937306084,0.11649002490550182,1.3450618525712807,0.7567796006798427,0.28852595000000003,0.6203198912629966
0.0115,1.79669375,1.0,1581.273437316736,0.12144581713716446,1.3441047180764287,0.771267723162469,0.2885141375,0.6224232876197114
0.012,1.7964,1.0,1647.166882196331,0.1263738110806184,1.3431931762953413,0.7845254783431966,0.28850180000000003,0.6244210578581467
0.0125,1.79609375,1.0,1710.2436326158781,0.13127416366697814,1.3423237499050718,0.7966779288749654,0.2884889375,0.6263215888103633
0.013000000000000001,1.7957750000000001,1.0,1770.5239325023508,0.13614702892743827,1.3414935890678201,0.8078365995941788,0.28847555,0.6281317877091162
0.0135,1.79544375,1.0,1828.0586663252166,0.1409925608489371,1.3406998517662083,0.818100607142851,0.2884616375,0.6298584534645526
0.014,1.7951000000000001,1.0,1882.914631963605,0.1458109126057194,1.33993983433129,0.827558053360157,0.2884472,0.6315080007487726
0.0145,1.79474375,1.0,1935.1776097794047,0.15060223812550527,1.3392109012539428,0.8362872394762879,0.2884322375,0.6330866213982393
0.015,1.794375,1.0,1984.915208907464,0.15536668873702192,1.338510852615195,0.8443579149987787,0.28841675,0.6345994982835897
0.0155,1.79399375,1.0,2032.1913747270667,0.16010441412702298,1.3378377239453845,0.8518322040377793,0.2884007375,0.6360512508909508
0.016,1.7936,1.0,2077.0861262580706,0.164815563982262,1.337189550774849,0.8587654285492624,0.2883842,0.6374464504089781
0.0165,1.7931937500000001,1.0,2119.692348741426,0.1695002878075774,1.336564387528335,0.8652069203103825,0.2883671375,0.6387895824224386
0.017,1.792775,1.0,2160.0968454395475,0.1741587337787956,1.3359604870612567,0.8712007819253766,0.28834955,0.6400846656044745
0.0175,1.7923437500000001,1.0,2198.397835008242,0.17879105104281331,1.3353761026621334,0.876786448095391,0.2883314375,0.6413356816427238
0.018000000000000002,1.7919,1.0,2234.6621432525435,0.18339738467099712,1.3348099079419617,0.8819993429940266,0.2883128,0.642545680943543
0.0185,1.79144375,1.0,2268.9648216382407,0.18797787973471367,1.3342605765117388,0.8868712361790391,0.2882936375,0.643717688105995
0.019,1.790975,1.0,2301.3884658587954,0.19253268130532963,1.3337267819824619,0.891430665842363,0.28827395,0.6448547034044336
0.0195,1.79049375,1.0,2332.0067809648517,0.19706193338096314,1.3332073532649988,0.8957033465283885,0.2882537375,0.6459593741394587
0.02,1.79,1.0,2360.9223152260242,0.201565780797545,1.3327008951136021,0.8997123996365186,0.288233,0.6470348035414794
0.0205,1.78949375,1.0,2388.2210904814087,0.20604436653060973,1.332206230521496,0.9034787462698569,0.2882117375,0.6480836109779934
0.021,1.788975,1.0,2413.951170345426,0.21049783081022216,1.3317225966655815,0.9070213916221408,0.28818995000000003,0.6491075218796045
0.021500000000000002,1.788443753149648,1.0,2438.1643606663706,0.21492631386644717,1.33124923072276,0.9103575440017869,0.2881676376322852,0.6501082498264661
0.022,1.7879065337582674,1.0,2461.223445045382,0.21932995592934953,1.3307853698699323,0.9135028094514396,0.2881450744178472,0.6510874970663649
0.0225,1.787369314366887,1.0,2483.472916401472,0.2237088970047769,1.330330257389581,0.9164713641496824,0.28812251120340926,0.6520469421330777
0.023,1.7868320949755065,1.0,2504.944611362995,0.22806327587726657,1.3298834738808225,0.9192761692333019,0.28809994798897126,0.6529875435596961
0.0235,1.7862948755841261,1.0,2525.6549959542704,0.2323932311593471,1.3294447568702423,0.9219290610132951,0.28807738477453326,0.6539099240137338
0.024,1.7857576561927455,1.0,2545.6288839481685,0.23669889866220364,1.3290137737737922,0.9244408221348669,0.2880548215600953,0.6548148490660968
0.0245,1.785220436801365,1.0,2564.8920542160586,0.24098041419702146,1.328590192007424,0.9268213033833814,0.2880322583456573,0.6557030794532025
0.025,1.7846832174099847,1.0,2583.4711949256234,0.2452379135749857,1.3281736789870893,0.9290795169816036,0.2880096951312193,0.6565753712374964
0.025500000000000002,1.784145998018604,1.0,2601.3815696762645,0.2494715240261147,1.327764016469581,0.9312237343055161,0.2879871319167814,0.657432236950664
0.026000000000000002,1.7836087786272237,1.0,2618.6685326354054,0.2536813932410814,1.3273607129306637,0.9332615084883087,0.2879645687023434,0.6582747564717079
0.0265,1.7830715592358433,1.0,2635.354956617889,0.25786765346383667,1.3269634939115016,0.935199805413999,0.2879420054879054,0.6591035511772432
0.027,1.7825343398444629,1.0,2651.4603114298584,0.26203043420208,1.3265721221485731,0.9370450367356031,0.28791944227346744,0.6599191614648515
0.0275,1.7819971204530822,1.0,2667.004613582688,0.26616986496351086,1.3261863603783575,0.9388031072018435,0.28789687905902944,0.6607221246910724
0.028,1.7814599010617018,1.0,2682.008396158223,0.27028607525582876,1.325805971337333,0.9404794614421788,0.28787431584459144,0.6615129752580899
0.0285,1.7809226816703214,1.0,2696.492679921114,0.27437919458673315,1.3254307177619784,0.9420791258686165,0.2878517526301535,0.6622922446968226
0.029,1.7803854622789408,1.0,2710.4789456796143,0.2784493524639236,1.325060362388773,0.9436067462570605,0.2878291894157155,0.6630604617464275
0.029500000000000002,1.7798482428875604,1.0,2723.9891078949395,0.2824966783950995,1.3246946679541949,0.9450666215007296,0.2878066262012775,0.663818152430214
0.03,1.77931102349618,1.0,2737.045489538217,0.28652130188796043,1.324333397194723,0.9464627339672865,0.28778406298683956,0.6645658401279655
0.0305,1.7787738041047996,1.0,2749.6669995569614,0.29052334896488546,1.3239763472481585,0.9477987801482612,0.28776149977240156,0.6653039745654994
0.031,1.778236584713419,1.0,2761.8704190069634,0.29450294502294744,1.3236233374466229,0.9490781943908171,0.28773893655796356,0.6660329574614454
0.0315,1.7776993653220385,1.0,2773.683302212749,0.2984602258752314,1.3232740925840252,0.9503041598185805,0.2877163733435256,0.6667533834948187
0.032,1.7771621459306581,1.0,2785.1188186897507,0.3023953134181764,1.3229284701275155,0.9514796495346268,0.2876938101290876,0.6674655713683111
0.0325,1.7766249265392775,1.0,2796.1903577754906,0.30630832954822124,1.3225863275442442,0.952607432064422,0.2876712469146496,0.6681698382701454
0.033,1.776087707147897,1.0,2806.9115174070525,0.31019939616180486,1.3222475223013617,0.9536900879255351,0.2876486837002117,0.6688664999063566
0.0335,1.7755504877565167,1.0,2817.296093349141,0.3140686351553662,1.3219119118660179,0.9547300246661069,0.2876261204857737,0.6695558705317767
0.034,1.7750132683651363,1.0,2827.3580688733714,0.31791616842534404,1.321579353705363,0.9557294905298955,0.28760355727133574,0.6702382629797226
0.0345,1.7744760489737557,1.0,2837.1116048865224,0.32174211786817747,1.3212497052865477,0.9566905868878828,0.28758099405689774,0.6709139886903899
0.035,1.7739388295823753,1.0,2846.571030510812,0.3255466053803052,1.320922824076722,0.9576152795607853,0.28755843084245974,0.6715833577379509
0.035500000000000004,1.7734016101909948,1.0,2855.7508341133407,0.3293297528581663,1.320598567543036,0.9585054091430548,0.28753586762802175,0.6722466788563564
0.036000000000000004,1.7728643907996142,1.0,2864.66155141839,0.3330916762580464,1.3202768295601581,0.9593627027974597,0.2875133044135838,0.6729041850985122
0.0365,1.7723271714082338,1.0,2873.31539851838,0.33683249616377464,1.3199574901602305,0.9601887800205733,0.2874907411991458,0.673556136767749
0.037,1.7717899520168534,1.0,2881.7298885770088,0.3405523412866024,1.3196403835882116,0.9609851581000511,0.2874681779847078,0.6742028864144802
0.0375,1.771252732625473,1.0,2889.913055176476,0.3442513258484255,1.3193254291045182,0.961753267426563,0.28744561477026986,0.674844612012804
0.038,1.7707155132340924,1.0,2897.8730152881067,0.34792956407114,1.3190125459695679,0.962494452663562,0.28742305155583187,0.6754814907972397
0.0385,1.770178293842712,1.0,2905.6179654925963,0.35158717017664187,1.3187016534437774,0.9632099788302924,0.28740048834139387,0.6761136992736045
0.039,1.7696410744513316,1.0,2913.156178344118,0.3552242583868271,1.318392670787564,0.9639010368894168,0.2873779251269559,0.6767414132294705
0.0395,1.769103855059951,1.0,2920.495998878925,0.35884094292359164,1.3180855172613448,0.964568748884545,0.2873553619125179,0.6773648077442052
0.04,1.7685666356685705,1.0,2927.6458412692655,0.36243733800883154,1.3177801121255368,0.965214172668357,0.2873327986980799,0.677984057198601
0.0405,1.7680294162771901,1.0,2934.6141856208515,0.3660135578644428,1.3174763746405573,0.9658383062579734,0.287310235483642,0.6785993352840832
0.041,1.7674921968858097,1.0,2941.4095749152984,0.3695697167123213,1.3171742240668236,0.9664420918505887,0.287287672269204,0.6792108150115064
0.0415,1.766954977494429,1.0,2948.0406120974744,0.3731059287743631,1.3168735796647524,0.9670264195291548,0.287265109054766,0.6798186687195339
0.042,1.7664177581030487,1.0,2954.512733027388,0.37662230003147884,1.3165743888641215,0.9675921316612719,0.28724254584032805,0.6804230112095281
0.0425,1.7658805387116683,1.0,2960.832565207637,0.38011894250439743,1.3162765890507364,0.9681400252285987,0.28721998262589005,0.6810239770995906
0.043000000000000003,1.7653433193202877,1.0,2967.0120693684457,0.38359598250255694,1.3159800714969463,0.9686708530903989,0.28719741941145205,0.6816217934208697
0.043500000000000004,1.7648060999289072,1.0,2973.055683577777,0.38705352615682376,1.3156847935461116,0.9691853303060145,0.2871748561970141,0.682216553328281
0.044,1.7642688805375268,1.0,2978.967876285188,0.39049167959806436,1.315390712541593,0.9696841344962291,0.2871522929825761,0.682808349625339
0.0445,1.7637316611461464,1.0,2984.7531451701516,0.39391054895714517,1.3150977858267503,0.9701679081744455,0.28712972976813816,0.6833972747674726
0.045,1.7631944417547658,1.0,2990.416016029546,0.3973102403649327,1.3148059707449447,0.9706372609105737,0.28710716655370017,0.6839834208652202
0.0455,1.7626572223633854,1.0,2995.9610417067615,0.40069085995229325,1.314515224639536,0.9710927713411621,0.28708460333926217,0.6845668796873159
0.046,1.762120002972005,1.0,3001.3928010601558,0.40405251385009333,1.3142255048538851,0.9715349890380828,0.2870620401248242,0.6851477426636512
0.0465,1.7615827835806244,1.0,3006.715897972226,0.4073953081891994,1.3139367687313523,0.9719644362470025,0.2870394769103862,0.6857261008881295
0.047,1.761045564189244,1.0,3011.934960399436,0.41071934910047786,1.3136489736152979,0.9723816095058618,0.28701691369594823,0.6863020451213973
0.0475,1.7605083447978636,1.0,3017.054639461802,0.4140247427147951,1.3133620768490823,0.9727869811527216,0.2869943504815103,0.6868756657934625
0.048,1.7599711254064832,1.0,3022.079608572956,0.4173115951630176,1.3130760357760662,0.973181000731497,0.2869717872670723,0.6874470530061967
0.0485,1.7594339060151025,1.0,3027.014562611214,0.4205800125760118,1.31279080773961,0.973564096303397,0.2869492240526343,0.6880162965357217
0.049,1.7588966866237221,1.0,3031.860237623421,0.42383008161113583,1.3125063844042275,0.9739366756651522,0.28692666083819635,0.6885834174317513
0.0495,1.7583594672323417,1.0,3036.6227097932224,0.4270619206270742,1.3122227114786618,0.9742991282114485,0.28690409762375835,0.6891485281789297
0.05,1.757822247840961,1.0,3041.307727330265,0.43027564537989943,1.3119397376999595,0.9746518251101058,0.28688153440932035,0.6897117348331647
0.0505,1.7572850284495807,1.0,3045.9175177933957,0.4334713533102904,1.3116574422860565,0.9749951203478971,0.2868589711948824,0.6902730824863308
0.051000000000000004,1.7567478090582003,1.0,3050.454319179029,0.43664914185892606,1.3113758044548887,0.9753293518106112,0.2868364079804444,0.6908326160716548
0.051500000000000004,1.7562105896668196,1.0,3054.920379613533,0.43980910846648547,1.3110948034243926,0.9756548421575251,0.2868138447660064,0.6913903803646
0.052000000000000005,1.7556733702754392,1.0,3059.317957055097,0.44295135057364743,1.310814418412504,0.9759718996409564,0.2867912815515684,0.6919464199837275
0.0525,1.7551361508840588,1.0,3063.6493190050287,0.44607596562109103,1.3105346286371586,0.9762808188747972,0.28676871833713047,0.6925007793915242
0.053,1.7545989314926784,1.0,3067.9167422283545,0.44918305104949524,1.3102554133162934,0.9765818815556173,0.2867461551226925,0.6930535028952041
0.0535,1.7540617121012978,1.0,3072.122512484823,0.45227270429953903,1.3099767516678438,0.9768753571396529,0.28672359190825447,0.693604634647487
0.054,1.7535244927099174,1.0,3076.268924269145,0.4553450228119013,1.309698622909746,0.9771615034787332,0.28670102869381653,0.6941542186473435
0.0545,1.752987273318537,1.0,3080.3582805597935,0.45840010402726106,1.3094210062599363,0.9774405674179601,0.28667846547937853,0.6947022987407159
0.055,1.7524500539271566,1.0,3084.392892579263,0.4614380453862973,1.3091438809363507,0.9777127853577489,0.2866559022649406,0.6952489186212099
0.0555,1.751912834535776,1.0,3088.3750795621604,0.4644589443296889,1.308867226156925,0.9779783837826334,0.2866333390505026,0.6957941218307621
0.056,1.7513756151443955,1.0,3092.3071685339883,0.46746289829811494,1.3085910211395957,0.9782375797590619,0.2866107758360646,0.696337951760273
0.0565,1.7508383957530151,1.0,3096.1914940991214,0.47045000473225435,1.3083152451022986,0.9784905814042442,0.28658821262162665,0.6968804516502218
0.057,1.7503011763616345,1.0,3100.0279749848237,0.47342033429249525,1.3080398979311993,0.9787375871304237,0.28656564940718865,0.6974216239876795
0.0575,1.749763956970254,1.0,3103.818500454807,0.4763739865651898,1.3077649627264851,0.9789787889378723,0.28654308619275065,0.6979615042026952
0.058,1.7492267375788737,1.0,3107.567891789457,0.4793110936131281,1.3074903976623011,0.9792143724950176,0.2865205229783127,0.698500176484311
0.0585,1.748689518187493,1.0,3111.2771374706786,0.4822317431941333,1.3072161936533293,0.9794445140653898,0.2864979597638747,0.6990376605776789
0.059000000000000004,1.7481522987961127,1.0,3114.9472294076445,0.4851360230660285,1.306942341614251,0.9796693829653615,0.2864753965494367,0.6995739761618638
0.059500000000000004,1.7476150794047323,1.0,3118.579162864769,0.48802402098663683,1.3066688324597477,0.9798891418923675,0.28645283333499877,0.7001091428500483
0.06,1.7470778600133519,1.0,3122.1739363914453,0.4908958247137814,1.3063956571045015,0.9801039472351428,0.28643027012056077,0.7006431801897346
0.0605,1.7465406406219712,1.0,3125.732551754415,0.4937515220052854,1.3061228064631938,0.9803139493671023,0.28640770690612277,0.7011761076629401
0.061,1.7460034212305908,1.0,3129.256013871273,0.49659120061897194,1.3058502714505063,0.9805192929238931,0.28638514369168483,0.7017079446863892
0.0615,1.7454662018392104,1.0,3132.7453307456167,0.4994149483126641,1.3055780429811206,0.9807201170660969,0.28636258047724683,0.7022387106116978
0.062,1.74492898244783,1.0,3136.2015134050207,0.502222852844185,1.305306111969718,0.9809165557279745,0.2863400172628089,0.7027684247255549
0.0625,1.7443917630564494,1.0,3139.6255758393913,0.5050150019713578,1.3050344693309808,0.9811087378531024,0.2863174540483709,0.7032971062498947
0.063,1.743854543665069,1.0,3143.018534942878,0.5077914834520058,1.30476310597959,0.9812967876176768,0.2862948908339329,0.70382477434207
0.0635,1.7433173242736886,1.0,3146.3814104560324,0.5105523850439518,1.304492012830228,0.9814808246422254,0.28627232761949495,0.7043514480950137
0.064,1.742780104882308,1.0,3149.715224910604,0.5132977945050191,1.3042211807975757,0.9816609641924043,0.28624976440505695,0.7048771465374004
0.0645,1.7422428854909275,1.0,3153.02100357624,0.5160277995930309,1.3039506007963149,0.9818373173695211,0.28622720119061895,0.7054018886337987
0.065,1.7417056660995471,1.0,3156.299774408628,0.5187424880658101,1.3036802637411273,0.9820099912913809,0.286204637976181,0.7059256932848194
0.0655,1.7411684467081665,1.0,3159.5525679996013,0.5214419476811801,1.3034101605466948,0.9821790892640135,0.286182074761743,0.7064485793272606
0.066,1.740631227316786,1.0,3162.780417529299,0.5241262661969639,1.3031402821276985,0.9823447109448022,0.286159511547305,0.7069705655342454
0.0665,1.7400940079254057,1.0,3165.9843587198297,0.5267955313709846,1.3028706193988207,0.982506952497505,0.28613694833286707,0.7074916706153531
0.067,1.7395567885340253,1.0,3169.1650833185467,0.5294498218909605,1.3026011661974368,0.9826659062916416,0.28611438511842907,0.7080119075763751
0.0675,1.7390195691426447,1.0,3172.321665762314,0.5320891827805402,1.3023319300119642,0.9828216600073547,0.2860918219039911,0.7085312630588034
0.068,1.7384823497512643,1.0,3175.4570492484527,0.5347137628760255,1.3020628857156007,0.9829743033826629,0.28606925868955313,0.7090497865853442
0.0685,1.7379451303598838,1.0,3178.5716583821822,0.5373236401903225,1.301794029447725,0.9831239196125694,0.28604669547511513,0.7095674865743166
0.069,1.7374079109685032,1.0,3181.665918905795,0.5399188927363372,1.301525357347717,0.9832705890925342,0.28602413226067713,0.7100843714168736
0.0695,1.7368706915771228,1.0,3184.740257682411,0.5424995985269758,1.3012568655549557,0.9834143895319208,0.28600156904623913,0.7106004494770516
0.07,1.7363334721857424,1.0,3187.7951026805185,0.5450658355751443,1.3009885502088208,0.9835553960621036,0.2859790058318012,0.7111157290918119
