Time [s],Phi [rad],STIM [ ],Fsee [N],Gamma [ ],Lcerel [ ],q [ ],Lmtc [m],fisomrel [ ]
0.0,1.8,1.0,17.967972376275117,1.3871395819940724e-05,1.379339655002151,0.005000051149903278,0.288653,0.5411397517310237
0.0005,1.79999375,1.0,18.27853357051659,0.005623002897054906,1.3793021890241444,0.012951264174110175,0.2886527375,0.5412303871221055
0.001,1.799975,1.0,21.622993969116287,0.011200671605471342,1.378937831048896,0.03562874929048411,0.28865195,0.5421113526784387
0.0015,1.79994375,1.0,31.079876398954152,0.016747054003324376,1.3780452972814874,0.07062931687290323,0.2886506375,0.5442657946535454
0.002,1.7999,1.0,53.60500267649486,0.022262325581213133,1.3763666647076418,0.11475053765531397,0.2886488,0.5483039977577984
0.0025,1.79984375,1.0,97.1567537464492,0.02774666084566824,1.3739333451693136,0.16461025159621623,0.28864643749999996,0.5541258079416038
0.003,1.7997750000000001,1.0,161.00742748862623,0.03320023332683648,1.371212500023652,0.21731693361484752,0.28864354999999997,0.5605908157722903
0.0035,1.79969375,1.0,237.73901308828442,0.03862321557809783,1.3685830191947026,0.27064917318170856,0.2886401375,0.5667938710501197
0.004,1.7996,1.0,321.5260364914464,0.04401577918684116,1.3661545227609804,0.3229509365619142,0.2886362,0.5724836271099449
0.0045000000000000005,1.7994937500000001,1.0,409.3291561656905,0.04937809477965071,1.3639213728024,0.3730678611085717,0.2886317375,0.5776825077092367
0.005,1.799375,1.0,499.4761715601361,0.054710332013399636,1.3618570107117018,0.42027866683327786,0.28862675,0.5824601524196151
0.0055,1.79924375,1.0,590.8536715475519,0.0600126596225935,1.3599375992333054,0.464202591294551,0.2886212375,0.5868779485273101
0.006,1.7991000000000001,1.0,682.5814584038378,0.06528524536284945,1.3581452632383617,0.5047065156981312,0.2886152,0.5909820485329229
0.006500000000000001,1.79894375,1.0,773.9467211292204,0.07052825606773083,1.3564661361399684,0.5418250135221409,0.2886086375,0.5948083347750049
0.007,1.798775,1.0,864.3504888133301,0.07574185762235357,1.3548893502652701,0.5756988843810616,0.28860155,0.5983850416718572
0.0075,1.79859375,1.0,953.3058295785476,0.08092621500225233,1.3534058161363485,0.6065300295494566,0.2885939375,0.6017357433705404
0.008,1.7984,1.0,1040.421072548085,0.08608149223082298,1.352007724435218,0.6345503242666928,0.2885858,0.6048806184245524
0.0085,1.79819375,1.0,1125.3762012233979,0.09120785226816387,1.3506883641907041,0.6600010236091859,0.2885771375,0.6078369618024492
0.009000000000000001,1.797975,1.0,1207.9431924386529,0.09630545765651054,1.349441447349908,0.6831194006410471,0.28856795,0.6106207744706682
0.0095,1.79774375,1.0,1287.9439928710985,0.10137446981041476,1.3482614385278169,0.7041312385352378,0.2885582375,0.6132460791917591
0.01,1.7975,1.0,1365.2272844285264,0.10641504846949976,1.3471436111031252,0.7232466902060593,0.288548,0.6157248509894202
0.0105,1.79724375,1.0,1439.7131303150702,0.11142735323821312,1.3460832751590417,0.7406580511078775,0.2885372375,0.6180687712219102
0.011,1.796975,1.0,1511.3694055430512,0.11641154317009648,1.3450759771847065,0.7565395554746712,0.28852595000000003,0.6202888073023595
0.0115,1.79669375,1.0,1580.1749902640777,0.12136777607252913,1.3441178382161356,0.77104810041947,0.2885141375,0.6223944943286146
0.012,1.7964,1.0,1646.1167838572949,0.12629620810383804,1.343205465330391,0.7843242452805547,0.28850180000000003,0.6243941599724162
0.0125,1.79609375,1.0,1709.220776935957,0.13119699521764266,1.3423354971952843,0.7964933214632466,0.2884889375,0.6262959418369181
0.013000000000000001,1.7957750000000001,1.0,1769.5390133060325,0.13607029288226608,1.3415047063208407,0.8076668989721192,0.28847555,0.6281075751298353
0.0135,1.79544375,1.0,1827.1287594833886,0.1409162559881525,1.3407101814492792,0.8179442613728531,0.2884616375,0.6298360084719363
0.014,1.7951000000000001,1.0,1882.0342151180205,0.14573503678996538,1.3399494706506019,0.827413776184709,0.2884472,0.6314871090700751
0.0145,1.79474375,1.0,1934.3235447709985,0.1505267875423683,1.3392201219948112,0.8361539504183272,0.2884322375,0.6330666735772494
0.015,1.794375,1.0,1984.0783199183638,0.15529165985743937,1.3385197739540813,0.8442345979048129,0.28841675,0.6345802380168295
0.0155,1.79399375,1.0,2031.3896450100979,0.16002980556273336,1.3378461704281048,0.8517178614394748,0.2884007375,0.6360330520633417
0.016,1.7936,1.0,2076.340810974599,0.1647413750288514,1.3371973175211098,0.858659163423766,0.2883842,0.6374297482671168
0.0165,1.7931937500000001,1.0,2118.998105916272,0.16942651605344897,1.3365715489282464,0.8651080154401973,0.2883671375,0.638774210625131
0.017,1.792775,1.0,2159.440062601052,0.17408537643418162,1.3359671983446653,0.8711086198294593,0.28834955,0.6400702858304731
0.0175,1.7923437500000001,1.0,2197.7564278411896,0.17871810396870488,1.3353825994655169,0.876700497301554,0.2883314375,0.6413217856369666
0.018000000000000002,1.7919,1.0,2234.031453525914,0.183324844935835,1.3348162441269027,0.881919078910202,0.2883128,0.6425321513672012
0.0185,1.79144375,1.0,2268.363588208948,0.18790574724542866,1.3342665709071826,0.8867961290532063,0.2882936375,0.643704909355719
0.019,1.790975,1.0,2300.824452434861,0.19246095484848105,1.3337323655074458,0.8913602666710821,0.28827395,0.6448428195561372
0.0195,1.79049375,1.0,2331.4845872097226,0.19699061082979108,1.3332124887144858,0.8956372579454058,0.2882537375,0.6459484609843706
0.02,1.79,1.0,2360.42034753518,0.20149485827415764,1.3327058013150963,0.8996503223411029,0.288233,0.6470243934033153
0.0205,1.78949375,1.0,2387.7134122965927,0.20597384026637972,1.3322111640960712,0.903420418605629,0.2882117375,0.6480731583224912
0.021,1.788975,1.0,2413.4334352988885,0.2104276976177125,1.331727601088337,0.9069665300265185,0.28818995000000003,0.6490969345541364
0.021500000000000002,1.78844375,1.0,2437.6701144675735,0.21485657449044226,1.3312539828850474,0.910305815831927,0.2881676375,0.6500982105318647
0.022,1.7879,1.0,2460.482631129701,0.2192606095958532,1.3307895108945462,0.9134539041849283,0.2881448,0.6510787611037847
0.0225,1.78734375,1.0,2481.9294623261694,0.2236399410615854,1.3303334224015058,0.9164249970916266,0.28812143749999997,0.6520402743766212
0.023,1.786775,1.0,2502.0718287071227,0.22799470701527896,1.329884954690598,0.9192320140095862,0.28809755,0.6529844281530043
0.0235,1.78619375,1.0,2520.973463748431,0.23232504558457392,1.3294433450464949,0.9218867254218331,0.28807313749999996,0.6539128903207148
0.024,1.7856,1.0,2538.694011354365,0.2366310935908492,1.3290078909279752,0.9243998811952876,0.2880482,0.6548271929436402
0.0245,1.78499375,1.0,2555.2958151502357,0.24091298854507753,1.328577883281841,0.9267813028960863,0.2880227375,0.6557288731442121
0.025,1.784375,1.0,2570.8419874182373,0.24517086772859936,1.3281526230573546,0.9290399790080117,0.28799675,0.6566194387135771
0.025500000000000002,1.78374375,1.0,2585.376415970496,0.24940486398040548,1.3277316062150295,0.9311841761272756,0.2879702375,0.6574999817848114
0.026000000000000002,1.7831000000000001,1.0,2598.9442693370106,0.2536151101394866,1.327314328715379,0.9332214784003015,0.2879432,0.6583715887040842
0.0265,1.78244375,1.0,2611.591889074006,0.2578017390448335,1.3269002865189166,0.9351588530761409,0.2879156375,0.6592353401589612
0.027,1.781775,1.0,2623.366687706176,0.2619648835354369,1.3264889755861553,0.9370027089632154,0.28788755,0.6600923112905066
0.0275,1.7810937500000001,1.0,2634.31573168286,0.2661046758658603,1.3260799040964626,0.9387589502343079,0.2878589375,0.6609435463789597
0.028,1.7804,1.0,2644.480059902738,0.27022124578166007,1.3256726439580324,0.9404330297445264,0.2878298,0.661789952096252
0.0285,1.77969375,1.0,2653.9101162687007,0.2743147284584381,1.3252666872135601,0.942029972367842,0.2878001375,0.662632596266314
0.029,1.778975,1.0,2662.6384187029644,0.2783852511513407,1.3248616975908931,0.9435544438257103,0.28776995,0.6634721857090661
0.029500000000000002,1.7782437500000001,1.0,2670.698025807669,0.2824329411155143,1.3244573388178786,0.9450107614280345,0.2877392375,0.6643094237475138
0.03,1.7775,1.0,2678.122488819472,0.2864579256061052,1.3240532746223643,0.9464029245513418,0.287708,0.6651450102248806
0.0305,1.77674375,1.0,2684.945806071432,0.29046033187825987,1.3236491687321976,0.9477346420886802,0.2876762375,0.6659796415145327
0.031,1.775975,1.0,2691.2023799618637,0.2944402871871245,1.3232446848752257,0.9490093572050332,0.28764395,0.6668140105226914
0.0315,1.7751937500000001,1.0,2696.923462843489,0.2983979165576084,1.3228395189087705,0.950230273001196,0.2876111375,0.66764874053174
0.032,1.7744,1.0,2702.135170782002,0.30233334321467753,1.3224334164624267,0.9514003746937547,0.2875778,0.6684843493251509
0.0325,1.77359375,1.0,2706.8791084162244,0.3062467017541947,1.3220259841699826,0.9525224286857177,0.2875439375,0.6693216374979404
0.033,1.772775,1.0,2711.175686943857,0.310138112875509,1.3216170245348655,0.9535990324041487,0.28750955,0.6701609997746802
0.0335,1.7719437500000002,1.0,2715.0455027025464,0.3140076972779697,1.3212063400605027,0.9546326089781235,0.2874746375,0.671002828778497
0.034,1.7711000000000001,1.0,2718.509319571025,0.3178555756609258,1.3207937332503217,0.9556254210106168,0.2874392,0.6718475150105914
0.0345,1.7702437500000001,1.0,2721.5880522355124,0.3216818687237265,1.3203790066077499,0.9565795831073214,0.2874032375,0.6726954468272683
0.035,1.7693750000000001,1.0,2724.3027503201874,0.325486697165721,1.3199619626362145,0.9574970732876601,0.28736675,0.6735470104144825
0.035500000000000004,1.76849375,1.0,2726.6745833832524,0.3292701816862584,1.3195424038391432,0.9583797433894149,0.2873297375,0.6744025897598913
0.036000000000000004,1.7676,1.0,2728.7248267772948,0.3330324429846878,1.3191201327199633,0.959229328566201,0.2872922,0.6752625666224267
0.0365,1.76669375,1.0,2730.4748483745175,0.3367736017603584,1.3186949517821023,0.9600474559662495,0.2872541375,0.6761273204993734
0.037,1.765775,1.0,2731.933461934859,0.3404937696609682,1.3182667783180007,0.9608356621229065,0.28721555,0.6769969955965582
0.0375,1.76484375,1.0,2733.1312095322296,0.34419307553293443,1.3178353327712111,0.9615953745766582,0.2871764375,0.6778721340631808
0.038,1.7639,1.0,2734.0841426076886,0.3478716362895189,1.3174004678025055,0.9623279453722807,0.28713679999999997,0.6787530071388733
0.0385,1.76294375,1.0,2734.8040689639047,0.35152956556190235,1.3169620750238518,0.9630346493080785,0.28709663750000003,0.6796398054737697
0.039,1.761975,1.0,2735.3028335512186,0.3551669769812655,1.3165200460472175,0.9637166863725184,0.28705595,0.680532718272536
0.0395,1.7609937500000001,1.0,2735.5923135101084,0.3587839841787892,1.3160742724845709,0.9643751869380423,0.2870147375,0.6814319332696086
0.04,1.76,1.0,2735.684413473271,0.36238070078565415,1.3156246459478793,0.9650112165407518,0.286973,0.6823376367036857
0.0405,1.7589937500000001,1.0,2735.591061128699,0.3659572404330411,1.315171058049111,0.9656257802830477,0.2869307375,0.6832500132914667
0.041,1.757975,1.0,2735.324203043097,0.3695137167521309,1.3147134004002334,0.9662198268926189,0.28688795,0.6841692462006452
0.0415,1.75694375,1.0,2734.8958007455703,0.37305024337410425,1.3142515646132147,0.9667942524679287,0.2868446375,0.6850955170221511
0.042,1.7559,1.0,2734.3178270719795,0.37656693393014185,1.3137854423000226,0.9673499039374095,0.28680079999999997,0.6860290057416429
0.0425,1.75484375,1.0,2733.595389864253,0.38006389288852827,1.3133149874978884,0.9678875859218095,0.2867564375,0.6869697659732079
0.043000000000000003,1.753775,1.0,2732.7458637226823,0.3835412421496837,1.3128400428922467,0.9684080535688003,0.28671155,0.6879180725866623
0.043500000000000004,1.75269375,1.0,2731.7774016083167,0.3869990908382162,1.312360534945408,0.9689120266012506,0.28666613750000003,0.6888740312774828
0.044,1.7516,1.0,2730.6965020890834,0.39043754580031137,1.3118764051761005,0.9694001877504526,0.2866202,0.6898377165001046
0.0445,1.75049375,1.0,2729.5096658776083,0.3938567138821549,1.3113875951030525,0.969873184235018,0.2865737375,0.6908092015814332
0.045,1.7493750000000001,1.0,2728.2233945419553,0.39725670192993234,1.3108940462449923,0.9703316299530588,0.28652675,0.6917885587034969
0.0455,1.74824375,1.0,2726.8441892924575,0.4006376167898295,1.3103957001206479,0.970776107518395,0.2864792375,0.6927758588858828
0.046,1.7471,1.0,2725.378549844535,0.403999565308032,1.3098924982487474,0.9712071701532837,0.2864312,0.6937711719679531
0.0465,1.7459437500000001,1.0,2723.832973357151,0.4073426543307255,1.3093843821480193,0.9716253434490709,0.28638263750000004,0.6947745665908429
0.047,1.744775,1.0,2722.213953446959,0.4106669907040956,1.3088712933371918,0.9720311270051516,0.28633355,0.6957861101792425
0.0475,1.74359375,1.0,2720.527979279032,0.41397268127432807,1.308353173334993,0.9724249959557278,0.28628393750000003,0.6968058689229586
0.048,1.7424,1.0,2718.778699894571,0.4172598157815706,1.3078299894785028,0.9728074020549423,0.2862338,0.6978338570716354
0.0485,1.74119375,1.0,2716.9752998700956,0.42052852115970796,1.3073016586522421,0.973178776513197,0.2861831375,0.6988701868290206
0.049,1.739975,1.0,2715.1216279276105,0.42377889967965304,1.3067681462763632,0.9735395302942105,0.28613195,0.6999148738206755
0.0495,1.73874375,1.0,2713.2210471838994,0.42701105090424957,1.306229422164688,0.973890054985809,0.2860802375,0.7009679241093154
0.05,1.7375,1.0,2711.2769174276696,0.4302250743963412,1.3056854561310374,0.9742307239174224,0.286028,0.7020293428251264
0.0505,1.73624375,1.0,2709.2925948392117,0.4334210697187717,1.305136217989233,0.9745618931724008,0.2859752375,0.7030991341556994
0.051000000000000004,1.734975,1.0,2707.271431730822,0.43659913643438464,1.3045816775530965,0.9748839025354652,0.28592195,0.7041773013359106
0.051500000000000004,1.73369375,1.0,2705.2167763072275,0.4397593741060238,1.304021804636449,0.9751970763799778,0.2858681375,0.7052638466377452
0.052000000000000005,1.7324,1.0,2703.1319724458913,0.4429018822965327,1.3034565690531117,0.9755017244993622,0.2858138,0.7063587713600576
0.0525,1.73109375,1.0,2701.020359498431,0.4460267605687552,1.3028859406169062,0.9757981428866381,0.28575893750000003,0.7074620758182779
0.053,1.729775,1.0,2698.8852721110343,0.4491341084855348,1.302309889141654,0.9760866144657345,0.28570355000000003,0.7085737593340589
0.0535,1.72844375,1.0,2696.7300400661857,0.4522240256097154,1.3017283844411764,0.9763674097779516,0.2856476375,0.7096938202248648
0.054,1.7271,1.0,2694.5579881438175,0.4552966115041405,1.301141396329295,0.976640787626683,0.2855912,0.7108222557935027
0.0545,1.7257437500000001,1.0,2692.371270331239,0.45835195206051943,1.3005489052881558,0.9769069949881167,0.2855342375,0.7119590418689131
0.055,1.724375,1.0,2690.170391660896,0.46139013039404875,1.2999509068670827,0.9771662689764845,0.28547675,0.7131041245842304
0.0555,1.72299375,1.0,2687.9603418713004,0.46441128754143,1.2993473555312234,0.9774188397718184,0.2854187375,0.7142575278586204
0.056,1.7216,1.0,2685.7423167928137,0.4674155140895687,1.2987382404365315,0.977664925134973,0.2853602,0.7154192082298632
0.0565,1.72019375,1.0,2683.5175103499328,0.4704029006253704,1.2981235507389608,0.977904733795367,0.28530113749999997,0.716589121475747
0.057,1.718775,1.0,2681.287114543025,0.47337353773574053,1.2975032755944653,0.9781384658968397,0.28524155,0.7177672226102156
0.0575,1.71734375,1.0,2679.0523194321763,0.47632751600758466,1.2968774041589988,0.978366313418006,0.2851814375,0.7189534658795105
0.058,1.7159,1.0,2676.8143131247584,0.4792649260278083,1.296245925588515,0.9785884605687564,0.2851208,0.7201478047583036
0.0585,1.71444375,1.0,2674.5742817647215,0.4821858583833169,1.2956088290389678,0.9788050841644412,0.2850596375,0.7213501919458237
0.059000000000000004,1.7129750000000001,1.0,2672.333409524658,0.485090403661016,1.2949661036663107,0.9790163539791564,0.28499795,0.7225605793619747
0.059500000000000004,1.71149375,1.0,2670.0928786007316,0.48797865244781113,1.2943177386264981,0.9792224330794574,0.2849357375,0.723778918143445
0.06,1.71,1.0,2667.8538692099264,0.49085069533060777,1.2936637230754833,0.9794234781397234,0.284873,0.7250051586398147
0.0605,1.7084937500000001,1.0,2665.6175595902205,0.4937066228963114,1.2930040461692203,0.9796196397403212,0.2848097375,0.7262392504096474
0.061,1.7069750000000001,1.0,2663.38512600295,0.4965465257318276,1.292338697063663,0.9798110626496287,0.28474595,0.7274811422165812
0.0615,1.7054437500000001,1.0,2661.157742737976,0.4993704944240619,1.291667664914765,0.9799978860909083,0.2846816375,0.7287307820254094
0.062,1.7039,1.0,2658.9365821218744,0.5021786195599197,1.2909909388784804,0.9801802439949516,0.2846168,0.7299881169981521
0.0625,1.70234375,1.0,2656.7228145280246,0.5049709917263066,1.2903085081107626,0.9803582652393601,0.2845514375,0.7312530934901253
0.063,1.7007750000000001,1.0,2654.517608389436,0.5077477015101279,1.289620361767566,0.9805320738752561,0.28448555,0.7325256570459957
0.0635,1.69919375,1.0,2652.322130215116,0.5105088394982894,1.2889264890048437,0.9807017893421784,0.28441913750000003,0.7338057523958352
0.064,1.6976,1.0,2650.133894374212,0.5132544755718058,1.2882269126509378,0.9808675268713587,0.2843522,0.7350932615551935
0.0645,1.69599375,1.0,2647.9491755829026,0.5159846833998801,1.2875216670123495,0.9810293983573205,0.2842847375,0.7363880452756366
0.065,1.694375,1.0,2645.7767523957664,0.51869960044572,1.2868106710127378,0.9811875104186628,0.28421675,0.737690175361043
0.0655,1.69274375,1.0,2643.6165609234185,0.5213993075241607,1.2860939251125967,0.9813419658241935,0.2841482375,0.7389995727476656
0.066,1.6911,1.0,2641.4685374311216,0.5240838854500376,1.2853714297724195,0.9814928636720127,0.2840792,0.7403161577475927
0.0665,1.6894437500000001,1.0,2639.3326183379463,0.5267534150381861,1.2846431854526998,0.9816402995452456,0.2840096375,0.7416398500489156
0.067,1.687775,1.0,2637.2087402149964,0.5294079771034415,1.2839091926139317,0.9817843656600935,0.28393955,0.7429705687158975
0.0675,1.68609375,1.0,2635.096839785352,0.5320476524606391,1.2831694517166086,0.9819251510066348,0.2838689375,0.7443082321891432
0.068,1.6844000000000001,1.0,2632.9968539221804,0.5346725219246145,1.2824239632212242,0.9820627414827743,0.2837978,0.7456527582857673
0.0685,1.68269375,1.0,2630.9087196480714,0.5372826663102028,1.2816727275882722,0.9821972200217234,0.2837261375,0.7470040641995631
0.069,1.680975,1.0,2628.8323741340932,0.5398781664322395,1.2809157452782463,0.982328666713366,0.28365395,0.7483620665011719
0.0695,1.67924375,1.0,2626.7677546983014,0.5424591031055599,1.28015301675164,0.9824571589198392,0.28358123749999997,0.7497266811382505
0.07,1.6775,1.0,2624.7147988052834,0.5450255571449995,1.279384542468947,0.9825827713856443,0.283508,0.7510978234356416
0.07050000000000001,1.67574375,1.0,2622.673444064648,0.5475776093653933,1.2786103228906611,0.9827055763425836,0.2834342375,0.7524754080955407
0.07100000000000001,1.673975,1.0,2620.643628230258,0.5501153405815772,1.2778303584772759,0.9828256436097962,0.28335995,0.7538593491976671
0.07150000000000001,1.67219375,1.0,2618.6252891991126,0.5526388316083861,1.277044649689285,0.9829430406891532,0.2832851375,0.7552495601994302
0.07200000000000001,1.6704,1.0,2616.6183650104613,0.5551481632606556,1.2762531969871824,0.9830578328562581,0.2832098,0.7566459539361001
0.0725,1.66859375,1.0,2614.6227938445686,0.5576434163532209,1.2754560008314613,0.9831700832472823,0.2831339375,0.7580484426209758
0.073,1.6667750000000001,1.0,2612.638514021964,0.5601246717009176,1.2746530616826157,0.9832798529418503,0.28305755,0.7594569378455526
0.0735,1.66494375,1.0,2610.6654640022502,0.5625920101185808,1.273844380001139,0.9833872010421806,0.2829806375,0.7608713505796932
0.074,1.6631,1.0,2608.70358238304,0.5650455124210462,1.2730299562475251,0.9834921847486745,0.2829032,0.7622915911717938
0.0745,1.6612437500000001,1.0,2606.75244650025,0.5674852551289212,1.272209794243701,0.9835948593369994,0.2828252375,0.7637175635133993
0.075,1.659375,1.0,2604.8095198674578,0.5699112821638491,1.27138391748621,0.9836952773635181,0.28274675,0.7651491368936159
0.0755,1.65749375,1.0,2602.8794102023835,0.5723237197133372,1.2705522830081262,0.9837934914204144,0.2826677375,0.7665862951501621
