Time [s],Phi [rad],STIM [ ],Fsee [N],Gamma [ ],Lcerel [ ],q [ ],Lmtc [m],fisomrel [ ]
0.0,1.8,1.0,17.97296521653224,7.362859089467354e-05,1.379339095688593,0.005001422249215181,0.288653,0.5411411048538283
0.0005,1.79999375,1.0,18.30337629000419,0.0056824249015402966,1.3792994305536126,0.013118101769651582,0.2886527375,0.5412370598906417
0.001,1.799975,1.0,21.692273547457347,0.011259760299495587,1.3789307615724793,0.035940903086806114,0.28865195,0.5421284372898625
0.0015,1.79994375,1.0,31.244094876575264,0.01680581125651901,1.3780313272554634,0.07105612137071221,0.2886506375,0.5442994758082678
0.002,1.7999,1.0,53.95862712198298,0.022320753252626203,1.376343765918531,0.11525570390928384,0.2886488,0.5483589599944452
0.0025,1.79984375,1.0,97.75081899204832,0.02780476078407949,1.3739047677722285,0.1651596467434485,0.28864643749999996,0.5541939561135074
0.003,1.7997750000000001,1.0,161.78012591835167,0.03325800737052345,1.3711836162238213,0.21788360976582624,0.28864354999999997,0.5606591933896905
0.0035,1.79969375,1.0,238.6119058739509,0.03868066555504438,1.3685561595688591,0.2712127260197172,0.2886401375,0.5668570065173906
0.004,1.7996,1.0,322.4545904062595,0.04407290691482154,1.3661299489104233,0.3234965618696599,0.2886362,0.57254100928205
0.0045000000000000005,1.7994937500000001,1.0,410.2905964779341,0.049434902066350477,1.3638988190623682,0.3735857698073686,0.2886317375,0.5777348516741512
0.005,1.799375,1.0,500.457122683711,0.05476682065686858,1.361836177113573,0.4207631865503492,0.28862675,0.5825082300122292
0.0055,1.79924375,1.0,591.8431735539707,0.060068831408341634,1.359918275885367,0.46465116759549874,0.2886212375,0.5869223044760998
0.006,1.7991000000000001,1.0,683.5720330599024,0.06534110206897953,1.3581272645909819,0.5051187448032082,0.2886152,0.5910231580248114
0.006500000000000001,1.79894375,1.0,774.9291815435561,0.07058379946434667,1.3564493709242131,0.5422019474741671,0.2886086375,0.5948464476011885
0.007,1.798775,1.0,865.3150441016184,0.07579708940234221,1.3548737745337156,0.5760424467606241,0.28860155,0.598420293839903
0.0075,1.79859375,1.0,954.2601863241006,0.08098113706071518,1.3533911412972326,0.6068424426462808,0.2885939375,0.6017688177698961
0.008,1.7984,1.0,1041.356078080553,0.08613610621298154,1.3519939618681391,0.6348341824605079,0.2885858,0.6049115140573056
0.0085,1.79819375,1.0,1126.2928707593833,0.09126216004263561,1.350675390519056,0.6602588525058755,0.2885771375,0.6078659773096542
0.009000000000000001,1.797975,1.0,1208.833253027916,0.09635946081636909,1.349429288185942,0.6833537178570807,0.28856795,0.6106478716768684
0.0095,1.79774375,1.0,1288.7916365017525,0.10142816967023417,1.348250224006173,0.704344458358743,0.2885582375,0.6132709868611301
0.01,1.7975,1.0,1366.0501667177323,0.10646844724178003,1.3471330366677758,0.7234408102446984,0.288548,0.6157482616511754
0.0105,1.79724375,1.0,1440.5159657134247,0.11148045271875195,1.3460732286454422,0.7408349854587621,0.2885372375,0.6180909452006361
0.011,1.796975,1.0,1512.136260082383,0.11646434463311087,1.345066611059078,0.7567011560345456,0.28852595000000003,0.6203094194266675
0.0115,1.79669375,1.0,1580.9101699913579,0.12142028130426098,1.3441090565321714,0.771195913438063,0.2885141375,0.6224137666216163
0.012,1.7964,1.0,1646.8257676168403,0.1263484189157791,1.3431971678432426,0.7844596496146397,0.28850180000000003,0.6244123213787537
0.0125,1.79609375,1.0,1709.9040214205936,0.13124891336608321,1.3423276498811836,0.796617573117385,0.2884889375,0.6263130743840108
0.013000000000000001,1.7957750000000001,1.0,1770.1918360274967,0.13612191969855467,1.341497337253607,0.8077811389516695,0.28847555,0.6281236245175262
0.0135,1.79544375,1.0,1827.75275779136,0.14096759309184606,1.340703249599569,0.8180494771152748,0.2884616375,0.6298510705111409
0.014,1.7951000000000001,1.0,1882.6320245575414,0.14578608587327116,1.3399429272741628,0.8275108421460363,0.2884472,0.6315012952687287
0.0145,1.79474375,1.0,1934.8980498085998,0.15057755031123102,1.3392139192428203,0.836243644068465,0.2884322375,0.6330800924487416
0.015,1.794375,1.0,1984.6279009192356,0.1553421377341933,1.3385139151414174,0.8443176277610397,0.28841675,0.6345928866569812
0.0155,1.79399375,1.0,2031.9185026194782,0.1600800005769852,1.3378405985545163,0.8517948391963861,0.2884007375,0.6360450572969585
0.016,1.7936,1.0,2076.8462853378737,0.1647912885530034,1.3371920499456886,0.8587306567967746,0.2883842,0.637441076063215
0.0165,1.7931937500000001,1.0,2119.4790658526103,0.16947614954744705,1.3365665875041244,0.8651745263157836,0.2883671375,0.6387848602545554
0.017,1.792775,1.0,2159.896964673375,0.17413473144551536,1.3359625294190138,0.8711705921683105,0.28834955,0.6400802896249307
0.0175,1.7923437500000001,1.0,2198.1913660554155,0.17876718213240747,1.3353781938795473,0.8767583240782313,0.2883314375,0.6413312087694287
0.018000000000000002,1.7919,1.0,2234.4451108230755,0.1833736478244846,1.3348120882437917,0.8819731164700726,0.2883128,0.6425410254012482
0.0185,1.79144375,1.0,2268.7580811633957,0.18795427648797422,1.3342626376584201,0.8868466937947268,0.2882936375,0.6437132942143997
0.019,1.790975,1.0,2301.200005255364,0.19250921185188466,1.3337286475968424,0.8914076478446142,0.28827395,0.6448507326950976
0.0195,1.79049375,1.0,2331.8417087717057,0.19703859707033733,1.3332089765847794,0.8956817155349628,0.2882537375,0.6459559245003952
0.02,1.79,1.0,2360.759832988866,0.20154257529745373,1.3327024831479513,0.8996920903714337,0.288233,0.6470314340152654
0.0205,1.78949375,1.0,2388.0363439726348,0.2060212896873553,1.3322080258120785,0.9034597080435302,0.2882117375,0.6480798073534482
0.021,1.788975,1.0,2413.7398605211624,0.2104748809621697,1.3317246391198012,0.9070035340180517,0.28818995000000003,0.6491032008955282
0.021500000000000002,1.78844375,1.0,2437.9610556092857,0.21490349332938988,1.3312511845990942,0.9103407075237592,0.2881676375,0.6501041221355128
0.022,1.7879,1.0,2460.757420589087,0.2193072651861174,1.3307868802318235,0.9134868439484224,0.2881448,0.6510843107987796
0.0225,1.78734375,1.0,2482.188507588768,0.22368633478154215,1.3303309531974392,0.9164561287702339,0.28812143749999997,0.6520454762744619
0.023,1.786775,1.0,2502.3166290919153,0.22804084036485395,1.3298826306753921,0.9192614666742909,0.28809755,0.6529893175340651
0.0235,1.78619375,1.0,2521.2066242885285,0.23237092018524252,1.3294411398451322,0.9219146149224337,0.28807313749999996,0.653917523525319
0.024,1.7856,1.0,2538.9175848214586,0.2366767104992231,1.3290057837903635,0.9244263140164078,0.2880482,0.6548316142617621
0.0245,1.78499375,1.0,2555.5143374886784,0.24095835024399895,1.3285758304501627,0.926806373122727,0.2880227375,0.6557331748851593
0.025,1.784375,1.0,2571.0510252504005,0.24521597519431265,1.3281506652689552,0.929063786620804,0.28799675,0.6566235359806829
0.025500000000000002,1.78374375,1.0,2585.5733428009785,0.24944971834034643,1.32772976704404,0.9312068100040856,0.2879702375,0.6575038258713625
0.026000000000000002,1.7831000000000001,1.0,2599.1282896465436,0.25365971267228243,1.327312614572716,0.9332430174123775,0.2879432,0.6583751669055249
0.0265,1.78244375,1.0,2611.764058573241,0.25784609118030277,1.326898686652282,0.9351793670658504,0.2879156375,0.6592386755899653
0.027,1.781775,1.0,2623.5299301389805,0.2620089868545897,1.3264874620800373,0.9370222596170603,0.28788755,0.6600954627057914
0.0275,1.7810937500000001,1.0,2634.4684339088394,0.2661485306481518,1.3260784912579013,0.9387776002327289,0.2878589375,0.6609464844992691
0.028,1.7804,1.0,2644.623096786886,0.27026485495825986,1.3256713230900952,0.9404508346500619,0.2878298,0.6617926955253408
0.0285,1.77969375,1.0,2654.0466762980577,0.274358093489535,1.3252654283974628,0.9420469798468638,0.2878001375,0.6626352075555326
0.029,1.778975,1.0,2662.770756277639,0.27842837341695986,1.324860479698113,0.9435706991590944,0.28776995,0.663474708961454
0.029500000000000002,1.7782437500000001,1.0,2670.827452697671,0.2824758219155171,1.3244561495101546,0.9450263077148048,0.2877392375,0.6643118847099625
0.03,1.7775,1.0,2678.249366999448,0.28650056616018943,1.324052110351696,0.9464178028917581,0.287708,0.6651474163795033
0.0305,1.77674375,1.0,2685.069541802814,0.29050273332595944,1.3236480347408466,0.9477488917491803,0.2876762375,0.6659819821696038
0.031,1.775975,1.0,2691.321418994362,0.2944824505878098,1.3232435951957149,0.9490230157671258,0.28764395,0.6668162569035359
0.0315,1.7751937500000001,1.0,2697.0388001923293,0.2984398451207232,1.3228384642344098,0.9502433731869109,0.2876111375,0.6676509120241318
0.032,1.7744,1.0,2702.2492002642507,0.30237503929634746,1.3224323747534332,0.9514129451223783,0.2875778,0.6684864914249413
0.0325,1.77359375,1.0,2706.987531420176,0.30628816381385937,1.3220249945464029,0.9525345021688657,0.2875439375,0.6693236699215217
0.033,1.772775,1.0,2711.276451968115,0.31017934087707183,1.3216161055373736,0.9536106376099546,0.28750955,0.670162884754378
0.0335,1.7719437500000002,1.0,2715.137610645376,0.3140486917579529,1.3212055006155516,0.9546437717441827,0.2874746375,0.6710045483874773
0.034,1.7711000000000001,1.0,2718.592827242396,0.3178963377284708,1.320792972670143,0.9556361645608435,0.2874392,0.6718490710633063
0.0345,1.7702437500000001,1.0,2721.664075035575,0.32172240006059366,1.3203783145903538,0.9565899282499494,0.2874032375,0.6726968607788402
0.035,1.7693750000000001,1.0,2724.3734641708334,0.32552700002628954,1.3199613192653905,0.9575070385961658,0.28736675,0.6735483232587719
0.035500000000000004,1.76849375,1.0,2726.7432259982725,0.3293102588975266,1.319541779584459,0.9583893453679511,0.2873297375,0.6744038619260109
0.036000000000000004,1.7676,1.0,2728.787929450319,0.3330722907544312,1.3191195590623621,0.9592385874312046,0.2872922,0.6752637341321543
0.0365,1.76669375,1.0,2730.531398837386,0.3368132196029334,1.3186944378541927,0.9600563892177142,0.2872541375,0.6761283650535718
0.037,1.765775,1.0,2732.0004874219376,0.3405331731222142,1.3182661693567843,0.9608442733992559,0.28721555,0.6769982316420877
0.0375,1.76484375,1.0,2733.207716985758,0.34423226551194913,1.3178346378143524,0.9616036800295322,0.2871764375,0.6778735427468732
0.038,1.7639,1.0,2734.1656595652576,0.3479106109718139,1.3173997274711131,0.9623359626748362,0.28713679999999997,0.6787545057438238
0.0385,1.76294375,1.0,2734.886931486355,0.35156832370148433,1.3169613225712826,0.9630423945548376,0.28709663750000003,0.6796413265110438
0.039,1.761975,1.0,2735.3841876963243,0.3552055179006361,1.3165193073590764,0.9637241741830641,0.28705595,0.6805342094034774
0.0395,1.7609937500000001,1.0,2735.6701163931766,0.35882230776894486,1.3160735660787106,0.9643824305527959,0.2870147375,0.6814333572266804
0.04,1.76,1.0,2735.7574339514777,0.3624188075060864,1.3156239829744012,0.9650182279094907,0.286973,0.6823389712097414
0.0405,1.7589937500000001,1.0,2735.65888014577,0.36599513131173644,1.3151704422903643,0.9656325701467524,0.2869307375,0.6832512509773474
0.041,1.757975,1.0,2735.387213670821,0.3695513933855707,1.3147128282708154,0.9662264048591938,0.28688795,0.6841703945209958
0.0415,1.75694375,1.0,2734.9552079589553,0.37308770792726487,1.3142510251599708,0.9668006270822843,0.2868446375,0.6850965981693475
0.042,1.7559,1.0,2734.373276150498,0.37660418521034145,1.3137849387356308,0.9673560838975626,0.28680079999999997,0.6860300134651671
0.0425,1.75484375,1.0,2733.649544338664,0.38010093318299454,1.3133144956254867,0.9678935777703985,0.2867564375,0.6869707488231724
0.043000000000000003,1.753775,1.0,2732.800636498255,0.38357807562591006,1.3128395453266686,0.9684138643353845,0.28671155,0.6879190653054952
0.043500000000000004,1.75269375,1.0,2731.832897828116,0.3870357191691917,1.3123600307186138,0.9689176638541064,0.28666613750000003,0.6888750357444726
0.044,1.7516,1.0,2730.752677124399,0.39047397044294324,1.311875894680761,0.9694056587366829,0.2866202,0.6898387318784277
0.0445,1.75049375,1.0,2729.566325448611,0.3938929360772685,1.3113870800925471,0.969878495901935,0.2865737375,0.6908102243349414
0.045,1.7493750000000001,1.0,2728.2801948669235,0.3972927227022712,1.3108935298334106,0.9703367889679892,0.28652675,0.6917895826139102
0.0455,1.74824375,1.0,2726.9006372621734,0.40067343694805496,1.3103951867827888,0.970781120287038,0.2864792375,0.6927768750704008
0.046,1.7471,1.0,2725.434003218345,0.4040351854447237,1.30989199382012,0.9712120428367441,0.2864312,0.693772168897292
0.0465,1.7459437500000001,1.0,2723.8866409770935,0.4073780748223812,1.3093838938248417,0.9716300819796783,0.28638263750000004,0.694775530107714
0.047,1.744775,1.0,2722.264895466935,0.410702211711131,1.3088708296763916,0.9720357371011646,0.28633355,0.6957870235172752
0.0475,1.74359375,1.0,2720.575107404678,0.41400770274107707,1.308352744254208,0.9724294831350155,0.28628393750000003,0.6968067127260811
0.048,1.7424,1.0,2718.8236229707263,0.4172946544774278,1.3078295803420812,0.9728117719708655,0.2862338,0.6978346602883233
0.0485,1.74119375,1.0,2717.017438913301,0.4205631701170329,1.3073012747439265,0.9731830329640677,0.2861831375,0.6988709392243552
0.049,1.739975,1.0,2715.16106954797,0.42381335308691065,1.3067677868202243,0.9735436766413097,0.28613195,0.6999155770708592
0.0495,1.73874375,1.0,2713.2580412042503,0.42704530514046957,1.3062290848969185,0.9738940946042214,0.2860802375,0.7009685827908032
0.05,1.7375,1.0,2711.3118766383136,0.4302591280311182,1.3056851372999518,0.9742346601876046,0.286028,0.7020299643938444
0.0505,1.73624375,1.0,2709.326094741087,0.43345492351226517,1.305135912355268,0.9745657294727156,0.2859752375,0.7030997289257597
0.051000000000000004,1.734975,1.0,2707.304106965676,0.4366327931433552,1.3045813793316412,0.9748876422756299,0.28592195,0.7041778806263868
0.051500000000000004,1.73369375,1.0,2705.2495618706284,0.43979283779308637,1.304021505294434,0.9752007227758354,0.2858681375,0.7052644270360539
0.052000000000000005,1.7324,1.0,2703.1658644317545,0.4429351572034205,1.3034562594898538,0.9755052805972955,0.2858138,0.7063593704605438
0.0525,1.73109375,1.0,2701.055948749261,0.44605985046164187,1.3028856154241486,0.97580161177231,0.28575893750000003,0.7074627039832103
0.053,1.729775,1.0,2698.9210635004533,0.449167016516418,1.30230956197255,0.9760900002111078,0.28570355000000003,0.7085743901146841
0.0535,1.728445946335183,1.0,2696.8709669843192,0.4522567540552327,1.3017280876193689,0.976370717349987,0.28564772974607766,0.7096943913952758
0.054,1.7271158563540474,1.0,2695.3372717865923,0.4553291607539773,1.3011414286054659,0.9766440378945078,0.28559186596687,0.7108221938056731
0.0545,1.7257857663729121,1.0,2694.3287205410097,0.4583843334648211,1.3005499689343936,0.9769102335954846,0.2855360021876623,0.7119570031043848
0.055,1.7244556763917767,1.0,2693.803550814661,0.4614223689294482,1.2999540880207694,0.9771695643508777,0.2854801384084546,0.7130980391569788
0.0555,1.7231255864106412,1.0,2693.7215333345803,0.464443363601407,1.2993541526596757,0.9774222783289547,0.2854242746292469,0.7142445512927538
0.056,1.7217954964295057,1.0,2694.0470265395793,0.46744741305861676,1.2987504887579011,0.9776686108615439,0.2853684108500392,0.7153958720246021
0.0565,1.7204654064483702,1.0,2694.7487501324517,0.47043461196854974,1.2981433831437952,0.977908785202028,0.28531254707083153,0.7165514129067989
0.057,1.7191353164672347,1.0,2695.7982881787525,0.4734050540044215,1.2975330970604528,0.9781430139032893,0.28525668329162385,0.7177106382449463
0.0575,1.7178052264860992,1.0,2697.1695508059825,0.4763588321592206,1.2969198709285112,0.978371499652153,0.28520081951241616,0.7188730556371052
0.058,1.716475136504964,1.0,2698.821018530421,0.4792960456117219,1.2963040865236006,0.9785944454871877,0.28514495573320847,0.7200379091499189
0.0585,1.7151450465238285,1.0,2700.7349385802677,0.48221678529019374,1.2956859084162204,0.9788120335414834,0.2850890919540008,0.7212048583038091
0.059000000000000004,1.713814956542693,1.0,2702.8935725719125,0.48512114212290436,1.2950655011768706,0.9790244387600326,0.2850332281747931,0.7223735650996244
0.059500000000000004,1.7124848665615575,1.0,2705.279188076128,0.48800920703812206,1.2944430293760505,0.9792318292442376,0.2849773643955854,0.7235436940429028
0.06,1.711154776580422,1.0,2707.874050784801,0.490881070964115,1.2938186575842592,0.9794343665773649,0.2849215006163777,0.7247149121664027
0.0605,1.7098246865992865,1.0,2710.6604172778257,0.4937368248291515,1.2931925503719965,0.9796322061321424,0.28486563683717003,0.7258868890509065
0.061,1.7084945966181513,1.0,2713.6205283909253,0.4965765595614998,1.2925648723097618,0.9798254973615991,0.28480977305796235,0.727059296844301
0.0615,1.7071645066370158,1.0,2716.7366031835722,0.4994003660894282,1.2919357879680544,0.9800143840741865,0.28475390927875466,0.728231810278926
0.062,1.7058344166558803,1.0,2720.000442779887,0.502208329414414,1.2913053744202512,0.9801989996581291,0.28469804549954697,0.7294042692406801
0.0625,1.7045043266747448,1.0,2723.38966783634,0.5050005464191619,1.290673837705455,0.9803794801405907,0.2846421817203393,0.7305762757448433
0.063,1.7031742366936093,1.0,2726.8951423390495,0.507777104015689,1.2900412630021154,0.9805559495750152,0.2845863179411316,0.7317476586611534
0.0635,1.7018441467124739,1.0,2730.5088753773216,0.5105380882794361,1.2894077249319644,0.9807285268812644,0.2845304541619239,0.7329182676967616
0.064,1.7005140567313384,1.0,2734.222860803176,0.5132835852858441,1.2887732981167344,0.9808973266684284,0.2844745903827162,0.7340879537461213
0.0645,1.6991839667502031,1.0,2738.029075699376,0.516013681110354,1.2881380571781575,0.981062459424635,0.28441872660350853,0.735256568895398
0.065,1.6978538767690676,1.0,2741.919478970682,0.5187284618284065,1.2875020767379668,0.9812240316971907,0.28436286282430084,0.7364239664265186
0.0655,1.6965237867879321,1.0,2745.886010058735,0.5214280135154427,1.2868654314178938,0.9813821462636105,0.28430699904509316,0.7375900008208727
0.066,1.6951936968067967,1.0,2749.9205877801974,0.5241124222469035,1.2862281958396713,0.981536902294056,0.28425113526588547,0.7387545277626492
0.0665,1.6938636068256612,1.0,2754.015109288457,0.5267817740982297,1.2855904446250317,0.9816883955056769,0.2841952714866778,0.7399174041418263
0.067,1.6925335168445257,1.0,2758.16867119998,0.5294361438239641,1.2849521870920944,0.9818367143961092,0.2841394077074701,0.7410786067328828
0.0675,1.6912034268633902,1.0,2762.367851734012,0.532075630318438,1.2843135456549224,0.9819819514487479,0.2840835439282624,0.7422379073887958
0.068,1.689873336882255,1.0,2766.6077497630317,0.5347003173609693,1.283674565438163,0.9821241913323528,0.2840276801490547,0.7433952197814713
0.0685,1.6885432469011195,1.0,2770.8853496068728,0.5373102854569214,1.2830352744262044,0.9822635148343418,0.28397181636984703,0.7445504892553674
0.069,1.687213156919984,1.0,2775.197626687354,0.5399056151116576,1.2823957006034343,0.9824000000331199,0.28391595259063934,0.7457036616093606
0.0695,1.6858830669388485,1.0,2779.5415473435983,0.5424863868305412,1.281755871954241,0.9825337224083426,0.28386008881143165,0.7468546830972747
0.07,1.684552976957713,1.0,2783.9140686653736,0.5450526811189353,1.2811158164630125,0.9826647549459743,0.2838042250322239,0.7480035004283605
0.07050000000000001,1.6832228869765775,1.0,2788.3121383440644,0.5476045784822036,1.2804755621141368,0.9827931682384206,0.2837483612530163,0.7491500607677264
0.07100000000000001,1.681892796995442,1.0,2792.732694539778,0.5501421594257091,1.279835136892002,0.9829190305799987,0.28369249747380854,0.7502943117367171
0.07150000000000001,1.6805627070143068,1.0,2797.1726657677386,0.5526655044548151,1.2791945687809958,0.9830424080579908,0.2836366336946009,0.7514362014132456
0.07200000000000001,1.6792326170331713,1.0,2801.628970799656,0.5551746940748851,1.2785538857655068,0.9831633646395126,0.28358076991539316,0.7525756783320696
0.0725,1.6779025270520358,1.0,2806.0985185851764,0.5576698087912821,1.2779131158299224,0.9832819622544188,0.28352490613618553,0.753712691485026
0.073,1.6765724370709003,1.0,2810.578208187912,0.5601509291093697,1.277272286958631,0.9833982608744475,0.2834690423569778,0.7548471903212072
