Time [s],Phi [rad],STIM [ ],Fsee [N],Gamma [ ],Lcerel [ ],q [ ],Lmtc [m],fisomrel [ ]
0.0,1.8,1.0,17.996667720626263,0.00017417219587420398,1.379336441519261,0.005007904671738147,0.288653,0.5411475259422966
0.0005,1.79999375,1.0,18.359808459748454,0.005782404536425701,1.3792931714209071,0.013402569920991935,0.2886527375,0.5412522006169336
0.001,1.799975,1.0,21.823380617322737,0.011359179127689715,1.3789174138790943,0.03646919730309761,0.28865195,0.542160693428505
0.0015,1.79994375,1.0,31.53670936782761,0.016904672423728135,1.3780065252985991,0.07177643379288277,0.2886506375,0.5443592692336721
0.002,1.7999,1.0,54.572505209409385,0.022419059886778996,1.3763041919980268,0.11610695764137335,0.2886488,0.5484539384078833
0.0025,1.79984375,1.0,98.76870155383098,0.02790251599580605,1.3738560038467946,0.16608458829750575,0.28864643749999996,0.5543102308281425
0.003,1.7997750000000001,1.0,163.0955007413745,0.033355214252786966,1.371134605149121,0.21883709123126732,0.28864354999999997,0.5607752068265497
0.0035,1.79969375,1.0,240.0931230385442,0.038777327183504406,1.3685106934757698,0.2721605599980676,0.2886401375,0.5669638673278292
0.004,1.7996,1.0,324.0275177103458,0.04416902634794583,1.3660884025395517,0.3244139636122128,0.2886362,0.572638015070278
0.0045000000000000005,1.7994937500000001,1.0,411.91741566131026,0.04953048234560976,1.3638607167773735,0.3744563743587948,0.2886317375,0.5778232741908673
0.005,1.799375,1.0,502.1155742728191,0.05486186480734906,1.3618010010379242,0.4215775328290036,0.28862675,0.5825893993876148
0.0055,1.79924375,1.0,593.5150292681031,0.060163342434565385,1.3598856639574994,0.4654050165314509,0.2886212375,0.5869971584115746
0.006,1.7991000000000001,1.0,685.2437801613344,0.06543508296288154,1.358096918655589,0.5058114691911285,0.2886152,0.5910924644431523
0.006500000000000001,1.79894375,1.0,776.5892654848814,0.07067725318710466,1.356421066520195,0.542835298949248,0.2886086375,0.5949107887136694
0.007,1.798775,1.0,866.960470571031,0.07589001900437094,1.354847224051034,0.576619544942135,0.28860155,0.5984803813242194
0.0075,1.79859375,1.0,955.8679098992727,0.08107354523665715,1.3533664364286404,0.6073673935022145,0.2885939375,0.6018244949162106
0.008,1.7984,1.0,1042.933815390909,0.08622799617031433,1.3519707527819396,0.6353111252958105,0.2885858,0.6049636134761314
0.0085,1.79819375,1.0,1127.8325173389692,0.09135353457738944,1.350653611695947,0.6606921179641236,0.2885771375,0.6079146830503442
0.009000000000000001,1.797975,1.0,1210.3249929485282,0.09645032267469798,1.3494089194832286,0.6837475000631212,0.28856795,0.6106932620713096
0.0095,1.79774375,1.0,1290.2474162771837,0.10151852208791562,1.3482309723048367,0.7047025418222235,0.2885582375,0.6133137433916711
0.01,1.7975,1.0,1367.4579995595152,0.10655829274392835,1.3471149527178994,0.7237668584846816,0.288548,0.6157882959172528
0.0105,1.79724375,1.0,1441.8698434780956,0.11156979401546314,1.346056292842644,0.7411322942672759,0.2885372375,0.6181283232908361
0.011,1.796975,1.0,1513.4508144084905,0.11655318518461527,1.345050561019902,0.7569725826640337,0.28852595000000003,0.6203447396041165
0.0115,1.79669375,1.0,1582.1722471396886,0.12150862350051556,1.344093985845738,0.7714441804301806,0.2885141375,0.6224468396198761
0.012,1.7964,1.0,1648.0320969108477,0.12643626539016842,1.343183053849677,0.7846871363115361,0.28850180000000003,0.6244432128520718
0.0125,1.79609375,1.0,1711.0580295033053,0.13133626676193008,1.342314399233573,0.7968263682195765,0.2884889375,0.6263420027976976
0.013000000000000001,1.7957750000000001,1.0,1771.3089830507922,0.13620878368824288,1.3414847300420492,0.8079730508489456,0.28847555,0.6281510814671838
0.0135,1.79544375,1.0,1828.8275804104971,0.1410539698527863,1.340691312422991,0.8182262054595453,0.2884616375,0.6298770077790175
0.014,1.7951000000000001,1.0,1883.661926293832,0.14587197791089535,1.3399316568291646,0.8276738863033489,0.2884472,0.6315257292263363
0.0145,1.79474375,1.0,1935.8842481342883,0.15066296051790504,1.3392032737133348,0.8363943233358564,0.2884322375,0.6331031221369785
0.015,1.794375,1.0,1985.5717867764492,0.15542706919097402,1.3385038547313675,0.8444571162938022,0.28841675,0.6346146056505271
0.0155,1.79399375,1.0,2032.824619937676,0.16016445604217722,1.3378310536792561,0.851924171737256,0.2884007375,0.6360656223532002
0.016,1.7936,1.0,2077.706830992241,0.1648752698287687,1.3371830836277177,0.8588507960783636,0.2883842,0.6374603575105344
0.0165,1.7931937500000001,1.0,2120.2937196699536,0.16955965913405363,1.3365581850880492,0.8652863085135885,0.2883671375,0.6388028955683622
0.017,1.792775,1.0,2160.673189895315,0.17421777254133705,1.335954598571548,0.8712747424377549,0.28834955,0.6400972822022643
0.0175,1.7923437500000001,1.0,2198.928019511862,0.17884975700793132,1.3353707331468614,0.8768555158915553,0.2883314375,0.6413471662899767
0.018000000000000002,1.7919,1.0,2235.1642067378893,0.18345576123849336,1.3348048646316886,0.8820638931171729,0.2883128,0.6425564496777956
0.0185,1.79144375,1.0,2269.448952829657,0.18803592952952258,1.3342557502219363,0.8869316263787946,0.2882936375,0.6437279765419979
0.019,1.790975,1.0,2301.8555845208066,0.19259040607042804,1.3337221581978589,0.8914872409095758,0.28827395,0.6448645444125104
0.0195,1.79049375,1.0,2332.4640441063275,0.19711933505061874,1.3332028568397114,0.8957564023177379,0.2882537375,0.645968929189588
0.02,1.79,1.0,2361.353426245778,0.2016228596845524,1.332696681877187,0.8997622562932146,0.288233,0.647043743201243
0.0205,1.78949375,1.0,2388.6086500932724,0.20610112382093648,1.3322024646022113,0.9035256956773104,0.2882117375,0.6480915896435477
0.021,1.788975,1.0,2414.306416117939,0.2105542698399619,1.3317191631732728,0.9070656377577094,0.28818995000000003,0.6491147856620652
0.021500000000000002,1.78844375,1.0,2438.5068472494486,0.2149824371448542,1.3312459355991169,0.910399254041242,0.2881676375,0.6501152109345208
0.022,1.7879,1.0,2461.2735123484667,0.219385765138839,1.330781939888489,0.9135421181304226,0.2881448,0.6510947329196685
0.0225,1.78734375,1.0,2482.673140620055,0.223764393225142,1.3303263340501346,0.9165083765107448,0.28812143749999997,0.6520552073756343
0.023,1.786775,1.0,2502.773181075508,0.2281184604440806,1.329878296697686,0.9193109028789748,0.28809755,0.6529984354841627
0.0235,1.78619375,1.0,2521.6311335483892,0.23244810381919187,1.3294371251548545,0.921961448025258,0.28807313749999996,0.6539259584493137
0.024,1.7856,1.0,2539.328937549075,0.23675346397805422,1.3290019071111308,0.924470697359732,0.2880482,0.6548397484605832
0.0245,1.78499375,1.0,2555.912674644003,0.24103467514029298,1.3285720886368833,0.9268484759423659,0.2880227375,0.6557410158443755
0.025,1.784375,1.0,2571.4300320945536,0.24529187152553342,1.3281471158024811,0.9291037736011695,0.28799675,0.6566309642554625
0.025500000000000002,1.78374375,1.0,2585.9301706135543,0.24952518735340087,1.3277264346782929,0.9312448273347027,0.2879702375,0.6575107908579548
0.026000000000000002,1.7831000000000001,1.0,2599.4635989243798,0.2537347568435206,1.3273094913346872,0.9332791945812388,0.2879432,0.6583816864866974
0.0265,1.78244375,1.0,2612.0815503424305,0.2579207140350621,1.3268957365322906,0.9352138191270066,0.2879156375,0.6592448260108776
0.027,1.781775,1.0,2623.8282738459407,0.2620831897604371,1.326484696100889,0.9370550987894408,0.28788755,0.6601012219767546
0.0275,1.7810937500000001,1.0,2634.7615419263593,0.26622232040236793,1.3260757794651394,0.9388089109552961,0.2878589375,0.6609521238718168
0.028,1.7804,1.0,2644.9165863776634,0.2703382347892285,1.3256686129849613,0.9404807046867475,0.2878298,0.6617983243509296
0.0285,1.77969375,1.0,2654.3293263495684,0.27443106174939297,1.325262823020274,0.9420755107187299,0.2878001375,0.662640612120159
0.029,1.778975,1.0,2663.0363086313837,0.2785009301112353,1.3248580359309972,0.9435979790182578,0.28776995,0.6634797719740273
0.029500000000000002,1.7782437500000001,1.0,2671.07465103061,0.2825479687031295,1.3244538780770494,0.9450524125206945,0.2877392375,0.6643165848238621
0.03,1.7775,1.0,2678.4819888471616,0.28657230635344955,1.3240499758183508,0.9464427974737349,0.287708,0.6651518277172394
0.0305,1.77674375,1.0,2685.282540043202,0.29057406671102803,1.323646082753437,0.9477728456353532,0.2876762375,0.6659860112192454
0.031,1.775975,1.0,2691.5220240034705,0.2945533828730738,1.323241758918376,0.9490459811664153,0.28764395,0.6668200423831456
0.0315,1.7751937500000001,1.0,2697.236168531493,0.2985103826217758,1.3228366594999024,0.9502653966063841,0.2876111375,0.6676546278155105
0.032,1.7744,1.0,2702.4482327805385,0.3024451885290276,1.3224305565573558,0.9514340746147036,0.2875778,0.6684902302235772
0.0325,1.77359375,1.0,2707.1817203103165,0.3063579231667225,1.3220232221500752,0.9525547925142892,0.2875439375,0.6693273099364903
0.033,1.772775,1.0,2711.460356204815,0.3102487091067542,1.3216144283373992,0.9536301389184215,0.28750955,0.6701663248890559
0.0335,1.7719437500000002,1.0,2715.3080653425905,0.31411766892101595,1.3212039471786674,0.9546625288214606,0.2874746375,0.6710077306021807
0.034,1.7711000000000001,1.0,2718.7489518185635,0.3179649251814013,1.3207915507332184,0.9556542173116385,0.2874392,0.6718519801600031
0.0345,1.7702437500000001,1.0,2721.8072795183325,0.32179060045980373,1.3203770110603918,0.9566073120463197,0.2874032375,0.6726995241837039
0.035,1.7693750000000001,1.0,2724.507453844032,0.32559481732811674,1.319960100219526,0.9575237846144371,0.28736675,0.6735508108020117
0.035500000000000004,1.76849375,1.0,2726.86579853792,0.3293776919359825,1.3195406648958563,0.9584054872236456,0.2873297375,0.6744061335392668
0.036000000000000004,1.7676,1.0,2728.9109767695177,0.33313935180275017,1.3191184404754184,0.9592541465524209,0.2872922,0.6752660106777324
0.0365,1.76669375,1.0,2730.659958364094,0.3368799151589028,1.3186932695311462,0.9600713906158783,0.2872541375,0.6761307396541716
0.037,1.765775,1.0,2732.1271329417127,0.34059949806573947,1.3182650187371259,0.9608587492465314,0.28721555,0.6770005671181663
0.0375,1.76484375,1.0,2733.326951213967,0.3442982165845589,1.317833554767443,0.9616176593214119,0.2871764375,0.6778757380863867
0.038,1.7639,1.0,2734.2739175974566,0.3479761867766601,1.3173987442961836,0.9623494714370698,0.28713679999999997,0.678756495915835
0.0385,1.76294375,1.0,2734.9825832224,0.35163352470334197,1.3169604539974336,0.9630554560347375,0.28709663750000003,0.6796430822759592
0.039,1.761975,1.0,2735.467539334046,0.3552703464259034,1.316518550545279,0.9637368090264398,0.28705595,0.680535737119629
0.0395,1.7609937500000001,1.0,2735.743411089712,0.3588867680056433,1.3160729006138054,0.9643946569676685,0.2870147375,0.681434698652983
0.04,1.76,1.0,2735.8232768416265,0.3624829025889821,1.315623385175852,0.9650300625577819,0.286973,0.6823401745221165
0.0405,1.7589937500000001,1.0,2735.716995066088,0.3660588576295139,1.3151699146454618,0.9656440298221559,0.2869307375,0.6832523115509321
0.041,1.757975,1.0,2735.4452823523,0.3696147639538372,1.3147123010195487,0.9662375021105566,0.28688795,0.6841714527646077
0.0415,1.75694375,1.0,2735.016407539573,0.3731507304341739,1.314250469437081,0.9668113762585924,0.2868446375,0.6850977119214741
0.042,1.7559,1.0,2734.438650916317,0.37666686594274607,1.3137843450370263,0.9673664999215958,0.28680079999999997,0.6860312015614937
0.0425,1.75484375,1.0,2733.720301913788,0.3801632793517755,1.313313852958353,0.9679036747711646,0.2867564375,0.6869720329859426
0.043000000000000003,1.753775,1.0,2732.869656922692,0.3836400795334842,1.312838918340029,0.9684236594525946,0.28671155,0.6879203162367367
0.043500000000000004,1.75269375,1.0,2731.8950172360564,0.38709737536009414,1.3123594663210225,0.9689271723233249,0.28666613750000003,0.6888761600754019
0.044,1.7516,1.0,2730.8046871143133,0.39053527570382723,1.3118754220403015,0.969414893990646,0.2866202,0.689839671961683
0.0445,1.75049375,1.0,2729.606971976311,0.39395388943690546,1.311386710636834,0.9698874696652372,0.2865737375,0.6908109580318005
0.045,1.7493750000000001,1.0,2728.3101767134963,0.3973533254315507,1.3108932572495882,0.9703455113455838,0.28652675,0.6917901230763437
0.0455,1.74824375,1.0,2726.9226041287093,0.400733692559985,1.310394987017532,0.9707895998469654,0.2864792375,0.692777270517813
0.046,1.7471,1.0,2725.4525534993327,0.4040950996944302,1.3098918250796334,0.9712202866874784,0.2864312,0.6937725023877994
0.0465,1.7459437500000001,1.0,2723.9019480817537,0.40743763968630164,1.3093837545459495,0.9716380979415982,0.28638263750000004,0.6947758049204454
0.047,1.744775,1.0,2722.2801411959213,0.4107614334699502,1.30887069091464,0.9720435325345511,0.28633355,0.6957872968555898
0.0475,1.74359375,1.0,2720.5951056774084,0.41406659438174914,1.3083525621798837,0.9724370648169424,0.28628393750000003,0.6968070707815719
0.048,1.7424,1.0,2718.8505192793214,0.417353223160538,1.3078293353858645,0.9728191472802015,0.2862338,0.6978351411858958
0.0485,1.74119375,1.0,2717.0500571855678,0.4206214205451563,1.3073009775767657,0.9731902107100369,0.2861831375,0.6988715216210593
0.049,1.739975,1.0,2715.197391621991,0.4238712872744435,1.3067674557967706,0.9735506654240611,0.28613195,0.6999162246938024
0.0495,1.73874375,1.0,2713.2961914936523,0.42710292408723916,1.3062287370900625,0.9739009024279134,0.2860802375,0.7009692620542902
0.05,1.7375,1.0,2711.3501220447824,0.43031643172238276,1.3056847885008247,0.9742412944959472,0.286028,0.7020306443852236
0.0505,1.73624375,1.0,2709.3628445435047,0.43351191091871377,1.305135577073241,0.974572197182032,0.2859752375,0.7031003813908809
0.051000000000000004,1.734975,1.0,2707.338015990305,0.4366894624150717,1.3045810698514941,0.9748939497655791,0.28592195,0.7041784817860945
0.051500000000000004,1.73369375,1.0,2705.279288850847,0.4398491869502961,1.304021233879768,0.9752068761374818,0.2858681375,0.7052649532851509
0.052000000000000005,1.7324,1.0,2703.1903108125434,0.4429911852632265,1.3034560362022458,0.9755112856302752,0.2858138,0.706359802590629
0.0525,1.73109375,1.0,2701.074724565726,0.44611555809270226,1.302885443863111,0.9758074737964929,0.28575893750000003,0.7074630353821627
0.053,1.729775,1.0,2698.9361676081426,0.44922240617756304,1.302309423906547,0.9760957231388672,0.28570355000000003,0.7085746563051394
0.0535,1.72844375,1.0,2696.7782720743926,0.45231183025664823,1.3017279433767368,0.9763763037957481,0.2856476375,0.7096946689593262
0.054,1.7271,1.0,2694.6038774977624,0.4553838994513138,1.3011409765184,0.9766494714709596,0.2855912,0.7108230620584961
0.0545,1.7257437500000001,1.0,2692.4166086071064,0.4584387514942069,1.3005484903502826,0.9769154772431723,0.2855342375,0.7119598372071623
0.055,1.724375,1.0,2690.2178843707225,0.46147648053425,1.299950472034061,0.9771745583900424,0.28547675,0.7131049563984182
0.0555,1.72299375,1.0,2688.0090619172092,0.4644971787434721,1.2993469092776873,0.9774269420188969,0.2854187375,0.7142583798019646
0.056,1.7216,1.0,2685.7914962430013,0.4675009382939021,1.2987377897891124,0.9776728457361321,0.2853602,0.715420066810957
0.0565,1.72019375,1.0,2683.566540187248,0.470487851357569,1.2981231012762882,0.9779124781203408,0.28530113749999997,0.7165899760376532
0.057,1.718775,1.0,2681.3355444091926,0.4734580101065017,1.2975028314471662,0.9781460391681436,0.28524155,0.717768065309053
0.0575,1.71734375,1.0,2679.099857368772,0.476411506712729,1.2968769680096977,0.9783737207145093,0.2851814375,0.7189542916625287
0.058,1.7159,1.0,2676.860825311217,0.47934843334828003,1.2962454986718341,0.9785957068292149,0.2851208,0.7201486113414424
0.0585,1.71444375,1.0,2674.619792254839,0.48226888218518355,1.2956084111415274,0.978812174190981,0.2850596375,0.721350979790758
0.059000000000000004,1.7129750000000001,1.0,2672.378099981521,0.4851729453954686,1.2949656931267284,0.9790232924407039,0.28499795,0.7225613516526426
0.059500000000000004,1.71149375,1.0,2670.13708803146,0.48806071515116406,1.294317332335389,0.9792292245151097,0.2849357375,0.7237796807620542
0.06,1.71,1.0,2667.8980937005535,0.4909322836242988,1.2936633164754605,0.9794301269620587,0.284873,0.7250059201423263
0.0605,1.7084937500000001,1.0,2665.662452041651,0.49378774298690187,1.2930036332548944,0.9796261502386416,0.2848097375,0.7262400220007377
0.061,1.7069750000000001,1.0,2663.431495868896,0.4966271854110021,1.2923382703816424,0.979817438993136,0.28474595,0.7274819377240744
0.0615,1.7054437500000001,1.0,2661.2065557650303,0.4994507030686285,1.291667215563656,0.9800041323318083,0.2846816375,0.7287316178741833
0.062,1.7039,1.0,2658.984115273511,0.502258360199642,1.2909905011265619,0.9801863642574042,0.2846168,0.7299889293817359
0.0625,1.70234375,1.0,2656.763258587026,0.5050502445930112,1.290308135489753,0.9803642643131927,0.2845514375,0.7312537833815791
0.063,1.7007750000000001,1.0,2654.552815982909,0.5078264935921372,1.289620037256528,0.9805379562819491,0.28448555,0.7325262564398192
0.0635,1.69919375,1.0,2652.352875022206,0.5105871897411345,1.2889262055102655,0.9807075593313179,0.28441913750000003,0.7338062747749995
0.064,1.6976,1.0,2650.163523152559,0.5133324155841174,1.2882266393343433,0.9808731882463992,0.2843522,0.735093763960556
0.0645,1.69599375,1.0,2647.984847710274,0.5160622536652005,1.28752133781214,0.981034953621366,0.2842847375,0.7363886489244812
0.065,1.694375,1.0,2645.8169359219164,0.5187767865284983,1.2868103000270334,0.9811929620413449,0.28421675,0.7376908539489894
0.0655,1.69274375,1.0,2643.659874906152,0.5214760967181253,1.2860935250624017,0.9813473162551293,0.2841482375,0.7390003026701816
0.066,1.6911,1.0,2641.513751675737,0.5241602667781958,1.285371012001623,0.981498115339242,0.2840792,0.7403169180777089
0.0665,1.6894437500000001,1.0,2639.378653139433,0.5268293792528246,1.2846427599280756,0.9816454548538407,0.2840096375,0.7416406225144385
0.067,1.687775,1.0,2637.2546661035467,0.5294835166861258,1.2839087679251375,0.9817894269909287,0.28393955,0.7429713376761173
0.0675,1.68609375,1.0,2635.1418772744273,0.5321227616222142,1.2831690350761868,0.9819301207153008,0.2838689375,0.7443089846110372
0.068,1.6844000000000001,1.0,2633.0403732597597,0.534747196605204,1.282423560464602,0.9820676218986267,0.2837978,0.7456534837196982
0.0685,1.68269375,1.0,2630.950240571094,0.5373569041792099,1.2816723431737609,0.982202013447052,0.2837261375,0.7470047547544741
0.069,1.680975,1.0,2628.871565625436,0.5399519668883462,1.2809153822870416,0.9823333754226757,0.28365395,0.748362716819277
0.0695,1.67924375,1.0,2626.8044347472996,0.5425324672767277,1.2801526768878226,0.9824617851592312,0.28358123749999997,0.7497272883692195
0.07,1.6775,1.0,2624.748934171042,0.5450984878884684,1.2793842260594817,0.9825873173722929,0.283508,0.7510983872102821
0.07050000000000001,1.67574375,1.0,2622.7051500423718,0.5476501112676831,1.2786100288853972,0.9827100442642951,0.2834342375,0.7524759304989737
0.07100000000000001,1.673975,1.0,2620.6731684207225,0.5501874199584863,1.2778300844489474,0.9828300356246448,0.28335995,0.7538598347419986
0.07150000000000001,1.67219375,1.0,2618.6530752812528,0.5527104965049924,1.2770443918335102,0.9829473589251887,0.2832851375,0.75525001579592
0.07200000000000001,1.6704,1.0,2616.644956517089,0.5552194234513158,1.2762529501224635,0.9830620794112757,0.2832098,0.756646388866823
0.0725,1.66859375,1.0,2614.6488979409833,0.557714283341571,1.2754557583991861,0.9831742601886506,0.2831339375,0.7580488685099783
0.073,1.6667750000000001,1.0,2612.664055295779,0.5601951280095652,1.274652824387277,0.9832839608986566,0.28305755,0.7594573534951901
0.0735,1.66494375,1.0,2610.6910682902076,0.5626620606973621,1.273844142030485,0.983391241631437,0.2829806375,0.7608717661849095
0.074,1.6631,1.0,2608.7301998356425,0.5651151712139187,1.2730297087673628,0.9834961599139452,0.2829032,0.7622920220995187
0.0745,1.6612437500000001,1.0,2606.7812352271035,0.5675545332431559,1.2722095264756588,0.9835987707097531,0.2828252375,0.7637180283670205
0.075,1.659375,1.0,2604.843960134064,0.5699802204689941,1.271383597033121,0.9836991272396433,0.28274675,0.7651496915222085
0.0755,1.65749375,1.0,2602.918160596198,0.5723923065753543,1.2705519223174977,0.983797281046578,0.2826677375,0.7665869175073555
