Time [s],Phi [rad],STIM [ ],Fsee [N],Gamma [ ],Lcerel [ ],q [ ],Lmtc [m],fisomrel [ ]
0.0,1.8,1.0,17.96742696124099,1.1262814788695979e-05,1.3793397161059544,0.005000033776324709,0.288653,0.5411396039051465
0.0005,1.79999375,1.0,18.277159403981862,0.005620408948099549,1.3793023416626948,0.012944020176205332,0.2886527375,0.5412300178864679
0.001,1.799975,1.0,21.619705039374583,0.011198092206518654,1.3789381669416043,0.03561515723408255,0.28865195,0.5421105409277323
0.0015,1.79994375,1.0,31.072463656288058,0.016744489072759352,1.378045928751248,0.07061071329475364,0.2886506375,0.5442642721766782
0.002,1.7999,1.0,53.589340119145554,0.02225977503788262,1.3763676806735108,0.11472850548925571,0.2886488,0.5483015591340632
0.0025,1.79984375,1.0,97.13059774753042,0.027744124608867625,1.3739346054039845,0.1645862813412685,0.28864643749999996,0.5541228025553776
0.003,1.7997750000000001,1.0,160.97347372147667,0.03319771131631923,1.3712137708180354,0.21729220286890674,0.28864354999999997,0.56058780725464
0.0035,1.79969375,1.0,237.70069746849958,0.03862070771406699,1.3685841993264802,0.27062457396142947,0.2886401375,0.5667910969606424
0.004,1.7996,1.0,321.48530909282465,0.044013285389945485,1.3661556014089482,0.3229271164336146,0.2886362,0.5724811082807764
0.0045000000000000005,1.7994937500000001,1.0,409.28701142014273,0.04937561497097935,1.3639223620514762,0.3730452485657315,0.2886317375,0.5776802117311042
0.005,1.799375,1.0,499.43319679957926,0.05470786611447469,1.3618579238841475,0.42025751035467984,0.28862675,0.5824580450326994
0.0055,1.79924375,1.0,590.8103264995093,0.06001020755544571,1.3599384460606292,0.4641830032908211,0.2886212375,0.5868760046156236
0.006,1.7991000000000001,1.0,682.5380738664851,0.0652828070498731,1.3581460518297066,0.5046885141837434,0.2886152,0.59098024731758
0.006500000000000001,1.79894375,1.0,773.8795395685925,0.07052583110703636,1.356467282949672,0.5418088139106567,0.2886086375,0.5948057276354544
0.007,1.798775,1.0,864.308678099699,0.07573944663135905,1.3548900256251681,0.5756838767461353,0.28860155,0.5983835131115035
0.0075,1.79859375,1.0,953.2761147803918,0.08092381773255475,1.3534062731692043,0.6065162732525988,0.2885939375,0.601734713280146
0.008,1.7984,1.0,1040.3755275761378,0.08607910822468992,1.3520083949803285,0.6345379687777537,0.2885858,0.6048791130847354
0.0085,1.79819375,1.0,1125.3338698635816,0.091205481741037,1.350688963436255,0.6599897827896475,0.2885771375,0.6078356215688934
0.009000000000000001,1.797975,1.0,1207.8979994721137,0.09630310037837338,1.3494420648528556,0.6831092159547945,0.28856795,0.6106193983143262
0.0095,1.79774375,1.0,1287.8892671800832,0.10137212549308638,1.3482621626881908,0.7041220522230222,0.2885582375,0.6132444707900004
0.01,1.7975,1.0,1365.174993968524,0.1064127173163031,1.3471442831684979,0.7232383208704393,0.288548,0.6157233630849164
0.0105,1.79724375,1.0,1439.6682271486907,0.11142503529692985,1.3460838371505432,0.7406503852336743,0.2885372375,0.6180675308136361
0.011,1.796975,1.0,1511.3316844794251,0.116409238460222,1.3450764379594908,0.7565325233365741,0.28852595000000003,0.6202877932563446
0.0115,1.79669375,1.0,1580.1304040876864,0.12136548396906757,1.3441183708614115,0.771041713193067,0.2885141375,0.6223933253689033
0.012,1.7964,1.0,1646.0664394402577,0.12629392846534296,1.3432060545968114,0.7843184304483136,0.28850180000000003,0.62439287017886
0.0125,1.79609375,1.0,1709.1826324892077,0.13119472877566946,1.3423359353445008,0.7964879352793762,0.2884889375,0.6262949852417277
0.013000000000000001,1.7957750000000001,1.0,1769.5154806725357,0.13606803987442423,1.3415049719827454,0.8076618886799413,0.28847555,0.6281069965276285
0.0135,1.79544375,1.0,1827.1007488554994,0.14091401514890103,1.3407104926404811,0.8179396701334309,0.2884616375,0.6298353322853337
0.014,1.7951000000000001,1.0,1882.0018033087213,0.1457328079863938,1.3399498254466435,0.82740956225669,0.2884472,0.6314863398558566
0.0145,1.79474375,1.0,1934.2883249639967,0.15052457082316137,1.3392205022820636,0.8361500711882469,0.2884322375,0.6330658508657669
0.015,1.794375,1.0,1984.0590751914208,0.15528945671191324,1.3385199791273505,0.8442309551927482,0.28841675,0.6345797950625579
0.0155,1.79399375,1.0,2031.379958370014,0.16002761552393688,1.3378462724901912,0.8517144549889867,0.2884007375,0.636032832157154
0.016,1.7936,1.0,2076.3213981389986,0.16473919648333618,1.3371975198360944,0.8586560330464643,0.2883842,0.6374293131900088
0.0165,1.7931937500000001,1.0,2118.9680852151228,0.1694243488142151,1.3365718586305695,0.8651051385755127,0.2883671375,0.6387735458480994
0.017,1.792775,1.0,2159.404963926212,0.17408322072356966,1.3359675570264196,0.871105957506751,0.28834955,0.6400695173013378
0.0175,1.7923437500000001,1.0,2197.731713296935,0.1787159611569911,1.335382849817725,0.8766979880283944,0.2883314375,0.641321250153512
0.018000000000000002,1.7919,1.0,2234.0237882948845,0.18332271592855695,1.3348163211406683,0.8819166922767137,0.2883128,0.6425319869190973
0.0185,1.79144375,1.0,2268.3548872731462,0.18790362994668122,1.3342666576627642,0.8867938998765884,0.2882936375,0.6437047244099631
0.019,1.790975,1.0,2300.8062161335943,0.19245884811977798,1.3337325460515268,0.8913582021168291,0.28827395,0.64484243528688
0.0195,1.79049375,1.0,2331.4597799749095,0.19698851454405028,1.3332127326924577,0.8956353373699056,0.2882537375,0.6459479425115586
0.02,1.79,1.0,2360.401477759728,0.20149277370070964,1.3327059857573007,0.8996485064249731,0.288233,0.6470240020448432
0.0205,1.78949375,1.0,2387.7104499994166,0.205971768838065,1.3322111928849691,0.9034186780942621,0.2882117375,0.6480730973276334
0.021,1.788975,1.0,2413.449065098887,0.21042564023470214,1.3317274500029594,0.9069648539415225,0.28818995000000003,0.649097254191754
0.021500000000000002,1.78844375,1.0,2437.683614356552,0.2148545281692068,1.331253853038769,0.9103042396038517,0.2881676375,0.6500984848436533
0.022,1.7879,1.0,2460.4839863770167,0.21925857292016468,1.330789497919894,0.9134524392901007,0.2881448,0.6510787884754607
0.0225,1.78734375,1.0,2481.9183840221144,0.22363791382420067,1.3303335280021156,0.9164236358984315,0.28812143749999997,0.6520400519058531
0.023,1.786775,1.0,2502.054839249703,0.227992690202829,1.3298851159844218,0.9192307377143877,0.28809755,0.6529840888135987
0.0235,1.78619375,1.0,2520.9651055996246,0.23232304191965944,1.3294434240986475,0.9218855036883151,0.28807313749999996,0.6539127242288224
0.024,1.7856,1.0,2538.699089157802,0.23662910414596608,1.3290078430696093,0.92439870240977,0.2880482,0.6548272933631485
0.0245,1.78499375,1.0,2555.308552577777,0.24091101205302293,1.3285777636221239,0.9267801729227162,0.2880227375,0.6557291238937618
0.025,1.784375,1.0,2570.846960389449,0.24516890081210402,1.3281525764810078,0.9290389177146543,0.28799675,0.6566195361890188
0.025500000000000002,1.78374375,1.0,2585.369332537796,0.24940290559448344,1.327731672371078,0.9311831852728389,0.2879702375,0.657499843510384
0.026000000000000002,1.7831000000000001,1.0,2598.9258361164793,0.2536131600677371,1.327314500423519,0.9332205523344661,0.2879432,0.6583712302694587
0.0265,1.78244375,1.0,2611.5675112770928,0.25779979862771707,1.326900513051246,0.935157980364693,0.2879156375,0.6592348678789293
0.027,1.781775,1.0,2623.3504261917037,0.2619629562038877,1.3264891263577543,0.9370018675487574,0.28788755,0.6600919973537958
0.0275,1.7810937500000001,1.0,2634.31143537287,0.26610276246401054,1.3260799438475719,0.938758133018982,0.2878589375,0.6609434637128966
0.028,1.7804,1.0,2644.488174278211,0.27021934707584716,1.3256725690252265,0.9404322347974735,0.2878298,0.6617901077312154
0.0285,1.77969375,1.0,2653.9189920505164,0.2743128397071591,1.3252666053952458,0.9420292117676705,0.2878001375,0.6626327659906042
0.029,1.778975,1.0,2662.642887743161,0.2783833700257079,1.3248616564621576,0.943553721319444,0.28776995,0.6634722709204819
0.029500000000000002,1.7782437500000001,1.0,2670.69945003096,0.2824310676992551,1.32445732573049,0.94501007316082,0.2877392375,0.6643094508285038
0.03,1.7775,1.0,2678.122237526856,0.2864560596930337,1.324053276928325,0.9464022668369814,0.287708,0.6651450054592292
0.0305,1.77674375,1.0,2684.951817898375,0.2904584766790225,1.323649113635465,0.9477340047968824,0.2876762375,0.6659797552390878
0.031,1.775975,1.0,2691.2194461514223,0.29443844522428436,1.3232445286503904,0.949008734345311,0.28764395,0.666814332581591
0.0315,1.7751937500000001,1.0,2696.9512448294627,0.2983960895062886,1.3228392648610887,0.9502296645664925,0.2876111375,0.6676492635967851
0.032,1.7744,1.0,2702.1736259185004,0.30233153370250465,1.322433065155547,0.9513997806207581,0.2875778,0.6684850717295882
0.0325,1.77359375,1.0,2706.9132632691535,0.30624490199040194,1.3220256724217516,0.9525218621123298,0.2875439375,0.6693222777465521
0.033,1.772775,1.0,2711.1970664838336,0.31013631854744994,1.32161682954769,0.9535984997390378,0.28750955,0.670161399718406
0.0335,1.7719437500000002,1.0,2715.052156270189,0.31400590755111796,1.3212062794213488,0.9546321104030387,0.2874746375,0.6710029529983877
0.034,1.7711000000000001,1.0,2718.4981258009693,0.3178537845372957,1.3207938352030362,0.9556249565263965,0.2874392,0.6718473064277017
0.0345,1.7702437500000001,1.0,2721.571399829952,0.321680084297605,1.3203791581919118,0.9565791408783471,0.2874032375,0.6726951371053635
0.035,1.7693750000000001,1.0,2724.289775564361,0.3254849256400184,1.3199620806844239,0.9574966448471283,0.28736675,0.6735467695283617
0.035500000000000004,1.76849375,1.0,2726.6701780280673,0.3292684263972692,1.3195424439029146,0.9583793241130252,0.2873297375,0.6744025081140073
0.036000000000000004,1.7676,1.0,2728.729628303282,0.3330307044020908,1.3191200890697268,0.9592289174131778,0.2872922,0.6752626554595971
0.0365,1.76669375,1.0,2730.4852329472537,0.3367718774872164,1.3186948574072017,0.9600470552403009,0.2872541375,0.6761275123156996
0.037,1.765775,1.0,2731.9541739665965,0.3404920634853794,1.3182665901376822,0.9608352678001927,0.28721555,0.6769973775578209
0.0375,1.76484375,1.0,2733.1536993520854,0.34419138022931317,1.3178351284835104,0.9615949922987465,0.2871764375,0.6778725481564747
0.038,1.7639,1.0,2734.101114170889,0.347869945551751,1.3174003136670283,0.9623275796217591,0.28713679999999997,0.6787533191456381
0.0385,1.76294375,1.0,2734.81377221907,0.3515278772854261,1.3169619869105782,0.9630343004642478,0.28709663750000003,0.6796399835895996
0.039,1.761975,1.0,2735.3015969446833,0.3551652847846593,1.316520057275576,0.9637163555894618,0.28705595,0.6805326956067159
0.0395,1.7609937500000001,1.0,2735.582625447828,0.3587822901046563,1.3160743604473613,0.9643748718588129,0.2870147375,0.6814317559559679
0.04,1.76,1.0,2735.675077184694,0.36237901487294155,1.3156247307153095,0.9650109112639333,0.286973,0.6823374660742614
0.0405,1.7589937500000001,1.0,2735.5880472599465,0.36595556950670327,1.3151710854135308,0.9656254808335175,0.2869307375,0.6832499582884468
0.041,1.757975,1.0,2735.330648474772,0.3695120644231295,1.3147133418761356,0.9662195311210824,0.28688795,0.684169363664396
0.0415,1.75694375,1.0,2734.912008415935,0.3730486100394085,1.3142514174372342,0.9667939599567544,0.2868446375,0.6850958119856161
0.042,1.7559,1.0,2734.3412666961626,0.37656531677272836,1.313785229430937,0.9673496159124138,0.28680079999999997,0.6860294317314232
0.0425,1.75484375,1.0,2733.627572346683,0.38006229504027733,1.313314695191354,0.9678873015048105,0.2867564375,0.6869703500546843
0.043000000000000003,1.753775,1.0,2732.780081359843,0.38353965525924344,1.3128397320525957,0.9684077761589439,0.28671155,0.6879186927591203
0.043500000000000004,1.75269375,1.0,2731.8079543852036,0.38699750784681497,1.3123602573487725,0.9689117589518909,0.28666613750000003,0.6888745842761754
0.044,1.7516,1.0,2730.7203545750453,0.3904359632201799,1.3118761884139944,0.9693999311553904,0.2866202,0.6898381476414497
0.0445,1.75049375,1.0,2729.5264455833594,0.39385513179652665,1.3113874425823722,0.9698729385938001,0.2865737375,0.6908095044706948
0.045,1.7493750000000001,1.0,2728.2332761413845,0.39725512026451587,1.3108939564040567,0.9703313947671505,0.28652675,0.6917887368349251
0.0455,1.74824375,1.0,2726.8442303988445,0.40063602955585953,1.3103956997468242,0.9707758836200012,0.2864792375,0.6927758596258908
0.046,1.7471,1.0,2725.376053397381,0.40399798466091075,1.3098925209576653,0.9712069539230959,0.2864312,0.6937711270870631
0.0465,1.7459437500000001,1.0,2723.8330039942553,0.4073410883174543,1.30938438186925,0.9716251323147446,0.28638263750000004,0.6947745671408866
0.047,1.744775,1.0,2722.219339533726,0.41066544326327503,1.3088712443142485,0.9720309194042426,0.28633355,0.6957862067467087
0.0475,1.74359375,1.0,2720.5393152840406,0.4139711522361579,1.3083530701253305,0.9724247913002655,0.28628393750000003,0.6968060718886575
0.048,1.7424,1.0,2718.797183905618,0.4172583179738876,1.3078298211351662,0.9728072010356943,0.2862338,0.6978341875634297
0.0485,1.74119375,1.0,2716.997194953027,0.42052704321424916,1.3073014591764254,0.9731785798967904,0.2861831375,0.698870577767984
0.049,1.739975,1.0,2715.1435944076943,0.42377743069502727,1.3067679460817783,0.9735393386639629,0.28613195,0.6999152654871403
0.0495,1.73874375,1.0,2713.2406242443576,0.4270095831540069,1.3062292436838945,0.9738898687707711,0.2860802375,0.7009682726810904
0.05,1.7375,1.0,2711.29252202876,0.4302236033289728,1.3056853138154445,0.9742305433872356,0.286028,0.70202962027281
0.0505,1.73624375,1.0,2709.303520548302,0.43341959395770985,1.3051361183090981,0.9745617184330494,0.2859752375,0.7030993281353829
0.051000000000000004,1.734975,1.0,2707.277847474469,0.4365976577780029,1.3045816189975252,0.9748837335258081,0.28592195,0.7041774150792295
0.051500000000000004,1.73369375,1.0,2705.2199215571827,0.43975789750112326,1.3040217759192958,0.9751969127500009,0.2858681375,0.7052639023178492
0.052000000000000005,1.7324,1.0,2703.1382723637394,0.44290041247163076,1.303456511510657,0.9755015628475164,0.2858138,0.7063588827225209
0.0525,1.73109375,1.0,2701.0273461653655,0.4460253009839923,1.3028858767768576,0.9757979849162108,0.28575893750000003,0.707462199136206
0.053,1.729775,1.0,2698.8913292716325,0.44913266119674905,1.3023098337729944,0.9760864611852543,0.28570355000000003,0.7085738660846446
0.0535,1.72844375,1.0,2696.734401838949,0.4522225912684422,1.3017283445541643,0.9763672615368936,0.2856476375,0.7096938969789652
0.054,1.7271016298261739,1.0,2694.6408171092557,0.45529518910173833,1.3011413746358185,0.9766406443347057,0.28559126845269933,0.7108222974567909
0.0545,1.7257580130584547,1.0,2693.0466239906855,0.4583505524279649,1.3005491661648543,0.9769068735457991,0.2855348365484551,0.7119585418291161
0.055,1.7244143962907352,1.0,2691.981244260637,0.46138877786890775,1.2999521216799774,0.9771662113800206,0.28547840464421087,0.7131018007005103
0.0555,1.7230707795230158,1.0,2691.4052248482562,0.46440996102195453,1.2993505994515449,0.9774189062690576,0.28542197273996667,0.7142513348469413
0.056,1.7217271627552964,1.0,2691.279270196213,0.4674141974844929,1.2987449577499133,0.9776651962687661,0.28536554083572246,0.7154064101371254
0.0565,1.7203835459875771,1.0,2691.5662194778847,0.47040158240907654,1.2981355364345277,0.9779053084794842,0.2853091089314782,0.716566332636787
0.057,1.7190399292198577,1.0,2692.2302235552147,0.4733722109819044,1.2975226642115012,0.9781394600604412,0.285252677027234,0.7177304345678901
0.0575,1.7176963124521383,1.0,2693.2424871661506,0.4763261767465839,1.296906605850617,0.9783678555771613,0.2851962451229898,0.7188981741143701
0.058,1.716352695684419,1.0,2694.5760299602425,0.4792635728061749,1.2962876099725906,0.9785906904227587,0.2851398132187456,0.7200690439308993
0.0585,1.7150090789166996,1.0,2696.203905455666,0.4821844922637371,1.295665925198137,0.9788081522065066,0.2850833813145014,0.721242540423245
0.059000000000000004,1.7136654621489802,1.0,2698.109426411196,0.48508902414683785,1.2950417065222286,0.9790204156152938,0.2850269494102572,0.7224183399631733
0.059500000000000004,1.7123218453812608,1.0,2700.2531684400715,0.48797726748771453,1.2944153169155008,0.9792276607171917,0.28497051750601293,0.7235957307574784
0.06,1.7109782286135415,1.0,2702.6189523168637,0.49084931209328936,1.2937869067549748,0.9794300483171309,0.28491408560176873,0.7247744050361727
0.0605,1.709634611845822,1.0,2705.1918314099,0.4937052472678124,1.2931566151611296,0.9796277323930098,0.2848576536975245,0.7259540784032825
0.061,1.7082909950781027,1.0,2707.9568548452253,0.4965451623155336,1.2925245812544448,0.9798208610543027,0.2848012217932803,0.727134468628545
0.0615,1.7069473783103835,1.0,2710.8990619178608,0.49936914654070297,1.2918909441553996,0.9800095768141841,0.2847447898890361,0.7283152956634866
0.062,1.705603761542664,1.0,2714.003476932147,0.5021772892475704,1.2912558429844734,0.9801940168470862,0.28468835798479186,0.7294962816562621
0.0625,1.7042601447749446,1.0,2717.2551044714364,0.5049696797403861,1.2906194168621454,0.9803743132325673,0.28463192608054766,0.7306771509652632
0.063,1.7029165280072251,1.0,2720.6389250964103,0.5077464073233999,1.289981804908895,0.9805505931863165,0.28457549417630346,0.7318576301714912
0.0635,1.701572911239506,1.0,2724.14794264704,0.5105075548465311,1.289343072991163,0.9807229750634037,0.28451906227205925,0.7330375832654035
0.064,1.7002292944717865,1.0,2727.7632541461317,0.5132532177043466,1.2887033951474811,0.9808915793195283,0.28446263036781505,0.7342166761170835
0.0645,1.698885677704067,1.0,2731.4742793562605,0.5159834838357268,1.2880628693932576,0.9810565177303952,0.28440619846357085,0.7353947170820249
0.065,1.6975420609363476,1.0,2735.2746420754197,0.5186984374544354,1.2874215553518753,0.9812178959101987,0.2843497665593266,0.7365715864767504
0.0655,1.6961984441686284,1.0,2739.157952198201,0.5213981627742368,1.2867795126467172,0.98137581573572,0.2842933346550824,0.7377471655807123
0.066,1.694854827400909,1.0,2743.1178047129047,0.5240827440088947,1.286136800901166,0.9815303755070061,0.2842369027508382,0.7389213366391789
0.0665,1.6935112106331895,1.0,2747.1477787777285,0.526752265372173,1.2854934797386046,0.9816816701000541,0.2841804708465939,0.7400939828658896
0.067,1.69216759386547,1.0,2751.241436875979,0.5294068110778358,1.284849608782416,0.9818297911119496,0.2841240389423497,0.7412649884454865
0.0675,1.690823977097751,1.0,2755.392324049637,0.5320464653396471,1.2842052476559824,0.9819748269988796,0.2840676070381055,0.7424342385357197
0.068,1.6894803603300315,1.0,2759.5939672119703,0.5346713123713708,1.2835604559826874,0.9821168632074243,0.2840111751338613,0.7436016192694209
0.0685,1.688136743562312,1.0,2763.839874539102,0.537281436386771,1.2829152933859134,0.982255982299491,0.2839547432296171,0.7447670177562582
0.069,1.6867931267945928,1.0,2768.1272615512144,0.5398769136466167,1.2822697858527163,0.9823922619853728,0.2838983113253729,0.7459303826360385
0.0695,1.6854495100268734,1.0,2772.4503093559056,0.5424578310277391,1.2816239866643715,0.9825257793329808,0.2838418794211287,0.7470916139517407
0.07,1.684105893259154,1.0,2776.8013816974144,0.5450242794332425,1.2809779653196744,0.9826566098646813,0.28378544751688445,0.7482505835612749
0.07050000000000001,1.6827622764914345,1.0,2781.1782636731214,0.5475763372127463,1.2803317422852782,0.9827848236008785,0.28372901561264025,0.749407252127871
0.07100000000000001,1.681418659723715,1.0,2785.578733513148,0.5501140827158706,1.2796853380278361,0.9829104882828651,0.28367258370839604,0.7505615806513235
0.07150000000000001,1.6800750429559959,1.0,2790.0005624941405,0.5526375942922348,1.2790387730140012,0.983033669462913,0.28361615180415184,0.7517135304682422
0.07200000000000001,1.6787314261882764,1.0,2794.441514861214,0.5551469502914588,1.2783920677104261,0.9831544305902318,0.2835597198999076,0.7528630632522753
0.0725,1.6773878094205572,1.0,2798.899347760048,0.5576422290631621,1.2777452425837648,0.983272833093009,0.2835032879956634,0.7540101410143039
0.073,1.6760441926528378,1.0,2803.371811177572,0.5601235089569646,1.2770983181006696,0.9833889364567386,0.2834468560914192,0.7551547261026151
