Time [s],Phi [rad],STIM [ ],Fsee [N],Gamma [ ],Lcerel [ ],q [ ],Lmtc [m],fisomrel [ ]
0.0,1.8,1.0,17.968308311988494,1.0649684898102078e-05,1.3793396173671453,0.005000030212297446,0.288653,0.5411398427798081
0.0005,1.79999375,1.0,18.277752707754736,0.005619799257382212,1.3793022757594782,0.012942315947973654,0.2886527375,0.5412301773076555
0.001,1.799975,1.0,21.619793367559627,0.011197485935684473,1.3789381579204656,0.03561195626385326,0.28865195,0.5421105627290953
0.0015,1.79994375,1.0,31.071576533030644,0.016743886202624594,1.3780460043277172,0.0706063295795009,0.2886506375,0.5442640899612489
0.002,1.7999,1.0,53.58653073858489,0.022259175549373466,1.3763678629222105,0.11472331309832559,0.2886488,0.5483011216816589
0.0025,1.79984375,1.0,97.12530643729251,0.027743528483014458,1.373934860367764,0.1645806332833088,0.28864643749999996,0.5541221945208575
0.003,1.7997750000000001,1.0,160.96628474041884,0.033197118534260904,1.3712140398986483,0.21728637745025514,0.28864354999999997,0.560587170223612
0.0035,1.79969375,1.0,237.69240011097475,0.03862011825704795,1.368584454899935,0.27061878117042093,0.2886401375,0.5667904961929775
0.004,1.7996,1.0,321.47636577005613,0.044012699239314584,1.3661558382782266,0.32292150835669325,0.2886362,0.5724805551491364
0.0045000000000000005,1.7994937500000001,1.0,409.27766599457254,0.04937503210818841,1.3639225814203262,0.3730399257140396,0.2886317375,0.577679702590453
0.005,1.799375,1.0,499.4235925242498,0.05470728652107109,1.3618581279711583,0.42025253099708937,0.28862675,0.582457574047222
0.0055,1.79924375,1.0,590.8005861699716,0.06000963121312265,1.3599386363606254,0.46417839358693275,0.2886212375,0.5868755677769563
0.006,1.7991000000000001,1.0,682.528273009027,0.06528223394038267,1.3581462299812417,0.504684278322737,0.2886152,0.5909798404024986
0.006500000000000001,1.79894375,1.0,773.8914334878198,0.07052526153540116,1.3564670799132217,0.5418047072457985,0.2886086375,0.5948061892160104
0.007,1.798775,1.0,864.2958000598106,0.07573887989083207,1.3548902336448008,0.5756803798814515,0.28860155,0.5983830422944474
0.0075,1.79859375,1.0,953.2531117992452,0.08092325396916712,1.353406626974856,0.6065131897763754,0.2885939375,0.6017339158490276
0.008,1.7984,1.0,1040.35453316818,0.08607854740690486,1.3520087040797106,0.6345351528468571,0.2885858,0.6048784191713097
0.0085,1.79819375,1.0,1125.3244109113054,0.09120492430121017,1.3506890973393546,0.6599871353222856,0.2885771375,0.6078353220896322
0.009000000000000001,1.797975,1.0,1207.9095705706338,0.09630254658013637,1.349441906747785,0.6831066532647664,0.28856795,0.6106197506647716
0.0095,1.79774375,1.0,1287.9009611277902,0.10137157477979163,1.3482620079461651,0.7041197187593916,0.2885582375,0.6132448144812028
0.01,1.7975,1.0,1365.175506923617,0.10641216943628418,1.347144276575658,0.7232362683686723,0.288548,0.6157233776810046
0.0105,1.79724375,1.0,1439.6681176579168,0.1114244904885062,1.3460838385209004,0.7406485182041174,0.2885372375,0.6180675277890285
0.011,1.796975,1.0,1511.3307248775693,0.11640869669557886,1.3450764496814076,0.7565308240275458,0.28852595000000003,0.6202877674594227
0.0115,1.79669375,1.0,1580.1288463055018,0.12136494523605705,1.3441183894714706,0.7710401629776317,0.2885141375,0.6223932845266624
0.012,1.7964,1.0,1646.064037130891,0.1262933927305901,1.3432060827153531,0.7843170152911565,0.28850180000000003,0.6243928086325963
0.0125,1.79609375,1.0,1709.1809115166773,0.131194196103433,1.3423359551127039,0.796486634231548,0.2884889375,0.6262949420825026
0.013000000000000001,1.7957750000000001,1.0,1769.5137186819002,0.136067510184824,1.341504991874079,0.8076606934845804,0.28847555,0.6281069532049914
0.0135,1.79544375,1.0,1827.098651510397,0.14091348840516624,1.3407105159415664,0.8179385715109344,0.2884616375,0.6298352816544376
0.014,1.7951000000000001,1.0,1881.999536786608,0.14573228419486298,1.339949850257254,0.8274085500964187,0.2884472,0.6314862860652761
0.0145,1.79474375,1.0,1934.2849661029998,0.1505240500061033,1.3392205385496783,0.8361491407610601,0.2884322375,0.633065772404548
0.015,1.794375,1.0,1984.0555456370512,0.15528893884397182,1.3385200167569982,0.8442300952845415,0.28841675,0.6345797138228371
0.0155,1.79399375,1.0,2031.3758664593713,0.16002710051292338,1.337846315604175,0.8517136602177847,0.2884007375,0.6360327392623856
0.016,1.7936,1.0,2076.316777111448,0.16473868430921473,1.3371975679952526,0.858655297271828,0.2883842,0.637429209624002
0.0165,1.7931937500000001,1.0,2118.963412653846,0.16942383952910267,1.336571906834274,0.86510445501937,0.2883671375,0.6387734423786375
0.017,1.792775,1.0,2159.3978653612185,0.1740827143486392,1.335967629568708,0.8711053286759763,0.28834955,0.6400693618685697
0.0175,1.7923437500000001,1.0,2197.7247307750777,0.17871545772247885,1.3353829205491956,0.8766974018577511,0.2883314375,0.6413210988644513
0.018000000000000002,1.7919,1.0,2234.017088985411,0.18332221524174536,1.334816388449778,0.8819161444115953,0.2883128,0.6425318431933911
0.0185,1.79144375,1.0,2268.349050151301,0.18790313195234398,1.334266715863827,0.8867933855008076,0.2882936375,0.6437046003367715
0.019,1.790975,1.0,2300.802243197206,0.1924583529001801,1.3337325853847155,0.8913577160141154,0.28827395,0.6448423515702602
0.0195,1.79049375,1.0,2331.456938087807,0.1969880220549307,1.3332127606423645,0.8956348789552694,0.2882537375,0.6459478831157344
0.02,1.79,1.0,2360.4019914168016,0.20149228445643777,1.3327059807365609,0.8996480687865904,0.288233,0.6470240126980968
0.0205,1.78949375,1.0,2387.7094083911616,0.2059712822855282,1.3322112030077775,0.9034182700327975,0.2882117375,0.6480730758805014
0.021,1.788975,1.0,2413.444195479489,0.2104251561063838,1.3317274970750568,0.9069644778316944,0.28818995000000003,0.6490971546056066
0.021500000000000002,1.78844375,1.0,2437.6753469357145,0.21485404648318632,1.3312539325574417,0.9103038921695473,0.2881676375,0.6500983168534116
0.022,1.7879,1.0,2460.475509558592,0.21925809398011747,1.3307895790739745,0.9134521122893066,0.2881448,0.6510786172706082
0.0225,1.78734375,1.0,2481.9088287807617,0.2236374368855767,1.3303336190847765,0.9164233289823184,0.28812143749999997,0.6520398600202608
0.023,1.786775,1.0,2502.0541752040203,0.22799221723583485,1.329885122288723,0.9192304322522242,0.28809755,0.652984075550237
0.0235,1.78619375,1.0,2520.9677824804553,0.23232257196041092,1.3294433987804442,0.9218852088227536,0.28807313749999996,0.6539127774234351
0.024,1.7856,1.0,2538.701407155421,0.2366286365837054,1.3290078212224663,0.9243984234178542,0.2880482,0.6548273392042272
0.0245,1.78499375,1.0,2555.3086957289784,0.24091054663011874,1.3285777622773147,0.926779911623886,0.2880227375,0.6557291267118383
0.025,1.784375,1.0,2570.8450250159653,0.24516843762405144,1.3281525946075152,0.9290386728354274,0.28799675,0.6566194982536855
0.025500000000000002,1.78374375,1.0,2585.3673512318087,0.24940244508990397,1.3277316908755934,0.9311829527726642,0.2879702375,0.657499804833624
0.026000000000000002,1.7831000000000001,1.0,2598.9224409737135,0.2536127010331661,1.3273145320498358,0.9332203328988062,0.2879432,0.6583711642506281
0.0265,1.78244375,1.0,2611.572989085847,0.2577993436632076,1.3269004621482452,0.9351577591273411,0.2879156375,0.6592349740027542
0.027,1.781775,1.0,2623.3605458185,0.2619625044233433,1.3264890325317327,0.9370016502248888,0.28788755,0.6600921927184095
0.0275,1.7810937500000001,1.0,2634.322871493241,0.2661023132401,1.3260798380362682,0.9387579237076553,0.2878589375,0.6609436837571465
0.028,1.7804,1.0,2644.4985188338896,0.27021890004000443,1.3256724734978214,0.9404320361297296,0.2878298,0.6617903061409784
0.0285,1.77969375,1.0,2653.9267639975956,0.2743123947495835,1.3252665337523615,0.9420290250404257,0.2878001375,0.6626329146069002
0.029,1.778975,1.0,2662.647541244193,0.27838292729536396,1.3248616136358586,0.9435535466165542,0.28776995,0.6634723596489354
0.029500000000000002,1.7782437500000001,1.0,2670.701381246567,0.28243062760387255,1.3244573079842823,0.9450099094625461,0.2877392375,0.6643094875497213
0.03,1.7775,1.0,2678.1180308041476,0.28645561869723535,1.3240533155308967,0.9464021164833983,0.287708,0.6651449256805904
0.0305,1.77674375,1.0,2684.9476028220292,0.29045803797377195,1.3236491522654683,0.9477338608473452,0.2876762375,0.6659796755033283
0.031,1.775975,1.0,2691.216974516683,0.29443801011140547,1.3232445512758397,0.9490085948165243,0.28764395,0.6668142859390339
0.0315,1.7751937500000001,1.0,2696.9515393114375,0.2983956587048719,1.322839262168255,0.9502295282477188,0.2876111375,0.6676492691411248
0.032,1.7744,1.0,2702.176976223281,0.3023311073489072,1.3224330345489577,0.9513996470175707,0.2875778,0.6684851346669346
0.0325,1.77359375,1.0,2706.9192230384756,0.30624447963824764,1.3220256180241918,0.9525217313947435,0.2875439375,0.6693223894647236
0.033,1.772775,1.0,2711.2044508779672,0.31013589916762896,1.321616762200201,0.953598372693704,0.28750955,0.6701615378566943
0.0335,1.7719437500000002,1.0,2715.0590401532113,0.3140054895317874,1.3212062166832295,0.9546319883892048,0.2874746375,0.6710030815180046
0.034,1.7711000000000001,1.0,2718.5095579116933,0.3178533743254589,1.3207937310795204,0.9556248358501154,0.2874392,0.6718475194517869
0.0345,1.7702437500000001,1.0,2721.5773087108137,0.3216796731069076,1.3203791044042692,0.9565790292245598,0.2874032375,0.6726952470061173
0.035,1.7693750000000001,1.0,2724.2849006280803,0.3254845082974099,1.3199621250381253,0.9574965456942244,0.28736675,0.6735466790213237
0.035500000000000004,1.76849375,1.0,2726.6615328892517,0.32926800761450753,1.3195425225247883,0.9583792313718492,0.2873297375,0.6744023478906096
0.036000000000000004,1.7676,1.0,2728.7224336210197,0.3330302877410617,1.3191201544759437,0.959228826733352,0.2872922,0.6752625223445468
0.0365,1.76669375,1.0,2730.4829116321,0.3367714653599335,1.3186948785032766,0.9600469638945872,0.2872541375,0.6761274694380797
0.037,1.765775,1.0,2731.9583475469162,0.34049165715398433,1.3182665522184722,0.9608351745776443,0.28721555,0.6769974545247657
0.0375,1.76484375,1.0,2733.164185389264,0.34419097980607527,1.3178350332332158,0.9615948974059791,0.2871764375,0.6778727412297213
0.038,1.7639,1.0,2734.115924614956,0.3478695499990675,1.3174001791591925,0.9623274845917299,0.28713679999999997,0.6787535914212772
0.0385,1.76294375,1.0,2734.8291125946816,0.3515274844158223,1.316961847608087,0.963034208071971,0.28709663750000003,0.6796402651813386
0.039,1.761975,1.0,2735.3193375451892,0.3551648997392008,1.3165198961915852,0.9637162651448278,0.28705595,0.680533020774452
0.0395,1.7609937500000001,1.0,2735.602221911532,0.3587819126520642,1.3160741825213718,0.9643747836511798,0.2870147375,0.6814321146155822
0.04,1.76,1.0,2735.6825789627524,0.362378632809458,1.3156246626040307,0.9650108342561735,0.286973,0.6823376031763132
0.0405,1.7589937500000001,1.0,2735.5819710629344,0.36595518155025664,1.3151711405824043,0.9656254156082629,0.2869307375,0.6832498473979158
0.041,1.757975,1.0,2735.3155540467214,0.36951167359639087,1.3147134789326629,0.9662194742409754,0.28688795,0.6841690885781262
0.0415,1.75694375,1.0,2734.8916640300918,0.37304821882617983,1.3142516021772983,0.9667939086553892,0.2868446375,0.6850954417378861
0.042,1.7559,1.0,2734.318648646612,0.37656492711794276,1.3137854348388023,0.9673495680561788,0.28680079999999997,0.6860290206729074
0.0425,1.75484375,1.0,2733.6048647173347,0.3800619083499989,1.3133149014396663,0.9678872555573647,0.2867564375,0.6869699379332022
0.043000000000000003,1.753775,1.0,2732.758676046836,0.3835392724006675,1.312839926502382,0.9684077311481425,0.28671155,0.6879183048022457
0.043500000000000004,1.75269375,1.0,2731.7884513463514,0.38699712914826767,1.3123604345494413,0.9689117144389887,0.28666613750000003,0.6888742312757787
0.044,1.7516,1.0,2730.702562282137,0.39043558847111864,1.3118763501033357,0.969399887206366,0.2866202,0.6898378260402473
0.0445,1.75049375,1.0,2729.5093816514463,0.39385476024753974,1.3113875976865565,0.9698728957526562,0.2865737375,0.6908091964508776
0.045,1.7493750000000001,1.0,2728.217281683411,0.3972547543558501,1.310894101821596,0.9703313530964286,0.28652675,0.6917884485093848
0.0455,1.74824375,1.0,2726.836792063739,0.4006356712942604,1.3103957673914426,0.9707758381998859,0.2864792375,0.692775725718997
0.046,1.7471,1.0,2725.372832113835,0.40399763024714624,1.309892550260069,0.9712069072431592,0.2864312,0.6937710691750978
0.0465,1.7459437500000001,1.0,2723.8304869196404,0.4073407350489909,1.3093844047723007,0.9716250863731636,0.28638263750000004,0.6947745219505397
0.047,1.744775,1.0,2722.214895591619,0.4106650891703891,1.3088712847620008,0.972030875644277,0.28633355,0.6957861270710173
0.0475,1.74359375,1.0,2720.531194354484,0.4139707960819354,1.3083531440630316,0.972424750636637,0.28628393750000003,0.6968059264873829
0.048,1.7424,1.0,2718.784515883619,0.41725795925422454,1.307829936509256,0.9728071638792953,0.2862338,0.6978339610609292
0.0485,1.74119375,1.0,2716.979988690238,0.42052668215785116,1.3073016159345365,0.9731785461778261,0.2861831375,0.6988702705485415
0.049,1.739975,1.0,2715.1227365525115,0.42377706826340994,1.306768136172736,0.973539307853623,0.28613195,0.6999148935877098
0.0495,1.73874375,1.0,2713.217877994778,0.42700922104149547,1.3062294510577168,0.9738898399015203,0.2860802375,0.7009678676814076
0.05,1.7375,1.0,2711.2705258138326,0.4302232439627024,1.305685514423342,0.974230515071813,0.286028,0.7020292291828343
0.0505,1.73624375,1.0,2709.2830063068695,0.4334192242375398,1.3051363054698717,0.9745616887103392,0.2859752375,0.7030989639164451
0.051000000000000004,1.734975,1.0,2707.2570118795056,0.4365972548643362,1.304581809161263,0.9748837009654883,0.28592195,0.704177045688941
0.051500000000000004,1.73369375,1.0,2705.2025577273625,0.4397574804946398,1.304021934456906,0.9751968773194729,0.2858681375,0.7052635949269157
0.052000000000000005,1.7324,1.0,2703.12164300441,0.44289999591750323,1.3034566634007443,0.9755015277887966,0.2858138,0.7063585887681358
0.0525,1.73109375,1.0,2701.0162642710143,0.446024895921979,1.3028859780367215,0.9757979485964586,0.28575893750000003,0.7074620035355188
0.053,1.729775,1.0,2698.8884153978356,0.4491322752971198,1.3023098604087813,0.9760864229021798,0.28570355000000003,0.7085738147309413
0.0535,1.72844375,1.0,2696.7400874781515,0.45222222883197816,1.3017282925608673,0.9763672214879094,0.2856476375,0.7096939970290296
0.054,1.7271,1.0,2694.5732687463783,0.4552948513156066,1.301141256536923,0.9766406034017063,0.2855912,0.7108225242709285
0.0545,1.7257437500000001,1.0,2692.3899445039096,0.4583502375370577,1.300548734380892,0.9769068165628552,0.2855342375,0.7119593694580488
0.055,1.724375,1.0,2690.1920970522906,0.46138848228538415,1.299950708136718,0.9771660983308572,0.28547675,0.7131045047457951
0.0555,1.72299375,1.0,2687.9817056338115,0.4644096803496385,1.2993471598483448,0.9774186760407337,0.2854187375,0.7142579014372752
0.056,1.7216,1.0,2685.760746378396,0.46741392651887315,1.2987380715597159,0.9776647675069025,0.2853602,0.7154195299769837
0.0565,1.72019375,1.0,2683.531192258516,0.47040131558214093,1.2981234253147746,0.9779045814977085,0.28530113749999997,0.7165893599444706
0.057,1.718775,1.0,2681.2950130509385,0.4733719423284942,1.2975032031574651,0.9781383181825531,0.28524155,0.7177673600479848
0.0575,1.71734375,1.0,2679.054175305251,0.47632590154698573,1.2968773871317305,0.9783661695534022,0.2851814375,0.7189534981181014
0.058,1.7159,1.0,2676.810642320068,0.47926328802666796,1.2962459592815148,0.9785883198223445,0.2851208,0.7201477411013237
0.0585,1.71444375,1.0,2674.566374126407,0.48218419655659345,1.2956089016507615,0.9788049457967357,0.2850596375,0.7213500550536684
0.059000000000000004,1.7129750000000001,1.0,2672.323327477473,0.4850887219258149,1.294966196283414,0.9790162172333605,0.28499795,0.7225604051342298
0.059500000000000004,1.71149375,1.0,2670.083455846567,0.48797695892338483,1.2943178252234164,0.9792222971729446,0.2849357375,0.7237787555987197
0.06,1.71,1.0,2667.846714065126,0.49084898110884706,1.2936637888602105,0.9794233415155575,0.284873,0.7250050354345208
0.0605,1.7084937500000001,1.0,2665.612504243375,0.4937048777174832,1.2930040926677928,0.9796195016654333,0.2848097375,0.7262391635201642
0.061,1.7069750000000001,1.0,2663.384313617571,0.4965447752346759,1.29233870453903,0.9798109241400453,0.28474595,0.7274811282794698
0.0615,1.7054437500000001,1.0,2661.1625171151068,0.4993687586917596,1.2916676209637814,0.9799977480519078,0.2846816375,0.7287308637797447
0.062,1.7039,1.0,2658.947489043389,0.5021769131200688,1.290990838431906,0.9801801072367629,0.2846168,0.7299883034078329
0.0625,1.70234375,1.0,2656.7396030929162,0.5049693235509382,1.2903083534332627,0.9803581304916911,0.2845514375,0.7312533798688388
0.063,1.7007750000000001,1.0,2654.5392323423453,0.507746075015702,1.2896201624577102,0.9805319418007505,0.28448555,0.732526025184852
0.0635,1.69919375,1.0,2652.346749262702,0.510507252545695,1.2889262619951078,0.9807016605488811,0.28441913750000003,0.733806170693668
0.064,1.6976,1.0,2650.1625257222163,0.5132529411722514,1.2882266485353144,0.9808674017247677,0.2843522,0.7350937470475138
0.0645,1.69599375,1.0,2647.9869329918224,0.5159832259267061,1.2875213185681889,0.9810292761133085,0.2842847375,0.7363886842117668
0.065,1.694375,1.0,2645.8203417502164,0.5186981918403932,1.2868102685835905,0.9811873904782908,0.28421675,0.7376909114636756
0.0655,1.69274375,1.0,2643.6631220896456,0.5213979239446476,1.286093495071378,0.9813418477358437,0.2841482375,0.7390003573910823
0.066,1.6911,1.0,2641.5156435220306,0.5240825072708036,1.2853709945214102,0.9814927471191885,0.2840792,0.7403169498911393
0.0665,1.6894437500000001,1.0,2639.3782749850707,0.5267520268501957,1.2846427634235464,0.9816401843351931,0.2840096375,0.7416406161690273
0.067,1.687775,1.0,2637.251384848464,0.5294065677141585,1.2839087982676456,0.9817842517131802,0.28393955,0.7429712827366752
0.0675,1.68609375,1.0,2635.135340921334,0.5320462148940265,1.2831690955435666,0.9819250383464349,0.2838689375,0.7443088754114746
0.068,1.6844000000000001,1.0,2633.0305104587983,0.5346710534211341,1.2824236517411685,0.9820626302268125,0.2837978,0.7456533193149975
0.0685,1.68269375,1.0,2630.937260169399,0.5372811683268159,1.28167246335031,0.9821971103728309,0.2837261375,0.7470045388717099
0.069,1.680975,1.0,2628.855956222762,0.5398766446424066,1.2809155268608503,0.9823285589516021,0.28365395,0.7483624578076877
0.0695,1.67924375,1.0,2626.7869642573473,0.5424575673992403,1.2801528387626486,0.9824570533949457,0.28358123749999997,0.7497269991493285
0.07,1.6775,1.0,2624.7323053470614,0.5450239716954453,1.2793843801960614,0.9825826646728819,0.283508,0.7510981125716283
0.07050000000000001,1.67574375,1.0,2622.690001072612,0.5475759904308471,1.278610169359533,0.9827054691579208,0.2834342375,0.7524756808974882
0.07100000000000001,1.673975,1.0,2620.659428774507,0.5501137147297221,1.2778302119040028,0.9828255375079481,0.28335995,0.7538596089074519
0.07150000000000001,1.67219375,1.0,2618.6405150414917,0.5526372202662826,1.2770445083927875,0.9829429368649069,0.2832851375,0.7552498098513989
0.07200000000000001,1.6704,1.0,2616.6331866239193,0.5551465827147404,1.2762530593892039,0.9830577321607789,0.2832098,0.7566461963587532
0.0725,1.66859375,1.0,2614.6373704323673,0.5576418777493076,1.2754558654565689,0.9831699862034612,0.2831339375,0.7580486804386883
0.073,1.6667750000000001,1.0,2612.6529935365147,0.5601231810441966,1.2746529271581994,0.9832797597587523,0.28305755,0.7594571734803341
0.0735,1.66494375,1.0,2610.679983163741,0.5625905682736191,1.2738442450574126,0.983387111628643,0.2829806375,0.760871586252984
0.074,1.6631,1.0,2608.7182666979834,0.5650441151117875,1.2730298197175252,0.9834920987261061,0.2829032,0.7622918289063001
0.0745,1.6612437500000001,1.0,2606.767771678577,0.5674838972329137,1.272209651701854,0.9835947761465592,0.2828252375,0.7637178109705209
0.075,1.659375,1.0,2604.8284257989653,0.5699099903112099,1.2713837415737161,0.9836951972361699,0.28274675,0.765149441356666
0.0755,1.65749375,1.0,2602.9001569055213,0.5723224700208881,1.2705520898964284,0.983793413657163,0.2826677375,0.766586628356744
