Time [s],Phi [rad],STIM [ ],Fsee [N],Gamma [ ],Lcerel [ ],q [ ],Lmtc [m],fisomrel [ ]
0.0,1.8,1.0,17.967532818586218,1.0000145559774125e-05,1.3793397042464979,0.005000026652542613,0.288653,0.5411396325962357
0.0005,1.79999375,1.0,18.276830141658433,0.005619153361445939,1.3793023782370792,0.012940514163078044,0.2886527375,0.541229929412295
0.001,1.799975,1.0,21.618429010841812,0.011196843662713524,1.3789382972670712,0.03560857661148884,0.28865195,0.542110225970449
0.0015,1.79994375,1.0,31.06918972957478,0.016743247532297167,1.3780462076714222,0.07060170489711663,0.2886506375,0.5442635996978826
0.002,1.7999,1.0,53.58207968030988,0.02225854046148189,1.3763681516787687,0.11471783625001922,0.2886488,0.5483004285775108
0.0025,1.79984375,1.0,97.11825226949215,0.027742896957463545,1.373935200286301,0.16457467374353765,0.28864643749999996,0.5541213838866198
0.003,1.7997750000000001,1.0,160.9573294797505,0.033196490551069005,1.3712143750987873,0.2172802275233979,0.28864354999999997,0.5605863766582171
0.0035,1.79969375,1.0,237.68241104629763,0.03861949379634542,1.368584762586914,0.27061266279919277,0.2886401375,0.5667897729233042
0.004,1.7996,1.0,321.46582608926116,0.04401207828134297,1.3661561174322365,0.32291558289426614,0.2886362,0.5724799032747138
0.0045000000000000005,1.7994937500000001,1.0,409.2668169860322,0.04937441463329928,1.3639228360865123,0.3730343000128168,0.2886317375,0.5776791115266247
0.005,1.799375,1.0,499.41257717964027,0.05470667250972776,1.3618583620452431,0.4202472670357904,0.28862675,0.5824570338582071
0.0055,1.79924375,1.0,590.7895095783651,0.06000902064589845,1.359938852769516,0.4641735195386418,0.2886212375,0.5868750710043518
0.006,1.7991000000000001,1.0,682.5172189412921,0.06528162679795822,1.3581464309140874,0.5046797987126624,0.2886152,0.59097938145249
0.006500000000000001,1.79894375,1.0,773.8804716098265,0.07052465779856568,1.3564672670391036,0.54180061109968,0.2886086375,0.5948057638063534
0.007,1.798775,1.0,864.2849908111975,0.075738279540482,1.3548904082483393,0.5756766468109604,0.28860155,0.5983826471088236
0.0075,1.79859375,1.0,953.2425019702534,0.08092265698630624,1.3534067901645974,0.6065097943755636,0.2885939375,0.6017335480406767
0.008,1.7984,1.0,1040.344008740365,0.08607795376584532,1.3520088590313903,0.6345320688941722,0.2885858,0.6048780713119222
0.0085,1.79819375,1.0,1125.3141090428462,0.09120433398831829,1.3506892431756092,0.6599843340436685,0.2885771375,0.607834995921296
0.009000000000000001,1.797975,1.0,1207.8998121566788,0.09630195958807311,1.3494420400846625,0.6831041056055247,0.28856795,0.6106194535123377
0.0095,1.79774375,1.0,1287.8917708446525,0.1013709910886301,1.3482621295579915,0.7041173997648713,0.2885582375,0.6132445443741478
0.01,1.7975,1.0,1365.1665734296214,0.10641158901350967,1.3471443913950372,0.7232341571825965,0.288548,0.615723123478856
0.0105,1.79724375,1.0,1439.659053265449,0.1114239133150423,1.3460839519685672,0.740646596101963,0.2885372375,0.6180672773910028
0.011,1.796975,1.0,1511.3219535217531,0.11640812275925236,1.3450765568271656,0.7565290691330887,0.28852595000000003,0.6202875316591452
0.0115,1.79669375,1.0,1580.1206354918995,0.12136437452394615,1.3441184875621819,0.771038556710047,0.2885141375,0.6223930692535602
0.012,1.7964,1.0,1646.0565881808677,0.126292825245957,1.3432061699039253,0.7843155415245875,0.28850180000000003,0.6243926177929783
0.0125,1.79609375,1.0,1709.1736027987859,0.13119363178942273,1.3423360390654728,0.7964852824864969,0.2884889375,0.6262947587913363
0.013000000000000001,1.7957750000000001,1.0,1769.5064765412358,0.13606694901209934,1.341505073631618,0.8076594518061588,0.28847555,0.6281067751398697
0.0135,1.79544375,1.0,1827.0915186723569,0.14091293036502353,1.340710595186073,0.8179374287899086,0.2884616375,0.6298351094641325
0.014,1.7951000000000001,1.0,1881.9926802733976,0.14573172929923214,1.3399499253125486,0.8274074959943131,0.2884472,0.6314861233418132
0.0145,1.79474375,1.0,1934.2785683888253,0.1505234982378555,1.3392206076296804,0.8361481659969411,0.2884322375,0.6330656229571123
0.015,1.794375,1.0,1984.0502969287638,0.15528839020257287,1.3385200727151272,0.8442291897978442,0.28841675,0.6345795930132175
0.0155,1.79399375,1.0,2031.3706545882283,0.16002655492409174,1.3378463705185675,0.8517128213017149,0.2884007375,0.6360326209420626
0.016,1.7936,1.0,2076.3111081364627,0.16473814174798315,1.3371976270759223,0.8586545203968309,0.2883842,0.6374290825713242
0.0165,1.7931937500000001,1.0,2118.9574426300023,0.16942330001981817,1.3365719684231134,0.86510373410387,0.2883671375,0.6387733101779042
0.017,1.792775,1.0,2159.3906065707947,0.17408217785608354,1.3359677037485091,0.8711046616527629,0.28834955,0.6400692029271493
0.0175,1.7923437500000001,1.0,2197.717832456927,0.17871492429142707,1.335382990427811,0.8766967793222809,0.2883314375,0.64132094939955
0.018000000000000002,1.7919,1.0,2234.010486435677,0.18332168479998304,1.3348164547868249,0.8819155626275449,0.2883128,0.6425317015433101
0.0185,1.79144375,1.0,2268.3427561825583,0.18790260446169893,1.3342667786201254,0.88679284094613,0.2882936375,0.6437044665526915
0.019,1.790975,1.0,2300.796350687146,0.19245782835652245,1.3337326437222865,0.8913572053564283,0.28827395,0.644842227404762
0.0195,1.79049375,1.0,2331.451421335535,0.19698750046322464,1.3332128148995697,0.8956343994914939,0.2882537375,0.6459477678147485
0.02,1.79,1.0,2360.3968124560943,0.20149176584059128,1.3327060313583219,0.8996476181202272,0.288233,0.6470239052863371
0.0205,1.78949375,1.0,2387.703817879869,0.2059707665597593,1.3322112573388682,0.9034178474843871,0.2882117375,0.6480729607695417
0.021,1.788975,1.0,2413.4378395043964,0.21042464322712023,1.3317275585150588,0.9069640819465509,0.28818995000000003,0.6490970246225711
0.021500000000000002,1.78844375,1.0,2437.668276759468,0.21485353644906574,1.3312540005607434,0.9103035208136522,0.2881676375,0.6500981731903795
0.022,1.7879,1.0,2460.468189915999,0.21925758683198734,1.3307896491497728,0.9134517627341049,0.2881448,0.6510784694367673
0.0225,1.78734375,1.0,2481.900618298228,0.22363693253071806,1.3303336973490405,0.9164230007883128,0.28812143749999997,0.6520396951393894
0.023,1.786775,1.0,2502.0467890000727,0.2279917158627862,1.3298851924117474,0.9192301208223166,0.28809755,0.6529839280212513
0.0235,1.78619375,1.0,2520.961299544706,0.232322073425531,1.3294434600967142,0.9218849127205565,0.28807313749999996,0.6539126485953592
0.024,1.7856,1.0,2538.6958014921956,0.23662814079580996,1.3290078740558964,0.924398141550726,0.2880482,0.6548272283457253
0.0245,1.78499375,1.0,2555.303834932527,0.24091005355048056,1.3285778079412498,0.9267796432027207,0.2880227375,0.6557290310220765
0.025,1.784375,1.0,2570.840669085934,0.24516794726640023,1.3281526354047295,0.929038417339344,0.28799675,0.6566194128728657
0.025500000000000002,1.78374375,1.0,2585.363151601681,0.2494019575204265,1.3277317300982918,0.9311827099179761,0.2879702375,0.6574997228532539
0.026000000000000002,1.7831000000000001,1.0,2598.9187431981295,0.25361221624240315,1.3273145664952508,0.9332201013209614,0.2879432,0.6583710923470218
0.0265,1.78244375,1.0,2611.569834906261,0.2577988618236332,1.326900491458719,0.9351575381111721,0.2879156375,0.6592349128955612
0.027,1.781775,1.0,2623.3566548351328,0.26196202528870594,1.3264890686076949,0.9370014408269556,0.28788755,0.6600921176010202
0.0275,1.7810937500000001,1.0,2634.3174413070524,0.2661018366556311,1.3260798882783722,0.9387577262665494,0.2878589375,0.660943579274121
0.028,1.7804,1.0,2644.491230002184,0.2702184259424184,1.3256725408069452,0.9404318503344823,0.2878298,0.6617901663403974
0.0285,1.77969375,1.0,2653.917784176255,0.27431192316707764,1.3252666165296076,0.9420288499921258,0.2878001375,0.6626327428934349
0.029,1.778975,1.0,2662.637528599176,0.27838245834761854,1.324861705782554,0.9435533808838477,0.28776995,0.6634721687374021
0.029500000000000002,1.7782437500000001,1.0,2670.6904890560145,0.2824301608584874,1.3244574080742124,0.945009752153306,0.2877392375,0.6643092804392985
0.03,1.7775,1.0,2678.10808058467,0.2864551543224979,1.3240534068382144,0.9464019649395016,0.287708,0.6651447369787842
0.0305,1.77674375,1.0,2684.939606432804,0.29045757680431994,1.3236492255502368,0.9477337137987878,0.2876762375,0.6659795242370279
0.031,1.775975,1.0,2691.2102609021285,0.29443755193070514,1.3232446127326047,0.9490084526982435,0.28764395,0.6668141592453711
0.0315,1.7751937500000001,1.0,2696.9455531434864,0.2983952033284053,1.3228393169076438,0.9502293913450266,0.2876111375,0.6676491564368813
0.032,1.7744,1.0,2702.171278788596,0.3023306546241721,1.3224330865976794,0.951399515478178,0.2875778,0.668485027637415
0.0325,1.77359375,1.0,2706.913492984038,0.3062440294447572,1.3220256703250373,0.952521605239739,0.2875439375,0.6693222820526481
0.033,1.772775,1.0,2711.1984848272705,0.3101354514169124,1.3216168166120426,0.9535982518275787,0.28750955,0.6701614262510708
0.0335,1.7719437500000002,1.0,2715.052753204879,0.31400504416738934,1.3212062739810209,0.9546318726090046,0.2874746375,0.6710029641429508
0.034,1.7711000000000001,1.0,2718.502984032759,0.31785293132293974,1.3207937909542975,0.9556247248538005,0.2874392,0.671847396955263
0.0345,1.7702437500000001,1.0,2721.5714067055915,0.32167923267838494,1.3203791581293236,0.9565789218653767,0.2874032375,0.6726951372332457
0.035,1.7693750000000001,1.0,2724.2795525480838,0.3254840697127631,1.319962173696682,0.9574964417147107,0.28736675,0.6735465797298925
0.035500000000000004,1.76849375,1.0,2726.6565654989686,0.3292675712284741,1.3195425677000052,0.9583791308515541,0.2873297375,0.6744022558280854
0.036000000000000004,1.7676,1.0,2728.7176977496183,0.33302985382347905,1.3191201975293767,0.9592287297023799,0.2872922,0.6752624347219758
0.0365,1.76669375,1.0,2730.478282269202,0.336771034095739,1.3186949205748792,0.9600468703383301,0.2872541375,0.6761273839278426
0.037,1.765775,1.0,2731.9537239202264,0.3404912286432153,1.3182665942265963,0.9608350844410319,0.28721555,0.6769973692583007
0.0375,1.76484375,1.0,2733.1594910259732,0.3441905540638689,1.3178350758746105,0.9615948105973045,0.2871764375,0.6778726547952187
0.038,1.7639,1.0,2734.111107388165,0.3478691269556611,1.3174002229090054,0.9623274009860888,0.28713679999999997,0.678753502861332
0.0385,1.76294375,1.0,2734.8241447563632,0.35152706391655286,1.3169618927198636,0.9630341275143599,0.28709663750000003,0.6796401739905665
0.039,1.761975,1.0,2735.314215746907,0.3551644815445054,1.3165199426972687,0.963716187452931,0.28705595,0.6805329268970591
0.0395,1.7609937500000001,1.0,2735.596967214501,0.3587814964374799,1.3160742302313035,0.9643747086178805,0.2870147375,0.6814320184428856
0.04,1.76,1.0,2735.682577787549,0.3623782198326447,1.3156246626147008,0.9650107576157199,0.286973,0.6823376031548352
0.0405,1.7589937500000001,1.0,2735.585375647385,0.365954769288965,1.3151711096704484,0.9656253384064802,0.2869307375,0.6832499095315632
0.041,1.757975,1.0,2735.3215648972655,0.3695112628513528,1.314713424354445,0.9662193972459787,0.28688795,0.6841691981221272
0.0415,1.75694375,1.0,2734.899658440261,0.3730478102191237,1.3142515295828476,0.9667938324268982,0.2868446375,0.6850955872284459
0.042,1.7559,1.0,2734.328180774773,0.3765645210915935,1.3137853482718136,0.967349492960051,0.28680079999999997,0.6860291939092368
0.0425,1.75484375,1.0,2733.6156656066937,0.3800615051680779,1.3133148033375002,0.9678871817789398,0.2867564375,0.6869701339591314
0.043000000000000003,1.753775,1.0,2732.770653592938,0.38353887214789256,1.3128398176960643,0.968407658704498,0.28671155,0.6879185218874148
0.043500000000000004,1.75269375,1.0,2731.801690217678,0.3869967317303532,1.3123603142636633,0.9689116431902001,0.28666613750000003,0.6888744708963824
0.044,1.7516,1.0,2730.7173237990296,0.3904351936147755,1.3118762159564543,0.9693998168658569,0.2866202,0.6898380928593211
0.0445,1.75049375,1.0,2729.526103628866,0.39385436750047526,1.3113874456905947,0.9698728258967128,0.2865737375,0.6908094982981088
0.045,1.7493750000000001,1.0,2728.2365782431557,0.3972543630867681,1.3108939263822417,0.9703312831729507,0.28652675,0.6917887963604379
0.0455,1.74824375,1.0,2726.855882933515,0.40063528829067996,1.310395593778235,0.9707757710613895,0.2864792375,0.6927760693975029
0.046,1.7471,1.0,2725.3913291424305,0.40399725053261126,1.3098923820020976,0.9712068423567217,0.2864312,0.6937714017125831
0.0465,1.7459437500000001,1.0,2723.8488543650437,0.4073403556159915,1.3093842376457825,0.9716250229419922,0.28638263750000004,0.6947748517102614
0.047,1.744775,1.0,2722.233477246127,0.410664708294671,1.3088711156362198,0.9720308131630867,0.28633355,0.6957864602220565
0.0475,1.74359375,1.0,2720.550213656033,0.41397041332250006,1.3083529709003399,0.9724246888699771,0.28628393750000003,0.696806267018285
0.048,1.7424,1.0,2718.8040760454546,0.4172575754533291,1.3078297583650724,0.9728071028416795,0.2862338,0.6978343107936898
0.0485,1.74119375,1.0,2717.000166917758,0.42052629938189984,1.3073014321003125,0.973178486048497,0.2861831375,0.6988706308325798
0.049,1.739975,1.0,2715.1447816797872,0.42377668869398677,1.3067679352614312,0.9735392480786019,0.28613195,0.6999152866563724
0.0495,1.73874375,1.0,2713.242115312467,0.42700884588113874,1.3062292300901015,0.9738897803965629,0.2860802375,0.7009682992296673
0.05,1.7375,1.0,2711.2959520802397,0.43022287277952553,1.3056852825330716,0.9742304563752344,0.286028,0.7020296812585338
0.0505,1.73624946831732,1.0,2709.5815632661947,0.43341887174207167,1.305136164134435,0.9745616391857091,0.2859754776693274,0.7030992389583008
0.051000000000000004,1.7349989248190238,1.0,2708.3987235196705,0.43659694446881697,1.3045821947444383,0.9748836915324879,0.285922954842399,0.7041762966985367
0.051500000000000004,1.7337483813207277,1.0,2707.710086553289,0.43975719058878265,1.3040237173503848,0.9751969608921447,0.2858704320154706,0.7052601380371599
0.052000000000000005,1.7324978378224318,1.0,2707.4778823918377,0.44289970973098985,1.3034610749395783,0.9755017790957964,0.2858179091885421,0.7063500510092974
0.0525,1.7312472943241357,1.0,2707.6644694872375,0.4460246015244598,1.3028946104993222,0.9757984631798314,0.2857653863616137,0.7074453282221425
0.053,1.7299967508258398,1.0,2708.233550487917,0.44913196533068506,1.3023246556456003,0.9760873154450884,0.2857128635346853,0.7085452888672488
0.0535,1.7287462073275437,1.0,2709.1540878923033,0.4522218995466366,1.3017514946541722,0.9763686219531715,0.2856603407077568,0.7096493478124143
0.054,1.7274956638292476,1.0,2710.3988262669272,0.45529450159513524,1.3011753777712995,0.9766426542078264,0.2856078178808284,0.7107569892356984
0.0545,1.7262451203309517,1.0,2711.9419121748833,0.458349868447386,1.30059654278976,0.9769096712800324,0.2855552950539,0.7118677246901916
0.055,1.7249945768326556,1.0,2713.7584628055074,0.46138809684083903,1.3000152188588368,0.9771699207040179,0.2855027722269715,0.7129810856284575
0.0555,1.7237440333343594,1.0,2715.8222935154663,0.46440928432546974,1.2994316470836158,0.9774236403896287,0.2854502494000431,0.7140965839438551
0.056,1.7224934898360635,1.0,2718.1156413812105,0.46741352540951675,1.2988459918215594,0.9776710535541926,0.2853977265731147,0.7152138812888663
0.0565,1.7212429463377674,1.0,2720.620743475883,0.4704009146012185,1.2982584174301306,0.9779123742048652,0.2853452037461862,0.7163326416839093
0.057,1.7199924028394713,1.0,2723.319829576709,0.4733715464088137,1.2976690882667923,0.9781478075980538,0.2852926809192578,0.7174525315383183
0.0575,1.7187418593411754,1.0,2726.195414012876,0.4763255151357545,1.2970781659737263,0.9783775504999428,0.2852401580923294,0.7185732248140534
0.058,1.7174913158428793,1.0,2729.239882800152,0.4792629086667192,1.2964857222823198,0.9786017861554546,0.2851876352654009,0.7196945678658517
0.0585,1.7162407723445832,1.0,2732.4232121830305,0.4821838313575681,1.2958920324952916,0.9788207032799511,0.2851351124384725,0.7208160239343282
0.059000000000000004,1.7149902288462873,1.0,2735.736683624074,0.48508837313626413,1.2952971779473084,0.9790344712057579,0.2850825896115441,0.7219374256899098
0.059500000000000004,1.7137396853479911,1.0,2739.1715663374744,0.48797662393077046,1.2947012399730373,0.9792432526451711,0.2850300667846156,0.7230586070100582
0.06,1.7124891418496953,1.0,2742.7191152623845,0.49084867366905,1.2941042999071455,0.9794472040030197,0.2849775439576872,0.7241794029851015
0.0605,1.7112385983513991,1.0,2746.3705691818764,0.4937046122790659,1.2935064390842996,0.9796464756721582,0.2849250211307588,0.7252996499236426
0.061,1.709988054853103,1.0,2750.117148989717,0.49654452968878116,1.292907738839167,0.9798412123129457,0.2848724983038303,0.7264191853575458
0.0615,1.7087375113548071,1.0,2753.9500561030627,0.4993685158261589,1.2923082805064148,0.980031553117694,0.2848199754769019,0.7275378480465025
0.062,1.707486967856511,1.0,2757.8604710220216,0.502176660619162,1.2917081454207098,0.9802176320610013,0.28476745264997344,0.7286554779821749
0.0625,1.7062364243582149,1.0,2761.8395520361173,0.5049690539957535,1.291107414916719,0.9803995781368248,0.284714929823045,0.7297719163919172
0.063,1.704985880859919,1.0,2765.8818736084154,0.5077457804182458,1.2905061392713604,0.980577513578731,0.2846624069961166,0.7308870632833195
0.0635,1.7037353373616229,1.0,2769.980994037832,0.5105069292219885,1.2899043778024364,0.9807515569734817,0.28460988416918814,0.7320008027135914
0.064,1.7024847938633267,1.0,2774.126084460458,0.5132525974183325,1.289302229223223,0.9809218251518514,0.28455736134225973,0.7331129469594189
0.0645,1.7012342503650308,1.0,2778.3138912049762,0.5159828690744408,1.2886997237146927,0.9810884263718307,0.28450483851533126,0.7342234359919009
0.065,1.6999837068667347,1.0,2782.54115139485,0.518697828257476,1.2880968914578175,0.9812514650273554,0.28445231568840285,0.7353322102434392
0.0655,1.6987331633684386,1.0,2786.8045927190524,0.521397559034601,1.28749376263357,0.981411041815057,0.28439979286147443,0.7364392106083943
0.066,1.6974826198701427,1.0,2791.1009332238455,0.5240821454729789,1.2868903674229226,0.9815672538926682,0.28434727003454596,0.7375443784436877
0.0665,1.6962320763718466,1.0,2795.4268811244974,0.5267516716397723,1.2862867360068477,0.9817201950295589,0.28429474720761755,0.7386476555693415
0.067,1.6949815328735505,1.0,2799.779134636861,0.529406221602144,1.2856828985663176,0.9818699557498468,0.28424222438068913,0.739748984268964
0.0675,1.6937309893752546,1.0,2804.1543818295413,0.5320458794272571,1.2850788852823045,0.9820166234684989,0.28418970155376067,0.7408483072901744
0.068,1.6924804458769585,1.0,2808.5493004962354,0.5346707291822742,1.284474726335781,0.9821602826208118,0.28413717872683225,0.7419455678449698
0.0685,1.6912299023786623,1.0,2812.960558047994,0.5372808549343583,1.2838704519077193,0.9823010147856392,0.28408465589990384,0.7430407096100358
0.069,1.6899793588803664,1.0,2817.3848114258158,0.5398763407506721,1.2832660921790917,0.9824388988027092,0.28403213307297537,0.7441336767269973
0.0695,1.6887288153820703,1.0,2821.821642721071,0.5424572567613196,1.282661651086722,0.9825740087894237,0.28397961024604695,0.745224461112654
0.07,1.6874782718837744,1.0,2826.267887226855,0.545023692956293,1.2820571570916663,0.9827064187835107,0.28392708741911854,0.7463130106293592
0.07050000000000001,1.6862277283854783,1.0,2830.719056385056,0.5475757451448332,1.2814526503819172,0.9828362012792332,0.28387456459219007,0.7473992525286807
0.07100000000000001,1.6849771848871822,1.0,2835.174234310182,0.5501134906046452,1.2808481391558852,0.9829634238211336,0.28382204176526166,0.748483171979198
0.07150000000000001,1.6837266413888863,1.0,2839.632502226653,0.5526370066134344,1.280243631611982,0.9830881517694884,0.28376951893833324,0.7495647542759174
0.07200000000000001,1.6824760978905902,1.0,2844.0929384692595,0.5551463704489059,1.2796391359486186,0.9832104483858565,0.2837169961114048,0.7506439848402744
0.0725,1.6812255543922943,1.0,2848.554618484614,0.557641659388765,1.2790346603642062,0.983330374914736,0.28366447328447636,0.7517208492201278
