Time [s],Phi [rad],STIM [ ],Fsee [N],Gamma [ ],Lcerel [ ],q [ ],Lmtc [m],fisomrel [ ]
0.0,1.8,1.0,19.125323310760585,0.0010984182976531416,1.3792120191742594,0.005309657252816792,0.288653,0.5414484837811899
0.0005,1.79999375,1.0,19.7515879584618,0.006701466348448539,1.3791417393665981,0.01623603371339948,0.2886527375,0.5416184358101741
0.001,1.799975,1.0,23.904810458139853,0.012273085729922856,1.3787106452242115,0.0415031840139003,0.28865195,0.5426602270212417
0.0015,1.79994375,1.0,35.212954784888886,0.01781345273212449,1.3777042190085198,0.07852314904319431,0.2886506375,0.5450877644871304
0.002,1.7999,1.0,61.348292621978324,0.023322742656145673,1.375881360645421,0.12400475196969238,0.2886488,0.5494681209162849
0.0025,1.79984375,1.0,109.20083220634784,0.02880112981993325,1.3733700307133854,0.1746179760995021,0.28864643749999996,0.5554681765468295
0.003,1.7997750000000001,1.0,176.0751060794143,0.034248787563432116,1.3706611985524806,0.22760199310096033,0.28864354999999997,0.5618950123968067
0.0035,1.79969375,1.0,254.44019341573963,0.039665888253689115,1.36807736868865,0.2808509413590496,0.2886401375,0.5679816666429834
0.004,1.7996,1.0,339.1056399096646,0.0450526032910895,1.3656951447492842,0.3328092369585819,0.2886362,0.5735556795497452
0.0045000000000000005,1.7994937500000001,1.0,427.40758387749855,0.050409103115038253,1.3635016196563927,0.38241222723106627,0.2886317375,0.5786561623315665
0.005,1.799375,1.0,517.8304723526345,0.05573555722418402,1.361470526325289,0.4290117342319968,0.28862675,0.5833515899174697
0.0055,1.79924375,1.0,609.3044946017476,0.06103213413353302,1.3595799051887814,0.47228192080391124,0.2886212375,0.5876986345166678
0.006,1.7991000000000001,1.0,700.9852485445447,0.06629900140377723,1.3578129717609653,0.5121276668606493,0.2886152,0.5917406799731718
0.006500000000000001,1.79894375,1.0,792.1919367600932,0.07153632576042032,1.3561565057073373,0.5486081997334049,0.2886086375,0.5955119369972559
0.007,1.798775,1.0,882.3345186895402,0.07674427277237415,1.3546003569147516,0.5818792947031493,0.28860155,0.5990388612115141
0.0075,1.79859375,1.0,970.9629361670238,0.08192300748997124,1.3531354865248053,0.6121505329633358,0.2885939375,0.6023447964186514
0.008,1.7984,1.0,1057.6812726651503,0.08707269347559435,1.351754655672367,0.639657142540047,0.2885858,0.6054485402194342
0.0085,1.79819375,1.0,1142.1941413488503,0.09219349371658805,1.3504511734234024,0.6646403909648887,0.2885771375,0.6083672673665828
0.009000000000000001,1.797975,1.0,1224.2853404812963,0.09728557058064162,1.349218905457054,0.6873358158296108,0.28856795,0.6111165691051568
0.0095,1.79774375,1.0,1303.7681545242497,0.1023490847339736,1.3480526860070732,0.7079665441914017,0.2885582375,0.6137095910818295
0.01,1.7975,1.0,1380.5213106030585,0.10738419631656428,1.3469475933059698,0.7267392638659521,0.288548,0.6161586973826383
0.0105,1.79724375,1.0,1454.4852898889217,0.11239106540902935,1.34589886551502,0.743842732350202,0.2885372375,0.618475685061933
0.011,1.796975,1.0,1525.6047718189454,0.1173698499304198,1.3449024962853044,0.7594479515017338,0.28852595000000003,0.620670497628079
0.0115,1.79669375,1.0,1593.8574198586102,0.12232070705900057,1.3439547355995687,0.7737085874457639,0.2885141375,0.6227523592430829
0.012,1.7964,1.0,1659.2558409706944,0.12724379349327677,1.343051983411184,0.7867620596664061,0.28850180000000003,0.6247300276710865
0.0125,1.79609375,1.0,1721.8455457781952,0.13213926595342812,1.342190749389394,0.7987308801752316,0.2884889375,0.6266118974245054
0.013000000000000001,1.7957750000000001,1.0,1781.6582077266064,0.13700727884879815,1.3413681256112522,0.8097242589868723,0.28847555,0.6284049834714935
0.0135,1.79544375,1.0,1838.7337798144838,0.14184798561183332,1.3405814570903622,0.8198393381057688,0.2884616375,0.6301156603514213
0.014,1.7951000000000001,1.0,1893.138897434272,0.14666153964308376,1.3398280924908557,0.829162412452566,0.2884472,0.6317502154146252
0.0145,1.79474375,1.0,1944.9522046780285,0.15144809324051745,1.3391055163606878,0.8377702027079742,0.2884322375,0.63331456879385
0.015,1.794375,1.0,1994.2596833867783,0.156207799015344,1.3384113668273105,0.845730968443895,0.28841675,0.6348142436290545
0.0155,1.79399375,1.0,2041.1240788914977,0.1609408064093851,1.3377437274707227,0.8531055870049853,0.2884007375,0.6362537453896117
0.016,1.7936,1.0,2085.6237161516315,0.16564726486446238,1.3371006818709237,0.8599482808726585,0.2883842,0.6376375327874946
0.0165,1.7931939925269047,1.0,2127.858128624397,0.1703273233047526,1.3364803515419479,0.8663074176295364,0.28836714768613,0.6389699394968341
0.017,1.7927839548779383,1.0,2168.2645336453147,0.17498113034095678,1.3358811554094516,0.8722262790931467,0.2883499261048734,0.6402546219413642
0.0175,1.792373917228972,1.0,2207.081046965536,0.17960883478089865,1.335301867537332,0.877743673151079,0.2883327045236168,0.6414944439603874
0.018000000000000002,1.791963879580006,1.0,2244.350509548269,0.18421058146938507,1.3347415353476682,0.8828944261841849,0.28831548294236026,0.6426916597993809
0.0185,1.7915538419310397,1.0,2280.1214037372506,0.18878651525122295,1.3341992062625385,0.8877097766483337,0.28829826136110365,0.6438485029766876
0.019,1.7911438042820735,1.0,2314.4474629703277,0.19333678097121926,1.3336739277040222,0.892217790170978,0.2882810397798471,0.6449671874061575
0.0195,1.7907337666331073,1.0,2347.3843258818024,0.1978615228432182,1.3331647762609866,0.8964437296235237,0.2882638181985905,0.6460498464890521
0.02,1.7903237289841412,1.0,2378.9849771832355,0.20236088393505322,1.332670897697489,0.9004103815789282,0.28824659661733393,0.6470984496975345
0.0205,1.789913691335175,1.0,2409.315346901621,0.20683500973818983,1.3321913507467258,0.9041383006973686,0.2882293750360774,0.6481151354880925
0.021,1.7895036536862088,1.0,2438.416724752111,0.21128403980055888,1.3317254684676565,0.9076461306539643,0.28821215345482076,0.6491014463326334
0.021500000000000002,1.7890936160372426,1.0,2466.3333441472428,0.2157081136700912,1.3312725839192403,0.9109507569889862,0.28819493187356415,0.6500589130850443
0.022,1.7886835783882764,1.0,2493.112185066975,0.22010737089471769,1.330832030160437,0.9140674971559409,0.2881777102923076,0.6509890555482261
0.0225,1.7882735407393102,1.0,2518.8027867912006,0.2244819510223692,1.330403140250206,0.9170102678528481,0.28816048871105104,0.651893383012764
0.023,1.787863503090344,1.0,2543.4544482960664,0.22883199283840072,1.3299852719386278,0.9197917368436387,0.28814326712979443,0.6527733428048146
0.0235,1.7874534654413778,1.0,2567.109786892921,0.23315763324544148,1.329577865899141,0.9224234628727578,0.2881260455485379,0.6536301986905861
0.024,1.7870434277924117,1.0,2589.8260684784,0.23745901361120172,1.3291802434406843,0.9249159756045158,0.28810882396728127,0.6544654570418744
0.0245,1.7866333901434455,1.0,2611.636619633326,0.24173626773953316,1.3287919664085668,0.9272789374756942,0.2880916023860247,0.6552801110497064
0.025,1.7862233524944793,1.0,2632.576155644305,0.24598952943428742,1.328412596648097,0.9295211915572756,0.2880743808047681,0.6560751478407344
0.025500000000000002,1.785813314845513,1.0,2652.680691845854,0.2502189324993162,1.328041696004584,0.9316508422335662,0.28805715922351155,0.6568515487322579
0.026000000000000002,1.785403277196547,1.0,2671.9874592181172,0.2544246107384712,1.3276788263233361,0.9336753269539173,0.288039937642255,0.657610289475003
0.0265,1.7849932395475807,1.0,2690.5348242414357,0.258606697955604,1.3273235494496622,0.9356014801391866,0.2880227160609984,0.658352340483656
0.027,1.7845832018986145,1.0,2708.356576100204,0.2627653255555907,1.326975478665814,0.9374355970635174,0.2880054944797418,0.6590785597935647
0.0275,1.7841731642496483,1.0,2725.4891646993074,0.26690062692954014,1.3266342113903216,0.9391834757069846,0.2879882728984852,0.659789834022394
0.028,1.7837631266006821,1.0,2741.9704963942045,0.27101273620968036,1.3262993397928429,0.9408504635479333,0.28797105131722867,0.6604870562842948
0.0285,1.783353088951716,1.0,2757.8247475080348,0.27510178111053196,1.3259705876653753,0.9424415152131776,0.28795382973597206,0.6611708417636795
0.029,1.7829430513027498,1.0,2773.0767028067576,0.27916788934661557,1.3256476787999159,0.9439612113742529,0.2879366081547155,0.661841802590009
0.029500000000000002,1.7825330136537836,1.0,2787.7517188693446,0.28321118863245176,1.3253303369884615,0.945413791809231,0.2879193865734589,0.6625005479431572
0.03,1.7821229760048174,1.0,2801.8756891498874,0.28723180668256115,1.3250182860230095,0.9468031851468365,0.28790216499220234,0.6631476841539068
0.0305,1.7817129383558512,1.0,2815.475010730856,0.29122987121146443,1.3247112496955573,0.9481330356619657,0.2878849434109457,0.6637838147995836
0.031,1.781302900706885,1.0,2828.5765527682074,0.2952055099336823,1.3244089517981017,0.9494067274470319,0.28786772182968917,0.6644095407948244
0.0315,1.7808928630579188,1.0,2841.197960458638,0.2991588443312792,1.3241112022399855,0.9506274149635475,0.2878505002484326,0.66502528246987
0.032,1.7804828254089526,1.0,2853.3717951008925,0.30309000762541244,1.3238176812695044,0.9517980212288109,0.287833278667176,0.665631726075388
0.0325,1.7800727877599865,1.0,2865.118134398856,0.30699912404089635,1.3235281837240096,0.9529212797561947,0.2878160570859194,0.6662293186742458
0.033,1.7796627501110203,1.0,2876.453025972345,0.31088631479585976,1.3232425427920462,0.9539997425794998,0.28779883550466284,0.6668184264328194
0.0335,1.779252712462054,1.0,2887.3927679086673,0.31475170110843154,1.3229605916621594,0.9550357911544073,0.2877816139234063,0.6673994140090177
0.034,1.7788426748130879,1.0,2897.9538948073837,0.31859540419674054,1.3226821635228938,0.956031649798792,0.2877643923421497,0.6679726445924248
0.0345,1.7784326371641217,1.0,2908.153164442669,0.3224175452789155,1.3224070915627948,0.9569893979229201,0.2877471707608931,0.6685384799426648
0.035,1.7780225995151555,1.0,2918.0075450413915,0.3262182455730853,1.3221352089704073,0.9579109811712315,0.2877299491796365,0.6690972804259951
0.035500000000000004,1.7776125618661893,1.0,2927.5342031796313,0.3299976262973788,1.3218663489342763,0.9587982215839691,0.28771272759837996,0.6696494050501234
0.036000000000000004,1.7772025242172231,1.0,2936.7503875940056,0.33375580854893994,1.3216003455604424,0.9596528269410519,0.28769550601712335,0.6701952096154467
0.0365,1.776792486568257,1.0,2945.6627931090416,0.3374929022498731,1.3213371268333185,0.9604764060912324,0.2876782844358668,0.6707348562452417
0.037,1.7763824489192905,1.0,2954.298091480276,0.34120904180759815,1.3210764470933967,0.9612704575986328,0.2876610628546102,0.6712688619957948
0.0375,1.7759724112703243,1.0,2962.6659553789987,0.34490434144006776,1.3208182108258595,0.9620363995557502,0.28764384127335363,0.6717974349569336
0.038,1.7755623736213582,1.0,2970.7761601301763,0.3485789153652347,1.32056232251589,0.9627755652612381,0.287626619692097,0.6723207824719979
0.0385,1.775152335972392,1.0,2978.638578639987,0.352232877801052,1.3203086866486706,0.963489209223064,0.28760939811084046,0.6728391111524354
0.039,1.7747422983234258,1.0,2986.2631765239494,0.3558663429654723,1.3200572077093842,0.9641785126738632,0.2875921765295839,0.6733526268918116
0.0395,1.7743322606744596,1.0,2993.660007438385,0.35947942507644853,1.3198077901832137,0.9648445886429707,0.2875749549483273,0.6738615348792396
0.04,1.7739222230254934,1.0,3000.8392086137455,0.3630722383519335,1.3195603385553418,0.965488486625141,0.2875577333670707,0.67436603961223
0.0405,1.7735121853765272,1.0,3007.8109965904155,0.36664489700988,1.3193147573109514,0.966111196881974,0.28754051178581413,0.6748663449089548
0.041,1.773102147727561,1.0,3014.585663156305,0.3701975152682409,1.3190709509352252,0.9667136544085208,0.2875232902045576,0.6753626539199334
0.0415,1.7726921100785948,1.0,3021.173571487339,0.37373020734496903,1.3188288239133457,0.9672967425943645,0.28750606862330097,0.6758551691391353
0.042,1.7722820724296287,1.0,3027.5771375352424,0.37724307208898117,1.318588349904124,0.9678612997810478,0.2874888470420444,0.6763439518666055
0.0425,1.7718720347806625,1.0,3033.8132754621424,0.3807362406602748,1.318349377836734,0.968408114161043,0.2874716254607878,0.6768293164252693
0.043000000000000003,1.7714619971316963,1.0,3039.888900453982,0.38420982280535143,1.3181118435213695,0.9689379353298243,0.28745440387953125,0.6773113999089151
0.043500000000000004,1.77105195948273,1.0,3045.809464963185,0.3876639251521919,1.3178756957329851,0.9694514738177021,0.28743718229827464,0.6777903126985672
0.044,1.770641921833764,1.0,3051.580457705442,0.3910986543287769,1.317640883246535,0.9699494030177332,0.2874199607170181,0.6782661648289579
0.0445,1.7702318841847977,1.0,3057.2074021137323,0.3945141169630874,1.3174073548369731,0.9704323614940262,0.28740273913576153,0.6787390659929714
0.045,1.7698218465358315,1.0,3062.6958548509588,0.3979104196831042,1.3171750592792544,0.970900955124691,0.2873855175545049,0.679209125545923
0.0455,1.7694118088868653,1.0,3068.051404380806,0.4012876691168081,1.3169439453483327,0.9713557590927794,0.2873682959732483,0.6796764525096719
0.046,1.7690017712378991,1.0,3073.2796695965994,0.40464597189217977,1.3167139618191626,0.9717973197373764,0.28735107439199176,0.6801411555765626
0.0465,1.768591733588933,1.0,3078.3862985080646,0.40798543463720016,1.3164850574666982,0.9722261562759157,0.2873338528107352,0.6806033431132039
0.047,1.7681816959399668,1.0,3083.3769669869594,0.41130616397985004,1.3162571810658938,0.9726427624078259,0.2873166312294786,0.6810631231640767
0.0475,1.7677716582910006,1.0,3088.257377570539,0.4146082665481102,1.3160302813917037,0.9730476078087338,0.28729940964822204,0.6815206034549763
0.048,1.7673616206420344,1.0,3093.033258322571,0.41789184896996157,1.3158043072190824,0.973441139523651,0.2872821880669654,0.6819758913962866
0.0485,1.7669515829930682,1.0,3097.7036706298177,0.4211569930262302,1.3155792644138058,0.9738237841339799,0.2872649664857089,0.682428979183805
0.049,1.766541545344102,1.0,3102.2803168604732,0.4244038340756259,1.3153550510954566,0.9741959472797421,0.28724774490445226,0.6828800757288966
0.0495,1.7661315076951358,1.0,3106.766750152251,0.4276324736307644,1.3151316351568436,0.9745580161938476,0.2872305233231957,0.6833292491179018
0.05,1.7657214700461696,1.0,3111.165753677898,0.4308430100588684,1.314908991175828,0.974910360249563,0.28721330174193915,0.6837765538157597
0.0505,1.7653114323972035,1.0,3115.480123109344,0.4340355417271605,1.3146870937302706,0.9752533318800028,0.28719608016068254,0.6842220441313644
0.051000000000000004,1.7649013947482373,1.0,3119.7126661897923,0.4372101670028636,1.3144659173980322,0.975587267505432,0.28717885857942593,0.6846657742187947
0.051500000000000004,1.764491357099271,1.0,3123.866202320071,0.44036698425320026,1.314245436756974,0.975912488401887,0.2871616369981694,0.6851077980785033
0.052000000000000005,1.7640813194503049,1.0,3127.9435621592665,0.4435060918453932,1.3140256263849566,0.9762293015153102,0.2871444154169128,0.6855481695584684
0.0525,1.7636712818013387,1.0,3131.9475872395915,0.4466275881466651,1.3138064608598412,0.9765380002250638,0.2871271938356562,0.6859869423552964
0.053,1.7632612441523725,1.0,3135.881129596318,0.44973157152423876,1.3135879147594889,0.9768388650603842,0.28710997225439966,0.686424170015292
0.0535,1.7628512065034063,1.0,3139.747051410839,0.4528181403453368,1.31336996266176,0.9771321643730545,0.28709275067314305,0.6868599059354819
0.054,1.7624411688544401,1.0,3143.548224669194,0.45588739297718195,1.3131525791445162,0.9774181549693267,0.2870755290918865,0.6872942033645967
0.0545,1.762031131205474,1.0,3147.287530834032,0.4589394277869969,1.312935738785618,0.9776970827038822,0.2870583075106299,0.6877271154040162
0.055,1.7616210935565078,1.0,3150.96786053162,0.4619743431420045,1.3127194161629265,0.9779691830384172,0.28704108592937333,0.6881586950086682
0.0555,1.7612110559075416,1.0,3154.5921132526432,0.46499223740942713,1.3125035858543026,0.9782346815672334,0.2870238643481168,0.6885889949878907
0.056,1.7608010182585754,1.0,3158.1591267921517,0.46799317456495576,1.312288256832505,0.978493793357013,0.28700664276686016,0.6890179995041946
0.0565,1.7603909806096092,1.0,3161.6740375285653,0.47097727962778413,1.3120733848688437,0.9787467271254476,0.28698942118560355,0.6894457986495617
0.057,1.7599809429606428,1.0,3165.1407901631046,0.4739446655949368,1.31185893590434,0.9789936825157836,0.286972199604347,0.6898724620427703
0.0575,1.7595709053116766,1.0,3168.560639006449,0.47689542150365927,1.3116448986623683,0.9792348502485657,0.28695497802309045,0.6902980138320223
0.058,1.7591608676627104,1.0,3171.934842403724,0.479829636391197,1.311431261866304,0.9794704134051128,0.28693775644183384,0.6907224781006429
0.0585,1.7587508300137442,1.0,3175.2646626332544,0.48274739929479554,1.3112180142395218,0.9797005477940515,0.2869205348605772,0.6911458788673751
0.059000000000000004,1.758340792364778,1.0,3178.5513658075033,0.4856487992517004,1.311005144505397,0.9799254222974687,0.28690331327932067,0.6915682400866618
0.059500000000000004,1.7579307547158118,1.0,3181.7962217773565,0.488533925299157,1.3107926413873043,0.9801451991979646,0.2868860916980641,0.6919895856489235
0.06,1.7575207170668457,1.0,3185.000504038909,0.49140286647441095,1.310580493608619,0.9803600344878022,0.2868688701168075,0.6924099393808247
0.0605,1.7571106794178795,1.0,3188.1654896435716,0.49425571181470773,1.3103686898927158,0.9805700781612648,0.28685164853555095,0.6928293250455332
0.061,1.7567006417689133,1.0,3191.2924591100314,0.49709255035729283,1.3101572189629702,0.9807754744912545,0.28683442695429434,0.6932477663429725
0.0615,1.756290604119947,1.0,3194.3826963404226,0.49991347113941176,1.3099460695427567,0.9809763622910948,0.2868172053730378,0.6936652869100658
0.062,1.755880566470981,1.0,3197.43748853768,0.50271856319831,1.3097352303554506,0.9811728751624397,0.2867999837917812,0.6940819103209692
0.0625,1.7554705288220147,1.0,3200.4581261273115,0.5055079155712331,1.3095246901244268,0.9813651417301159,0.2867827622105246,0.6944976600873008
0.063,1.7550604911730485,1.0,3203.4459026807804,0.5082816172954265,1.3093144375730605,0.9815532858646923,0.28676554062926807,0.6949125596583585
0.0635,1.7546504535240823,1.0,3206.402114842313,0.5110397574081359,1.3091044614247265,0.9817374268934925,0.28674831904801146,0.6953266324213323
0.064,1.7542404158751161,1.0,3209.328062258382,0.5137824249466065,1.3088947504028,0.9819176798007403,0.28673109746675485,0.695739901701505
0.0645,1.75383037822615,1.0,3212.225047510154,0.516509708948084,1.3086852932306556,0.982094155417467,0.2867138758854983,0.6961523907624495
0.065,1.7534203405771838,1.0,3215.0943760482537,0.5192216984498139,1.3084760786316687,0.9822669606017809,0.28669665430424174,0.6965641228062135
0.0655,1.7530103029282176,1.0,3217.9365509018235,0.5219184663020674,1.3082671020701175,0.9824361976542715,0.28667943272298513,0.6969751077209558
0.066,1.7526002652792514,1.0,3220.7512739958242,0.5246000781732862,1.3080583657249267,0.9826019651262053,0.2866622111417286,0.6973853421775743
0.0665,1.7521902276302852,1.0,3223.5417407646105,0.527266670867888,1.3078498425542309,0.9827643613778007,0.28664498956047196,0.6977948802274722
0.067,1.751780189981319,1.0,3226.3084886385323,0.5299183238292324,1.307641527788078,0.9829234786595247,0.2866277679792154,0.6982037320797745
0.0675,1.7513701523323528,1.0,3229.05205631974,0.5325551165006792,1.3074334166565162,0.9830794060486385,0.2866105463979588,0.6986119079174136
0.068,1.7509601146833866,1.0,3231.7729837610036,0.535177128325588,1.307225504389594,0.9832322295805057,0.28659332481670224,0.6990194178971927
0.0685,1.7505500770344204,1.0,3234.4718121438545,0.5377844387473184,1.307017786217359,0.9833820323735931,0.2865761032354457,0.699426272149847
0.069,1.7501400393854543,1.0,3237.149083858096,0.5403771272092304,1.3068102573698597,0.9835288947485028,0.2865588816541891,0.6998324807801035
0.0695,1.749730001736488,1.0,3239.8053424815635,0.5429552731546835,1.3066029130771442,0.9836728943413612,0.28654166007293247,0.7002380538667385
