Time [s],Phi [rad],STIM [ ],Fsee [N],Gamma [ ],Lcerel [ ],q [ ],Lmtc [m],fisomrel [ ]
0.0,1.8,1.0,17.984274784504777,0.0001319095712157395,1.379337829042692,0.0050045439578119124,0.288653,0.5411441691874277
0.0005,1.79999375,1.0,18.333767787527492,0.005740378971663325,1.3792960585059293,0.013282422743484311,0.2886527375,0.5412452168426871
0.001,1.799975,1.0,21.76596684639613,0.011317389293112693,1.3789232540876804,0.036246663704973855,0.28865195,0.5421465800752654
0.0015,1.79994375,1.0,31.41113404021317,0.016863116997067766,1.3780171548878768,0.07147332292748645,0.2886506375,0.5443336435283004
0.002,1.7999,1.0,54.31149509343334,0.022377737553235917,1.3763209907877316,0.1157489451381738,0.2886488,0.5484136221063138
0.0025,1.79984375,1.0,98.3379628947619,0.027861425447855505,1.3738766085248222,0.16569571285746457,0.28864643749999996,0.5542611020343651
0.003,1.7997750000000001,1.0,162.54019039870164,0.03331435419032921,1.3711552719043731,0.21843630087169552,0.28864354999999997,0.5607262887040525
0.0035,1.79969375,1.0,239.468528369602,0.038736696313711065,1.3685298483152795,0.271762203170884,0.2886401375,0.56691884853545
0.004,1.7996,1.0,323.36467616831743,0.04412862338521715,1.366105898122698,0.32402843948855564,0.2886362,0.572597166325806
0.0045000000000000005,1.7994937500000001,1.0,411.23214594460563,0.049490306011493755,1.363876757523962,0.3740905457286994,0.2886317375,0.5777860501717083
0.005,1.799375,1.0,501.41721059195913,0.05482191383033213,1.361815806373821,0.42123536374013953,0.28862675,0.5825552367922884
0.0055,1.79924375,1.0,592.81113777366,0.06012361555156352,1.3598993887585398,0.4650882806872347,0.2886212375,0.5869656567960123
0.006,1.7991000000000001,1.0,684.5401049609553,0.06539557891610842,1.3581096874122156,0.5055204231203055,0.2886152,0.5910633028747616
0.006500000000000001,1.79894375,1.0,775.8907931690018,0.07063797072445992,1.3564329717715502,0.5425692010360011,0.2886086375,0.5948837265118027
0.007,1.798775,1.0,866.2732510751325,0.07585095689242942,1.3548583099085145,0.5763770336024184,0.28860155,0.5984552930129868
0.0075,1.79859375,1.0,955.1940814790881,0.0810347022492158,1.353376788191618,0.607146819526481,0.2885939375,0.6018011657122968
0.008,1.7984,1.0,1042.2711468401337,0.0861893709647555,1.3519804987361508,0.6351107360767944,0.2885858,0.6049417363184011
0.0085,1.79819375,1.0,1127.1878464759154,0.0913151261693571,1.3506627289737578,0.6605100642396526,0.2885771375,0.6078942937138931
0.009000000000000001,1.797975,1.0,1209.6952391917364,0.09641212974339361,1.34941751681424,0.683582075700203,0.28856795,0.6106741037735024
0.0095,1.79774375,1.0,1289.623516222282,0.10148054294828214,1.348239221629824,0.704552178629888,0.2885582375,0.6132954225722396
0.01,1.7975,1.0,1366.863338687898,0.1065205270098659,1.347122590143027,0.7236298890876048,0.288548,0.6157713884323854
0.0105,1.79724375,1.0,1441.3047792936788,0.11153224053404748,1.346063360324233,0.7410073555221042,0.2885372375,0.6181127252586102
0.011,1.796975,1.0,1512.8967968522488,0.11651584197188847,1.34505732444212,0.7568585502854874,0.28852595000000003,0.6203298560231044
0.0115,1.79669375,1.0,1581.6236137427456,0.12147148909884667,1.344100536435342,0.7713399666576288,0.2885141375,0.6224324643651463
0.012,1.7964,1.0,1647.5144822375498,0.12639933974744005,1.3431891092830393,0.784591608840637,0.28850180000000003,0.6244299594053384
0.0125,1.79609375,1.0,1710.576903939663,0.13129954904572572,1.3423199231102505,0.7967386217339332,0.2884889375,0.6263299433730618
0.013000000000000001,1.7957750000000001,1.0,1770.839798333383,0.13617227158779374,1.3414900243943235,0.8078924143761435,0.28847555,0.6281395511452945
0.0135,1.79544375,1.0,1828.3612702275468,0.14101766174934985,1.3406964909182455,0.8181520106002647,0.2884616375,0.6298657559821232
0.014,1.7951000000000001,1.0,1883.2145229973041,0.1458358733503392,1.3399365524848774,0.8276054367124205,0.2884472,0.6315151157037506
0.0145,1.79474375,1.0,1935.469379863775,0.150627059200975,1.3392077516832919,0.8363310122289052,0.2884322375,0.6330934349424944
0.015,1.794375,1.0,1985.1866358280604,0.1553913699672701,1.3385079595749725,0.8443984645306367,0.28841675,0.6346057439553214
0.0155,1.79399375,1.0,2032.4454790708196,0.16012895631523752,1.337835047221403,0.8518698222879122,0.2884007375,0.6360570180768893
0.016,1.7936,1.0,2077.3286592993045,0.16483996784807514,1.3371870236985124,0.8588003671380714,0.2883842,0.637451884723657
0.0165,1.7931937500000001,1.0,2119.9373676857967,0.16952455547673553,1.3365618603372742,0.8652393804091615,0.2883671375,0.6387950069078863
0.017,1.792775,1.0,2160.348718653658,0.17418286697894084,1.33595791358544,0.8712309732758537,0.28834955,0.6400901795258865
0.0175,1.7923437500000001,1.0,2198.6339051970435,0.17881504861493505,1.3353737117494104,0.8768146327319915,0.2883314375,0.6413407954956103
0.018000000000000002,1.7919,1.0,2234.873661673303,0.18342124664496204,1.3348077831355858,0.8820257174442143,0.2883128,0.6425502179586562
0.0185,1.79144375,1.0,2269.1574593439404,0.1880016073292658,1.3342586560503666,0.8868959398380026,0.2882936375,0.6437217820644219
0.019,1.790975,1.0,2301.564636506975,0.1925562750438589,1.3337250380982204,0.8914538319136073,0.28827395,0.6448584150074661
0.0195,1.79049375,1.0,2332.191928821068,0.1970853964665991,1.3332055325895265,0.8957250422354738,0.2882537375,0.6459632431496494
0.02,1.79,1.0,2361.10612483264,0.20158911358408838,1.3326990987002172,0.899732766970343,0.288233,0.6470386151915279
0.0205,1.78949375,1.0,2388.374845563843,0.20606756785577074,1.3322047364457903,0.9034979527485433,0.2882117375,0.6480867764125735
0.021,1.788975,1.0,2414.0702372510414,0.2105209007410901,1.3317214458417428,0.9070395372634964,0.28818995000000003,0.6491099565327287
0.021500000000000002,1.78844375,1.0,2438.2685896276234,0.2149492536994904,1.3312482269035724,0.9103746695114823,0.2881676375,0.6501103704503809
0.022,1.7879,1.0,2461.0354183506374,0.21935276592818273,1.330784219004278,0.9135189307273638,0.2881448,0.6510899249289854
0.0225,1.78734375,1.0,2482.4538014255095,0.2237315800326069,1.330328424565876,0.9164864490838862,0.28812143749999997,0.652050803328528
0.023,1.786775,1.0,2502.580677087883,0.22808583347811676,1.3298801240602067,0.9192901293164181,0.28809755,0.6529945910396129
0.0235,1.78619375,1.0,2521.469258666279,0.23241566266009173,1.3294386560062492,0.9219417389726994,0.28807313749999996,0.6539227421198859
0.024,1.7856,1.0,2539.1748825295135,0.23672120397391128,1.3290033589229833,0.9244520148203876,0.2880482,0.654836702223835
0.0245,1.78499375,1.0,2555.754829940119,0.24100259381495487,1.3285735713293885,0.9268307673348508,0.2880227375,0.6557379088770767
0.025,1.784375,1.0,2571.2680451678107,0.24525996853995033,1.3281486328068373,0.9290869734927848,0.28799675,0.6566277894993734
0.025500000000000002,1.78374375,1.0,2585.764929348034,0.24949346084529958,1.3277279778151059,0.9312288729542306,0.2879702375,0.6575075655523644
0.026000000000000002,1.7831000000000001,1.0,2599.3112316725387,0.2537032098658262,1.3273109105343739,0.9332640074318334,0.2879432,0.658378723996043
0.0265,1.78244375,1.0,2611.9469207036323,0.2578893465993267,1.3268969874832628,0.9351993423765164,0.2879156375,0.6592422180305088
0.027,1.781775,1.0,2623.7129589110864,0.26205200204359785,1.326485765180394,0.93704128494673,0.28788755,0.660098995964836
0.0275,1.7810937500000001,1.0,2634.651218429392,0.26619130719643624,1.3260768001443894,0.9387957361909194,0.2878589375,0.6609500012997318
0.028,1.7804,1.0,2644.8044011754764,0.27030739305563856,1.3256696488938706,0.9404681377190867,0.2878298,0.66179617279765
0.0285,1.77969375,1.0,2654.2159633273745,0.27440039061900134,1.325263867947459,0.9420635135051576,0.2878001375,0.6626384445403632
0.029,1.778975,1.0,2662.9149419292994,0.2784704261959586,1.3248591528028173,0.9435865251085823,0.28776995,0.6634774580364662
0.029500000000000002,1.7782437500000001,1.0,2670.951823895628,0.2825176341264689,1.3244550066864924,0.9450414626164872,0.2877392375,0.6643142494772583
0.03,1.7775,1.0,2678.36948034053,0.28654214480887397,1.3240510081825456,0.9464323092319296,0.287708,0.6651496941832773
0.0305,1.77674375,1.0,2685.1945058412716,0.29054408294331635,1.3236468895190427,0.9477627772244227,0.2876762375,0.6659843459969661
0.031,1.775975,1.0,2691.453853362142,0.2945235732299388,1.32324238292405,0.9490363128549552,0.28764395,0.6668187559999419
0.0315,1.7751937500000001,1.0,2697.1748022477987,0.29848074036888367,1.3228372206256336,0.950256118753405,0.2876111375,0.6676534725086607
0.032,1.7744,1.0,2702.384927806575,0.3024157090602938,1.322431134851859,0.951425174152661,0.2875778,0.6684890410655051
0.0325,1.77359375,1.0,2707.112072483303,0.3063286040043117,1.3220238578307928,0.9525462532078094,0.2875439375,0.6693260044252978
0.033,1.772775,1.0,2711.384318622164,0.31021954990108,1.3216151217905006,0.9536219416021658,0.28750955,0.6701649025372497
0.0335,1.7719437500000002,1.0,2715.22996281888,0.31408867145074126,1.321204658959049,0.954654651618672,0.2874746375,0.6710062725223249
0.034,1.7711000000000001,1.0,2718.674018181116,0.3179360869430791,1.3207922332017514,0.9556466376793701,0.2874392,0.6718505839203863
0.0345,1.7702437500000001,1.0,2721.7415543252555,0.32176192604918835,1.3203776093248254,0.9566000099194387,0.2874032375,0.6726983017962678
0.035,1.7693750000000001,1.0,2724.450898646643,0.3255663078650603,1.3199606147583556,0.9575167462374526,0.28736675,0.6735497608528546
0.035500000000000004,1.76849375,1.0,2726.820140485649,0.32934935070453336,1.3195410801124436,0.9583986985239689,0.2873297375,0.6744052873742757
0.036000000000000004,1.7676,1.0,2728.8674680830686,0.3331111728814461,1.3191188359971922,0.9592476020053677,0.2872922,0.675265205713639
0.0365,1.76669375,1.0,2730.6111572374543,0.3368518927096368,1.318693713022703,0.9600650839190642,0.2872541375,0.6761298382646781
0.037,1.765775,1.0,2732.069560597037,0.340571628502944,1.3182655417990785,0.9608526714496651,0.28721555,0.6769995054315657
0.0375,1.76484375,1.0,2733.261097589329,0.34427049857520614,1.3178341529364208,0.9616117989965861,0.2871764375,0.6778745255969001
0.038,1.7639,1.0,2734.204244985638,0.34794862124026166,1.317399377044832,0.9623438148362092,0.28713679999999997,0.6787552150878591
0.0385,1.76294375,1.0,2734.896326388925,0.3516060886947702,1.316961237259386,0.9630500001366656,0.28709663750000003,0.6796414989636456
0.039,1.761975,1.0,2735.3750296747967,0.3552430491913515,1.3165193905125194,0.9637315380229241,0.28705595,0.680534041548416
0.0395,1.7609937500000001,1.0,2735.657301085675,0.35885962331386695,1.316073682433712,0.9643895547969499,0.2870147375,0.6814331226811
0.04,1.76,1.0,2735.7518712417855,0.3624559209165658,1.3156240334794973,0.965025116863376,0.286973,0.6823388695476185
0.0405,1.7589937500000001,1.0,2735.6674913041716,0.3660320518536974,1.315170364106408,0.9656392301694325,0.2869307375,0.6832514081282977
0.041,1.757975,1.0,2735.412930038832,0.3695881259795111,1.3147125947709777,0.9662328442638659,0.28688795,0.6841708631776735
0.0415,1.75694375,1.0,2734.9969710216324,0.3731242531482562,1.3142506459297394,0.9668068560425972,0.2868446375,0.6850973582038953
0.042,1.7559,1.0,2734.428409983238,0.37664054321418206,1.313784438039226,0.9673621132082911,0.28680079999999997,0.6860310154477267
0.0425,1.75484375,1.0,2733.716052294755,0.3801371060315379,1.3133138915559712,0.9678994174683995,0.2867564375,0.6869719558611387
0.043000000000000003,1.753775,1.0,2732.8687105926033,0.38361405145457317,1.312838926936508,0.9684195274939207,0.28671155,0.6879202990855047
0.043500000000000004,1.75269375,1.0,2731.8952025453823,0.3870714893375371,1.3123594646373693,0.9689231616590122,0.28666613750000003,0.6888761634293878
0.044,1.7516,1.0,2730.8043487590453,0.39050952953467905,1.3118754251150884,0.9694110005797285,0.2866202,0.6898396658459277
0.0445,1.75049375,1.0,2729.604970824069,0.39392828190024837,1.3113867288261987,0.9698836894684658,0.2865737375,0.6908109219098195
0.045,1.7493750000000001,1.0,2728.305889501913,0.3973278562884944,1.310893296227233,0.9703418403191775,0.28652675,0.6917900457938965
0.0455,1.74824375,1.0,2726.915923051938,0.4007083625536664,1.3103950477747248,0.9707860339370669,0.2864792375,0.6927771502453007
0.046,1.7471,1.0,2725.443885698824,0.4040699105500137,1.309891903925207,0.9712168218252278,0.2864312,0.6937723465612572
0.0465,1.7459437500000001,1.0,2723.8908121602904,0.407412595931507,1.3093838558713307,0.9716347312217491,0.28638263750000004,0.694775604994221
0.047,1.744775,1.0,2722.2681784306583,0.4107365382860025,1.3088707997958726,0.9720402596074548,0.28633355,0.6957870823770982
0.0475,1.74359375,1.0,2720.5814944185577,0.4140418424438897,1.3083526861035513,0.9724338820309724,0.28628393750000003,0.6968068270813929
0.048,1.7424,1.0,2718.8347325448103,0.4173286100142981,1.307829479162279,0.9728160510937682,0.2862338,0.6978348589243621
0.0485,1.74119375,1.0,2717.0318623203357,0.420596942606357,1.3073011433399682,0.9731871976808413,0.2861831375,0.6988711967536618
0.049,1.739975,1.0,2715.1768499233895,0.4238469418291956,1.3067676430045312,0.9735477321992372,0.28613195,0.6999158584357287
0.0495,1.73874375,1.0,2713.2736578064882,0.4270787092919433,1.3062289425238802,0.9738980457349831,0.2860802375,0.7009688608440883
0.05,1.7375,1.0,2711.326244330437,0.43029234660372945,1.305685006265928,0.9742385111345041,0.286028,0.7020302198475752
0.0505,1.73624375,1.0,2709.3385634267343,0.4334879553736833,1.3051357985985865,0.9745694840160963,0.2859752375,0.7030999502984785
0.051000000000000004,1.734975,1.0,2707.314564288523,0.43666563721093415,1.3045812838897684,0.9748913037165586,0.28592195,0.7041780660206006
0.051500000000000004,1.73369375,1.0,2705.2581910891317,0.4398254937246113,1.3040214265073857,0.9752042941776817,0.2858681375,0.7052645797972393
0.052000000000000005,1.7324,1.0,2703.1733827290964,0.44296762652384425,1.3034561908193512,0.9755087647769133,0.2858138,0.7063595033590866
0.0525,1.73109375,1.0,2701.0587045256693,0.44609212675485155,1.3028855902436425,0.9758050131026358,0.28575893750000003,0.7074627526235979
0.053,1.729775,1.0,2698.9158368388767,0.44919909447148365,1.30230960974933,0.9760933227745311,0.28570355000000003,0.7085742980013002
0.0535,1.72844375,1.0,2696.757216321642,0.4522886470155013,1.3017281359235688,0.976373960677057,0.2856476375,0.7096942984441593
0.054,1.7271,1.0,2694.5842042764684,0.4553608782166826,1.301141156495058,0.9766471859031568,0.2855912,0.7108227164056731
0.0545,1.7257437500000001,1.0,2692.3981599803396,0.45841588190480576,1.3005486591924957,0.9769132464199926,0.2855342375,0.7119595135765084
0.055,1.724375,1.0,2690.200440648225,0.46145375190964893,1.2999506317445813,0.9771723796376651,0.28547675,0.7131046508801869
0.0555,1.72299375,1.0,2687.992401400473,0.4644745820609904,1.2993470618800131,0.9774248129442769,0.2854187375,0.7142580884687615
0.056,1.7216,1.0,2685.7753952329313,0.4674784661886083,1.2987379373274899,0.9776707642095949,0.2853602,0.7154197857184845
0.0565,1.72019375,1.0,2683.5507729906576,0.4704654981222808,1.2981232458157104,0.9779104422593963,0.28530113749999997,0.7165897012254641
0.057,1.718775,1.0,2681.3198833452384,0.4734357716917861,1.2975029750733735,0.9781440473224305,0.28524155,0.7177677928013129
0.0575,1.71734375,1.0,2679.0840727747213,0.47638938072690235,1.2968771128291776,0.9783717714517842,0.2851814375,0.7189540174687874
0.058,1.7159,1.0,2676.8446855477096,0.4793264190574078,1.2962456468118218,0.9785937989223124,0.2851208,0.7201483314574151
0.0585,1.71444375,1.0,2674.60306371046,0.4822469805130806,1.2956085647500044,0.9788103066056715,0.2850596375,0.7213506901991149
0.059000000000000004,1.7129750000000001,1.0,2672.3605470769376,0.48515115892369903,1.2949658543724245,0.9790214643243882,0.28499795,0.7225610483238063
0.059500000000000004,1.71149375,1.0,2670.118473223014,0.4880390481190412,1.2943175034077805,0.9792274351862867,0.2849357375,0.72377935965501
0.06,1.71,1.0,2667.8784220672524,0.49091074036441984,1.293663497336066,0.9794283756506141,0.284873,0.7250055814169338
0.0605,1.7084937500000001,1.0,2665.6462578664996,0.493766306424353,1.2930037822061926,0.9796244322372772,0.2848097375,0.726239743663476
0.061,1.7069750000000001,1.0,2663.418411032023,0.49660586838760307,1.2923383907841295,0.9798157545305299,0.28474595,0.7274817132453623
0.0615,1.7054437500000001,1.0,2661.195510088525,0.49942951222842275,1.2916673172449011,0.9800024814805163,0.2846816375,0.7287314287345734
0.062,1.7039,1.0,2658.9781825124833,0.5022373239210647,1.2909905557635317,0.9801847467654632,0.2846168,0.729988827986068
0.0625,1.70234375,1.0,2656.767054736421,0.5050293894397817,1.2903081005150456,0.9803626790295891,0.2845514375,0.7312538481356702
0.063,1.7007750000000001,1.0,2654.562752155491,0.5078057947588263,1.289619945674467,0.9805364021085452,0.28448555,0.7325264255979553
0.0635,1.69919375,1.0,2652.3658991338693,0.510566625852451,1.2889260854168203,0.9807060352431317,0.28441913750000003,0.7338064960641335
0.064,1.6976,1.0,2650.177119011903,0.5133119686949089,1.2882265139171298,0.9808716932819789,0.2843522,0.7350939944999317
0.0645,1.69599375,1.0,2647.997034114817,0.5160419092604525,1.2875212253504198,0.9810334868738391,0.2842847375,0.736388855143473
0.065,1.694375,1.0,2645.8262657612686,0.5187565335233343,1.2868102138917146,0.9811915226500963,0.28421675,0.7376910115031535
0.0655,1.69274375,1.0,2643.6654342729466,0.5214559274578071,1.2860934737160385,0.981345903398054,0.2841482375,0.7390003963555178
0.066,1.6911,1.0,2641.5151589851794,0.5241401770381235,1.285370998998416,0.9814967282255321,0.2840792,0.7403169417431318
0.0665,1.6894437500000001,1.0,2639.3760582582004,0.5268093682385364,1.284642783913871,0.9816440927172679,0.2840096375,0.7416405789724534
0.067,1.687775,1.0,2637.248749488548,0.5294635870332982,1.2839088226374282,0.9817880890835826,0.28393955,0.7429712386117007
0.0675,1.68609375,1.0,2635.133849122483,0.5321029193966618,1.2831691093441118,0.9819288063017482,0.2838689375,0.7443088504887196
0.068,1.6844000000000001,1.0,2633.0280937931598,0.5347274275839432,1.2824236741065391,0.982066330409173,0.2837978,0.7456532790311332
0.0685,1.68269375,1.0,2630.928852555476,0.5373371897940165,1.2816725411907424,0.9822007452590873,0.2837261375,0.7470043990406554
0.069,1.680975,1.0,2628.8435180500464,0.5399323364045222,1.2809156420631316,0.982332130808462,0.28365395,0.7483622514166408
0.0695,1.67924375,1.0,2626.771874789772,0.5425129445934582,1.2801529785762722,0.9824605641531697,0.28358123749999997,0.7497267493457997
0.07,1.6775,1.0,2624.7137076985155,0.5450790915388227,1.2793845525827294,0.9825861197850823,0.283508,0.751097805415013
0.07050000000000001,1.67574375,1.0,2622.6688021058876,0.5476308544186134,1.2786103659350692,0.9827088696962075,0.2834342375,0.7524753316120116
0.07100000000000001,1.673975,1.0,2620.6369437427225,0.5501683104108281,1.2778304204858566,0.9828288834779749,0.28335995,0.753859239326059
0.07150000000000001,1.67219375,1.0,2618.617918736245,0.5526915366934652,1.2770447180876574,0.9829462284159268,0.2832851375,0.7552494393486302
0.07200000000000001,1.6704,1.0,2616.6115136057915,0.5552006104445222,1.2762532605930368,0.9830609695800574,0.2832098,0.7566458418740936
0.0725,1.66859375,1.0,2614.617515257521,0.5576956088419972,1.2754560498545604,0.9831731699110237,0.2831339375,0.7580483565003888
0.073,1.6667750000000001,1.0,2612.63571098077,0.5601766090638881,1.274653087724794,0.9832828903024482,0.28305755,0.7594568922297088
0.0735,1.66494375,1.0,2610.665888443203,0.562643688288193,1.2738443760563023,0.983390189679509,0.2829806375,0.7608713574691789
0.074,1.6631,1.0,2608.707835686229,0.5650969236929096,1.2730299167016514,0.9834951250740104,0.2829032,0.7622916600315347
0.0745,1.6612437500000001,1.0,2606.761341121461,0.5675363924560359,1.2722097115134066,0.9835977516961127,0.2828252375,0.7637177071358034
0.075,1.659375,1.0,2604.8261935259625,0.5699621717555701,1.2713837623441333,0.9836981230028897,0.28274675,0.7651494054079815
0.0755,1.65749375,1.0,2602.9021820384733,0.5723743387695097,1.2705520710463971,0.9837962907638739,0.2826677375,0.7665866608817133
