Time [s],Phi [rad],STIM [ ],Fsee [N],Gamma [ ],Lcerel [ ],q [ ],Lmtc [m],fisomrel [ ]
0.0,1.8,1.0,18.002274030244678,0.0001907135891198823,1.379335813989122,0.0050094705925241255,0.288653,0.5411490440854917
0.0005,1.79999375,1.0,18.370731698087457,0.0057988531455385435,1.3792919609896417,0.013449821617773375,0.2886527375,0.5412551285989546
0.001,1.799975,1.0,21.84658886589854,0.011375535473112729,1.3789150552844154,0.03655648239767986,0.28865195,0.5421663931084453
0.0015,1.79994375,1.0,31.58670601798351,0.016920937022990804,1.378002299117801,0.07189520368557954,0.2886506375,0.5443694574670171
0.002,1.7999,1.0,54.67566227750111,0.02243523325448823,1.3762975638174144,0.11624716172343456,0.2886488,0.5484698452330323
0.0025,1.79984375,1.0,98.93825464024314,0.027918598643720382,1.3738479054856414,0.16623682822514663,0.28864643749999996,0.554329539426017
0.003,1.7997750000000001,1.0,163.31363475682755,0.033371206689759306,1.371126496572189,0.2189939621626691,0.28864354999999997,0.5607943990499139
0.0035,1.79969375,1.0,240.338223176203,0.03879322991554239,1.3685031836428063,0.27231645459616854,0.2886401375,0.566981516725498
0.004,1.7996,1.0,324.2874843715043,0.044184839878227,1.3660815456523476,0.3245648191607059,0.2886362,0.5726540240203704
0.0045000000000000005,1.7994937500000001,1.0,412.1860863536368,0.04954620717451298,1.3638544313936545,0.37459951117410956,0.2886317375,0.5778378595510216
0.005,1.799375,1.0,502.38929792653124,0.05487750143251503,1.3617952008951446,0.4217114045620609,0.28862675,0.5826027825549809
0.0055,1.79924375,1.0,593.7908661880124,0.060178891350468736,1.3598802877817024,0.4655289323855546,0.2886212375,0.5870094976599459
0.006,1.7991000000000001,1.0,685.51975954003,0.06545054466177368,1.3580919125761315,0.5059253280248922,0.2886152,0.5911038971542354
0.006500000000000001,1.79894375,1.0,776.8629579184025,0.07069262815455078,1.3564164029746968,0.5429393981652542,0.2886086375,0.5949213893194469
0.007,1.798775,1.0,867.2303206095265,0.07590530773667517,1.354842872175922,0.5767144098717708,0.28860155,0.5984902298021118
0.0075,1.79859375,1.0,956.1324483776845,0.08108874822125178,1.3533623734247002,0.6074536768974589,0.2885939375,0.6018336512999449
0.008,1.7984,1.0,1043.1907634054319,0.08624311385637332,1.351966974646497,0.6353895404820201,0.2885858,0.6049720942544391
0.0085,1.79819375,1.0,1128.0834534174758,0.0913685674683254,1.3506500635291796,0.660763350523123,0.2885771375,0.6079226178156324
0.009000000000000001,1.797975,1.0,1210.5699290797309,0.09646527124745373,1.3494055762454895,0.6838122277765232,0.28856795,0.6107007120170836
0.0095,1.79774375,1.0,1290.4857359890382,0.10153338681956725,1.3482278217228105,0.7047614070969591,0.2885582375,0.6133207403641151
0.01,1.7975,1.0,1367.6883149950434,0.10657307408948413,1.3471119951471697,0.7238204591650972,0.288548,0.6157948431918088
0.0105,1.79724375,1.0,1442.091434442807,0.1115844924222622,1.3460535216947016,0.7411811703290464,0.2885372375,0.618134439166756
0.011,1.796975,1.0,1513.6652914168492,0.11656780115556051,1.345047943026305,0.757017208300915,0.28852595000000003,0.6203505006802164
0.0115,1.79669375,1.0,1582.3807054325212,0.12152315752102907,1.3440914971868732,0.7714849850895014,0.2885141375,0.6224523009046431
0.012,1.7964,1.0,1648.2334844842333,0.1264507178937459,1.3431806981281686,0.7847245154110235,0.28850180000000003,0.6244483687253278
0.0125,1.79609375,1.0,1711.2525284373467,0.131350638219452,1.3423121663818027,0.7968606681687493,0.2884889375,0.6263468773820058
0.013000000000000001,1.7957750000000001,1.0,1771.4946149758364,0.136223074444651,1.3414826355365455,0.8080045897143591,0.28847555,0.6281556429432873
0.0135,1.79544375,1.0,1829.0057361273755,0.14106818046302333,1.3406893341319532,0.8182552516206776,0.2884616375,0.6298813061502753
0.014,1.7951000000000001,1.0,1883.8333513189957,0.1458861088526415,1.3399297811859097,0.8277006812166843,0.2884472,0.6315297954811849
0.0145,1.79474375,1.0,1936.048985678226,0.15067701219157797,1.3392014957162979,0.8364190845065929,0.2884322375,0.6331069684433239
0.015,1.794375,1.0,1985.7264576790733,0.15544104197171107,1.338502206399162,0.8444800498049392,0.28841675,0.6346181641036324
0.0155,1.79399375,1.0,2032.97061765758,0.16017835042588574,1.3378295159647975,0.8519454443016032,0.2884007375,0.6360689354049447
0.016,1.7936,1.0,2077.8473564677943,0.1648890863660683,1.337181619621353,0.8588705506589752,0.2883842,0.6374635057063813
0.0165,1.7931937500000001,1.0,2120.430343321959,0.16957339824993264,1.3365567760969204,0.8653046780825167,0.2883671375,0.638805919844539
0.017,1.792775,1.0,2160.805769716961,0.17423143453515264,1.3359532441195912,0.871291851027343,0.28834955,0.6401001842012832
0.0175,1.7923437500000001,1.0,2199.0557748110537,0.17886334245697375,1.3353694393845756,0.8768714767208589,0.2883314375,0.6413499334402917
0.018000000000000002,1.7919,1.0,2235.283566636986,0.1834692703003102,1.3348036657252125,0.8820788148032256,0.2883128,0.6425590096204088
0.0185,1.79144375,1.0,2269.561574843346,0.18804936277666845,1.3342546275701566,0.8869455929750485,0.2882936375,0.6437303697319385
0.019,1.790975,1.0,2301.962632178512,0.19260376400788604,1.3337210986502848,0.8915003292903688,0.28827395,0.644866799475915
0.0195,1.79049375,1.0,2332.566166391011,0.19713261811580052,1.3332018526964735,0.8957686829799706,0.2882537375,0.6459710630090485
0.02,1.79,1.0,2361.451619039757,0.20163606836202186,1.3326957222954268,0.8997737921251241,0.288233,0.6470457792293504
0.0205,1.78949375,1.0,2388.7029926098808,0.20611425849907952,1.3322015479215985,0.9035365455182824,0.2882117375,0.6480935317554015
0.021,1.788975,1.0,2414.3958387961698,0.21056733075692888,1.3317182989323328,0.9070758572132684,0.28818995000000003,0.6491166140096922
0.021500000000000002,1.78844375,1.0,2438.5912368616973,0.21499542464077448,1.331245124057824,0.9104088916001969,0.2881676375,0.6501169253441224
0.022,1.7879,1.0,2461.353731537978,0.219398679655821,1.330781172028267,0.9135512159556461,0.2881448,0.6510963527793561
0.0225,1.78734375,1.0,2482.751044373861,0.22377723530727306,1.3303255915738557,0.9165169711365199,0.28812143749999997,0.6520567715286425
0.023,1.786775,1.0,2502.8477396519597,0.22813122989760404,1.3298775889621464,0.9193190324822735,0.28809755,0.6529999244276825
0.0235,1.78619375,1.0,2521.7112869363054,0.23246080244027284,1.3294363671621394,0.9219691308183576,0.28807313749999996,0.6539275509917477
0.024,1.7856,1.0,2539.4088999528394,0.23676609167387622,1.3290011535641755,0.9244779744853076,0.2880482,0.6548413295709242
0.0245,1.78499375,1.0,2555.988572949134,0.24104723197647004,1.328571375712898,0.9268553818316444,0.2880227375,0.6557425097644566
0.025,1.784375,1.0,2571.4999376660576,0.2453043577261102,1.32814646115295,0.9291103366684935,0.28799675,0.6566323342882507
0.025500000000000002,1.78374375,1.0,2585.994126329672,0.24953760330085253,1.3277258374289749,0.9312510705960851,0.2879702375,0.6575120391628735
0.026000000000000002,1.7831000000000001,1.0,2599.5236419089724,0.2537471030787529,1.3273089320856155,0.9332851362055389,0.2879432,0.6583828538806566
0.0265,1.78244375,1.0,2612.1371525395,0.25793299017332183,1.3268952198974937,0.9352194792081567,0.2879156375,0.6592459030872744
0.027,1.781775,1.0,2623.8805750926736,0.26209539751008715,1.3264842112261581,0.937060494374967,0.28788755,0.660102231568984
0.0275,1.7810937500000001,1.0,2634.8109066182155,0.2662344600651506,1.326075322765029,0.9388140582239419,0.2878589375,0.6609530736086803
0.028,1.7804,1.0,2644.96328097982,0.27035030665376447,1.3256681818173293,0.9404856187015807,0.2878298,0.6617992198717952
0.0285,1.77969375,1.0,2654.3735182304695,0.2744430660911811,1.3252624156862813,0.9420802055271712,0.2878001375,0.6626414570852192
0.029,1.778975,1.0,2663.078065065184,0.2785128671926525,1.3248576516751078,0.9436024677418365,0.28776995,0.6634805680744079
0.029500000000000002,1.7782437500000001,1.0,2671.1139383524146,0.2825598387734311,1.3244535170870315,0.9450567074357126,0.2877392375,0.6643173317916307
0.03,1.7775,1.0,2678.5186717462916,0.286584109648769,1.324049639225275,0.9464469100838687,0.287708,0.6651525233353608
0.0305,1.77674375,1.0,2685.3247385686795,0.2905858065973651,1.3236456960411656,0.9477767777954319,0.2876762375,0.6659868094197369
0.031,1.775975,1.0,2691.56724953769,0.2945650582466399,1.3232413449470213,0.9490497455072557,0.28764395,0.6668208957807424
0.0315,1.7751937500000001,1.0,2697.280335467383,0.2985219919173502,1.322836255646837,0.9502690065716046,0.2876111375,0.6676554593110018
0.032,1.7744,1.0,2702.488687851398,0.30245673088344566,1.3224301870015518,0.951437541359459,0.2875778,0.668490990147144
0.0325,1.77359375,1.0,2707.21724990041,0.3063693984188759,1.322022897872105,0.9525581250850343,0.2875439375,0.6693279759121553
0.033,1.772775,1.0,2711.4911922408905,0.3102601177975906,1.3216141471194356,0.9536333444170066,0.28750955,0.6701669016984633
0.0335,1.7719437500000002,1.0,2715.335889903944,0.3141290122935394,1.321203693604483,0.9546656125549859,0.2874746375,0.671008250047313
0.034,1.7711000000000001,1.0,2718.7769006024973,0.31797620518067204,1.3207912961881867,0.9556571829293437,0.2874392,0.6718525009244358
0.0345,1.7702437500000001,1.0,2721.8296867646905,0.3218018139496551,1.3203768070997888,0.9566101704316913,0.2874032375,0.6726999409201044
0.035,1.7693750000000001,1.0,2724.525234056724,0.3256059668163932,1.3199599384563665,0.9575265409598744,0.28736675,0.6735511408896625
0.035500000000000004,1.76849375,1.0,2726.8877749004805,0.32938878607852146,1.3195404650429665,0.9584081402661803,0.2873297375,0.6744065408167241
0.036000000000000004,1.7676,1.0,2728.933316613527,0.33315038876785297,1.3191182373931802,0.9592567044741732,0.2872922,0.675266423989381
0.0365,1.76669375,1.0,2730.6779487216854,0.33689089191620064,1.318693106040599,0.9600738616654639,0.2872541375,0.6761310719457764
0.037,1.765775,1.0,2732.1378336265698,0.3406104125553776,1.3182649215188142,0.9608611398193386,0.28721555,0.6770007644471396
0.0375,1.76484375,1.0,2733.3291977683334,0.34430906771719677,1.3178335343614171,0.961619974083698,0.2871764375,0.6778757794493937
0.038,1.7639,1.0,2734.2683232834734,0.34798697443347104,1.3173987951019992,0.9623517134403934,0.28713679999999997,0.6787563930733391
0.0385,1.76294375,1.0,2734.9715401587064,0.3516442497360136,1.3169605542741516,0.9630576268215011,0.28709663750000003,0.679642879573414
0.039,1.761975,1.0,2735.455218878976,0.35528101065663725,1.3165186624114658,0.9637389087272519,0.28705595,0.6805355113050273
0.0395,1.7609937500000001,1.0,2735.731051003638,0.3588973693205051,1.316073012834172,0.9643966873540422,0.2870147375,0.6814344724423768
0.04,1.76,1.0,2735.812186809168,0.3624934431224716,1.3156234858635971,0.9650320260350064,0.286973,0.682339971847295
0.0405,1.7589937500000001,1.0,2735.7153765909684,0.3660693517655284,1.3151699293400656,0.9656459253461509,0.2869307375,0.6832522820145984
0.041,1.757975,1.0,2735.4496452643994,0.36962520550015415,1.3147122614054618,0.966239334173968,0.28688795,0.6841715322737891
0.0415,1.75694375,1.0,2735.024032211468,0.37316111457682766,1.3142504002016708,0.9668131487932998,0.2868446375,0.6850978506794954
0.042,1.7559,1.0,2734.4475885720026,0.37667718924602783,1.3137842638705768,0.9673682163238851,0.28680079999999997,0.6860313639897968
0.0425,1.75484375,1.0,2733.7293746824153,0.3801735397582333,1.3133137705540645,0.9679053379256279,0.2867564375,0.6869721976441168
0.043000000000000003,1.753775,1.0,2732.8784576634157,0.383650276363923,1.3128388383940188,0.9684252717547991,0.28671155,0.6879204757406919
0.043500000000000004,1.75269375,1.0,2731.903909156923,0.38710750931357574,1.3123593855323241,0.9689287357012965,0.28666613750000003,0.6888763210136126
0.044,1.7516,1.0,2730.814803210287,0.39054534885767017,1.311875330110865,0.9694164099252146,0.2866202,0.6898398548094355
0.0445,1.75049375,1.0,2729.6202143103637,0.39396390524668523,1.3113865902715263,0.9698889392092875,0.2865737375,0.6908111970633694
0.045,1.7493750000000001,1.0,2728.323781618313,0.3973632771341055,1.310893133559337,0.9703469372541944,0.28652675,0.691790368321608
0.0455,1.74824375,1.0,2726.936328363457,0.4007435815529317,1.3103948622106412,0.9707909841907988,0.2864792375,0.6927775175804755
0.046,1.7471,1.0,2725.4685518939914,0.40410493510523504,1.309891679552547,0.9712216308730316,0.2864312,0.6937727900003237
0.0465,1.7459437500000001,1.0,2723.9249086868417,0.40744744047559867,1.3093835456288168,0.9716394029036881,0.28638263750000004,0.6947762171369319
0.047,1.744775,1.0,2722.309853571338,0.41077120034860565,1.3088704204832133,0.9720447999170881,0.28633355,0.6957878295616167
0.0475,1.74359375,1.0,2720.627839132986,0.4140763174088391,1.3083522641594993,0.9724382971033274,0.28628393750000003,0.6968076568485662
0.048,1.7424,1.0,2718.883315150899,0.41736289434088214,1.3078290367014376,0.9728203466292761,0.2862338,0.6978357275620695
0.0485,1.74119375,1.0,2717.080728072422,0.42063103382931777,1.3073006981527904,0.9731913789642129,0.2861831375,0.6988720692436468
0.049,1.739975,1.0,2715.2245205216223,0.4238808385587292,1.3067672085573208,0.9735518041173228,0.28613195,0.6999167083990729
0.0495,1.73874375,1.0,2713.3191308443143,0.42711241121369947,1.3062285279587909,0.973902012793664,0.2860802375,0.7009696704853063
0.05,1.7375,1.0,2711.3689926877682,0.4303258544788117,1.305684616400964,0.9742423774746739,0.286028,0.7020309798973072
0.0505,1.73624375,1.0,2709.3785346161703,0.433521271038649,1.3051354339276025,0.9745732534287777,0.2859752375,0.7031006599547633
0.051000000000000004,1.734975,1.0,2707.352179761581,0.4366987635777944,1.3045809405824689,0.9748949796572001,0.28592195,0.7041787328887072
0.051500000000000004,1.73369375,1.0,2705.2943455096342,0.4398584347808311,1.304021096409326,0.9752078797796816,0.2858681375,0.7052652198280336
0.052000000000000005,1.7324,1.0,2703.1695265100884,0.4430003830665218,1.3034562260412101,0.9755122857075784,0.2858138,0.7063594351939604
0.0525,1.73109375,1.0,2701.054111068562,0.44612470997572407,1.302885632215696,0.9758084503128948,0.28575893750000003,0.7074626715475067
0.053,1.729775,1.0,2698.942424404788,0.4492315140274637,1.3023093667135492,0.9760966618228941,0.28570355000000003,0.7085747665728725
0.0535,1.7284474077751806,1.0,2696.978783503607,0.4523208918848133,1.3017277617122842,0.9763772129821077,0.2856477911265576,0.7096950185334663
0.054,1.727119470430644,1.0,2695.546237272497,0.45539294021084564,1.301141149389416,0.9766503838359156,0.28559201775808707,0.7108227300523642
0.0545,1.7257915330861076,1.0,2694.62508961165,0.45844775566863344,1.3005498619224594,0.976916442398447,0.2855362443896165,0.7119572082219089
0.055,1.7244635957415713,1.0,2694.178770898411,0.46148543492124944,1.2999542314889292,0.9771756452800938,0.285480471021146,0.7130977647062688
0.0555,1.7231356583970348,1.0,2694.1708556361114,0.4645060746317663,1.2993545902663404,0.9774282382773859,0.2854246976526755,0.7142437158369627
0.056,1.7218077210524982,1.0,2694.565699763054,0.4675097712565554,1.2987512643204553,0.9776744565505237,0.2853689242842049,0.7153943943460761
0.0565,1.7204797837079617,1.0,2695.3376795634026,0.4704966174682401,1.2981444888417972,0.9779145199230269,0.2853131509157344,0.7165493105014779
0.057,1.7191518463634252,1.0,2696.438203115052,0.47346671317682487,1.2975347096918965,0.9781486519654067,0.2852573775472639,0.7177075782160678
0.0575,1.7178239090188887,1.0,2697.8462885834647,0.47642015045119135,1.2969221205414776,0.9783770521511705,0.2852016041787933,0.7188687957052049
0.058,1.7164959716743522,1.0,2699.5409870364247,0.4793570213602212,1.296306915061265,0.9785999119392527,0.2851458308103228,0.7200325640525393
0.0585,1.7151680343298157,1.0,2701.501370793296,0.4822774179727961,1.2956892869219825,0.9788174151650878,0.28509005744185223,0.7211984872435253
0.059000000000000004,1.7138400969852792,1.0,2703.706522606935,0.4851814323577977,1.295069429794355,0.9790297384096835,0.2850342840733817,0.7223661721965376
0.059500000000000004,1.7125121596407429,1.0,2706.1355256761485,0.4880691565841077,1.2944475373491062,0.9792370513480854,0.2849785107049112,0.723535228791603
0.06,1.7111842222962064,1.0,2708.767454490547,0.49094068272060765,1.2938238032569611,0.9794395170785342,0.2849227373364407,0.7247052698967302
0.0605,1.7098562849516699,1.0,2711.584724868304,0.49379610102932675,1.2931983905617197,0.9796372906425622,0.2848669639679701,0.7258759686607694
0.061,1.7085283476071333,1.0,2714.5699941133084,0.4966355031808748,1.2925714599498668,0.979830521163363,0.2848111905994996,0.7270470051747561
0.0615,1.7072004102625968,1.0,2717.7059738652392,0.49945898104236947,1.2919431714095857,0.9800193521102082,0.28475541723102904,0.728218063352402
0.062,1.7058724729180603,1.0,2720.9823559124075,0.5022666223068536,1.2913136211347203,0.9802039179205854,0.2846996438625585,0.7293889481549001
0.0625,1.7045445355735238,1.0,2724.3888177365307,0.5050585146673698,1.2906829053191151,0.980384348037935,0.284643870494088,0.7305594660562448
0.063,1.7032165982289875,1.0,2727.915019925025,0.5078347458169611,1.2900511201566143,0.9805607671370222,0.2845880971256175,0.7317294250506802
0.0635,1.701888660884451,1.0,2731.5506037874306,0.51059540344867,1.289418361841062,0.9807332953375506,0.28453232375714693,0.7328986346595541
0.064,1.7005607235399145,1.0,2735.285189177627,0.5133405752555394,1.2887847265663022,0.9809020484067124,0.2844765503886764,0.7340669059375833
0.0645,1.699232786195378,1.0,2739.1083725204126,0.5160703489306122,1.2881503105261793,0.9810671379513238,0.28442077702020585,0.7352340514785282
0.065,1.6979048488508415,1.0,2743.0167917699137,0.5187848037992154,1.2875151458390897,0.9812286678177667,0.28436500365173534,0.736400002911757
0.0655,1.696576911506305,1.0,2746.9948154366925,0.5214840365889784,1.2868793757354768,0.9813867448829395,0.2843092302832648,0.7375644890868084
0.066,1.6952489741617685,1.0,2751.0347812897753,0.5241681341090165,1.2862430709035446,0.9815414680344181,0.28425345691479426,0.7387273735960087
0.0665,1.693921036817232,1.0,2755.1324132794616,0.526837178880808,1.2856062712071783,0.9816929309252875,0.28419768354632374,0.7398885773186599
0.067,1.6925930994726954,1.0,2759.283423964372,0.5294912534258306,1.2849690165102636,0.9818412239715159,0.2841419101778532,0.7410480217766999
0.0675,1.6912651621281591,1.0,2763.4835140920827,0.532130440265562,1.2843313466766866,0.9819864344877456,0.28408613680938266,0.7422056291359116
0.068,1.6899372247836226,1.0,2767.728372214521,0.53475482192148,1.2836933015703325,0.9821286468164828,0.28403036344091215,0.7433613222070294
0.0685,1.6886092874390861,1.0,2772.0136743383764,0.5373644809150627,1.2830549210550872,0.9822679424510505,0.28397459007244163,0.7445150244467422
0.069,1.6872813500945496,1.0,2776.335083611458,0.5399594997677878,1.2824162449948364,0.9824044001526467,0.28391881670397107,0.7456666599585986
0.0695,1.685953412750013,1.0,2780.6882500436686,0.542539961001133,1.2817773132534658,0.982538096061829,0.28386304333550055,0.7468161534938081
0.07,1.6846254754054766,1.0,2785.0688102632407,0.5451059471365762,1.2811381656948608,0.9826691038047257,0.28380726996703,0.7479634304519419
0.07050000000000001,1.68329753806094,1.0,2789.4723873088,0.5476575406955954,1.2804988421829075,0.9827974945942611,0.28375149659855947,0.7491084168815316
0.07100000000000001,1.6819696007164036,1.0,2793.897797361903,0.5501948133568119,1.2798593537698164,0.9829233353538523,0.28369572323008896,0.7502510909041478
0.07150000000000001,1.6806416633718673,1.0,2798.34109702749,0.5527178516422983,1.2792197362475464,0.9830466928602366,0.28363994986161845,0.7513913867661054
0.07200000000000001,1.6793137260273308,1.0,2802.7966889613044,0.5552267475360635,1.2785800401315324,0.9831676327318152,0.2835841764931479,0.7525292131387558
0.0725,1.6779857886827942,1.0,2807.2632495928824,0.5577215772647174,1.2779402774720645,0.9832862158495734,0.28352840312467736,0.7536645477001014
0.073,1.6766578513382577,1.0,2811.7394511048187,0.5602024170548698,1.277300460319433,0.9834025011695016,0.2834726297562068,0.754797368324715
