Time [s],Phi [rad],STIM [ ],Fsee [N],Gamma [ ],Lcerel [ ],q [ ],Lmtc [m],fisomrel [ ]
0.0,1.8,1.0,17.980964544572796,0.00012418393728406288,1.3793381997408027,0.005004029210836142,0.288653,0.5411432723769352
0.0005,1.79999375,1.0,18.328075367690595,0.005732696672427493,1.379296689887866,0.013260552632056003,0.2886527375,0.5412436895411608
0.001,1.799975,1.0,21.75461349522475,0.011309750085500487,1.3789244098781575,0.03620606755596001,0.28865195,0.5421437869849814
0.0015,1.79994375,1.0,31.387372077153174,0.016855520639368026,1.3780191686586978,0.07141798253839902,0.2886506375,0.5443287886689637
0.002,1.7999,1.0,54.26301405725019,0.022370183805101845,1.376324115502232,0.1156835507600908,0.2886488,0.5484061227406336
0.0025,1.79984375,1.0,98.25846366480992,0.027853914070271442,1.3738804163543472,0.16562465932169226,0.28864643749999996,0.5542520225341199
0.003,1.7997750000000001,1.0,162.43793715817233,0.03330688494563555,1.371159081267691,0.21836305441727158,0.28864354999999997,0.5607172716598328
0.0035,1.79969375,1.0,239.35366123339793,0.03872926896557796,1.3685333737366965,0.2716893897163803,0.2886401375,0.5669105626347206
0.004,1.7996,1.0,323.2428816667705,0.044121237698636344,1.366109114816127,0.32395796317278885,0.2886362,0.572589655767066
0.0045000000000000005,1.7994937500000001,1.0,411.1063131432446,0.04948296175276392,1.3638797044615725,0.3740236639067489,0.2886317375,0.5777792113550978
0.005,1.799375,1.0,501.2890460708978,0.054814610767029905,1.3618185245858707,0.42117280320302747,0.28862675,0.5825489644977795
0.0055,1.79924375,1.0,592.6819981522623,0.06011635345278893,1.359901907666875,0.4650303675894204,0.2886212375,0.5869598751841332
0.006,1.7991000000000001,1.0,684.4110295610247,0.06538835755196956,1.3581120303021295,0.5054672055576609,0.2886152,0.5910579520181336
0.006500000000000001,1.79894375,1.0,775.7624950900693,0.0706307898660835,1.3564351591563344,0.5425205462964232,0.2886086375,0.5948787542002505
0.007,1.798775,1.0,866.147628715157,0.07584381631361267,1.3548603368565713,0.5763326848749564,0.28860155,0.5984507057590587
0.0075,1.79859375,1.0,955.0720455813648,0.08102760177085794,1.3533786633719491,0.6071064717591811,0.2885939375,0.6017969396474958
0.008,1.7984,1.0,1042.149769373747,0.08618231025001377,1.3519822841863156,0.6350740921040281,0.2885858,0.6049377283768615
0.0085,1.79819375,1.0,1127.071067571425,0.09130810507303277,1.3506643808019536,0.6604767624227033,0.2885771375,0.6078905996070869
0.009000000000000001,1.797975,1.0,1209.583088232785,0.09640514803824818,1.349419048121882,0.683551801110727,0.28856795,0.6106706913571364
0.0095,1.79774375,1.0,1289.5101970008711,0.10147360029686309,1.3482407201722009,0.7045246758358209,0.2885582375,0.6132920944322287
0.01,1.7975,1.0,1366.7524198992367,0.10651362333642637,1.3471240148933343,0.7236048556503047,0.288548,0.615768234325039
0.0105,1.79724375,1.0,1441.1994853494623,0.11152537572018387,1.3460646774304235,0.7409845202319086,0.2885372375,0.6181098183513296
0.011,1.796975,1.0,1512.7944272451787,0.1165090156882239,1.3450585743013723,0.7568377038217121,0.28852595000000003,0.6203271055519908
0.0115,1.79669375,1.0,1581.5296075554174,0.1214647011877792,1.3441016589672645,0.7713208756085207,0.2885141375,0.6224300009438023
0.012,1.7964,1.0,1647.4228775407673,0.12639258967816838,1.3431901810405513,0.7845741243629843,0.28850180000000003,0.6244276136395205
0.0125,1.79609375,1.0,1710.4900385507044,0.13129283679930695,1.3423209205079412,0.7967225700822587,0.2884889375,0.6263277658883796
0.013000000000000001,1.7957750000000001,1.0,1770.7585204044294,0.13616559704607245,1.341490941618204,0.8078776480888059,0.28847555,0.6281375535481901
0.0135,1.79544375,1.0,1828.2838660324965,0.14101102461473206,1.3406973505757656,0.8181384093445307,0.2884616375,0.6298638881079526
0.014,1.7951000000000001,1.0,1883.1402015796225,0.14582927343755878,1.3399373657942006,0.8275928895396716,0.2884472,0.6315133524773592
0.0145,1.79474375,1.0,1935.3980261193076,0.15062049638906355,1.3392085219036565,0.836319417786227,0.2884322375,0.6330917687115326
0.015,1.794375,1.0,1985.1175178637934,0.15538484404850691,1.338508696259291,0.8443877346835514,0.28841675,0.6346041535613365
0.0155,1.79399375,1.0,2032.3772225397813,0.16012246699514948,1.3378357662162614,0.8518598805059275,0.2884007375,0.6360554689574986
0.016,1.7936,1.0,2077.2634662391833,0.16483351504253002,1.3371877029639947,0.8587911334928375,0.2883842,0.6374504240110488
0.0165,1.7931937500000001,1.0,2119.8720440613906,0.16951813850737682,1.3365625340883656,0.865230799941025,0.2883671375,0.6387935607398526
0.017,1.792775,1.0,2160.288046846823,0.174176485992839,1.335958533476576,0.8712229736970598,0.28834955,0.6400888513528966
0.0175,1.7923437500000001,1.0,2198.5802653095925,0.17880870357878134,1.3353742550015235,0.8768071563938001,0.2883314375,0.6413396335528478
0.018000000000000002,1.7919,1.0,2234.826933327571,0.1834149373450686,1.3348082525361054,0.8820187194746641,0.2883128,0.6425492156687485
0.0185,1.79144375,1.0,2269.1149377786537,0.1879953333715656,1.3342590799532195,0.8868893865078151,0.2882936375,0.6437208784082502
0.019,1.790975,1.0,2301.526692157446,0.1925500363104764,1.33372541369745,0.8914476852756877,0.28827395,0.6448576156009755
0.0195,1.79049375,1.0,2332.1561532477645,0.19707919237151855,1.3332058843876362,0.895719274365439,0.2882537375,0.6459624955658585
0.02,1.79,1.0,2361.0755131717606,0.20158294430903734,1.332699397870137,0.8997273407580424,0.288233,0.6470379804108685
0.0205,1.78949375,1.0,2388.3504827273705,0.20606143338438565,1.3322049731822185,0.9034928388487881,0.2882117375,0.6480862748501323
0.021,1.788975,1.0,2414.0512497105756,0.21051480085891638,1.3317216293611482,0.9070347131786495,0.28818995000000003,0.6491095682843909
0.021500000000000002,1.78844375,1.0,2438.252104465866,0.21494318799398243,1.3312483854441926,0.9103701187833042,0.2881676375,0.6501100355249224
0.022,1.7879,1.0,2461.02284733247,0.21934673443690825,1.330784339341354,0.9135146301394648,0.2881448,0.6510896710666578
0.0225,1.78734375,1.0,2482.438953945063,0.22372558177306587,1.3303285660801352,0.916482391429854,0.28812143749999997,0.6520505052023016
0.023,1.786775,1.0,2502.5635317649912,0.22807986877004024,1.3298802868172332,0.9192862973281029,0.28809755,0.6529942486268493
0.0235,1.78619375,1.0,2521.4501992324217,0.23240973161086997,1.3294388362546234,0.9219381160229222,0.28807313749999996,0.6539223634158144
0.024,1.7856,1.0,2539.1547033718634,0.23671530647859373,1.32900354909428,0.9244485848822804,0.2880482,0.6548363031995144
0.0245,1.78499375,1.0,2555.7347407007883,0.24099672955625015,1.328573760038178,0.9268275149440935,0.2880227375,0.6557375134386922
0.025,1.784375,1.0,2571.249787952585,0.24525413702687787,1.328148803788292,0.9290838835489663,0.28799675,0.6566274316719165
0.025500000000000002,1.78374375,1.0,2585.7486429326746,0.24948766177562418,1.3277281299115458,0.9312259342600486,0.2879702375,0.6575072476552328
0.026000000000000002,1.7831000000000001,1.0,2599.2954654332098,0.25369744246113707,1.3273110573887896,0.9332612119027498,0.2879432,0.6583784174458944
0.0265,1.78244375,1.0,2611.9348076388064,0.2578836115995095,1.3268971000369558,0.935196676489931,0.2879156375,0.6592419833782797
0.027,1.781775,1.0,2623.7059138362074,0.2620462998035986,1.3264858304957237,0.9370387385626697,0.28788755,0.660098859966574
0.0275,1.7810937500000001,1.0,2634.648920455018,0.26618563768626147,1.326076821404773,0.9387933022285743,0.2878589375,0.6609499570872444
0.028,1.7804,1.0,2644.8047791353874,0.27030175586035504,1.3256696454037828,0.9404658118661045,0.2878298,0.6617961800464743
0.0285,1.77969375,1.0,2654.215183845688,0.2743947849387365,1.3252638751324328,0.9420612939562996,0.2878001375,0.6626384296359475
0.029,1.778975,1.0,2662.922502048669,0.27846485553426276,1.3248590832304028,0.9435843946032496,0.28776995,0.6634776021769841
0.029500000000000002,1.7782437500000001,1.0,2670.960402250113,0.28251209309708614,1.3244549278625792,0.9450394230638103,0.2877392375,0.6643144125819149
0.03,1.7775,1.0,2678.3765752425447,0.28653663286035574,1.3240509430799585,0.9464303582486486,0.287708,0.665149828727645
0.0305,1.77674375,1.0,2685.199873646487,0.290538600574773,1.3236468403268669,0.9477609102508794,0.2876762375,0.6659844475332767
0.031,1.775975,1.0,2691.457461539203,0.29451812084447593,1.3232423498961012,0.9490345253664617,0.28764395,0.6668188240868829
0.0315,1.7751937500000001,1.0,2697.1768303889876,0.2984753182736027,1.3228372020804586,0.9502544062613508,0.2876111375,0.6676535106915215
0.032,1.7744,1.0,2702.385768422978,0.30241031746629143,1.322431127172736,0.9514235322052589,0.2875778,0.6684890568562466
0.0325,1.77359375,1.0,2707.1123316077674,0.30632324302668035,1.32202385546573,0.9525446773905288,0.2875439375,0.669326009282483
0.033,1.772775,1.0,2711.384816242163,0.3102142195589075,1.3216151172522377,0.9536204275378921,0.28750955,0.6701649118457571
0.0335,1.7719437500000002,1.0,2715.2296209976416,0.31408336961392064,1.3212046620742286,0.954653196607318,0.2874746375,0.6710062661408821
0.034,1.7711000000000001,1.0,2718.6677437619496,0.3179308111075,1.320792290347324,0.9556452432177889,0.2874392,0.6718504670080301
0.0345,1.7702437500000001,1.0,2721.7346210548903,0.32175667928163104,1.3203776724354308,0.9565986685058073,0.2874032375,0.6726981728471167
0.035,1.7693750000000001,1.0,2724.4468496405143,0.3255610918063858,1.3199606515963929,0.9575154521477695,0.28736675,0.6735496856824352
0.035500000000000004,1.76849375,1.0,2726.821132821781,0.3293441663518364,1.3195410710880526,0.9583974475461419,0.2873297375,0.6744053057649876
0.036000000000000004,1.7676,1.0,2728.874269445307,0.3331060205880547,1.3191187741682537,0.9592463913320703,0.2872922,0.6752653315476757
0.0365,1.76669375,1.0,2730.6231434511874,0.33684677218511283,1.3186936040948387,0.9600639120492777,0.2872541375,0.6761300596589357
0.037,1.765775,1.0,2732.084713966999,0.34056653881308274,1.3182654041256507,0.9608515380981886,0.28721555,0.6769997848747966
0.0375,1.76484375,1.0,2733.276005947211,0.3442654381420366,1.3178340175185332,0.9616107050108468,0.2871764375,0.6778748000893773
0.038,1.7639,1.0,2734.2141013566484,0.3479435878420462,1.317399287531329,0.9623427621197793,0.28713679999999997,0.6787553962838162
0.0385,1.76294375,1.0,2734.9161308993544,0.35160110558318375,1.316961057421881,0.9630489786773965,0.28709663750000003,0.679641862493632
0.039,1.761975,1.0,2735.3992662910528,0.35523810903552117,1.3165191704480326,0.9637305494766993,0.28705595,0.6805344857745195
0.0395,1.7609937500000001,1.0,2735.6738580621522,0.3588547043127843,1.316073532106741,0.9643886034872658,0.2870147375,0.6814334257065338
0.04,1.76,1.0,2735.7596886074384,0.36245102086804337,1.3156239625038861,0.9650242016760171,0.286973,0.6823390124150048
0.0405,1.7589937500000001,1.0,2735.6661832537566,0.36602716958257986,1.3151703759826834,0.9656383497117356,0.2869307375,0.6832513842568049
0.041,1.757975,1.0,2735.402588450294,0.36958326096337607,1.314712688670546,0.9662319969639701,0.28688795,0.684170674712232
0.0415,1.75694375,1.0,2734.9781653200184,0.3731194055174145,1.314250816694888,0.9668060401563445,0.2868446375,0.6850970159649103
0.042,1.7559,1.0,2734.4021868660143,0.37663571375167754,1.3137846761831236,0.9673613268258339,0.28680079999999997,0.6860305388796311
0.0425,1.75484375,1.0,2733.683935333709,0.3801322961731475,1.3133141832626665,0.9678986585205112,0.2867564375,0.6869713729797458
0.043000000000000003,1.753775,1.0,2732.832699728421,0.3836092632888068,1.3128392540609302,0.9684187937580057,0.28671155,0.6879196464241097
0.043500000000000004,1.75269375,1.0,2731.8577734898913,0.38706672560563776,1.312359804705329,0.9689224507648181,0.28666613750000003,0.6888754859835736
0.044,1.7516,1.0,2730.768452321858,0.39050479363062285,1.3118757513232766,0.9694103100147619,0.2866202,0.6898390170170337
0.0445,1.75049375,1.0,2729.574032178297,0.3939235778707444,1.311387010042187,0.9698830165831173,0.2865737375,0.6908103634470248
0.045,1.7493750000000001,1.0,2728.2744534670283,0.39732316388486316,1.3108935820322585,0.970341185248252,0.28652675,0.6917894791171919
0.0455,1.74824375,1.0,2726.888370082178,0.4007036905854263,1.3103952983400768,0.9707853942348322,0.2864792375,0.6927766542358886
0.046,1.7471,1.0,2725.422798334438,0.40406526760907263,1.3098920957443287,0.9712161963068997,0.2864312,0.6937719674591447
0.0465,1.7459437500000001,1.0,2723.881984655903,0.4074079971729223,1.309383936192648,0.9716341174628299,0.28638263750000004,0.6947754465112994
0.047,1.744775,1.0,2722.2701740174166,0.41073198149409545,1.3088707816326688,0.9720396577119924,0.28633355,0.6957871181556896
0.0475,1.74359375,1.0,2720.5916093645233,0.4140373227897122,1.3083525940120246,0.9724332926002842,0.28628393750000003,0.696807008182575
0.048,1.7424,1.0,2718.8505310845435,0.4173241232768928,1.3078293352783497,0.9728154746323238,0.2862338,0.6978351413969688
0.0485,1.74119375,1.0,2717.0511765066667,0.4205924851727572,1.3073009673792777,0.9731866345982024,0.2861831375,0.6988715416063779
0.049,1.739975,1.0,2715.1977794330364,0.42384251069442574,1.3067674522624426,0.9735471828120188,0.28613195,0.6999162316084502
0.0495,1.73874375,1.0,2713.2945697033147,0.42707430205901853,1.3062287518754783,0.9738975102688185,0.2860802375,0.7009692331785293
0.05,1.7375,1.0,2711.345772790238,0.43028796148365567,1.3056848281660185,0.9742379897260072,0.286028,0.7020305670571165
0.0505,1.73624375,1.0,2709.355609427535,0.4334835911854573,1.3051356430816974,0.9745689767148027,0.2859752375,0.7031002529372417
0.051000000000000004,1.734975,1.0,2707.3282952706104,0.4366612933815437,1.3045811585701486,0.9748908104868431,0.28592195,0.7041783094517411
0.051500000000000004,1.73369375,1.0,2705.268040588277,0.43982117028903484,1.3040213365790059,0.9752038149006398,0.2858681375,0.7052647541604427
0.052000000000000005,1.7324,1.0,2703.1790499872195,0.442963324125051,1.3034561390559036,0.9755082992522027,0.2858138,0.7063596035372579
0.0525,1.73109375,1.0,2701.0650914482303,0.4460878528173064,1.302885531884116,0.9758045588502992,0.28575893750000003,0.7074628653548348
0.053,1.729775,1.0,2698.9279066519907,0.4491948351709871,1.3023094994195463,0.9760928751481582,0.28570355000000003,0.7085745107165284
0.0535,1.72844375,1.0,2696.77359149448,0.45228440561987926,1.3017279861787907,0.9763735205346991,0.2856476375,0.709694586595955
0.054,1.7271,1.0,2694.603670213086,0.45535665751585425,1.3011409784147006,0.9766467539323257,0.2855912,0.7108230584165716
0.0545,1.7257437500000001,1.0,2692.4196647858207,0.45841168421078327,1.3005484623801276,0.9769128231468052,0.2855342375,0.7119598908193273
0.055,1.724375,1.0,2690.223094887728,0.4614495790565376,1.2999504243279236,0.9771719654353629,0.28547675,0.7131050476578398
0.0555,1.72299375,1.0,2688.015477851323,0.4644704354049884,1.2993468505109402,0.977424408041164,0.2854187375,0.7142584919935613
0.056,1.7216,1.0,2685.7983286309227,0.46747434660800685,1.2987377271820293,0.9776703686964354,0.2853602,0.7154201860909293
0.0565,1.72019375,1.0,2683.573159771596,0.4704614060174643,1.2981230405940425,0.9779100560963091,0.28530113749999997,0.7165900914125092
0.057,1.718775,1.0,2681.3414813821664,0.47343170698523185,1.2975027769998313,0.9781436703453144,0.28524155,0.717768168614122
0.0575,1.71734375,1.0,2679.10480111199,0.47638534286318085,1.2968769226522474,0.9783714033783079,0.2851814375,0.7189543775399602
0.058,1.7159,1.0,2676.8646241325673,0.47932240700318246,1.2962454638041427,0.9785934393574973,0.2851208,0.7201486772176925
0.0585,1.71444375,1.0,2674.622453123055,0.4822429927571079,1.295608386708369,0.9788099550470962,0.2850596375,0.7213510258535567
0.059000000000000004,1.7129750000000001,1.0,2672.3797882599033,0.48514719347682844,1.2949656776177776,0.9790211201670374,0.28499795,0.7225613808274404
0.059500000000000004,1.71149375,1.0,2670.1381272107487,0.4880351025142152,1.2943173227852205,0.979227097727071,0.2849357375,0.7237796986879474
0.06,1.71,1.0,2667.8989651323323,0.49090681322113955,1.2936633084635494,0.9794280443424793,0.284873,0.7250059351474563
0.0605,1.7084937500000001,1.0,2665.6637946731944,0.4937624189494726,1.2930036209056157,0.9796241105325539,0.2848097375,0.7262400450771628
0.061,1.7069750000000001,1.0,2663.4308639175665,0.4966019702204809,1.2923382761966495,0.979815439195296,0.28474595,0.7274819268825621
0.0615,1.7054437500000001,1.0,2661.2040624989077,0.4994255974925646,1.2916672385154597,0.980002171332096,0.2846816375,0.7287315751810137
0.062,1.7039,1.0,2658.985314793599,0.5022334074724408,1.2909904900797493,0.9801844416315255,0.2846168,0.7299889498824852
0.0625,1.70234375,1.0,2656.774836822091,0.5050254840744569,1.2903080288171633,0.9803623787613355,0.2845514375,0.7312539808810365
0.063,1.7007750000000001,1.0,2654.572844260457,0.5078019112129601,1.289619852655347,0.980536106584183,0.28448555,0.7325265974103796
0.0635,1.69919375,1.0,2652.379552443746,0.5105627728022977,1.288925959521946,0.980705744371054,0.28441913750000003,0.7338067280431213
0.064,1.6976,1.0,2650.1951763687152,0.513308152756817,1.2882263473446052,0.9808714070036786,0.2843522,0.7350943006900097
0.0645,1.69599375,1.0,2648.019930697793,0.5160381349908651,1.2875210140509699,0.9810332051665793,0.2842847375,0.7363892425991774
0.065,1.694375,1.0,2645.8540297621635,0.5187528034187896,1.2868099575686853,0.9811912455293582,0.28421675,0.7376914803553856
0.0655,1.69274375,1.0,2643.6976875652745,0.5214522419549376,1.2860931758253968,0.9813456309197822,0.2841482375,0.7390009398792684
0.066,1.6911,1.0,2641.5511177865646,0.5241365345136563,1.2853706667487494,0.9814964604881979,0.2840792,0.7403175464265759
0.0665,1.6894437500000001,1.0,2639.4145337854525,0.5268057650092931,1.2846424282663886,0.9816438298637625,0.2840096375,0.7416412245874164
0.067,1.687775,1.0,2637.288148604414,0.5294600173561952,1.2839084583059595,0.981787831302959,0.28393955,0.7429718982855016
0.0675,1.68609375,1.0,2635.172174973839,0.53209937546871,1.2831687547951074,0.9819285538308253,0.2838689375,0.7443094907773863
0.068,1.6844000000000001,1.0,2633.066825315463,0.5347239232611846,1.2824233156614775,0.9820660833753028,0.2837978,0.7456539246517138
0.0685,1.68269375,1.0,2630.972311746478,0.5373337446479663,1.2816721388327148,0.982200502895085,0.2837261375,0.7470051218284561
0.069,1.680975,1.0,2628.8888460839917,0.5399289235434026,1.280915222236465,0.9823318925013245,0.28365395,0.7483630035581552
0.0695,1.67924375,1.0,2626.816639849135,0.5425095438618406,1.280152563800373,0.9824603295735308,0.28358123749999997,0.7497274904211669
0.07,1.6775,1.0,2624.7559042715525,0.5450756895176275,1.2793841614520842,0.9825858888699769,0.283508,0.7510985023268997
0.07050000000000001,1.67574375,1.0,2622.706850293894,0.5476274444251108,1.278610013119244,0.982708642632907,0.2834342375,0.7524759585130572
0.07100000000000001,1.673975,1.0,2620.6697880256124,0.550164892488742,1.2778301158069614,0.9828286606458654,0.28335995,0.7538597791794975
0.07150000000000001,1.67219375,1.0,2618.650423282069,0.5526881116188779,1.2770444164440926,0.982946007726451,0.2832851375,0.7552499723123476
0.07200000000000001,1.6704,1.0,2616.6416826774607,0.5551971778342568,1.2762529805153897,0.9830607517994541,0.2832098,0.7566463353200373
0.0725,1.66859375,1.0,2614.644459056974,0.5576921700361477,1.2754557996236169,0.9831729554324251,0.2831339375,0.7580487960896487
0.073,1.6667750000000001,1.0,2612.6596439476384,0.5601731671258192,1.2746528653715379,0.9832826791529888,0.28305755,0.7594572817066451
0.0735,1.66494375,1.0,2610.683808218525,0.5626402476966443,1.2738442095067206,0.9833899832976816,0.2829806375,0.7608716483406865
0.074,1.6631,1.0,2608.719226526274,0.5650934902486038,1.2730298107933662,0.9834949239237243,0.2829032,0.7622918444455953
0.0745,1.6612437500000001,1.0,2606.7678969671056,0.5675329720349099,1.272209650536528,0.9835975553290555,0.2828252375,0.763717812993563
0.075,1.659375,1.0,2604.829634191424,0.5699587700482892,1.2713837303301065,0.9836979309529921,0.28274675,0.7651494608166964
