Time [s],Phi [rad],STIM [ ],Fsee [N],Gamma [ ],Lcerel [ ],q [ ],Lmtc [m],fisomrel [ ]
0.0,1.8,1.0,18.543778577374088,0.0007734953439213244,1.3792756556045618,0.0051540285700957325,0.288653,0.5412945697249039
0.0005,1.79999375,1.0,19.084700561969747,0.006378365955572034,1.379213610093197,0.015195303213253623,0.2886527375,0.5414446362247599
0.001,1.799975,1.0,22.993546632707556,0.011951797674571645,1.3788000144901074,0.039697386219522936,0.28865195,0.5424443527496634
0.0015,1.79994375,1.0,33.716179060818504,0.01749396684894246,1.3778253020435682,0.07612604638510766,0.2886506375,0.5447960495398164
0.002,1.7999,1.0,58.73433431201531,0.023005048836145993,1.3760415695573105,0.12121368227652005,0.2886488,0.5490839858573802
0.0025,1.79984375,1.0,105.31654630702144,0.028485218010935863,1.3735481455614043,0.17161191588089664,0.28864643749999996,0.55504395072588
0.003,1.7997750000000001,1.0,171.33322201524558,0.0339346477702127,1.3708320596963086,0.22452082272778784,0.28864354999999997,0.5614910188182187
0.0035,1.79969375,1.0,249.24969911680753,0.03935351053672639,1.3682326914994973,0.27780055325241393,0.2886401375,0.5676169799459058
0.004,1.7996,1.0,333.6809302655825,0.04474197776804489,1.3658356018650586,0.3298656994015383,0.2886362,0.5732280370154029
0.0045000000000000005,1.7994937500000001,1.0,421.85458098627265,0.050100219961975265,1.3636295906990024,0.379625032004099,0.2886317375,0.5783594412247322
0.005,1.799375,1.0,512.2083336889629,0.05542840664717967,1.3615881727551897,0.42640886835177527,0.28862675,0.5830803358531986
0.0055,1.79924375,1.0,603.6660618712433,0.06072670642138921,1.3596886320430168,0.46987519298927893,0.2886212375,0.5874492601371915
0.006,1.7991000000000001,1.0,695.3771114084557,0.06599528692384934,1.3579137630059526,0.5099177556171552,0.2886152,0.5915106449327769
0.006500000000000001,1.79894375,1.0,786.6316465321536,0.07123431477043805,1.356250485332302,0.5465888479777206,0.2886086375,0.5952984429225103
0.007,1.798775,1.0,876.8761097265609,0.07644395602410184,1.3546877566364695,0.5800395007029135,0.28860155,0.5988411839674382
0.0075,1.79859375,1.0,965.6087380188104,0.0816243751710818,1.3532171975092333,0.6104775362011804,0.2885939375,0.6021607505858524
0.008,1.7984,1.0,1052.4480953354448,0.0867757361771868,1.3518311648651975,0.6381371058216527,0.2885858,0.6052768859362189
0.0085,1.79819375,1.0,1137.1079774542109,0.09189820232576214,1.3505227205257753,0.6632593804064939,0.2885771375,0.6082073418214581
0.009000000000000001,1.797975,1.0,1219.3424124223723,0.09699193535985927,1.349286059066909,0.6860806624406363,0.28856795,0.6109669927981756
0.0095,1.79774375,1.0,1298.9752108645318,0.10205709643494407,1.3481157801739192,0.7068248133223426,0.2885582375,0.6135695267662742
0.01,1.7975,1.0,1375.9034765837266,0.10709384633121885,1.3470066634151767,0.7256993791084028,0.288548,0.6160279832444715
0.0105,1.79724375,1.0,1450.030330238485,0.11210234388180318,1.3459543803969256,0.7428943955170209,0.2885372375,0.6183532100898574
0.011,1.796975,1.0,1521.3064599272911,0.11708274748006173,1.3449547925305239,0.7585818244947681,0.28852595000000003,0.6205554563463751
0.0115,1.79669375,1.0,1589.7294051034164,0.12203521508030285,1.344003869965819,0.7729161800939909,0.2885141375,0.6226445709455992
0.012,1.7964,1.0,1655.3096431670176,0.12695990364832663,1.3430980162757784,0.786035798890957,0.28850180000000003,0.6246293087615615
0.0125,1.79609375,1.0,1718.0552042537502,0.13185696829087626,1.3422341511981564,0.7980641931906184,0.2884889375,0.6265171739594306
0.013000000000000001,1.7957750000000001,1.0,1778.0084922887527,0.1367265640268977,1.3414092081023299,0.8091112396684048,0.28847555,0.6283155377007016
0.0135,1.79544375,1.0,1835.2312435929837,0.14156884497374425,1.340620264758854,0.8192746372414821,0.2884616375,0.6300313623584444
0.014,1.7951000000000001,1.0,1889.8021906809893,0.14638396557320807,1.33986452639148,0.828641227028624,0.2884472,0.6316712490455838
0.0145,1.79474375,1.0,1941.7705985644545,0.15117207696178195,1.3391397897489303,0.8372883737096473,0.2884322375,0.6332404432686586
0.015,1.794375,1.0,1991.2060514023578,0.15593333027595874,1.3384438515799284,0.8452848487730413,0.28841675,0.6347441305093859
0.0155,1.79399375,1.0,2038.1945971131913,0.16066787646356148,1.3377745309226834,0.8526918453975467,0.2884007375,0.6361873924105906
0.016,1.7936,1.0,2082.82262987487,0.16537586534026325,1.3371298186659177,0.8595639196187926,0.2883842,0.6375748895608592
0.0165,1.7931937500000001,1.0,2125.190178415592,0.1700574475408005,1.336507716523924,0.8659497275254233,0.2883671375,0.6389112140301478
0.017,1.792775,1.0,2165.3629114649934,0.17471276972879,1.3359067130271365,0.8718928570668771,0.28834955,0.640199872905947
0.0175,1.7923437500000001,1.0,2203.4169606281225,0.17934197856784853,1.3353252967059897,0.8774322860098396,0.2883314375,0.6414443411640307
0.018000000000000002,1.7919,1.0,2239.4380494848233,0.18394522072159286,1.3347619560909183,0.8826029236689386,0.2883128,0.6426480636294072
0.0185,1.79144375,1.0,2273.51049555194,0.18852264168530697,1.3342152810782462,0.8874361108691368,0.2882936375,0.6438142407327453
0.019,1.790975,1.0,2305.7287414622024,0.19307438805759253,1.333683837724668,0.8919600020072689,0.28827395,0.6449460983461015
0.0195,1.79049375,1.0,2336.169680055107,0.1976006037410062,1.3331664342971443,0.8961999916084524,0.2882537375,0.646046323525914
0.02,1.79,1.0,2364.899646688731,0.20210143063986039,1.3326620393434048,0.9001790056589458,0.288233,0.6471172435583132
0.0205,1.78949375,1.0,2391.98995304385,0.20657701065846745,1.3321696214111778,0.9039177417860387,0.2882117375,0.6481611690419478
0.021,1.788975,1.0,2417.5164723305797,0.21102748570113986,1.3316881490481927,0.9074349162099078,0.28818995000000003,0.6491803947097703
0.021500000000000002,1.78844375,1.0,2441.551671991395,0.21545299626173128,1.3312166636135674,0.9107474951330543,0.2881676375,0.6501770463797735
0.022,1.7879,1.0,2464.17267539272,0.21985368428740376,1.3307541969636394,0.9138708683301565,0.2881448,0.6511532563486545
0.0225,1.78734375,1.0,2485.446084331805,0.2242296895032327,1.3302999131601954,0.9168190432249793,0.28812143749999997,0.6521108653264267
0.023,1.786775,1.0,2505.4270244039167,0.22858114877023067,1.329853111994858,0.9196047897497829,0.28809755,0.6530514174340167
0.0235,1.78619375,1.0,2524.172988899896,0.23290819894941017,1.3294130932592507,0.92223974422053,0.28807313749999996,0.6539764476701919
0.024,1.7856,1.0,2541.7436404366163,0.23721097690178386,1.3289791567449962,0.9247345256238695,0.2880482,0.6548874822300741
0.0245,1.78499375,1.0,2558.2006234578084,0.24148961948836423,1.3285506022437177,0.927098838573654,0.2880227375,0.6557860387923802
0.025,1.784375,1.0,2573.5950737405938,0.24574426032687174,1.3281268448156702,0.9293415827915121,0.28799675,0.6566733855590341
0.025500000000000002,1.78374375,1.0,2587.9931463579805,0.24997503870905308,1.3277071733376289,0.9314708957616173,0.2879702375,0.6575510476500679
0.026000000000000002,1.7831000000000001,1.0,2601.4400813482544,0.254182087555234,1.3272910854822875,0.9334942761654068,0.2879432,0.6584201063897512
0.0265,1.78244375,1.0,2613.9769769703494,0.25836553822245273,1.3268781280377921,0.9354186210260046,0.2879156375,0.6592815351100407
0.027,1.781775,1.0,2625.6459304101877,0.26252552206774754,1.3264678477922887,0.9372502755034502,0.28788755,0.6601363021615787
0.0275,1.7810937500000001,1.0,2636.48995187727,0.2666621704481566,1.3260597915339225,0.9389950843965158,0.2878589375,0.6609853709976243
0.028,1.7804,1.0,2646.552883255016,0.2707756147207181,1.3256535060508399,0.9406584382128571,0.2878298,0.661829700244884
0.0285,1.77969375,1.0,2655.878651202506,0.2748659858912789,1.3252485443060187,0.9422453151868302,0.2878001375,0.6626702309528565
0.029,1.778975,1.0,2664.5030244794507,0.2789334103793836,1.3248445405536569,0.943760327131768,0.28776995,0.6635077310984809
0.029500000000000002,1.7782437500000001,1.0,2672.47641517264,0.2829780243821369,1.3244409996641857,0.945207728121873,0.2877392375,0.6643432325794127
0.03,1.7775,1.0,2679.8269814215114,0.28699995327586303,1.324037636010708,0.9465914838916992,0.287708,0.6651773292365815
0.0305,1.77674375,1.0,2686.5832853327374,0.2909993224368863,1.3236341639663272,0.9479152725795856,0.2876762375,0.666010611970078
0.031,1.775975,1.0,2692.7742570128044,0.29497625724153087,1.3232302979041466,0.9491825091979519,0.28764395,0.6668436687397853
0.0315,1.7751937500000001,1.0,2698.429160409081,0.2989308830661209,1.322825752197269,0.9503963677346161,0.2876111375,0.6676770845608018
0.032,1.7744,1.0,2703.577560959824,0.30286332528698073,1.3224202412187984,0.951559801140064,0.2875778,0.6685114414936603
0.0325,1.77359375,1.0,2708.2492950534233,0.3067737092804345,1.3220134793418374,0.9526755594256542,0.2875439375,0.6693473186293497
0.033,1.772775,1.0,2712.4673101518856,0.31066215562095345,1.321605245962044,0.9537462122958228,0.28750955,0.6701851587043788
0.0335,1.7719437500000002,1.0,2716.260165096355,0.3145287900573984,1.3211952711253812,0.9547741531443741,0.2874746375,0.6710255032101177
0.034,1.7711000000000001,1.0,2719.661536347221,0.31837374234175847,1.320783239997216,0.9557616131644093,0.2874392,0.6718689825793641
0.0345,1.7702437500000001,1.0,2722.6889885275036,0.3221971309793397,1.3203689859908694,0.9567106912706691,0.2874032375,0.6727159209667798
0.035,1.7693750000000001,1.0,2725.3602074690184,0.32599907447544835,1.3199523425196629,0.9576233510175604,0.28736675,0.6735666406765954
0.035500000000000004,1.76849375,1.0,2727.6929878804476,0.32977969133539053,1.319533142996917,0.9585014308940791,0.2873297375,0.6744214621381115
0.036000000000000004,1.7676,1.0,2729.7052216297125,0.33353910006447246,1.3191112208359532,0.9593466537227048,0.2872922,0.6752807038794244
0.0365,1.76669375,1.0,2731.4148866423516,0.3372774191680002,1.318686409450092,0.960160635249501,0.2872541375,0.6761446824993886
0.037,1.765775,1.0,2732.840036414594,0.3409947671512801,1.318258542252655,0.9609448920033161,0.28721555,0.6770137126378031
0.0375,1.76484375,1.0,2733.9987901423374,0.3446912625196182,1.3178274526569627,0.9617008484937235,0.2871764375,0.6778881069438334
0.038,1.7639,1.0,2734.9093234647576,0.34836702377832074,1.3173929740763364,0.9624298438100404,0.28713679999999997,0.6787681760426597
0.0385,1.76294375,1.0,2735.584114346768,0.3520221640119785,1.3169549920901793,0.9631331414998697,0.28709663750000003,0.679654123052023
0.039,1.761975,1.0,2736.039421995106,0.35565680240178404,1.316513358292496,0.9638119291347608,0.28705595,0.680546218183693
0.0395,1.7609937500000001,1.0,2736.2937864200985,0.35927105933146425,1.3160679038730787,0.9644673238527469,0.2870147375,0.681444770858668
0.04,1.76,1.0,2736.3571851230613,0.362865046240503,1.3156185379994176,0.9651003841209013,0.286973,0.6823499313492034
0.0405,1.7589937500000001,1.0,2736.2396167782117,0.36643887456838414,1.3151651698390028,0.9657121084691904,0.2869307375,0.6832618485980629
0.041,1.757975,1.0,2735.9510978325648,0.3699926557545916,1.314707708559324,0.9663034395098977,0.28688795,0.6841806701955984
0.0415,1.75694375,1.0,2735.5016592885268,0.37352650123860925,1.3142460633278712,0.966875267647126,0.2868446375,0.6851065423562996
0.042,1.7559,1.0,2734.9013436700716,0.37704052245992103,1.3137801433121346,0.9674284345032406,0.28680079999999997,0.6860396098948225
0.0425,1.75484375,1.0,2734.1602021715175,0.3805348308580107,1.313309857679604,0.9679637360865377,0.2867564375,0.6869800162014867
0.043000000000000003,1.753775,1.0,2733.2882919886383,0.38400953787236225,1.3128351155977698,0.9684819257221214,0.28671155,0.6879279032172514
0.043500000000000004,1.75269375,1.0,2732.2956738341777,0.38746475494245947,1.3123558262341213,0.9689837167659054,0.28666613750000003,0.6888834114081615
0.044,1.7516,1.0,2731.1895983874097,0.3909005926278174,1.3118719243014085,0.9694697869987685,0.2866202,0.6898466289302823
0.0445,1.75049375,1.0,2729.980304090455,0.39431715886016794,1.3113833173715077,0.9699407764820532,0.2865737375,0.6908176966285552
0.045,1.7493750000000001,1.0,2728.6752029557624,0.39771456104106856,1.3108899386865738,0.9703972942676633,0.28652675,0.691796702880926
0.0455,1.74824375,1.0,2727.2780059360393,0.40109290615904053,1.3103917551283986,0.9708399208909401,0.2864792375,0.6927836682025263
0.046,1.7471000614099685,1.0,2725.79547412394,0.4044523012026049,1.3098887335787732,0.9712692076285203,0.28643120257921867,0.6937786122479086
0.0465,1.745951300461708,1.0,2724.592463863544,0.407792852540383,1.3093808818561739,0.9716856811684034,0.2863829546193917,0.6947814730290057
0.047,1.7448025395134472,1.0,2723.8820474003664,0.4111146666645203,1.3088685502407125,0.9720898669537249,0.2863347066595648,0.6957915136230883
0.0475,1.7436537785651867,1.0,2723.62716100186,0.4144178480475086,1.3083520742370274,0.9724822632910857,0.28628645869973784,0.6968080303371262
0.048,1.742505017616926,1.0,2723.792585398525,0.41770250084907146,1.307831773727422,0.9728633431228412,0.2862382107399109,0.6978303542213942
0.0485,1.7413562566686653,1.0,2724.343199992349,0.42096872922893247,1.3073079685941995,0.9732335566385412,0.28618996278008396,0.6988578202758498
0.049,1.7402074957204048,1.0,2725.2473067982237,0.4242166365169263,1.3067809482462902,0.9735933303960604,0.28614171482025696,0.6998898271463871
0.0495,1.7390587347721442,1.0,2726.4736879087927,0.42744632625526724,1.306250998199048,0.973943070613279,0.28609346686043,0.7009257847643071
0.05,1.7379099738238835,1.0,2727.998264242405,0.43065789986414404,1.3057183393583274,0.9742831599845757,0.2860452189006031,0.701965232716794
0.0505,1.736761212875623,1.0,2729.797029664091,0.4338514587492767,1.3051831921887964,0.9746139635131883,0.28599697094077614,0.7030077143031128
0.051000000000000004,1.7356124519273624,1.0,2731.8494650433095,0.43702710254365673,1.30464574557998,0.9749358272617509,0.2859487229809492,0.7040528370536291
0.051500000000000004,1.7344636909791016,1.0,2734.1344983697177,0.44018493145411786,1.3041061934964613,0.9752490820312746,0.28590047502112226,0.705100201138689
0.052000000000000005,1.733314930030841,1.0,2736.6205609315552,0.44332505191132865,1.30356482515031,0.9755540505447696,0.2858522270612953,0.7061492249089978
0.0525,1.7321661690825805,1.0,2739.29479213995,0.44644756095848703,1.3030217597044043,0.9758510294609317,0.2858039791014684,0.7071996592654537
0.053,1.7310174081343197,1.0,2742.144325842571,0.449552555638791,1.3024771163216222,0.9761403024153692,0.28575573114164143,0.7082512567020276
0.0535,1.7298686471860591,1.0,2745.1562859971395,0.4526401329954383,1.3019310141648421,0.9764221407070333,0.2857074831818145,0.7093037713182075
0.054,1.7287198862377986,1.0,2748.3177826600017,0.45571039007162695,1.3013835723969422,0.9766968039428775,0.28565923522198755,0.7103569588305392
0.0545,1.727571125289538,1.0,2751.6159082894333,0.45876342391055486,1.3008349101808006,0.9769645406436168,0.2856109872621606,0.7114105765832579
0.055,1.7264223643412773,1.0,2755.0377343637074,0.4617993315554198,1.3002851466792953,0.9772255888132406,0.28556273930233367,0.7124643835580169
0.0555,1.7252736033930167,1.0,2758.57030831406,0.4648182100494198,1.2997344010553045,0.9774801764747285,0.2855144913425067,0.7135181403827102
0.056,1.7241248424447562,1.0,2762.203298328616,0.46782015381498576,1.2991827685493027,0.9777285205336443,0.2854662433826798,0.7145716549846122
0.0565,1.7229760814964954,1.0,2765.9270780380402,0.4708052589342891,1.2986303378322805,0.9779708287387912,0.2854179954228528,0.715624749126843
0.057,1.7218273205482348,1.0,2769.729938065895,0.4737736239026829,1.2980772161735237,0.9782073016395335,0.28536974746302585,0.7166772104535792
0.0575,1.7206785595999743,1.0,2773.6062032851733,0.47672534052020876,1.297523456168463,0.9784381279770763,0.2853214995031989,0.7177289318545048
0.058,1.7195297986517135,1.0,2777.550185125053,0.479660500586908,1.2969691104125298,0.9786634889302493,0.28527325154337196,0.7187798069540519
0.0585,1.718381037703453,1.0,2781.556180857042,0.4825791959028221,1.2964142315011553,0.9788835584801576,0.285225003583545,0.7198297301134551
0.059000000000000004,1.7172322767551924,1.0,2785.6184729427873,0.4854815182679926,1.295858872029771,0.9790985037544774,0.2851767556237181,0.7208785964326263
0.059500000000000004,1.7160835158069316,1.0,2789.7313284429197,0.4883675594824608,1.2953030845938076,0.979308485352687,0.28512850766389114,0.7219263017518576
0.06,1.714934754858671,1.0,2793.888998487295,0.4912374113462682,1.2947469217886969,0.9795136576534268,0.2850802597040642,0.7229727426533412
0.0605,1.7137859939104105,1.0,2798.0857178066353,0.4940911656594563,1.2941904362098695,0.979714169105103,0.28503201174423726,0.7240178164625214
0.061,1.7126372329621498,1.0,2802.319493836083,0.4969289046400222,1.2936336464580085,0.9799101599426046,0.28498376378441026,0.7250614849099913
0.0615,1.7114884720138892,1.0,2806.583944262317,0.4997507249876731,1.2930766104327374,0.9801017683057159,0.2849355158245833,0.7261036365346221
0.062,1.7103397110656287,1.0,2810.87183140546,0.5025567261746573,1.2925193935236337,0.980289127751265,0.2848872678647564,0.7271441467237423
0.0625,1.7091909501173679,1.0,2815.1811541576103,0.5053469937970202,1.29196201405481,0.9804723633839165,0.28483901990492944,0.728182979429397
0.063,1.7080421891691073,1.0,2819.509905330298,0.5081216134508075,1.2914044903503783,0.9806515957014346,0.2847907719451025,0.7292200988636361
0.0635,1.7068934282208468,1.0,2823.856071592094,0.5108806707320644,1.2908468407344504,0.980826940799142,0.28474252398527555,0.7302554694986901
0.064,1.705744667272586,1.0,2828.2176334139044,0.5136242512368367,1.290289083531139,0.9809985105638557,0.2846942760254486,0.7312890560671284
0.0645,1.7045959063243254,1.0,2832.5925650213358,0.5163524405611698,1.289731237064556,0.9811664128579102,0.28464602806562167,0.7323208235619965
0.065,1.703447145376065,1.0,2836.978834354874,0.5190653243011091,1.2891733196588133,0.9813307516938462,0.28459778010579473,0.7333507372369317
0.0655,1.7022983844278041,1.0,2841.374403037242,0.5217629880526999,1.2886153496380233,0.9814916274003036,0.2845495321459678,0.734378762606255
0.066,1.7011496234795436,1.0,2845.777226348335,0.5244455174119881,1.2880573453262982,0.9816491367796164,0.28450128418614085,0.7354048654450439
0.0665,1.700000862531283,1.0,2850.1852532076005,0.527112997975019,1.2874993250477498,0.9818033732575877,0.2844530362263139,0.7364290117891847
0.067,1.6988521015830222,1.0,2854.596426163793,0.5297655153378379,1.2869413071264906,0.9819544270258803,0.28440478826648696,0.7374511679353987
0.0675,1.6977033406347617,1.0,2859.008681392112,0.5324031550964905,1.2863833098866326,0.9821023851774408,0.28435654030666,0.7384713004412531
0.068,1.6965545796865011,1.0,2863.421344892129,0.5350259905134442,1.2858253392617467,0.9822473304498853,0.284308292346833,0.7394893987114395
0.0685,1.6954058187382404,1.0,2867.834245219738,0.5376340985149803,1.2852673967106478,0.9823893428169401,0.2842600443870061,0.7405054603760519
0.069,1.6942570577899798,1.0,2872.2431818770406,0.5402275931218651,1.2847095193886497,0.9825285035786102,0.28421179642717914,0.7415194182700385
0.0695,1.6931082968417193,1.0,2876.647713223983,0.5428065523026411,1.2841517110559393,0.9826648875023436,0.2841635484673522,0.7425312662754529
0.07,1.6919595358934585,1.0,2881.0473963502604,0.5453710540258513,1.2835939754727026,0.9827985668854724,0.28411530050752526,0.7435409983277683
0.07050000000000001,1.690810774945198,1.0,2885.4417870808893,0.5479211762600387,1.2830363163991263,0.9829296116538279,0.2840670525476983,0.7445486084158599
0.07100000000000001,1.6896620139969374,1.0,2889.8304399826625,0.5504569969737461,1.282478737595397,0.9830580894557808,0.2840188045878714,0.7455540905819862
0.07150000000000001,1.6885132530486766,1.0,2894.212908370518,0.5529785941355163,1.2819212428217008,0.9831840657519475,0.28397055662804443,0.7465574389217717
0.07200000000000001,1.687364492100416,1.0,2898.5887443143874,0.5554860457138923,1.2813638358382244,0.9833076039007919,0.28392230866821744,0.7475586475841859
