Time [s],Phi [rad],STIM [ ],Fsee [N],Gamma [ ],Lcerel [ ],q [ ],Lmtc [m],fisomrel [ ]
0.0,1.8,1.0,18.034494618641197,0.00026235303685953653,1.3793322093402591,0.005017876621545941,0.288653,0.5411577645313708
0.0005,1.79999375,1.0,18.425547770581268,0.0058700907526363574,1.3792858921109357,0.01365592854716878,0.2886527375,0.5412698088189147
0.001,1.799975,1.0,21.9544949414136,0.011446373493568114,1.3789041054847184,0.03693569486133431,0.28865195,0.5421928534656422
0.0015,1.79994375,1.0,31.811337116079475,0.016991377698180078,1.377983352355308,0.07241041718754417,0.2886506375,0.5444151318311323
0.002,1.7999,1.0,55.1315587194946,0.02250527881313947,1.3762683455765998,0.11685484654105956,0.2886488,0.5485399621079352
0.0025,1.79984375,1.0,99.68141561571686,0.027988251302211466,1.3738124914921006,0.16689635593197352,0.28864643749999996,0.5544139706775135
0.003,1.7997750000000001,1.0,164.26584636163724,0.033440468651894276,1.3710911637799852,0.21967334075048336,0.28864354999999997,0.56087802348347
0.0035,1.79969375,1.0,241.40598364596812,0.03886210337280489,1.3684705122062506,0.2729914556161712,0.2886401375,0.5670582960282633
0.004,1.7996,1.0,325.41872717564496,0.04425332700983654,1.3660517399156429,0.32521789521761646,0.2886362,0.5727236087523295
0.0045000000000000005,1.7994937500000001,1.0,413.35434675737014,0.04961431014755931,1.3638271244579716,0.3752190973961355,0.2886317375,0.5779012229229709
0.005,1.799375,1.0,503.5787510974646,0.054945222401999644,1.3617700149816911,0.42229083741646695,0.28862675,0.5826608936866933
0.0055,1.79924375,1.0,594.9891629562047,0.060246232458572704,1.3598569469638864,0.46606523893685187,0.2886212375,0.5870630667150213
0.006,1.7991000000000001,1.0,686.7181330369225,0.0655175080398402,1.3580701865694316,0.5064180891007609,0.2886152,0.5911535124047591
0.006500000000000001,1.79894375,1.0,778.0526545174008,0.07075921591410701,1.3563961408391811,0.543389892289304,0.2886086375,0.5949674451369216
0.007,1.798775,1.0,868.4063762789248,0.07597152200368645,1.3548239138114306,0.5771249019574621,0.28860155,0.5985331319755691
0.0075,1.79859375,1.0,957.2881140270723,0.08115459106071708,1.353344630329532,0.6078270044348003,0.2885939375,0.6018736358969592
0.008,1.7984,1.0,1044.322856502835,0.08630858737099809,1.3519503340122383,0.6357287390151379,0.2885858,0.6050094463924551
0.0085,1.79819375,1.0,1129.189389994562,0.09143367376357286,1.3506344305920088,0.6610714765581177,0.2885771375,0.6079575767966128
0.009000000000000001,1.797975,1.0,1211.6429160402226,0.09653001227893794,1.349390934573298,0.6840922664778913,0.28856795,0.6107333381313693
0.0095,1.79774375,1.0,1291.5234892043886,0.10159776469114395,1.3482141060354373,0.7050161287402938,0.2885582375,0.613351200120986
0.01,1.7975,1.0,1368.693636666685,0.10663709097710342,1.3470990883326408,0.7240523867777603,0.288548,0.6158234147916124
0.0105,1.79724375,1.0,1443.0637329109409,0.11164815041730174,1.3460413649472092,0.7413926272137393,0.2885372375,0.6181612683210217
0.011,1.796975,1.0,1514.5938366807752,0.11663110164092831,1.3450366109642857,0.7572103505871008,0.28852595000000003,0.6203754371628831
0.0115,1.79669375,1.0,1583.278842860365,0.1215861030200089,1.3440807767354837,0.7716616158284209,0.2885141375,0.6224758261514868
0.012,1.7964,1.0,1649.1033958429473,0.1265133105202481,1.3431705240347458,0.784886308842447,0.28850180000000003,0.6244706359493557
0.0125,1.79609375,1.0,1712.091303252151,0.13141288001443358,1.34230253868288,0.7970091426664404,0.2884889375,0.6263678954440545
0.013000000000000001,1.7957750000000001,1.0,1772.282308341524,0.13628496641774226,1.341473749125899,0.8081411716209203,0.28847555,0.6281749957203526
0.0135,1.79544375,1.0,1829.758230967605,0.1411297252981073,1.3406809792809768,0.8183810541293672,0.2884616375,0.6298994590438605
0.014,1.7951000000000001,1.0,1884.5608129678023,0.14594730888578905,1.3399218226291267,0.8278167204555421,0.2884472,0.6315470487898358
0.0145,1.79474375,1.0,1936.7487330527874,0.15073786910220158,1.3391939442506962,0.8365263146645799,0.2884322375,0.6331233041570652
0.015,1.794375,1.0,1986.4018734667168,0.15550155786875897,1.3384950092260335,0.8445792983322052,0.28841675,0.6346337013044245
0.0155,1.79399375,1.0,2033.6023176760607,0.16023852579838394,1.3378228632488014,0.8520375253316836,0.2884007375,0.6360832687065741
0.016,1.7936,1.0,2078.4505187459895,0.1649489242193839,1.3371753363875938,0.8589560774391656,0.2883842,0.6374770170022735
0.0165,1.7931937500000001,1.0,2121.0123496224483,0.169632900953955,1.336550774411041,0.8653842234713264,0.2883671375,0.6388188017963286
0.017,1.792775,1.0,2161.364434363522,0.17429060372028016,1.3359475371884368,0.8713659556734352,0.28834955,0.6401124115338771
0.0175,1.7923437500000001,1.0,2199.594460963786,0.17892218023654233,1.3353639845890746,0.8769406092477564,0.2883314375,0.6413616002568208
0.018000000000000002,1.7919,1.0,2235.7812971831704,0.18352777653811334,1.33479866663256,0.8821434597607201,0.2883128,0.642569683740625
0.0185,1.79144375,1.0,2270.032759210721,0.18810754074964667,1.3342499309576836,0.8870060951657865,0.2882936375,0.643740381552244
0.019,1.790975,1.0,2302.416379635841,0.19266161638569923,1.333716607774447,0.8915570123788686,0.28827395,0.6448763574474362
0.0195,1.79049375,1.0,2333.0027818384956,0.1971901466537001,1.3331975598123345,0.8958218593678665,0.2882537375,0.6459801853798017
0.02,1.79,1.0,2361.8683750051246,0.2016932747610785,1.33269164980083,0.8998237507052709,0.288233,0.6470544201301078
0.0205,1.78949375,1.0,2389.0936940634338,0.20617114370635847,1.3321977518572057,0.9035835543580077,0.2882117375,0.6481015741741658
0.021,1.788975,1.0,2414.751997385591,0.21062389480077573,1.33171485693485,0.9071201629437248,0.28818995000000003,0.6491238956909822
0.021500000000000002,1.78844375,1.0,2438.926440870964,0.21505167142104187,1.3312419006730172,0.9104506750726402,0.2881676375,0.6501237348167317
0.022,1.7879,1.0,2461.675129624679,0.2194546119641167,1.3307780957226938,0.913590653710312,0.2881448,0.6511028424428202
0.0225,1.78734375,1.0,2483.0592019299916,0.2238328548269601,1.3303226547348665,0.916554235740292,0.28812143749999997,0.6520629584467799
0.023,1.786775,1.0,2503.1425778229163,0.22818653840653189,1.3298747903605221,0.9193542823782116,0.28809755,0.6530058121320204
0.0235,1.78619375,1.0,2521.9917214112643,0.2325158010997919,1.3294337152506472,0.9220025119447707,0.28807313749999996,0.6539331226280468
0.024,1.7856,1.0,2539.663817727798,0.2368207781650038,1.3289987513579964,0.9245096354521543,0.2880482,0.6548463699135181
0.0245,1.78499375,1.0,2556.227125040311,0.24110161051456266,1.3285691350268023,0.9268854282202715,0.2880227375,0.6557472050629432
0.025,1.784375,1.0,2571.7296664049095,0.2453584322083898,1.3281443098590382,0.9291388676868545,0.28799675,0.65663683643857
0.025500000000000002,1.78374375,1.0,2586.2179629593006,0.24959137632673598,1.3277237471927437,0.9312781838690741,0.2879702375,0.6575164079271258
0.026000000000000002,1.7831000000000001,1.0,2599.739847811941,0.25380057594985206,1.3273069183659585,0.9333109279010688,0.2879432,0.6583870573653692
0.0265,1.78244375,1.0,2612.3443530100712,0.2579861641579889,1.3268932947167225,0.9352440371995804,0.2879156375,0.6592499166748917
0.027,1.781775,1.0,2624.0816027048313,0.26214827403139745,1.3264823475830747,0.937083893579465,0.28788755,0.6601061119790956
0.0275,1.7810937500000001,1.0,2634.9919862183797,0.2662870359296605,1.3260736475339672,0.9388363890053735,0.2878589375,0.6609565573466012
0.028,1.7804,1.0,2645.1210220024136,0.27040258309414583,1.3256667252997476,0.9405069521471778,0.2878298,0.6618022450017179
0.0285,1.77969375,1.0,2654.5219268522305,0.2744950492134919,1.3252610477703055,0.9421005861739363,0.2878001375,0.6626442946535811
0.029,1.778975,1.0,2663.2257581791127,0.2785645613003752,1.324856292580607,0.9436219430427275,0.28776995,0.663483383835405
0.029500000000000002,1.7782437500000001,1.0,2671.264099070592,0.2826112463674726,1.3244521373656188,0.9450753275037583,0.2877392375,0.6643201867311276
0.03,1.7775,1.0,2678.6690125026043,0.2866352314274605,1.3240482597603074,0.9464647274575411,0.287708,0.6651553741910599
0.0305,1.77674375,1.0,2685.472997855698,0.29063664349301577,1.323644337399639,0.9477938412974269,0.2876762375,0.6659896137409078
0.031,1.775975,1.0,2691.708949734989,0.29461560957681493,1.32324004791858,0.9490661025696279,0.28764395,0.666823569584165
0.0315,1.7751937500000001,1.0,2697.410119094233,0.29857225669153464,1.322835068952097,0.9502847022429747,0.2876111375,0.667657902597879
0.032,1.7744,1.0,2702.602065569868,0.3025067083769752,1.322429151314387,0.9514526167199008,0.2875778,0.6684931198427426
0.0325,1.77359375,1.0,2707.317797012527,0.30641909259026756,1.3220219801918387,0.9525726110280293,0.2875439375,0.6693298605654562
0.033,1.772775,1.0,2711.5876028568155,0.31030953480176093,1.3216132678858363,0.9536472648947915,0.28750955,0.6701687051013816
0.0335,1.7719437500000002,1.0,2715.432393782269,0.3141781558444988,1.321202814143642,0.9546789938546394,0.2874746375,0.6710100516141739
0.034,1.7711000000000001,1.0,2718.87324763401,0.31802507655152473,1.3207904187125172,0.9556700535116346,0.2874392,0.6718542961168619
0.0345,1.7702437500000001,1.0,2721.9313925352594,0.3218504177558822,1.320375881339724,0.9566225520148772,0.2874032375,0.6727018324483263
0.035,1.7693750000000001,1.0,2724.6281908887554,0.3256543002906146,1.319959001772524,0.9575384614214585,0.28736675,0.6735530522472257
0.035500000000000004,1.76849375,1.0,2726.9851242674736,0.3294368449887656,1.3195395797581793,0.958419628057777,0.2873297375,0.6744083449233617
0.036000000000000004,1.7676,1.0,2729.0237791940895,0.3331981726833786,1.319117415043951,0.9592677819779207,0.2872922,0.6752680976264881
0.0365,1.76669375,1.0,2730.7532118480262,0.33693839716960183,1.3186924220795049,0.9600845556549386,0.2872541375,0.6761324620825853
0.037,1.765775,1.0,2732.2028126302525,0.340657645249275,1.3182643311729283,0.9608714656788266,0.28721555,0.677001962701048
0.0375,1.76484375,1.0,2733.3934508943084,0.34435603650403146,1.317832950737452,0.9616299426416454,0.2871764375,0.6778769624538407
0.038,1.7639,1.0,2734.3373951949197,0.34803368516967337,1.3173981678160724,0.9623613377183483,0.28713679999999997,0.6787576628412
0.0385,1.76294375,1.0,2735.046957280982,0.35169070548200254,1.3169598694517866,0.9630669219062113,0.28709663750000003,0.6796442638938343
0.039,1.761975,1.0,2735.534486620097,0.35532721167682113,1.3165179426875906,0.9637478916516197,0.28705595,0.6805369641480075
0.0395,1.7609937500000001,1.0,2735.812365206946,0.35894331798993095,1.3160722745664815,0.9644053740235257,0.2870147375,0.6814359606198048
0.04,1.76,1.0,2735.8930026532216,0.3625391386571341,1.3156227521314556,0.965040431474572,0.286973,0.6823414487785897
0.0405,1.7589937500000001,1.0,2735.7888315615533,0.3661147879142325,1.3151692624255098,0.9656540662267663,0.2869307375,0.6832536225196433
0.041,1.757975,1.0,2735.5123031817816,0.36967037999702823,1.3147116924916407,0.9662472243149741,0.28688795,0.6841726741359917
0.0415,1.75694375,1.0,2735.0758833501163,0.3732060291413231,1.3142499293728447,0.9668207993182159,0.2868446375,0.6850987942894201
0.042,1.7559,1.0,2734.490084176445,0.37672184024607464,1.3137838779526971,0.967375635744075,0.28680079999999997,0.6860321362785934
0.0425,1.75484375,1.0,2733.7668894068165,0.38021793644642193,1.3133134298244444,0.9679125342080513,0.2867564375,0.6869728784810043
0.043000000000000003,1.753775,1.0,2732.91399851386,0.3836944264746371,1.312838515541913,0.9684322531597288,0.28671155,0.6879211198773347
0.043500000000000004,1.75269375,1.0,2731.9388687470655,0.3871514178728821,1.312359067903716,0.9689355107718494,0.28666613750000003,0.6888769537574035
0.044,1.7516,1.0,2730.8489606390935,0.39058901818331904,1.3118750197084672,0.9694229874882954,0.2866202,0.6898404721997551
0.0445,1.75049375,1.0,2729.651736399949,0.3940073349481101,1.3113863037547802,0.9698953283756727,0.2865737375,0.6908117660520912
0.045,1.7493750000000001,1.0,2728.354658410273,0.39740647570941723,1.3108928528412684,0.9703531453059813,0.28652675,0.6917909249114076
0.0455,1.74824375,1.0,2726.9651878152163,0.40078654800940255,1.3103945997665454,0.9707970189840395,0.2864792375,0.6927780371038461
0.046,1.7471,1.0,2725.490783218409,0.4041476593902282,1.309891477329225,0.9712275008321055,0.2864312,0.6937731896642554
0.0465,1.7459437500000001,1.0,2723.9388994758237,0.40748991739405616,1.3093834183279203,0.9716451147430354,0.28638263750000004,0.6947764683154691
0.047,1.744775,1.0,2722.313528706991,0.41081341857292464,1.308870387033544,0.9720503595441268,0.28633355,0.6957878954520047
0.0475,1.74359375,1.0,2720.611881869785,0.4141182425793329,1.3083524094415142,0.9724437119216552,0.28628393750000003,0.6968073711467244
0.048,1.7424,1.0,2718.8567123431408,0.4174045528350773,1.3078292789831485,0.9728256197223448,0.2862338,0.6978352519155451
0.0485,1.74119375,1.0,2717.050866569011,0.4206724477279757,1.3073009702029403,0.9731965136462091,0.2861831375,0.698871536072486
0.049,1.739975,1.0,2715.19718877939,0.4239220256458457,1.306767457645383,0.9735568039424585,0.28613195,0.6999162210771308
0.0495,1.73874375,1.0,2713.2985207403462,0.42715338497650507,1.3062287158549692,0.9739068815639748,0.2860802375,0.7009693035262006
0.05,1.7375,1.0,2711.3577015099663,0.4303666241077715,1.3056847193761925,0.9742471192465145,0.286028,0.7020307791450844
0.0505,1.73624375,1.0,2709.377567210626,0.4335618414274628,1.3051354427535462,0.9745778725181765,0.2859752375,0.7031006427793283
0.051000000000000004,1.734975,1.0,2707.360950816192,0.4367391353233967,1.3045808605315234,0.9748994806442296,0.28592195,0.7041788883860863
0.051500000000000004,1.73369375,1.0,2705.3106819528975,0.43989860418339083,1.3040209472546174,0.9752122675119705,0.2858681375,0.7052655090255266
0.052000000000000005,1.7324,1.0,2703.229586714752,0.443040346395263,1.3034556774673212,0.975516542459916,0.2858138,0.7063604968521976
0.0525,1.73109375,1.0,2701.1204874939035,0.44616446034683094,1.3028850257141282,0.9758126010552838,0.28575893750000003,0.7074638431063517
0.053,1.729775,1.0,2698.9862028244875,0.44927104442591237,1.3023089665395318,0.9761007258234102,0.28570355000000003,0.7085755381052304
0.0535,1.72844375,1.0,2696.829547241461,0.452360197020325,1.301727474488025,0.9763811869324619,0.2856476375,0.7096955712343056
0.054,1.7271,1.0,2694.6533311537078,0.45543201651788656,1.3011405241041007,0.9766542428365403,0.2855912,0.7108239309384806
0.0545,1.7257437500000001,1.0,2692.460360731084,0.45848660130641483,1.3005480899322528,0.9769201408800378,0.2855342375,0.7119606047132477
0.055,1.724375,1.0,2690.2534378064183,0.46152404977372746,1.2999501465169743,0.977179117865887,0.28547675,0.713105579095809
0.0555,1.72299375,1.0,2688.035359791686,0.4645444603076423,1.2993466684027581,0.9774314005901451,0.2854187375,0.7142588396561517
0.056,1.7216,1.0,2685.8089196081514,0.46754793129597694,1.2987376301340976,0.9776772063451651,0.2853602,0.7154203709880839
0.0565,1.72019375,1.0,2683.5769056314098,0.47053456112654923,1.2981230062554863,0.9779167433934501,0.28530113749999997,0.7165901567002274
0.057,1.718775,1.0,2681.3414062409192,0.4735044158318295,1.2975027776889432,0.9781502088712459,0.28524155,0.7177681673066431
0.0575,1.71734375,1.0,2679.1032460233637,0.47645762478505055,1.2968769369197426,0.9783777981869778,0.2851814375,0.71895435052663
0.058,1.7159,1.0,2676.863330723087,0.4793942811934643,1.2962454756757702,0.9785996955702149,0.2851208,0.7201486547883822
0.0585,1.71444375,1.0,2674.622559776584,0.48231447405403394,1.295608385729034,0.9788160774952259,0.2850596375,0.7213510276998556
0.059000000000000004,1.7129750000000001,1.0,2672.381831121597,0.4852182923637228,1.294965658851542,0.9790271134152682,0.28499795,0.722561416129706
0.059500000000000004,1.71149375,1.0,2670.142041195194,0.48810582511949424,1.2943172868153023,0.9792329660950537,0.2849357375,0.7237797662043337
0.06,1.71,1.0,2667.9040849327866,0.4909771613183114,1.293663261392323,0.9794337919249535,0.284873,0.7250060233049243
0.0605,1.7084937500000001,1.0,2665.668855769108,0.4938323899571375,1.2930035743546118,0.9796297412180833,0.2848097375,0.7262401320644818
0.061,1.7069750000000001,1.0,2663.4372456402707,0.496671600032936,1.292338217474177,0.9798209584913188,0.28474595,0.7274820363648621
0.0615,1.7054437500000001,1.0,2661.2101449873867,0.49949488054266994,1.291667182523027,0.9800075827312342,0.2846816375,0.7287316793337986
0.062,1.7039,1.0,2658.9884427624706,0.5023023204833027,1.2909904612731693,0.9801897476458751,0.2846168,0.7299890033419265
0.0625,1.70234375,1.0,2656.7730264342854,0.5050940088517977,1.290308045496612,0.9803675819032216,0.2845514375,0.7312539499997992
0.063,1.7007750000000001,1.0,2654.564781997214,0.5078700346451178,1.2896199269653636,0.9805412093571433,0.28448555,0.7325264601549025
0.0635,1.69919375,1.0,2652.364593981079,0.5106304868602267,1.2889260974514316,0.9807107492615842,0.28441913750000003,0.7338064738886666
0.064,1.6976,1.0,2650.1733454616883,0.5133754544940874,1.2882265487268245,0.9808763164736788,0.2843522,0.7350939305134676
0.0645,1.69599375,1.0,2647.9919180745633,0.5161050265436632,1.2875212725635499,0.9810380216464427,0.2842847375,0.7363887685696329
0.065,1.694375,1.0,2645.8212798811583,0.5188192881485897,1.2868102599225388,0.9811959710979316,0.28421675,0.7376909273060132
0.0655,1.69274375,1.0,2643.6636299632,0.5215182689560807,1.286093490380654,0.9813502628713261,0.2841482375,0.739000365949664
0.066,1.6911,1.0,2641.5172782416967,0.5242021371198556,1.2853709794169923,0.9815010028812801,0.2840792,0.740316977380697
0.0665,1.6894437500000001,1.0,2639.3822386777865,0.5268709722098499,1.284642726785157,0.9816482863915232,0.2840096375,0.7416406826795614
0.067,1.687775,1.0,2637.2585252511067,0.5295248537959983,1.2839087322387517,0.9817922053129257,0.28393955,0.7429714022914056
0.0675,1.68609375,1.0,2635.146151960873,0.5321638614482364,1.2831689955313792,0.981932848343531,0.2838689375,0.7443090560259877
0.068,1.6844000000000001,1.0,2633.045132825859,0.5347880747364988,1.2824235164166435,0.9820703011017851,0.2837978,0.7456535630575825
0.0685,1.68269375,1.0,2630.9554818851852,0.537397573230721,1.2816722946481476,0.9822046462533348,0.2837261375,0.7470048419248951
0.069,1.680975,1.0,2628.8772131989163,0.539992436500838,1.280915329979495,0.9823359636317528,0.28365395,0.7483628105309674
0.0695,1.67924375,1.0,2626.810340848334,0.5425727441167847,1.280152622164289,0.9824643303535133,0.28358123749999997,0.7497273861430904
0.07,1.6775,1.0,2624.754878936733,0.5451385756484965,1.279384170956133,0.9825898209275346,0.283508,0.7510984853927111
0.07050000000000001,1.67574375,1.0,2622.7108415899847,0.5476900106659084,1.2786099761086305,0.9827125073595763,0.2834342375,0.7524760242753455
0.07100000000000001,1.673975,1.0,2620.678242956662,0.5502271287389555,1.2778300373753846,0.9828324592517681,0.28335995,0.753859918150486
0.07150000000000001,1.67219375,1.0,2618.65709720899,0.552750009437573,1.277044354509999,0.9829497438975255,0.2832851375,0.7552500817415115
0.07200000000000001,1.6704,1.0,2616.647418543486,0.555258732331696,1.2762529272660765,0.9830644263720973,0.2832098,0.756646429135599
0.0725,1.66859375,1.0,2614.649221180858,0.5577533769912594,1.2754557553972212,0.9831765696189725,0.2831339375,0.7580488737836296
0.073,1.6667750000000001,1.0,2612.6625193673176,0.5602340229861985,1.2746528386570362,0.9832862345323616,0.28305755,0.7594573285001023
0.0735,1.66494375,1.0,2610.6873273746414,0.5627007498864485,1.2738441767991244,0.9833934800359543,0.2829806375,0.7608717054630417
0.074,1.6631,1.0,2608.7236595007507,0.5651536372619442,1.2730297695770898,0.9834983631581455,0.2829032,0.762291916213907
0.0745,1.6612437500000001,1.0,2606.7715300704813,0.5675927646826211,1.2722096167445354,0.9836009391039089,0.2828252375,0.7637178716575037
0.075,1.659375,1.0,2604.830953435971,0.570018211718414,1.271383718055065,0.9837012613234885,0.28274675,0.7651494820618912
0.0755,1.65749375,1.0,2602.9019439772756,0.5724300579392583,1.2705520732622813,0.9837993815780666,0.2826677375,0.7665866570582947
