Time [s],Phi [rad],STIM [ ],Fsee [N],Gamma [ ],Lcerel [ ],q [ ],Lmtc [m],fisomrel [ ]
0.0,1.8,1.0,17.967883469987914,1.977408926167168e-05,1.3793396649624152,0.005000103653124208,0.288653,0.5411397276345745
0.0005,1.79999375,1.0,18.280444563395854,0.005628872481056601,1.379301976765972,0.01296767039101666,0.2886527375,0.541230900578527
0.001,1.799975,1.0,21.629311943157017,0.011206508265747385,1.3789371858767918,0.03565952404499454,0.28865195,0.5421129118615362
0.0015,1.79994375,1.0,31.09553975954298,0.016752857924553853,1.378043963213463,0.0706714353450422,0.2886506375,0.5442690110901083
0.002,1.7999,1.0,53.639319392357066,0.022268096947028432,1.3763644392417314,0.11480041517165393,0.2886488,0.5483093395225036
0.0025,1.79984375,1.0,97.21483463436113,0.02775239983868833,1.3739305473527565,0.1646645123899561,0.28864643749999996,0.5541324800907778
0.003,1.7997750000000001,1.0,161.0832314237666,0.0332059401286427,1.371209663378148,0.21737291159048566,0.28864354999999997,0.5605975312968176
0.0035,1.79969375,1.0,237.8247911273798,0.03862889036925438,1.3685803775518848,0.2707048499162244,0.2886401375,0.5668000806240755
0.004,1.7996,1.0,321.61737306411817,0.044021422146904146,1.366152103998762,0.32300484731419693,0.2886362,0.5724892753102032
0.0045000000000000005,1.7994937500000001,1.0,409.4237889441795,0.04938370608718034,1.3639191517053746,0.37311903690837145,0.2886317375,0.5776876626978334
0.005,1.799375,1.0,499.5727653398373,0.05471591184598487,1.3618549583298978,0.42032654587813933,0.28862675,0.5824648888139923
0.0055,1.79924375,1.0,590.951165790137,0.06001820815663814,1.359935694612762,0.4642469197836625,0.2886212375,0.5868823206110603
0.006,1.7991000000000001,1.0,682.6791073004563,0.06529076277396845,1.3581434883871826,0.5047472530682687,0.2886152,0.5909861024421558
0.006500000000000001,1.79894375,1.0,774.0434293026087,0.07053374252675648,1.3564644853893826,0.5418622652527525,0.2886086375,0.5948120875512841
0.007,1.798775,1.0,864.44883190524,0.0757473133168857,1.3548877618138295,0.5757328040959849,0.28860155,0.5983886368455695
0.0075,1.79859375,1.0,953.4046715611182,0.08093164008458269,1.3534042959338404,0.6065608590785294,0.2885939375,0.6017391696923042
0.008,1.7984,1.0,1040.5184731530567,0.08608688688723648,1.3520062904842594,0.6345783309307776,0.2885858,0.604883837562217
0.0085,1.79819375,1.0,1125.4772176826737,0.09121321683028084,1.3506869342405092,0.6600264172373177,0.2885771375,0.6078401599266351
0.009000000000000001,1.797975,1.0,1208.0385925158405,0.0963107921113671,1.3494401438702013,0.6831424993404873,0.28856795,0.610623679374914
0.0095,1.79774375,1.0,1288.0154350467985,0.1013797736785312,1.3482604931888957,0.7041523947445326,0.2885582375,0.6132481788387345
0.01,1.7975,1.0,1365.307819217138,0.1064203230491519,1.3471425760514875,0.7232658779347708,0.288548,0.6157271425138305
0.0105,1.79724375,1.0,1439.8018915859373,0.11143259869307193,1.346082164281432,0.7406754779211923,0.2885372375,0.61807122310676
0.011,1.796975,1.0,1511.4454530160926,0.11641675902212915,1.3450750482581273,0.7565555235603006,0.28852595000000003,0.6202908516251631
0.0115,1.79669375,1.0,1580.2270901251547,0.12137296185784789,1.3441172158187327,0.7710628178251966,0.2885141375,0.6223958602588131
0.012,1.7964,1.0,1646.1722377221129,0.12630136506660192,1.3432048162698336,0.7843376997841499,0.28850180000000003,0.6243955806415491
0.0125,1.79609375,1.0,1709.2922615066266,0.13120212403990783,1.3423346760952528,0.7965055812600753,0.2884889375,0.6262977345113467
0.013000000000000001,1.7957750000000001,1.0,1769.610942800153,0.13607539317141892,1.3415038943136042,0.8076781551801869,0.28847555,0.6281093436500085
0.0135,1.79544375,1.0,1827.1838023487667,0.14092132685478853,1.3407095699435017,0.8179546864203164,0.2884616375,0.6298373372095477
0.014,1.7951000000000001,1.0,1882.0765318938415,0.14574007845459755,1.3399490074343905,0.8274234341856046,0.2884472,0.6314881133430252
0.0145,1.79474375,1.0,1934.3782732306042,0.1505318016185609,1.339219531068984,0.8361628207934301,0.2884322375,0.6330679519813092
0.015,1.794375,1.0,1984.1462182037712,0.15529664691750977,1.3385190500799378,0.844242754020893,0.28841675,0.6345818008066856
0.0155,1.79399375,1.0,2031.451834042276,0.16003476469659392,1.3378455151868474,0.8517254346339844,0.2884007375,0.6360344638652222
0.016,1.7936,1.0,2076.3811091259045,0.16474630511021648,1.3371968975483968,0.8586662591609369,0.2883842,0.6374306514149746
0.0165,1.7931937500000001,1.0,2119.0232927443994,0.1694314173816132,1.3365712890952617,0.8651146557720174,0.2883671375,0.6387747683569955
0.017,1.792775,1.0,2159.4744520307568,0.174090251084582,1.3359668469136834,0.8711147748175628,0.28834955,0.6400710388229516
0.0175,1.7923437500000001,1.0,2197.8025896305876,0.17872295229149304,1.335382131861801,0.8767062024748008,0.2883314375,0.6413227858030404
0.018000000000000002,1.7919,1.0,2234.085133681473,0.18332966707471643,1.3348157047977536,0.8819243847869052,0.2883128,0.6425333029999476
0.0185,1.79144375,1.0,2268.408151195005,0.1879105415066223,1.33426612657968,0.8868011112083404,0.2882936375,0.6437058565733971
0.019,1.790975,1.0,2300.8508669746725,0.19246571996611056,1.3337321039979653,0.891364973458079,0.28827395,0.6448433761514392
0.0195,1.79049375,1.0,2331.512072885536,0.19699534917651465,1.3332122183956903,0.8956416678397063,0.2882537375,0.6459490354331086
0.02,1.79,1.0,2360.46083515929,0.20149957145954062,1.3327054055721954,0.8996544329569759,0.288233,0.6470252331091868
0.0205,1.78949375,1.0,2387.7634256934957,0.2059785281539836,1.332210678046732,0.9034242610597812,0.2882117375,0.6480741881113858
0.021,1.788975,1.0,2413.4906175751653,0.21043236059863865,1.3317270483385515,0.9069701303877402,0.28818995000000003,0.6490981039559705
0.021500000000000002,1.78844375,1.0,2437.7173077007697,0.21486121013230083,1.331253528966905,0.9103092260241503,0.2881676375,0.6500991694737623
0.022,1.7879,1.0,2460.5127988878253,0.21926521636761961,1.330789222080087,0.9134571514434546,0.2881448,0.651079370394295
0.0225,1.78734375,1.0,2481.953659242073,0.2236445210796617,1.3303331917524837,0.9164280738304315,0.28812143749999997,0.6520407602889569
0.023,1.786775,1.0,2502.1019914997205,0.2279992627795942,1.3298846683336465,0.9192349121322804,0.28809755,0.652985030607143
0.0235,1.78619375,1.0,2521.0113368848065,0.23232957771014368,1.329442986840474,0.9218894548149914,0.28807313749999996,0.6539136429261074
0.024,1.7856,1.0,2538.737368284267,0.23663560211403675,1.3290074822898652,0.9244024574499488,0.2880482,0.6548280503739925
0.0245,1.78499375,1.0,2555.3377110440783,0.24091747223399995,1.3285774896987186,0.9267837474417416,0.2880227375,0.6557296979058944
0.025,1.784375,1.0,2570.871773570229,0.2451753243127599,1.328152344083933,0.9290423168685331,0.28799675,0.6566200225517222
0.025500000000000002,1.78374375,1.0,2585.3886764536405,0.24940929117115912,1.3277314917078926,0.9311864219188242,0.2879702375,0.6575002211190035
0.026000000000000002,1.7831000000000001,1.0,2598.953216147697,0.25361951170590596,1.327314245374751,0.9332236184999797,0.2879432,0.6583717626746086
0.0265,1.78244375,1.0,2611.60829795609,0.2578061179839541,1.3269001340388638,0.9351608797490716,0.2879156375,0.6592356580528473
0.027,1.781775,1.0,2623.3935431904597,0.26196924072698846,1.3264887265916543,0.9370046254039365,0.28788755,0.6600928297466837
0.0275,1.7810937500000001,1.0,2634.349471424871,0.2661090106566938,1.3260795919245452,0.9387607679163197,0.2878589375,0.6609441955686293
0.028,1.7804,1.0,2644.5174227526522,0.27022555849475505,1.32567229892896,0.9404347592461106,0.2878298,0.6617906687191522
0.0285,1.77969375,1.0,2653.9394841651615,0.27431901496285704,1.3252664164963213,0.942031632772456,0.2878001375,0.6626331578432452
0.029,1.778975,1.0,2662.6580117343988,0.2783895105428664,1.3248615172757845,0.943556041320904,0.28776995,0.6634725592897806
0.029500000000000002,1.7782437500000001,1.0,2670.7073546876063,0.2824371704936621,1.3244572530935468,0.9450122993937415,0.2877392375,0.6643096011319838
0.03,1.7775,1.0,2678.1362291794276,0.2864621310601014,1.3240531485355382,0.9464043907033552,0.287708,0.6651452708042231
0.0305,1.77674375,1.0,2684.9715170336062,0.2904645169337383,1.323648933098767,0.9477360326230898,0.2876762375,0.6659801278827481
0.031,1.775975,1.0,2691.240460972952,0.29444445280612686,1.3232443362802422,0.9490106760883932,0.28764395,0.6668147291541636
0.0315,1.7751937500000001,1.0,2696.9706322387374,0.29840206336882114,1.3228390875769716,0.9502315280155296,0.2876111375,0.6676496286111878
0.032,1.7744,1.0,2702.1898998327542,0.30233747331337507,1.322432916485964,0.9514015715725568,0.2875778,0.6684853774437352
0.0325,1.77359375,1.0,2706.9264013815073,0.3062508073313428,1.322025552504228,0.9525235845314463,0.2875439375,0.6693225240253404
0.033,1.772775,1.0,2711.2085156224084,0.31014219011427835,1.321616725128772,0.9536001559035802,0.28750955,0.6701616138949105
0.0335,1.7719437500000002,1.0,2715.061591513245,0.3140117433521038,1.3212061934307437,0.9546337035995764,0.2874746375,0.67100312915093
0.034,1.7711000000000001,1.0,2718.5080863517283,0.3178595869276619,1.320793744482457,0.9556264880750291,0.2874392,0.6718474920310081
0.0345,1.7702437500000001,1.0,2721.582752528415,0.321685854882608,1.3203790548500784,0.9565806134687391,0.2874032375,0.672695348256921
0.035,1.7693750000000001,1.0,2724.302242109889,0.3254906648996181,1.3199619672600587,0.957498061825052,0.28736675,0.6735470009791874
0.035500000000000004,1.76849375,1.0,2726.683314137115,0.3292741346613684,1.3195423244388476,0.958380688735055,0.2873297375,0.6744027515695736
0.036000000000000004,1.7676,1.0,2728.7428235764396,0.333036381850535,1.3191199691128959,0.9592302328547372,0.2872922,0.6752628995962513
0.0365,1.76669375,1.0,2730.497710819302,0.33677752414979406,1.3186947440086534,0.9600483246029269,0.2872541375,0.6761277427973817
0.037,1.765775,1.0,2731.964991730358,0.34049767924182167,1.3182664918525706,0.9608364941181066,0.28721555,0.6769975770531174
0.0375,1.76484375,1.0,2733.1617482437487,0.344196964809294,1.3178350553710978,0.9615961785448118,0.2871764375,0.6778726963560306
0.038,1.7639,1.0,2734.105119508275,0.34787549853488714,1.317400277290685,0.9623287287128954,0.28713679999999997,0.6787533927799627
0.0385,1.76294375,1.0,2734.812293580493,0.3515333981012772,1.3169620003377824,0.9630354152663634,0.28709663750000003,0.6796399564472947
0.039,1.761975,1.0,2735.3004996661857,0.3551707811911404,1.3165200672388406,0.9637174342926432,0.28705595,0.6805326754946422
0.0395,1.7609937500000001,1.0,2735.577919755152,0.35878775404281354,1.3160744031727678,0.9643759178309452,0.2870147375,0.6814316698309268
0.04,1.76,1.0,2735.6666796022455,0.36238444574109785,1.3156248069600218,0.9650119259457057,0.286973,0.6823373126002837
0.0405,1.7589937500000001,1.0,2735.576616581234,0.365960967757085,1.3151711891985096,0.9656264651845093,0.2869307375,0.6832497496785628
0.041,1.757975,1.0,2735.3168703487345,0.36951743054477926,1.3147134669807023,0.9662204860277837,0.28688795,0.6841691125669208
0.0415,1.75694375,1.0,2734.8965951978366,0.3730539445581852,1.3142515573990714,0.9667948862372878,0.2868446375,0.685095531480415
0.042,1.7559,1.0,2734.3249573023268,0.37657062025130716,1.3137853775460888,0.96735051432089,0.28680079999999997,0.6860291353260795
0.0425,1.75484375,1.0,2733.6111321134226,0.3800675680781496,1.3133148445142255,0.967888172735351,0.2867564375,0.6869700516805698
0.043000000000000003,1.753775,1.0,2732.7643019081056,0.38354489849271706,1.3128398753959534,0.9684086208493979,0.28671155,0.6879184067673609
0.043500000000000004,1.75269375,1.0,2731.7936534911146,0.3870027219490138,1.3123603872837435,0.9689125776872706,0.28666613750000003,0.6888743254335133
0.044,1.7516,1.0,2730.708376047849,0.39044114890104425,1.3118762972700677,0.9694007244710495,0.2866202,0.6898379311259961
0.0445,1.75049375,1.0,2729.5176591512536,0.393860289802813,1.3113875224473972,0.9698737069783772,0.2865737375,0.6908093458675756
0.045,1.7493750000000001,1.0,2728.2234059480234,0.3972602379970317,1.3108940461412912,0.970332140337166,0.28652675,0.6917885589091093
0.0455,1.74824375,1.0,2726.8399690939405,0.4006411194832133,1.3103957384993483,0.9707766044436349,0.2864792375,0.6927757829127684
0.046,1.7471,1.0,2725.37627843547,0.40400304781572655,1.3098925189106072,0.9712076518131849,0.2864312,0.6937711311327772
0.0465,1.7459437500000001,1.0,2723.836691844674,0.40734612550170235,1.309384348313242,0.9716258089024993,0.28638263750000004,0.6947746333507354
0.047,1.744775,1.0,2722.2255656697953,0.41067045504827165,1.308871187645427,0.9720315761505609,0.28633355,0.6957863183753297
0.0475,1.74359375,1.0,2720.5472541513855,0.4139761389625653,1.3083529978453374,0.9724254295062146,0.28628393750000003,0.6968062140299532
0.048,1.7424,1.0,2718.8061088712834,0.4172632797517143,1.3078297398511471,0.972807821852226,0.2862338,0.6978343471402266
0.0485,1.74119375,1.0,2717.0064782366344,0.42053197992284946,1.3073013746010311,0.9731791843337474,0.2861831375,0.6988707435214182
0.049,1.739975,1.0,2715.1527069966255,0.42378234198310183,1.3067678630331636,0.9735399275984352,0.28613195,0.6999154279657722
0.0495,1.73874375,1.0,2713.249135793805,0.42701446843960217,1.306229166085719,0.9738904429548474,0.2860802375,0.7009684242297356
0.05,1.7375,1.0,2711.300100748937,0.43022846179948143,1.3056852446968723,0.9742311034552019,0.286028,0.7020297550210883
0.0505,1.73624375,1.0,2709.3099330796176,0.4334244245698706,1.3051360598047976,0.9745622649080723,0.2859752375,0.7030994419859788
0.051000000000000004,1.734975,1.0,2707.282958752954,0.43660245925790053,1.3045815723476697,0.9748842668261423,0.28592195,0.7041775056958586
0.051500000000000004,1.73369375,1.0,2705.223498171908,0.4397626683707021,1.304021743263663,0.975197433313722,0.2858681375,0.7052639656343221
0.052000000000000005,1.7324,1.0,2703.135817615246,0.4429051534234896,1.303456533931934,0.9755020738199441,0.2858138,0.7063588393304114
0.0525,1.73109375,1.0,2701.0233450793203,0.44602998906102637,1.3028859133364157,0.9757984816503931,0.28575893750000003,0.7074621285151954
0.053,1.729775,1.0,2698.890983709128,0.4491373121131337,1.302309836931788,0.9760869428303457,0.28570355000000003,0.7085738599945017
0.0535,1.72844375,1.0,2696.7403697936393,0.4522272165692248,1.3017282899791867,0.9763677282407615,0.2856476375,0.7096940019969256
0.054,1.7271,1.0,2694.573137266412,0.4552997964187134,1.3011412577397465,0.9766410970273531,0.2855912,0.7108225219608532
0.0545,1.7257437500000001,1.0,2692.390917650801,0.45835514565101265,1.3005487254746033,0.9769072972056835,0.2855342375,0.7119593865293098
0.055,1.724375,1.0,2690.1953400101943,0.4613933582555361,1.299950678444892,0.9771665662301501,0.28547675,0.7131045615447992
0.0555,1.72299375,1.0,2687.988030902988,0.4644145282216973,1.299347101911748,0.9774191315292912,0.2854187375,0.714258012044125
0.056,1.7216,1.0,2685.770614342421,0.4674187495389096,1.2987379811363067,0.9776652110096714,0.2853602,0.7154197022532005
0.0565,1.72019375,1.0,2683.5447117611498,0.47040611619658645,1.298123301379703,0.9779050135304328,0.28530113749999997,0.7165895955818453
0.057,1.718775,1.0,2681.3119419806835,0.4733767221841413,1.297503047903073,0.9781387393504452,0.28524155,0.7177676546185647
0.0575,1.71734375,1.0,2679.0739211856257,0.4763306614909876,1.296877205967551,0.9783665805498457,0.2851814375,0.7189538411253198
0.058,1.7159,1.0,2676.8322629026093,0.47926802810653873,1.296245760834273,0.9785887214276288,0.2851208,0.7201481160322791
0.0585,1.71444375,1.0,2674.5885779845316,0.48218891602020825,1.2956086977643742,0.9788053388768275,0.2850596375,0.7213504394325603
0.059000000000000004,1.7129750000000001,1.0,2672.344474598829,0.4850934192214095,1.2949660020189897,0.9790166027387173,0.28499795,0.7225607705769559
0.059500000000000004,1.71149375,1.0,2670.1015582213104,0.48798163169955605,1.294317658859255,0.979222676137369,0.2849357375,0.7237790678686453
0.06,1.71,1.0,2667.861231743028,0.49085364214348576,1.293663655384111,0.9794237154620282,0.284873,0.7250052854159506
0.0605,1.7084937500000001,1.0,2665.623457974296,0.4937094907070815,1.2930039919165317,0.9796198678240721,0.2848097375,0.7262393517888298
0.061,1.7069750000000001,1.0,2663.392377272037,0.4965493465185737,1.2923386303393485,0.9798112829289202,0.28474595,0.7274812666177097
0.0615,1.7054437500000001,1.0,2661.1683062217544,0.4993732939528465,1.291667567671662,0.9799980998427361,0.2846816375,0.7287309629097464
0.062,1.7039,1.0,2658.951560888251,0.5021814173847842,1.2909908009325721,0.9801804523581776,0.2846168,0.7299883729994266
0.0625,1.70234375,1.0,2656.7424568186484,0.5049738011892707,1.2903083271411797,0.9803584692322869,0.2845514375,0.7312534285474802
0.063,1.7007750000000001,1.0,2654.5413090470265,0.5077505297411903,1.289620143316585,0.9805322744119208,0.28448555,0.7325260605397983
0.0635,1.69919375,1.0,2652.3484320985126,0.5105116874154271,1.2889262464778883,0.9807019872474662,0.28441913750000003,0.7338061992863474
0.064,1.6976,1.0,2650.1641399931523,0.513257358586865,1.28822663364419,0.9808677226955236,0.2843522,0.7350937744200823
0.0645,1.69599375,1.0,2647.9887462512684,0.5159876276303885,1.2875213018345908,0.9810295915112109,0.2842847375,0.7363887148958614
0.065,1.694375,1.0,2645.8225638976915,0.5187025789208816,1.2868102480681907,0.9811877004306855,0.28421675,0.7376909489893588
0.0655,1.69274375,1.0,2643.6659054668,0.5214022968332281,1.2860934693640902,0.9813421523444522,0.2841482375,0.739000404295977
0.066,1.6911,1.0,2641.5190830079205,0.5240868657423126,1.2853709627413898,0.9814930464619853,0.2840792,0.7403170077297586
0.0665,1.6894437500000001,1.0,2639.3824080906365,0.5267563700230189,1.2846427252191899,0.9816404784681532,0.2840096375,0.7416406855222983
0.067,1.687775,1.0,2637.256191810097,0.5294108940502312,1.2839087538165908,0.9817845406719162,0.28393955,0.7429713632216532
0.0675,1.68609375,1.0,2635.140744793102,0.5320505221988338,1.2831690455526927,0.9819253221477249,0.2838689375,0.7443089656912533
0.068,1.6844000000000001,1.0,2633.0363772039377,0.5346753388437107,1.2824235974465965,0.9820629088700282,0.2837978,0.7456534171088101
0.0685,1.68269375,1.0,2630.9433987504726,0.5372854283597458,1.281672406517402,0.9821973838412734,0.2837261375,0.7470046409652276
0.069,1.680975,1.0,2628.8621186906717,0.5398808751218236,1.2809154697842102,0.9823288272137509,0.28365395,0.7483625600635092
0.0695,1.67924375,1.0,2626.7928458389238,0.542461763504828,1.280152784266121,0.982457316405626,0.28358123749999997,0.7497270965176669
0.07,1.6775,1.0,2624.7358885729886,0.5450281778836432,1.279384346982235,0.9825829262114663,0.283508,0.7510981717516266
0.07050000000000001,1.67574375,1.0,2622.691554840972,0.5475802026331533,1.2786101549516524,0.9827057289075682,0.2834342375,0.7524757064981386
0.07100000000000001,1.673975,1.0,2620.657364209983,0.5501178747400784,1.2778302310558483,0.982825792643627,0.28335995,0.7538595749727487
0.07150000000000001,1.67219375,1.0,2618.6351096141298,0.5526413141145511,1.2770445585553478,0.9829431865511195,0.2832851375,0.7552497212208943
0.07200000000000001,1.6704,1.0,2616.6259387994824,0.5551506211290339,1.2762531266750818,0.9830579765498831,0.2832098,0.7566460778132691
0.0725,1.66859375,1.0,2614.6296031068587,0.5576458703991295,1.2754559375928045,0.9831702254436208,0.2831339375,0.7580485537145057
0.073,1.6667750000000001,1.0,2612.6458543199665,0.5601271365404406,1.27465299348627,0.9832799939955943,0.28305755,0.7594570572992058
0.0735,1.66494375,1.0,2610.6744446595644,0.5625944941685695,1.273844296533233,0.9833873410068176,0.2829806375,0.7608714963527383
0.074,1.6631,1.0,2608.715126778338,0.5650480178991192,1.2730298489114478,0.9834923233907518,0.2829032,0.7622917780720408
0.0745,1.6612437500000001,1.0,2606.7676537560405,0.5674877823476919,1.2722096527986682,0.9835949962446833,0.2828252375,0.7637178090664175
0.075,1.659375,1.0,2604.8317790940696,0.5699138621298905,1.2713837103726489,0.9836954129179498,0.28274675,0.7651494953583362
0.0755,1.65749375,1.0,2602.907256710752,0.5723263318613173,1.2705520238111443,0.9837936250771719,0.2826677375,0.7665867423842284
