Time [s],Phi [rad],STIM [ ],Fsee [N],Gamma [ ],Lcerel [ ],q [ ],Lmtc [m],fisomrel [ ]
0.0,1.8,1.0,17.967563449774726,1.0007642187510156e-05,1.3793397008148174,0.005000026692359769,0.288653,0.5411396408983573
0.0005,1.79999375,1.0,18.276860465090135,0.005619160816023514,1.3793023748687454,0.012940534913383053,0.2886527375,0.5412299375603628
0.001,1.799975,1.0,21.6184632514079,0.011196851075476822,1.3789382937699066,0.03560861547409807,0.28865195,0.5421102344220408
0.0015,1.79994375,1.0,31.069235632647885,0.016743254903480713,1.3780462037606365,0.07060175802805249,0.2886506375,0.5442636091268218
0.002,1.7999,1.0,53.58214976195712,0.022258547791318934,1.376368147132221,0.11471789915839986,0.2886488,0.548300439490621
0.0025,1.79984375,1.0,97.11835206240286,0.027742904246185994,1.373935195477503,0.16457474222218385,0.28864643749999996,0.5541213953545971
0.003,1.7997750000000001,1.0,160.95744982748903,0.03319649779890749,1.3712143705940463,0.21728029823082737,0.28864354999999997,0.5605863873229148
0.0035,1.79969375,1.0,237.6825415444221,0.03861950100352926,1.3685847585672195,0.27061273318045237,0.2886401375,0.5667897823722721
0.004,1.7996,1.0,321.4659612459519,0.044012085448100216,1.3661561138524472,0.32291565108416626,0.2886362,0.5724799116341637
0.0045000000000000005,1.7994937500000001,1.0,409.26695423281114,0.04937442175985668,1.3639228328648039,0.3730343647734362,0.2886317375,0.5776791190040051
0.005,1.799375,1.0,499.41271497785243,0.05470667959631065,1.3618583591170401,0.42024732764866485,0.28862675,0.5824570406158267
0.0055,1.79924375,1.0,590.7896470312161,0.06000902769273146,1.3599388500840186,0.4641735756728106,0.2886212375,0.5868750771689872
0.006,1.7991000000000001,1.0,682.5173550349652,0.06528163380526417,1.3581464284402651,0.5046798503147969,0.2886152,0.5909793871029403
0.006500000000000001,1.79894375,1.0,773.8806055634392,0.07052466476656619,1.3564672647524265,0.5418006582943257,0.2886086375,0.594805769004858
0.007,1.798775,1.0,864.2851226912517,0.07573828646939734,1.354890406118053,0.5756766898238054,0.28860155,0.5983826519303683
0.0075,1.79859375,1.0,953.2426312405187,0.08092266387635545,1.3534067881762866,0.6065098334990604,0.2885939375,0.6017335525220706
0.008,1.7984,1.0,1040.3440970534923,0.08607796061553993,1.3520088577311484,0.634532104770514,0.2885858,0.6048780742309059
0.0085,1.79819375,1.0,1125.3141827233437,0.09120434079915586,1.3506892421325642,0.6599843667352756,0.2885771375,0.6078349982541063
0.009000000000000001,1.797975,1.0,1207.8999453220847,0.09630196636311796,1.3494420382651153,0.683104134853424,0.28856795,0.6106194575673523
0.0095,1.79774375,1.0,1287.8919649476795,0.10137099782778225,1.348262126989489,0.7041174259107954,0.2885582375,0.6132445500789447
0.01,1.7975,1.0,1365.1667468300827,0.10641159571350478,1.3471443891663724,0.7232341810837225,0.288548,0.6157231284129663
0.0105,1.79724375,1.0,1439.6591082734785,0.1114239199758252,1.3460839512800995,0.740646618593418,0.2885372375,0.6180672789105668
0.011,1.796975,1.0,1511.3219910893697,0.11640812938253968,1.345076556368261,0.7565290897570504,0.28852595000000003,0.6202875326690767
0.0115,1.79669375,1.0,1580.1207263516553,0.12136438111130853,1.344118486476722,0.7710385752717062,0.2885141375,0.6223930716357466
0.012,1.7964,1.0,1646.056779772076,0.1262928318025324,1.3432061676613836,0.784315558008391,0.28850180000000003,0.6243926227014869
0.0125,1.79609375,1.0,1709.1737475548885,0.1311936383061194,1.3423360374027067,0.7964852978038454,0.2884889375,0.6262947624215964
0.013000000000000001,1.7957750000000001,1.0,1769.506561034193,0.13606695548663175,1.3415050726777644,0.8076594661278117,0.28847555,0.6281067772173305
0.0135,1.79544375,1.0,1827.0915505641958,0.14091293679985317,1.3407105948317604,0.8179374421840727,0.2884616375,0.6298351102340181
0.014,1.7951000000000001,1.0,1881.9926896507263,0.14573173570156742,1.3399499252098988,0.8274075084409138,0.2884472,0.6314861235643631
0.0145,1.79474375,1.0,1934.2788644224438,0.15052350460796848,1.339220604433223,0.836148176392546,0.2884322375,0.6330656298723176
0.015,1.794375,1.0,1984.0509181972195,0.15528839654382354,1.3385200660915852,0.844229198210642,0.28841675,0.6345796073129744
0.0155,1.79399375,1.0,2031.3712239652389,0.16002656122374895,1.3378463645193766,0.8517128292175621,0.2884007375,0.6360326338681139
0.016,1.7936,1.0,2076.3114472764205,0.1647381480048239,1.3371976235414862,0.8586545284504822,0.2883842,0.6374290901721115
0.0165,1.7931937500000001,1.0,2118.957582244238,0.1694233062441275,1.3365719669828033,0.8651037421983285,0.2883671375,0.6387733132695368
0.017,1.792775,1.0,2159.3908231289806,0.17408218403438805,1.335967701535433,0.8711046689350426,0.28834955,0.6400692076689996
0.0175,1.7923437500000001,1.0,2197.7183856286956,0.17871493044897407,1.3353829848242853,0.8766967851508591,0.2883314375,0.6413209613850549
0.018000000000000002,1.7919,1.0,2234.011156429546,0.18332169093084585,1.3348164480552673,0.8819155677249157,0.2883128,0.6425317159172655
0.0185,1.79144375,1.0,2268.343391629995,0.18790261055965335,1.3342667722841624,0.8867928457655946,0.2882936375,0.6437044800597193
0.019,1.790975,1.0,2300.796871432395,0.19245783441504657,1.3337326385667534,0.8913572101169854,0.28827395,0.644842238377783
0.0195,1.79049375,1.0,2331.4517717593762,0.19698750646918722,1.3332128114531527,0.8956344043207971,0.2882537375,0.6459477751386662
0.02,1.79,1.0,2360.3971509786265,0.2014917717898481,1.332706028049431,0.8996476226439434,0.288233,0.6470239123073064
0.0205,1.78949375,1.0,2387.704622543422,0.20597077249459544,1.3322112495187837,0.9034178506996751,0.2882117375,0.6480729773379097
0.021,1.788975,1.0,2413.4393288406136,0.21042464916202752,1.3317275441183902,0.9069640834963866,0.28818995000000003,0.6490970550802981
0.021500000000000002,1.78844375,1.0,2437.670403459196,0.2148535423707425,1.3312539801054293,0.9103035209089139,0.2881676375,0.6500982164040556
0.022,1.7879,1.0,2460.4706354458954,0.21925759269933864,1.33078962573708,0.9134517620847564,0.2881448,0.6510785188288348
0.0225,1.78734375,1.0,2481.903880568354,0.2236369384043438,1.3303336662522935,0.9164229985357515,0.28812143749999997,0.6520397606515254
0.023,1.786775,1.0,2502.0496119390314,0.22799172159364436,1.3298851656113626,0.9192301193085591,0.28809755,0.652983984405497
0.0235,1.78619375,1.0,2520.963626469285,0.23232207910438565,1.3294434380884141,0.9218849120588287,0.28807313749999996,0.653912694835731
0.024,1.7856,1.0,2538.697648186509,0.23662814647655667,1.329007856650778,0.924398141692623,0.2880482,0.6548272648662665
0.0245,1.78499375,1.0,2555.3052906465487,0.24091005925014639,1.3285777942657844,0.9267796439583844,0.2880227375,0.6557290596793108
0.025,1.784375,1.0,2570.8418973672074,0.24516795296514388,1.3281526239007637,0.9290384183951073,0.28799675,0.6566194369484819
0.025500000000000002,1.78374375,1.0,2585.364390979341,0.2494019631615381,1.3277317185230462,0.9311827108518016,0.2879702375,0.6574997470469734
0.026000000000000002,1.7831000000000001,1.0,2598.9196038953583,0.2536122218194909,1.3273145584777062,0.9332201027344694,0.2879432,0.6583711090833682
0.0265,1.78244375,1.0,2611.570473334418,0.2577988672136301,1.3269004855260713,0.9351575396883988,0.2879156375,0.6592349252640908
0.027,1.781775,1.0,2623.3580636607317,0.26196203064887325,1.3264890555455082,0.9370014412009066,0.28788755,0.6600921447991137
0.0275,1.7810937500000001,1.0,2634.3201942646992,0.26610184208060533,1.3260798628069768,0.9387577247415707,0.2878589375,0.6609436322442067
0.028,1.7804,1.0,2644.4954776884633,0.27021843146421126,1.3256725015814375,0.9404318468217654,0.2878298,0.6617902478115071
0.0285,1.77969375,1.0,2653.923250544044,0.27431192875507593,1.3252665661398497,0.9420288449517092,0.2878001375,0.6626328474221644
0.029,1.778975,1.0,2662.6435080804586,0.27838246390858434,1.324861650753174,0.9435533752724543,0.28776995,0.6634722827484782
0.029500000000000002,1.7782437500000001,1.0,2670.696842401264,0.28243016688012146,1.32445734969237,0.9450097463557413,0.2877392375,0.6643094012455458
0.03,1.7775,1.0,2678.113958192338,0.28645516036439955,1.3240533529028418,0.9464019598503493,0.287708,0.6651448484452369
0.0305,1.77674375,1.0,2684.9443623020893,0.2904575824309035,1.3236491819639535,0.9477337100106458,0.2876762375,0.6659796142030092
0.031,1.775975,1.0,2691.214065429963,0.29443755723440707,1.3232445779057564,0.9490084499843019,0.28764395,0.6668142310412288
0.0315,1.7751937500000001,1.0,2696.948594385232,0.2983952083959858,1.3228392890975722,0.9502293894708946,0.2876111375,0.6676492136957086
0.032,1.7744,1.0,2702.1737624002635,0.3023306595367155,1.3224330639087223,0.9513995142029216,0.2875778,0.6684850742934751
0.0325,1.77359375,1.0,2706.9156421581874,0.30624403427767194,1.3220256507085284,0.9525216043167822,0.2875439375,0.6693223223397604
0.033,1.772775,1.0,2711.2005402242894,0.3101354562399308,1.321616797866312,0.953598251005492,0.28750955,0.6701614647009559
0.0335,1.7719437500000002,1.0,2715.054972881487,0.31400504904456783,1.3212062537513947,0.9546318716321909,0.2874746375,0.671003005583529
0.034,1.7711000000000001,1.0,2718.505643369174,0.31785293631265876,1.320793766733098,0.9556247234630905,0.2874392,0.6718474465088989
0.0345,1.7702437500000001,1.0,2721.573381523789,0.32167923697680373,1.3203791401528482,0.9565789209954468,0.2874032375,0.6726951739633982
0.035,1.7693750000000001,1.0,2724.2813375179003,0.32548407424902137,1.3199621574564455,0.9574964410953614,0.28736675,0.6735466128693137
0.035500000000000004,1.76849375,1.0,2726.65820734756,0.3292675759736257,1.3195425527684446,0.9583791304198861,0.2873297375,0.6744022862570977
0.036000000000000004,1.7676,1.0,2728.719226860816,0.3330298587447226,1.3191201836283437,0.9592287294139332,0.2872922,0.6752624630134317
0.0365,1.76669375,1.0,2730.4797126444073,0.33677103915641765,1.3186949075756402,0.9600468701657342,0.2872541375,0.6761274103487058
0.037,1.765775,1.0,2731.9550531495174,0.3404912338028167,1.3182665821498327,0.9608350843727712,0.28721555,0.6769973937712493
0.0375,1.76484375,1.0,2733.160700268119,0.3441905592780256,1.3178350648904182,0.9615948106365841,0.2871764375,0.6778726770602794
0.038,1.7639,1.0,2734.1121613585706,0.34786913217615,1.3174002133368954,0.9623274011497964,0.28713679999999997,0.6787535222375425
0.0385,1.76294375,1.0,2734.824991722297,0.35152706909129566,1.3169618850287614,0.9630341278321138,0.28709663750000003,0.6796401895376729
0.039,1.761975,1.0,2735.3147875287673,0.35516448661756844,1.3165199375055148,0.9637161879662047,0.28705595,0.6805329373772482
0.0395,1.7609937500000001,1.0,2735.59717919238,0.358781501349074,1.3160742283066529,0.9643747093792037,0.2870147375,0.681432022322557
0.04,1.76,1.0,2735.6835727684647,0.36237822491990973,1.3156246535809262,0.9650107577502971,0.286973,0.6823376213390318
0.0405,1.7589937500000001,1.0,2735.5870588118446,0.3659547737373879,1.315171094388148,0.965625337863434,0.2869307375,0.6832499402492891
0.041,1.757975,1.0,2735.323597438849,0.36951126699326253,1.314713405899084,0.9662193963750226,0.28688795,0.6841692351638982
0.0415,1.75694375,1.0,2734.9017582165725,0.37304781431276895,1.3142515105155288,0.9667938315025062,0.2868446375,0.6850956254423102
0.042,1.7559,1.0,2734.3301223437093,0.37656452532114254,1.313785330639277,0.9673494921867855,0.28680079999999997,0.6860292291951517
0.0425,1.75484375,1.0,2733.617280242716,0.3800615096436186,1.3133147886721235,0.9678871812963414,0.2867564375,0.6869701632632099
0.043000000000000003,1.753775,1.0,2732.771829285411,0.3835388769054326,1.3128398070158622,0.9684076585915738,0.28671155,0.6879185431960398
0.043500000000000004,1.75269375,1.0,2731.802371652539,0.3869967367318197,1.3123603080722883,0.9689116434695466,0.28666613750000003,0.6888744832301822
0.044,1.7516,1.0,2730.717512326152,0.39043519874801536,1.3118762142431961,0.9693998175074477,0.2866202,0.6898380962670028
0.0445,1.75049375,1.0,2729.5258572163484,0.3938543725792549,1.3113874479303804,0.9698728268213797,0.2865737375,0.6908094938501423
0.045,1.7493750000000001,1.0,2728.236011420798,0.39725436785077367,1.3108939315356356,0.9703312842555846,0.28652675,0.6917887861425878
0.0455,1.74824375,1.0,2726.8549257411105,0.4006352935701671,1.3103956024829702,0.9707757724637355,0.2864792375,0.6927760521659247
0.046,1.7471,1.0,2725.389066935976,0.403997255790681,1.3098924025801977,0.9712068446147132,0.2864312,0.6937713610429614
0.0465,1.7459437500000001,1.0,2723.845324836249,0.4073403601541157,1.3093842697611386,0.9716250259134218,0.28638263750000004,0.694774788343007
0.047,1.744775,1.0,2722.2285324862423,0.41066471207476707,1.3088711606421868,0.9720308169234815,0.28633355,0.6957863715674377
0.0475,1.74359375,1.0,2720.537297206906,0.41397041667892875,1.3083530884990773,0.9724246977125941,0.28628393750000003,0.6968060357559955
0.048,1.7424,1.0,2718.7833328123415,0.41725757888948956,1.3078299472840988,0.9728071166078178,0.2862338,0.6978339399077453
0.0485,1.7411938056101441,1.0,2716.9950473433587,0.4205263036823829,1.307301503856511,0.9731784915785853,0.28618313983562604,0.6988704902025726
0.049,1.7399824847003038,1.0,2715.499673867504,0.423776693457924,1.3067680812020661,0.973539258691887,0.2861322643574128,0.6999150011339368
0.0495,1.7387711637904633,1.0,2714.515538980978,0.42700885061642785,1.3062300023065159,0.9738898333981754,0.2860813888791994,0.7009667910948703
0.05,1.737559842880623,1.0,2714.006932310856,0.43022287755820954,1.3056875901556126,0.9742306117020368,0.2860305134009862,0.7020251824772137
0.0505,1.7363485219707824,1.0,2713.940095014832,0.4334188760552129,1.305141151263877,0.9745619700935683,0.28597963792277287,0.7030895338180985
0.051000000000000004,1.735137201060942,1.0,2714.2748819968842,0.43659694815353856,1.304591051406961,0.9748842717023861,0.28592876244455956,0.7041590924834249
0.051500000000000004,1.7339258801511015,1.0,2714.9781413608475,0.43975719441503014,1.304037593404234,0.9751978589210287,0.28587788696634625,0.7052332327709236
0.052000000000000005,1.7327145592412612,1.0,2716.022994664915,0.4428997139804855,1.3034810234799852,0.9755030549762397,0.28582701148813294,0.7063114425623109
0.0525,1.7315032383314208,1.0,2717.3826106199995,0.44602460599070265,1.3029215878585025,0.9758001687123018,0.2857761360099197,0.7073932130398072
0.053,1.7302919174215803,1.0,2719.0301887733053,0.4491319695864796,1.302359532764075,0.9760894953621687,0.2857252605317064,0.7084780387330687
0.0535,1.72908059651174,1.0,2720.948187405569,0.4522218997640155,1.3017950202748088,0.9763713116503318,0.2856743850534931,0.7095655795195401
0.054,1.7278692756018994,1.0,2723.101568302047,0.45529450044094816,1.3012283718455016,0.9766458929813987,0.28562350957527977,0.7106551913115697
0.0545,1.726657954692059,1.0,2725.4697352215508,0.45834986934053223,1.300659777359203,0.9769134943855363,0.28557263409706646,0.7117464868568701
0.055,1.7254466337822185,1.0,2728.038617648355,0.46138810119091667,1.3000893672814215,0.9771743562342639,0.2855217586188532,0.7128391952953956
0.0555,1.7242353128723782,1.0,2730.794141049525,0.4644092907202502,1.2995172720776649,0.9774287088058846,0.2854708831406399,0.7139330475993433
0.056,1.7230239919625376,1.0,2733.722221811965,0.46741353265668173,1.2989436222134416,0.9776767727961434,0.2854200076624266,0.715027776587714
0.0565,1.7218126710526973,1.0,2736.8087625567223,0.47040092172835996,1.2983685481542597,0.9779187597990469,0.2853691321842133,0.7161231169397934
0.057,1.7206013501428568,1.0,2740.0396478306384,0.4733715526634338,1.2977921803656272,0.97815487275982,0.285318256706,0.717218805207544
0.0575,1.7193900292330164,1.0,2743.4007401751337,0.47632552019005203,1.2972146493130525,0.9783853064018236,0.2852673812277867,0.7183145798269108
0.058,1.7181787083231759,1.0,2746.8778841323074,0.4792629190290667,1.2966360853935488,0.9786102476246357,0.28521650574957336,0.719410181257625
0.0585,1.7169673874133355,1.0,2750.4666565128036,0.482183835932827,1.2960565306192136,0.9788298702824878,0.2851656302713601,0.7205055187427126
0.059000000000000004,1.715756066503495,1.0,2754.146992922596,0.4850883744461348,1.2954761684881972,0.9790443506015493,0.2851147547931468,0.7216002355087197
0.059500000000000004,1.7145447455936547,1.0,2757.912843364631,0.4879766239807938,1.2948950553263783,0.9792538497773811,0.2850638793149335,0.7226942166583301
0.06,1.713333424683814,1.0,2761.7581447713187,0.49084867394860754,1.2943132474596357,0.9794585227583984,0.2850130038367202,0.7237873481178675
0.0605,1.7121221037739738,1.0,2765.6768201023174,0.49370461376137964,1.2937308012138482,0.979658518537872,0.28496212835850687,0.7248795166398941
0.061,1.7109107828641332,1.0,2769.662777511942,0.4965445328309137,1.2931477729148946,0.9798539804301295,0.2849112528802936,0.725970609805604
0.0615,1.709699461954293,1.0,2773.709909586908,0.4993685205690134,1.2925642188886535,0.9800450463319244,0.2848603774020803,0.7270605160270155
0.062,1.7084881410444523,1.0,2777.8120926550473,0.5021766663874822,1.291980195461004,0.9802318489698757,0.284809501923867,0.7281491245489602
0.0625,1.707276820134612,1.0,2781.963186163603,0.5049690596981237,1.2913957589578244,0.9804145161348203,0.2847586264456537,0.729236325450872
0.063,1.7060654992247715,1.0,2786.1570321282998,0.5077457899127417,1.290810965704994,0.9805931709038616,0.2847077509674404,0.73032200964837
0.0635,1.7048541783149311,1.0,2790.3902094403384,0.5105069398786558,1.2902258472631174,0.9807679301070906,0.28465687548922713,0.7314061147334364
0.064,1.7036428574050908,1.0,2794.6586210077844,0.5132525973837343,1.2896404411762012,0.9809389070006318,0.2846060000110138,0.7324885677144627
0.0645,1.7024315364952503,1.0,2798.953291971137,0.5159828629438858,1.2890548286625105,0.981106213858939,0.2845551245328005,0.7335692156469601
0.065,1.7012202155854097,1.0,2803.2721093061714,0.518697819817168,1.288469029149147,0.9812699546479315,0.2845042490545872,0.7346480204775148
0.0655,1.7000088946755694,1.0,2807.6129535616847,0.5213975512616388,1.2878830620632122,0.9814302296513705,0.2844533735763739,0.7357249444423108
0.066,1.698797573765729,1.0,2811.97369878313,0.5240821405353558,1.2872969468318087,0.9815871356283631,0.28440249809816065,0.7367999500673497
0.0665,1.6975862528558885,1.0,2816.3522124444903,0.526751670896377,1.2867107028820377,0.9817407659630492,0.2843516226199473,0.7378730001686477
0.067,1.6963749319460482,1.0,2820.7463553891826,0.52940622560276,1.2861243496410013,0.9818912108069147,0.28430074714173403,0.7389440578524045
0.0675,1.6951636110362076,1.0,2825.1539817778685,0.5320458879125625,1.2855379065358015,0.9820385572141385,0.2842498716635207,0.7400130865151527
0.068,1.6939522901263673,1.0,2829.572939046431,0.5346707410838424,1.2849513929935397,0.982182889270365,0.2841989961853074,0.7410800498438818
0.0685,1.6927409692165267,1.0,2834.001067871114,0.5372808683746575,1.2843648284413183,0.9823242882152634,0.2841481207070941,0.7421449118161341
0.069,1.6915296483066864,1.0,2838.4362021422044,0.5398763530430655,1.2837782323062388,0.9824628325592144,0.2840972452288808,0.7432076367000842
0.0695,1.6903183273968458,1.0,2842.8761689466082,0.5424572783471241,1.2831916240154033,0.9825985981944438,0.28404636975066755,0.7442681890545869
0.07,1.6891070064870055,1.0,2847.3187885580323,0.5450237275448911,1.2826050229959134,0.9827316585009058,0.28399549427245424,0.7453265337292069
0.07050000000000001,1.687895685577165,1.0,2851.763107495711,0.547575774387162,1.2820184377097172,0.9828620833635324,0.28394461879424093,0.7463826555860024
0.07100000000000001,1.6866843646673246,1.0,2856.208767279683,0.5501134952071175,1.2814318713054011,0.9829899403090165,0.2838937433160276,0.7474365491503193
0.07150000000000001,1.685473043757484,1.0,2860.651905339841,0.5526369945197607,1.2808453580339212,0.9831152977672901,0.2838428678378143,0.7484881532869854
0.07200000000000001,1.6842617228476437,1.0,2865.0919949050485,0.5551463485288238,1.2802589024450135,0.9832382189487233,0.28379199235960106,0.7495374604601927
0.0725,1.6830504019378032,1.0,2869.528507634933,0.5576416334380392,1.2796725090884145,0.9833587650484817,0.2837411168813877,0.7505844632021388
