Time [s],Phi [rad],STIM [ ],Fsee [N],Gamma [ ],Lcerel [ ],q [ ],Lmtc [m],fisomrel [ ]
0.0,1.8,1.0,18.74428426416819,0.0008999062521327135,1.3792536037190344,0.005208215779542636,0.288653,0.5413479083741252
0.0005,1.79999375,1.0,19.319428892953,0.00650406779852717,1.3791881722109745,0.015594497018613065,0.2886527375,0.5415061545130753
0.001,1.799975,1.0,23.32255211831487,0.012076794430003836,1.378767547482053,0.040395360963279926,0.28865195,0.5425227837194855
0.0015,1.79994375,1.0,34.270292891914835,0.017618262470997313,1.3777801690936307,0.07705546746663616,0.2886506375,0.544904795406849
0.002,1.7999,1.0,59.721000330410575,0.023128647258185232,1.3759806861427286,0.12229772546983936,0.2886488,0.5492299861213106
0.0025,1.79984375,1.0,106.79870265569886,0.028608123143426707,1.3734797995618215,0.17278069124669568,0.28864643749999996,0.5552067580333597
0.003,1.7997750000000001,1.0,173.1560777323942,0.03405686350175332,1.3707661015681427,0.22571958476474271,0.28864354999999997,0.5616469959437554
0.0035,1.79969375,1.0,251.24897088549045,0.03947504073493344,1.368172674592275,0.2789879562437082,0.2886401375,0.5677579135317944
0.004,1.7996,1.0,335.7746181784463,0.04486282627787371,1.3657812575674404,0.3310119183893256,0.2886362,0.5733548201925441
0.0045000000000000005,1.7994937500000001,1.0,424.0001504335569,0.05022039060732268,1.3635800459753977,0.3807106615691469,0.2886317375,0.5784743308945398
0.005,1.799375,1.0,514.3804239093836,0.05554790322949912,1.3615426443720668,0.427422922099919,0.28862675,0.5831853198356289
0.0055,1.79924375,1.0,605.8452602815856,0.06084553272231726,1.3596465502383166,0.4708129685006295,0.2886212375,0.5875457873140244
0.006,1.7991000000000001,1.0,697.546865455781,0.0661134467032678,1.3578747194551362,0.5107789094405842,0.2886152,0.5915997613995778
0.006500000000000001,1.79894375,1.0,788.7881106498481,0.07135181185203686,1.35621399762546,0.5473757466956081,0.2886086375,0.5953813389530895
0.007,1.798775,1.0,878.9920751626518,0.07656079390221802,1.3546538437255475,0.5807564717067963,0.28860155,0.5989178926361445
0.0075,1.79859375,1.0,967.686037091623,0.08174055774024115,1.3531854687983602,0.6111295065663354,0.2885939375,0.6022322213956713
0.008,1.7984,1.0,1054.4759716050985,0.08689126696615473,1.3518014947360109,0.6387294942110326,0.2885858,0.6053434575940961
0.0085,1.79819375,1.0,1139.0825467487684,0.09201308506027518,1.350494925281798,0.663797557105477,0.2885771375,0.6082694749735551
0.009000000000000001,1.797975,1.0,1221.264958225232,0.09710617391854545,1.3492599236070753,0.6865697613607656,0.28856795,0.6110252097001911
0.0095,1.79774375,1.0,1300.8385099687273,0.10217069427583465,1.3480912379528822,0.7072697136965654,0.2885582375,0.6136240116722893
0.01,1.7975,1.0,1377.6884959596212,0.10720680644293193,1.3469838181849088,0.7261046503269198,0.288548,0.6160785392787698
0.0105,1.79724375,1.0,1451.7541120327187,0.11221467058318203,1.345932889620274,0.7432639680248215,0.2885372375,0.618400624614054
0.011,1.796975,1.0,1522.9763217690306,0.11719444456879942,1.3449344670679944,0.7589193118016095,0.28852595000000003,0.620600170371552
0.0115,1.79669375,1.0,1591.3303662046271,0.12214628558214294,1.3439848067021463,0.7732249481922109,0.2885141375,0.622686392723492
0.012,1.7964,1.0,1656.8294294649743,0.12707035039848677,1.3430802812987603,0.7863188367611499,0.28850180000000003,0.6246681141070265
0.0125,1.79609375,1.0,1719.5169232263695,0.1319667956733145,1.3422174079250968,0.7983239957767247,0.2884889375,0.6265537171971554
0.013000000000000001,1.7957750000000001,1.0,1779.4265447945584,0.13683577599538896,1.3413932409963787,0.8093500733788267,0.28847555,0.6283503029400144
0.0135,1.79544375,1.0,1836.597005660903,0.14167744477870184,1.340605127882944,0.8194946187653368,0.2884616375,0.630064243813276
0.014,1.7951000000000001,1.0,1891.0941101552705,0.14649195543724491,1.3398504159551317,0.8288442873043854,0.2884472,0.6317018328288393
0.0145,1.79474375,1.0,1942.9940086709998,0.15127946019665972,1.3391266074216135,0.8374761254502133,0.2884322375,0.6332689545239376
0.015,1.794375,1.0,1992.3883152074402,0.15604011187377523,1.3384312716210984,0.8454586513185381,0.28841675,0.6347712831279538
0.0155,1.79399375,1.0,2039.3380515871856,0.16077405990843335,1.337762504885711,0.8528529977506193,0.2884007375,0.6362132981292414
0.016,1.7936,1.0,2083.9193857460273,0.1654814537075706,1.337118407919827,0.859713613643847,0.2883842,0.6375994229642892
0.0165,1.7931937500000001,1.0,2126.2203698955605,0.1701624424443845,1.3364971055851163,0.8660890621907755,0.2883671375,0.6389339857552268
0.017,1.792775,1.0,2166.328203005074,0.17481717419341383,1.335896863119945,0.8720227508365772,0.28834955,0.6402209736804239
0.0175,1.7923437500000001,1.0,2204.3448343850664,0.17944579817441272,1.3353159106700696,0.8775534911581626,0.2883314375,0.6414644134295342
0.018000000000000002,1.7919,1.0,2240.336458944853,0.18404845927944866,1.3347529414461552,0.882716168087557,0.2883128,0.6426673092893718
0.0185,1.79144375,1.0,2274.377327731218,0.18862530240058903,1.3342066486588662,0.8875420745279811,0.2882936375,0.6438326402812793
0.019,1.790975,1.0,2306.5490822623183,0.1931764724299013,1.3336757255188672,0.8920593268260664,0.28827395,0.6449633616054133
0.0195,1.79049375,1.0,2336.934782238416,0.19770211352324943,1.3331589177380883,0.8962932407671527,0.2882537375,0.6460622944246994
0.02,1.79,1.0,2365.6182727040296,0.2022023696834675,1.332655022351647,0.9002666486664392,0.288233,0.647132130434392
0.0205,1.78949375,1.0,2392.6821640145154,0.20667738457374277,1.3321629007072409,0.9040001799027425,0.2882117375,0.6481754062300754
0.021,1.788975,1.0,2418.1873777667524,0.2111272982002435,1.3316816696623905,0.9075125437256962,0.28818995000000003,0.6491941007970945
0.021500000000000002,1.78844375,1.0,2442.1986549842027,0.21555225056913796,1.3312104460746153,0.910820685224615,0.2881676375,0.6501901798821887
0.022,1.7879,1.0,2464.7842409831273,0.2199523816865943,1.3307483468014354,0.9139399760069555,0.2881448,0.6511655965820071
0.0225,1.78734375,1.0,2486.015587531106,0.2243278315587809,1.3302944887003707,0.9168843820852846,0.28812143749999997,0.6521222918818901
0.023,1.786775,1.0,2505.9236728274177,0.22867873709678058,1.3298484003338158,0.91966668984731,0.28809755,0.6530613290727768
0.0235,1.78619375,1.0,2524.6609300075665,0.2330052402551336,1.3294084814191451,0.9222983400494603,0.28807313749999996,0.653986136381163
0.024,1.7856000026450454,1.0,2542.2428942614447,0.23730747594842927,1.328974455517741,0.924790016290688,0.2880482001110919,0.6548973457168554
0.0245,1.7850002597950672,1.0,2558.9974663474486,0.24158557900866082,1.3285460611630595,0.9271514830143949,0.2880230109113928,0.6557955538719362
0.025,1.7844005169450892,1.0,2575.233181179239,0.24583968426782155,1.328123036888557,0.929391674718591,0.28799782171169375,0.6566813541550722
0.025500000000000002,1.783800774095111,1.0,2590.9726291891843,0.2500699265579047,1.3277051212276896,0.9315187777865335,0.2879726325119947,0.6575553364832438
0.026000000000000002,1.7832010312451327,1.0,2606.2389198987667,0.2542764407065792,1.3272920527287322,0.9335403032584436,0.2879474433122956,0.6584180874381786
0.0265,1.7826012883951547,1.0,2621.0473799058923,0.258459359962008,1.3268836466943892,0.9354631631111546,0.2879222541125965,0.6592700303691893
0.027,1.7820015455451765,1.0,2635.407429669071,0.2626188169859711,1.3264797765197063,0.9372937241702746,0.2878970649128974,0.660111465317738
0.0275,1.7814018026951985,1.0,2649.332688299057,0.2667549425318983,1.3260802795267932,0.9390378439850665,0.28787187571319833,0.6609427656368891
0.028,1.7808020598452203,1.0,2662.8370909271875,0.2708678673532194,1.3256849930377594,0.940700924149415,0.28784668651349926,0.6617643026466664
0.0285,1.7802023169952421,1.0,2675.921401057912,0.27495769945375664,1.3252938780513406,0.9422879605444119,0.28782149731380013,0.6625761891017843
0.029,1.7796025741452641,1.0,2688.6135659754545,0.2790245905760009,1.3249066480513254,0.9438035533597693,0.28779630811410106,0.6633790499108807
0.029500000000000002,1.779002831295286,1.0,2700.9374718436907,0.2830686867326761,1.3245230572964342,0.9452519628350474,0.287771118914402,0.6641734224584672
0.03,1.7784030884453077,1.0,2712.9030719048433,0.28709011058683925,1.3241429901577173,0.9466371447899038,0.2877459297147029,0.664959572486014
0.0305,1.7778033455953297,1.0,2724.520515818054,0.2910889848015475,1.323766331006225,0.9479627681400918,0.28772074051500385,0.6657377643710698
0.031,1.7772036027453515,1.0,2735.8001407742154,0.29506543203985797,1.323392964213008,0.9492322393168466,0.2876955513153048,0.6665082611528192
0.0315,1.7766038598953733,1.0,2746.752462907011,0.2990195749648276,1.323022774149116,0.9504487243223217,0.2876703621156057,0.6672713245567894
0.032,1.7760041170453953,1.0,2757.3881690009785,0.30295153623951354,1.3226556451856,0.9516151686754319,0.28764517291590663,0.6680272150186997
0.0325,1.775404374195417,1.0,2767.7181084952545,0.3068614385269729,1.3222914616935095,0.9527343154725895,0.2876199837162075,0.6687761917074653
0.033,1.7748046313454389,1.0,2777.7532857845367,0.31074940449026267,1.3219301080438957,0.953808721761719,0.28759479451650843,0.6695185125473395
0.0335,1.7742048884954609,1.0,2787.50485281583,0.31461555679243997,1.321571468607808,0.9548407734050973,0.28756960531680936,0.6702544342392143
0.034,1.7736051456454827,1.0,2796.9841019817172,0.3184600180965618,1.3212154277562973,0.9558326985865638,0.28754441611711024,0.6709842122810554
0.0345,1.7730054027955044,1.0,2806.2024593109304,0.32228291106568535,1.3208618698604135,0.956786580101099,0.28751922691741116,0.671708100987497
0.035,1.7724056599455265,1.0,2815.171477953798,0.3260843583628676,1.3205106792912074,0.9577043665493702,0.2874940377177121,0.672426353508574
0.035500000000000004,1.7718059170955482,1.0,2823.902831965515,0.3298644826511657,1.320161740419729,0.958587882546282,0.287468848518013,0.6731392218476087
0.036000000000000004,1.7712061742455703,1.0,2832.4083103852577,0.3336234065936366,1.3198149376170285,0.959438838040658,0.28744365931831395,0.6738469568782404
0.0365,1.770606431395592,1.0,2840.693796867109,0.3373612407501446,1.3194702088451886,0.9602588395196763,0.2874184701186149,0.6745496991722308
0.037,1.7700066885456138,1.0,2848.769921656915,0.3410781102721099,1.3191274504557446,0.961049394095929,0.2873932809189158,0.6752476733597457
0.0375,1.7694069456956358,1.0,2856.6483961382087,0.34477414079284313,1.3187865500192741,0.9618119167574314,0.28736809171921673,0.6759411209400792
0.038,1.7688072028456576,1.0,2864.3353952369757,0.34844944546309786,1.3184474450638204,0.9625477399264495,0.2873429025195176,0.676630180906649
0.0385,1.7682074599956794,1.0,2871.8371536432264,0.3521041374336276,1.318110073117427,0.9632581172232139,0.28731771331981854,0.6773149916493155
0.039,1.7676077171457014,1.0,2879.159963366702,0.3557383298551859,1.3177743717081372,0.9639442289863531,0.28729252412011946,0.6779956909614115
0.0395,1.7670079742957232,1.0,2886.3101713801934,0.3593521358785261,1.3174402783639945,0.9646071873493058,0.2872673349204204,0.6786724160465234
0.04,1.766408231445745,1.0,2893.2941773486446,0.36294566865440187,1.3171077306130425,0.9652480409128052,0.28724214572072126,0.6793453035250192
0.0405,1.765808488595767,1.0,2900.118431445663,0.36651904133356666,1.3167766659833247,0.9658677790495345,0.2872169565210222,0.6800144894403354
0.041,1.7652087457457888,1.0,2906.7894322551115,0.37007236706677393,1.3164470220028843,0.9664673358734898,0.2871917673213231,0.6806801092650065
0.0415,1.7646090028958106,1.0,2913.3137247608483,0.3736057590047772,1.3161187361997648,0.9670475939034106,0.28716657812162405,0.6813422979064525
0.042,1.7640092600458326,1.0,2919.6978984218804,0.37711933029833006,1.31579174610201,0.9676093874467884,0.287141388921925,0.6820011897125114
0.0425,1.7634095171958544,1.0,2925.948585334625,0.3806131940981859,1.315465989237663,0.96815350572843,0.2871161997222259,0.6826569184767306
0.043000000000000003,1.7628097743458762,1.0,2932.06958657251,0.38408745329614474,1.315141428321438,0.968680696199925,0.2870910105225268,0.6833095668224616
0.043500000000000004,1.7622100314958982,1.0,2938.0653877044842,0.3875422165805792,1.3148180203118494,0.9691916672710387,0.2870658213228277,0.6839592285935205
0.044,1.76161028864592,1.0,2943.9465036928195,0.3909776149717327,1.3144956696512229,0.9696870895411089,0.28704063212312864,0.6846061025849135
0.0445,1.7610105457959417,1.0,2949.7162998322265,0.3943937528491376,1.3141743437474074,0.9701675997366461,0.28701544292342956,0.6852502606214474
0.045,1.7604108029459637,1.0,2955.378163142243,0.3977907345923259,1.3138540100082512,0.9706338019936485,0.2869902537237305,0.6858917742402442
0.0455,1.7598110600959855,1.0,2960.9355016381987,0.4011686645808296,1.3135346358416033,0.9710862698429142,0.28696506452403137,0.6865307146928354
0.046,1.7592113172460075,1.0,2966.39174362658,0.40452764719418094,1.3132161886553124,0.9715255480558911,0.2869398753243323,0.6871671529471931
0.0465,1.7586115743960293,1.0,2971.75033702282,0.40786778681191194,1.3128986358572272,0.9719521543621117,0.2869146861246332,0.6878011596896886
0.047,1.7580118315460511,1.0,2977.0147486937044,0.4111891878135547,1.3125819448551963,0.9723665810482902,0.28688949692493415,0.6884328053269867
0.0475,1.7574120886960731,1.0,2982.188463822434,0.41449195457864135,1.3122660830570685,0.9727692964482825,0.2868643077252351,0.6890621599878699
0.048,1.756812345846095,1.0,2987.2749852980633,0.4177761914867039,1.3119510178706926,0.9731607463323121,0.286839118525536,0.6896892935249963
0.0485,1.7562126029961167,1.0,2992.277833127635,0.4210420029172746,1.3116367167039171,0.9735413552031555,0.2868139293258369,0.6903142755165896
0.049,1.7556128601461387,1.0,2997.200543872891,0.4242894932498854,1.311323146964591,0.9739115275063176,0.2867887401261378,0.6909371752680603
0.0495,1.7550131172961605,1.0,3002.046670109307,0.42751876686406853,1.3110102760605626,0.9742716487606471,0.28676355092643874,0.6915580618135606
0.05,1.7544133744461823,1.0,3006.8197799098357,0.43072992813935596,1.310698071399681,0.9746220866152993,0.28673836172673967,0.6921770039174705
0.0505,1.7538136315962043,1.0,3011.5221139592995,0.43392307204709285,1.3103865120062508,0.9749631915394811,0.2867131725270406,0.6927940470809744
0.051000000000000004,1.753213888746226,1.0,3016.1539813402537,0.437098284453559,1.3100755936969084,0.9752952981713013,0.28668798332734147,0.6934092034231818
0.051500000000000004,1.7526141458962479,1.0,3020.723046422139,0.44025570447638235,1.309765248772481,0.9756187278326411,0.2866627941276424,0.6940226105003923
0.052000000000000005,1.7520144030462699,1.0,3025.2309592137576,0.44339542724286024,1.309455461686466,0.9759337860024939,0.2866376049279433,0.6946343023992863
0.0525,1.7514146601962917,1.0,3029.6793772010556,0.44651754788029013,1.309146216892361,0.9762407646721619,0.28661241572824425,0.6952443130776187
0.053,1.7508149173463134,1.0,3034.0699651575546,0.4496221615159695,1.3088374988436637,0.9765399430569888,0.2865872265285452,0.6958526763647641
0.0535,1.7502151744963355,1.0,3038.4043949598686,0.4527093632771957,1.3085292919938714,0.9768315882646363,0.2865620373288461,0.6964594259622464
0.054,1.7496154316463572,1.0,3042.6843454089912,0.45577924829126615,1.3082215807964814,0.9771159559229056,0.286536848129147,0.697064595444254
0.0545,1.749015688796379,1.0,3046.9115020568743,0.4588319116854783,1.3079143497049917,0.9773932907698737,0.2865116589294479,0.6976682182581382
0.055,1.748415945946401,1.0,3051.0875570378817,0.4618674485871296,1.3076075831728997,0.9776638272089113,0.28648646972974884,0.6982703277248967
0.0555,1.7478162030964228,1.0,3055.2142089064646,0.46488595412351735,1.3073012656537026,0.9779277898309394,0.28646128053004977,0.6988709570396444
0.056,1.7472164602464448,1.0,3059.2931624792955,0.46788752342193907,1.3069953816008983,0.9781853939061206,0.2864360913303507,0.6994701392720626
0.0565,1.7466167173964666,1.0,3063.326128683318,0.4708722516096922,1.3066899154679843,0.9784368458470106,0.28641090213065157,0.7000679073668388
0.057,1.7460169745464884,1.0,3067.314824409363,0.47384023381407403,1.3063848517084578,0.9786823436450425,0.2863857129309525,0.7006642941440892
0.0575,1.7454172316965104,1.0,3071.2609723700775,0.4767915651623821,1.3060801747758166,0.9789220772820876,0.2863605237312534,0.7012593322997627
0.058,1.7448174888465322,1.0,3075.1663009645376,0.4797263407819138,1.3057758691235581,0.9791562291187041,0.28633533453155435,0.7018530544060353
0.0585,1.744217745996554,1.0,3079.032544147247,0.4826446557999665,1.30547191920518,0.9793849742605675,0.2863101453318553,0.7024454929116837
0.059000000000000004,1.743618003146576,1.0,3082.8614413029386,0.4855466053438377,1.3051683094741795,0.9796084809044782,0.2862849561321562,0.703036680142447
0.059500000000000004,1.7430182602965978,1.0,3086.6517205199875,0.4884322410562804,1.3048650501687584,0.9798269085223189,0.28625976693245714,0.7036265981683687
0.06,1.7424185174466196,1.0,3090.407215940137,0.49130169944487806,1.3045621078908938,0.9800404149322188,0.286234577732758,0.7042153138936722
0.0605,1.7418187745966416,1.0,3094.129695156462,0.49415508185608836,1.3042594669724858,0.9802491499657328,0.28620938853305894,0.7048028595587335
0.061,1.7412190317466634,1.0,3097.819908474096,0.4969924737934779,1.3039571204681273,0.9804532569499192,0.28618419933335987,0.7053892503722078
0.0615,1.7406192888966852,1.0,3101.4786087239245,0.49981396076061324,1.303655061432411,0.9806528737990672,0.28615901013366074,0.7059745014874961
0.062,1.7400195460467072,1.0,3105.106551217816,0.502619628261061,1.30335328291993,0.9808481332600612,0.28613382093396167,0.7065586280028731
0.0625,1.739419803196729,1.0,3108.7044937047162,0.5054095617983877,1.3030517779852766,0.9810391631448412,0.2861086317342626,0.7071416449616155
0.063,1.7388200603467507,1.0,3112.2731963279853,0.50818384687616,1.3027505396830443,0.9812260865507267,0.2860834425345635,0.7077235673521218
0.0635,1.7382203174967727,1.0,3115.813421584012,0.5109425689979445,1.3024495610678255,0.9814090220693271,0.28605825333486445,0.7083044101080347
0.064,1.7376205746467945,1.0,3119.3259342814104,0.5136858136673079,1.3021488351942132,0.9815880839847038,0.2860330641351654,0.7088841881083552
0.0645,1.7370208317968163,1.0,3122.811501501779,0.5164136663878165,1.3018483551168003,0.981763382461419,0.2860078749354663,0.7094629161775574
0.065,1.7364210889468383,1.0,3126.270892561205,0.5191262126630372,1.3015481138901797,0.9819350237230502,0.28598268573576724,0.7100406090856991
0.0655,1.7358213460968601,1.0,3129.704878973059,0.5218235379965364,1.3012481045689437,0.982103110221725,0.2859574965360681,0.7106172815485292
0.066,1.735221603246882,1.0,3133.1142344116397,0.5245057278918808,1.3009483202076857,0.9822677407991849,0.28593230733636904,0.7111929482275903
0.0665,1.734621860396904,1.0,3136.4997346770365,0.527172867852637,1.3006487538609985,0.9824290108398611,0.28590711813666997,0.7117676237303212
0.067,1.7340221175469257,1.0,3139.8621576610203,0.5298250433823715,1.3003493985834746,0.982587012416412,0.2858819289369709,0.7123413226101565
0.0675,1.7334223746969477,1.0,3143.2022833139,0.5324623399846509,1.3000502474297073,0.982741834428143,0.28585673973727177,0.7129140593666181
0.068,1.7328226318469695,1.0,3146.5208936129097,0.535084843163042,1.299751293454289,0.982893562732706,0.2858315505375727,0.7134858484454105
0.0685,1.7322228889969913,1.0,3149.8187725308485,0.537692638421111,1.2994525297118127,0.9830422802714484,0.2858063613378736,0.7140567042385075
0.069,1.7316231461470133,1.0,3153.096706006573,0.5402858112624249,1.2991539492568713,0.9831880671887573,0.28578117213817456,0.7146266410842388
0.0695,1.731023403297035,1.0,3156.354180429642,0.5428644076191068,1.298855556145106,0.9833309990496449,0.2857559829384755,0.7151956522997429
0.07,1.7304236604470569,1.0,3159.592697301022,0.5454285480215989,1.298557337401369,0.983471152637146,0.2857307937387764,0.7157637636600928
0.07050000000000001,1.7298239175970789,1.0,3162.813018120346,0.5479783229737685,1.2982592863275033,0.9836086006725807,0.28570560453907734,0.7163309889011747
