Time [s],Phi [rad],STIM [ ],Fsee [N],Gamma [ ],Lcerel [ ],q [ ],Lmtc [m],fisomrel [ ]
0.0,1.8,1.0,17.98989056186948,0.0001552004339911112,1.379337200236375,0.005006282157670271,0.288653,0.5411456904235596
0.0005,1.79999375,1.0,18.346994991286547,0.005763539191121191,1.379294591772307,0.013348534507479057,0.2886527375,0.5412487648350734
0.001,1.799975,1.0,21.796527682556587,0.011340419602053927,1.3789201444394412,0.036369222694861786,0.28865195,0.5421540948277839
0.0015,1.79994375,1.0,31.47921365335235,0.016886018124192933,1.3780113895134043,0.07164031593770961,0.2886506375,0.5443475427236778
0.002,1.7999,1.0,54.454129317264986,0.0224005102231279,1.3763118057618646,0.11594622119423646,0.2886488,0.5484356659574128
0.0025,1.79984375,1.0,98.57416396510638,0.02788407038108987,1.3738653041100535,0.16591001731756289,0.28864643749999996,0.5542880560672744
0.003,1.7997750000000001,1.0,162.84517933778366,0.03333687210338844,1.3711439168948738,0.2186571850920255,0.28864354999999997,0.5607531663008005
0.0035,1.79969375,1.0,239.81184094296395,0.038759087919070255,1.3685193166440703,0.27198175558809534,0.2886401375,0.5669436009572304
0.004,1.7996,1.0,323.7291815622361,0.044150889391368436,1.3660962748517502,0.3242409258704264,0.2886362,0.5726196350117084
0.0045000000000000005,1.7994937500000001,1.0,411.6091041769664,0.04951244712299115,1.363867932059065,0.37429218129717656,0.2886317375,0.577806530673022
0.005,1.799375,1.0,501.8014751350429,0.05484393074792587,1.3618076586764334,0.42142396165341955,0.28862675,0.5825740373822623
0.0055,1.79924375,1.0,593.1985092065622,0.0601455089712554,1.3598918346040736,0.46526286222987756,0.2886212375,0.5869829954888843
0.006,1.7991000000000001,1.0,684.9273636444408,0.06541734953109639,1.3581026594780452,0.5056808464752467,0.2886152,0.5910793535546914
0.006500000000000001,1.79894375,1.0,776.275551697731,0.07065961922581748,1.3564264130151147,0.5427158702666014,0.2886086375,0.5948986355394734
0.007,1.798775,1.0,866.6500392297804,0.0758724839567595,1.354852231219153,0.57651072085224,0.28860155,0.5984690497410354
0.0075,1.79859375,1.0,955.5601030019607,0.08105610850454253,1.3533711646930122,0.6072684460206463,0.2885939375,0.6018138391693368
0.008,1.7984,1.0,1042.6331973514757,0.08621065727257915,1.3519751736274723,0.6352212149819139,0.2885858,0.6049536898912969
0.0085,1.79819375,1.0,1127.5422248259295,0.09133629299929075,1.3506577168442928,0.6606104166004582,0.2885771375,0.6079055026069764
0.009000000000000001,1.797975,1.0,1210.0425914081393,0.09643317777555174,1.3494127745222106,0.6836732523020437,0.28856795,0.6106846715583252
0.0095,1.79774375,1.0,1289.9707387483693,0.10150147326995258,1.348234630341477,0.7046350321762499,0.2885582375,0.6133056193588486
0.01,1.7975,1.0,1367.190745648392,0.10654133967153859,1.347118384942269,0.7237053861087839,0.288548,0.6157806978159145
0.0105,1.79724375,1.0,1441.612174975625,0.11155293622343451,1.3460595154328734,0.7410762442435089,0.2885372375,0.6181212110279493
0.011,1.796975,1.0,1513.1928791227272,0.11653642141583435,1.345053709728613,0.7569214552420452,0.28852595000000003,0.620337810594777
0.0115,1.79669375,1.0,1581.9298633815167,0.12149195396701218,1.3440968797265882,0.7713973859255248,0.2885141375,0.6224404890383479
0.012,1.7964,1.0,1647.8058503209077,0.12641968968143524,1.3431857005300292,0.7846442304466588,0.28850180000000003,0.6244374201266363
0.0125,1.79609375,1.0,1710.8432845097561,0.13131978428676871,1.3423168646579375,0.7967869796796904,0.2884889375,0.6263366204424722
0.013000000000000001,1.7957750000000001,1.0,1771.0876814190985,0.13619239279605047,1.3414872271562075,0.8079369064058114,0.28847555,0.6281456431414693
0.0135,1.79544375,1.0,1828.6102432800392,0.14103767068420994,1.3406937259259124,0.8181929382299737,0.2884616375,0.6298717637586713
0.014,1.7951000000000001,1.0,1883.4636923966748,0.14585577080824313,1.3399338259075357,0.8276431539108794,0.2884472,0.6315210267980396
0.0145,1.79474375,1.0,1935.7025328559178,0.15064684473676374,1.3392052350372352,0.8363658904575734,0.2884322375,0.6330988792198151
0.015,1.794375,1.0,1985.402279293272,0.15541104403838543,1.3385056612511683,0.8444307794354572,0.28841675,0.6346107056789199
0.0155,1.79399375,1.0,2032.648721625523,0.16014851955720602,1.3378329063937084,0.8518997965877486,0.2884007375,0.6360616306045275
0.016,1.7936,1.0,2077.5346536251877,0.16485942240548082,1.337184877453675,0.85882816918846,0.2883842,0.6374565000527749
0.0165,1.7931937500000001,1.0,2120.1376650282205,0.16954390141709114,1.3365597945252918,0.8652652335399095,0.2883671375,0.6387994410366498
0.017,1.792775,1.0,2160.53035251987,0.17420210380046453,1.3359560578624532,0.8712550891469624,0.28834955,0.6400941555660715
0.0175,1.7923437500000001,1.0,2198.7962382405312,0.1788341767640286,1.3353720677190535,0.8768371655966116,0.2883314375,0.6413443118426232
0.018000000000000002,1.7919,1.0,2235.024792164399,0.18344026705299488,1.3348062650171963,0.882046782225344,0.2883128,0.6425534595192439
0.0185,1.79144375,1.0,2269.3025994507675,0.18802052077503326,1.334257209160232,0.8869156477198484,0.2882936375,0.6437248664681534
0.019,1.790975,1.0,2301.722239209321,0.19257508452243707,1.3337234780715779,0.8914722522151074,0.28827395,0.6448617352800035
0.0195,1.79049375,1.0,2332.3485133794316,0.19710410081830762,1.333203992851356,0.8957423112923825,0.2882537375,0.6459665151400305
0.02,1.79,1.0,2361.2518443499976,0.20160771218574622,1.3326976745996881,0.8997489993016494,0.288233,0.6470416368493623
0.0205,1.78949375,1.0,2388.5078120535927,0.20608606114785424,1.3322034444166966,0.9035132346778201,0.2882117375,0.6480895137681212
0.021,1.788975,1.0,2414.194649530653,0.21053928988196616,1.33172024338329,0.9070539344132693,0.28818995000000003,0.6491125004136826
0.021500000000000002,1.78844375,1.0,2438.38268816842,0.21496753894037524,1.3312471296130812,0.9103882530891025,0.2881676375,0.650112688530276
0.022,1.7879,1.0,2461.156414281949,0.21937095123520034,1.3307830607767708,0.9135317303319985,0.2881448,0.6510923683136198
0.0225,1.78734375,1.0,2482.5711771565107,0.22374966426058363,1.330327305849573,0.9164985416484056,0.28812143749999997,0.652053160108937
0.023,1.786775,1.0,2502.6849946859334,0.22810381551066727,1.329879133806703,0.9193015827300666,0.28809755,0.6529966743588625
0.0235,1.78619375,1.0,2521.5583330497325,0.2324335424795934,1.3294378136233755,0.921952602702872,0.28807313749999996,0.6539245119740118
0.024,1.7856,1.0,2539.25389823805,0.23673898266150425,1.3290026142748048,0.9244623219117146,0.2880482,0.6548382646694644
0.0245,1.78499375,1.0,2555.8276280647983,0.2410202715114044,1.3285728875045333,0.9268405498079466,0.2880227375,0.6557393418269557
0.025,1.784375,1.0,2571.3427088778803,0.24527754714490246,1.328147933576737,0.9290962548009326,0.28799675,0.6566292528358335
0.025500000000000002,1.78374375,1.0,2585.8528347316005,0.24951094484376263,1.3277271568879165,0.9312376708185375,0.2879702375,0.6575092813716931
0.026000000000000002,1.7831000000000001,1.0,2599.4008515162077,0.2537205967502638,1.3273100757800544,0.933272369730794,0.2879432,0.6583804664950734
0.0265,1.78244375,1.0,2612.03074566563,0.2579066350066849,1.3268962085951328,0.9352073076732601,0.2879156375,0.6592438418562737
0.027,1.781775,1.0,2623.7875469788514,0.2620691917553049,1.3264850736751341,0.9370488833757254,0.28788755,0.6601004358014739
0.0275,1.7810937500000001,1.0,2634.7172365848005,0.2662083991384028,1.3260761893620405,0.9388029902553126,0.2878589375,0.6609512714640647
0.028,1.7804,1.0,2644.8644445207196,0.2703243884506953,1.3256690944558374,0.940475065677349,0.2878298,0.661797324350494
0.0285,1.77969375,1.0,2654.2674744607693,0.2744172887629407,1.3252633931392177,0.9420701382992457,0.2878001375,0.6626394294756464
0.029,1.778975,1.0,2662.9782050769018,0.2784872349755939,1.3248585706232654,0.9435928417307887,0.28776995,0.6634786641983702
0.029500000000000002,1.7782437500000001,1.0,2671.026698540989,0.2825343534719815,1.3244543186902193,0.9450474891824876,0.2877392375,0.664315673097148
0.03,1.7775,1.0,2678.4434850162,0.28655877063543,1.3240503291223191,0.9464380762863556,0.287708,0.665151097562872
0.0305,1.77674375,1.0,2685.259521234085,0.29056061284926604,1.3236462937018034,0.9477683085087364,0.2876762375,0.6659855758070345
0.031,1.775975,1.0,2691.506151177586,0.29454000649681616,1.3232419042109111,0.949041625873239,0.28764395,0.6668197428638525
0.0315,1.7751937500000001,1.0,2697.21506887037,0.298497077961407,1.3228368524318819,0.9502612252868746,0.2876111375,0.6676542305863371
0.032,1.7744,1.0,2702.4182832725373,0.3024319536263651,1.3224308301469543,0.9514300807276777,0.2875778,0.6684896676363072
0.0325,1.77359375,1.0,2707.13640187342,0.3063447523723183,1.322023635773773,0.9525509720535965,0.2875439375,0.669326460468879
0.033,1.772775,1.0,2711.4113845147835,0.3102356085713989,1.321614874951881,0.9536264721148918,0.28750955,0.6701654088319067
0.0335,1.7719437500000002,1.0,2715.265504180947,0.3141046441115011,1.3212043350547475,0.9546589986675559,0.2874746375,0.6710069360396603
0.034,1.7711000000000001,1.0,2718.718185117736,0.31795197889370624,1.3207918309440907,0.9556508119091691,0.2874392,0.6718514068862818
0.0345,1.7702437500000001,1.0,2721.788996439894,0.3217777328190961,1.3203771774816284,0.956604024235888,0.2874032375,0.6726991841482945
0.035,1.7693750000000001,1.0,2724.4976374011017,0.3255820257887522,1.3199601895290791,0.9575206116351248,0.28736675,0.6735506285603181
0.035500000000000004,1.76849375,1.0,2726.863923424664,0.3293649777037563,1.3195406819481605,0.958402424073829,0.2873297375,0.6744060987885986
0.036000000000000004,1.7676,1.0,2728.907772893601,0.3331267084651898,1.3191184696005909,0.959251194981346,0.2872922,0.6752659514023494
0.0365,1.76669375,1.0,2730.6491947012155,0.3368673379741344,1.3186933673480883,0.9600685499151408,0.2872541375,0.6761305408429097
0.037,1.765775,1.0,2732.108276561121,0.3405869861316717,1.3182651900523707,0.9608560144881827,0.28721555,0.6770002193907154
0.0375,1.76484375,1.0,2733.2972136749604,0.3442857659455552,1.317833824881877,0.9616150272293915,0.2871764375,0.6778751905642739
0.038,1.7639,1.0,2734.2398562881126,0.3479638027073227,1.3173990536311821,0.9623469327222055,0.28713679999999997,0.678755869751371
0.0385,1.76294375,1.0,2734.950869388893,0.3516212125563246,1.3169607419759544,0.9630530018094744,0.28709663750000003,0.6796425001468511
0.039,1.761975,1.0,2735.441945775566,0.35525810878437786,1.316518782927707,0.9637344327551024,0.28705595,0.6805352680292192
0.0395,1.7609937500000001,1.0,2735.7248099972344,0.3588746046832994,1.3160730694979534,0.9643923543293524,0.2870147375,0.6814343582211158
0.04,1.76,1.0,2735.811213741439,0.36247081354490623,1.3156234946982066,0.9650278305786079,0.286973,0.6823399540640662
0.0405,1.7589937500000001,1.0,2735.712931476071,0.3660468486610152,1.3151699515399797,0.9656418652189829,0.2869307375,0.6832522373924963
0.041,1.757975,1.0,2735.4417563448446,0.3696028233234434,1.3147123330347863,0.9662354056871097,0.28688795,0.6841713885070209
0.0415,1.75694375,1.0,2735.009496316783,0.3731388508240077,1.3142505321941391,0.96680934687815,0.2868446375,0.6850975861470037
0.042,1.7559,1.0,2734.4279705891645,0.3766550444545251,1.3137844420295515,0.9673645345981773,0.28680079999999997,0.6860310074623822
0.0425,1.75484375,1.0,2733.7058932339755,0.3801515160961052,1.3133139838268462,0.967901770860763,0.2867564375,0.6869717714877257
0.043000000000000003,1.753775,1.0,2732.85342490669,0.38362837626532625,1.3128390657921507,0.9684218133330271,0.28671155,0.6879200220481327
0.043500000000000004,1.75269375,1.0,2731.8796571698545,0.38708573422427234,1.3123596058772025,0.9689253800297621,0.28666613750000003,0.6888758820670879
0.044,1.7516,1.0,2730.7924002435693,0.3905236987524878,1.3118755336967567,0.969413152080962,0.2866202,0.6898394498767959
0.0445,1.75049375,1.0,2729.599465610892,0.3939423786295173,1.311386778865569,0.9698857751898167,0.2865737375,0.690810822537389
0.045,1.7493750000000001,1.0,2728.307160601194,0.39734188255720865,1.3108932846708945,0.9703438628555604,0.28652675,0.6917900687070859
0.0455,1.74824375,1.0,2726.9234236855937,0.4007223180878056,1.3103949795645502,0.9707879960271758,0.2864792375,0.6927772852714364
0.046,1.7471,1.0,2725.4564046434944,0.4040837920363557,1.3098917900482179,0.971218726108482,0.2864312,0.693772571622166
0.0465,1.745943980495414,1.0,2723.9210507436105,0.40742641077821556,1.309383684826646,0.971636580016468,0.2863826471808074,0.6947759424843322
0.047,1.7447838809923109,1.0,2722.712268780399,0.41075028007440084,1.308870768759797,0.9720420683931144,0.28633392300167704,0.6957871435131763
0.0475,1.7436237814892075,1.0,2722.003222301301,0.414055503937278,1.3083533062685635,0.9724356880144747,0.2862851988225467,0.6968056075039716
0.048,1.7424636819861041,1.0,2721.7537594929076,0.41734218686808017,1.3078316610590144,0.9728179185602205,0.2862364746434164,0.6978305754134186
0.0485,1.741303582483001,1.0,2721.911419552442,0.4206104373580768,1.30730631006696,0.9731892249640283,0.286187750464286,0.6988610707685889
0.049,1.7401434829798976,1.0,2722.4499641491198,0.42386035682669776,1.3067774924188864,0.9735500327279087,0.2861390262851557,0.6998965884731508
0.0495,1.7389833834767943,1.0,2723.3432282946765,0.42709204669337303,1.3062454472412797,0.9739007472965586,0.2860903021060254,0.7009366264157799
0.05,1.7378232839736911,1.0,2724.565102597836,0.43030560837753246,1.3057104136606257,0.9742417551909142,0.286041577926895,0.7019806855212025
0.0505,1.7366631844705878,1.0,2726.089516786838,0.433501143298606,1.3051726308034104,0.9745734250679503,0.2859928537477647,0.7030282697975937
0.051000000000000004,1.7355030849674846,1.0,2727.8904244988794,0.4366787528760236,1.30463233779612,0.974896108712128,0.28594412956863435,0.7040788863803273
0.051500000000000004,1.7343429854643813,1.0,2729.9417893382747,0.43983853852921506,1.3040897737652404,0.9752101419634551,0.285895405389504,0.705132045572082
0.052000000000000005,1.733182885961278,1.0,2732.2238261150414,0.44298059880852153,1.3035451210198636,0.9755158416480539,0.28584668121037365,0.7061873708706516
0.0525,1.7320227864581748,1.0,2734.7121445811767,0.4461050363446705,1.302998603662443,0.9758135135914349,0.28579795703124333,0.7072444074573017
0.053,1.7308626869550714,1.0,2737.3883966125454,0.44921195059373015,1.3024503907739835,0.9761034463841745,0.285749232852113,0.7083028096959971
0.0535,1.729702587451968,1.0,2740.2396560858697,0.4523014381701,1.3019006021032564,0.9763859127042448,0.28570050867298263,0.7093623292400869
0.054,1.728542487948865,1.0,2743.25298678567,0.45537359568817964,1.3013493573990342,0.9766611734667724,0.2856517844938523,0.7104227193724144
0.0545,1.7273823884457615,1.0,2746.4154383792866,0.4584285197623688,1.300796776410088,0.9769294784340163,0.285603060314722,0.711483735016899
0.055,1.7262222889426582,1.0,2749.71404271022,0.4614663070070671,1.30024297888519,0.9771910667888211,0.28555433613559167,0.7125451327491945
0.0555,1.725062189439555,1.0,2753.13581040912,0.4644870540366742,1.2996880845731118,0.9774461676740086,0.2855056119564613,0.7136066708064395
0.056,1.7239020899364517,1.0,2756.6677278232323,0.4674908574655896,1.299132213222625,0.9776950007000034,0.28545688777733097,0.7146681090960905
0.0565,1.7227419904333483,1.0,2760.306749117768,0.47047780419690105,1.2985753942413558,0.9779377703041404,0.28540816359820065,0.7157293812296524
0.057,1.7215818909302452,1.0,2764.0309920194613,0.4734480030977681,1.2980178271574614,0.9781746843154798,0.28535943941907027,0.7167900978837547
0.0575,1.7204217914271418,1.0,2767.8343567681,0.4764015459292419,1.2974595685415913,0.9784059324939043,0.28531071523993995,0.7178501437597269
0.058,1.7192616919240384,1.0,2771.7113290106868,0.4793385238120061,1.2969006695588405,0.9786316966297861,0.2852619910608096,0.7189094145902812
0.0585,1.7181015924209353,1.0,2775.656381398982,0.4822590278667444,1.2963411813743044,0.9788521512861348,0.28521326688167925,0.7199678068293418
0.059000000000000004,1.716941492917832,1.0,2779.6639728920904,0.4851631492141403,1.295781155153078,0.9790674641444995,0.28516454270254893,0.7210252176540524
0.059500000000000004,1.7157813934147286,1.0,2783.7285481167214,0.4880509789748774,1.2952206420602563,0.9792777963317102,0.2851158185234186,0.7220815449666136
0.06,1.7146212939116254,1.0,2787.844536786189,0.49092260826963935,1.2946596932609349,0.9794833027286519,0.2850670943442883,0.7231366873959559
0.0605,1.713461194408522,1.0,2792.0063531769893,0.4937781282191097,1.2940983599202085,0.9796841322621992,0.2850183701651579,0.7241905442992459
0.061,1.7123010949054187,1.0,2796.208395663752,0.4966176299439722,1.2935366932031722,0.9798804281813462,0.2849696459860276,0.725243015763223
0.0615,1.7111409954023156,1.0,2800.4450463116373,0.49944120456491026,1.2929747442749215,0.9800723283185078,0.28492092180689726,0.726294002605371
0.062,1.7099808958992122,1.0,2804.7133755252,0.5022489357604344,1.2924125400450568,0.9802599635009176,0.28487219762776694,0.7273434516084122
0.0625,1.7088207963961088,1.0,2809.009943268337,0.5050409129944141,1.2918501119190535,0.9804434603683654,0.28482347344863657,0.7283913015715432
0.063,1.7076606968930057,1.0,2813.326768348067,0.5078172391288376,1.2912875318674129,0.9806229439647604,0.28477474926950624,0.7294374163858129
0.0635,1.7065005973899023,1.0,2817.6620490728674,0.5105779987352851,1.290724816358126,0.980798530577487,0.2847260250903759,0.7304817638824423
0.064,1.705340497886799,1.0,2822.013978217145,0.513323276385337,1.2901619818591847,0.9809703322765994,0.28467730091124555,0.7315243121286676
0.0645,1.7041803983836958,1.0,2826.3807429750523,0.5160531566505739,1.2895990448385801,0.9811384570992482,0.2846285767321152,0.7325650294278765
0.065,1.7030202988805925,1.0,2830.760524919449,0.5187677241025762,1.2890360217643038,0.9813030092247537,0.2845798525529849,0.7336038843197223
0.0655,1.7018601993774891,1.0,2835.151499967975,0.5214670633129244,1.2884729291043473,0.9814640891408585,0.2845311283738545,0.734640845580224
0.066,1.700700099874386,1.0,2839.5518383544695,0.5241512588531987,1.287909783326702,0.9816217938016665,0.2844824041947242,0.7356758822218481
0.0665,1.6995400003712826,1.0,2843.9597046065714,0.5268203952949796,1.2873466008993593,0.9817762167777414,0.2844336800155939,0.7367089634935726
0.067,1.6983799008681792,1.0,2848.3732575292634,0.5294745572098477,1.2867833982903105,0.9819274483988042,0.2843849558364635,0.7377400588809347
0.0675,1.697219801365076,1.0,2852.7906501946336,0.5321138291693832,1.2862201919675473,0.9820755758894487,0.2843362316573332,0.7387691381060598
0.068,1.6960597018619727,1.0,2857.2100299374406,0.5347382957451667,1.2856569983990611,0.9822206834982569,0.28428750747820286,0.7397961711276748
0.0685,1.6948996023588694,1.0,2861.6295383566353,0.5373480415087787,1.2850938340528435,0.9823628526206858,0.2842387832990725,0.7408211281411025
0.069,1.6937395028557662,1.0,2866.047311323424,0.5399431510317994,1.2845307153968857,0.9825021619160618,0.28419005911994216,0.7418439795782412
0.0695,1.6925794033526629,1.0,2870.4657122827175,0.5425236709218144,1.2839676213769011,0.9826386833065163,0.28414133494081184,0.7428647640610488
0.07,1.6914193038495595,1.0,2874.8793847935194,0.5450897325063954,1.2834045993770125,0.9827724947446439,0.28409261076168146,0.7438833962115914
0.07050000000000001,1.6902592043464564,1.0,2879.2877756062976,0.5476414144435697,1.2828416541277075,0.9829036664168048,0.2840438865825512,0.7448998682726478
0.07100000000000001,1.689099104843353,1.0,2883.69050249192,0.5501787936232853,1.2822787888329414,0.9830322660457145,0.2839951624034208,0.7459141753029581
0.07150000000000001,1.6879390053402497,1.0,2888.087182156404,0.5527019469354894,1.2817160066966702,0.9831583591634806,0.2839464382242905,0.7469263124071482
0.07200000000000001,1.6867789058371465,1.0,2892.477430246035,0.55521095127013,1.281153310922849,0.9832820091973016,0.2838977140451602,0.7479362747357137
0.0725,1.6856188063340432,1.0,2896.8608613534857,0.5577058835171546,1.280590704715433,0.9834032775512738,0.2838489898660298,0.7489440574850021
