Time [s],Phi [rad],STIM [ ],Fsee [N],Gamma [ ],Lcerel [ ],q [ ],Lmtc [m],fisomrel [ ]
0.0,1.8,1.0,18.036150955273325,0.0002692597870613022,1.3793320241261677,0.005018826369405984,0.288653,0.5411582126031393
0.0005,1.79999375,1.0,18.429536256479626,0.005876958761432351,1.379285450884287,0.013675929550879751,0.2886527375,0.5412708761081098
0.001,1.799975,1.0,21.963704574544927,0.011453202978265832,1.3789031721821845,0.03697237108099525,0.28865195,0.5421951087700186
0.0015,1.79994375,1.0,31.83187346052528,0.016998168874870906,1.3779816235364888,0.07246018446033138,0.2886506375,0.5444192993262758
0.002,1.7999,1.0,55.17444472998747,0.022512031896693534,1.376265603254543,0.116913503706411,0.2886488,0.548546542753491
0.0025,1.79984375,1.0,99.75200582211521,0.027994966506310826,1.3738091345189756,0.16695998691243044,0.28864643749999996,0.5544219736931583
0.003,1.7997750000000001,1.0,164.35661641484646,0.03344714618900632,1.3710878010163137,0.21973886475131138,0.28864354999999997,0.5608859819415715
0.0035,1.79969375,1.0,241.50796668756072,0.03886874345421016,1.3684673955029347,0.2730565410052559,0.2886401375,0.567065620061492
0.004,1.7996,1.0,325.52691989952746,0.04425992984563365,1.3660488919937863,0.32528085471204243,0.2886362,0.5727302572389075
0.0045000000000000005,1.7994937500000001,1.0,413.46619268657884,0.049620875946678134,1.3638245121947827,0.3752788200109639,0.2886317375,0.5779072842035344
0.005,1.799375,1.0,503.69272927894866,0.054951751372224744,1.3617676031287087,0.4223466836820651,0.28862675,0.5826664583115724
0.0055,1.79924375,1.0,595.1040303542227,0.06025272480640146,1.359854710774024,0.4661169251105148,0.2886212375,0.5870681987683148
0.006,1.7991000000000001,1.0,686.8331022374159,0.06552396397078292,1.35806810322318,0.5064655755821276,0.2886152,0.5911582699430934
0.006500000000000001,1.79894375,1.0,778.1667675728055,0.07076563563059464,1.3563941981545946,0.5434333046322769,0.2886086375,0.5949718607198455
0.007,1.798775,1.0,868.5192844490341,0.07597790571398644,1.354822094373982,0.5771644577473226,0.28860155,0.5985372491838683
0.0075,1.79859375,1.0,957.399026611944,0.08116093896154403,1.353342928036613,0.6078629789793509,0.2885939375,0.6018774719595439
0.008,1.7984,1.0,1044.4314791594056,0.08631489966051506,1.351948737842349,0.6357614249117256,0.2885858,0.6050130291172754
0.0085,1.79819375,1.0,1129.2955983129316,0.09143995065733276,1.3506329296901187,0.6611011675117738,0.2885771375,0.607960933089682
0.009000000000000001,1.797975,1.0,1211.747116236085,0.09653625395753326,1.3493895130327478,0.684119242199545,0.28856795,0.6107365056847557
0.0095,1.79774375,1.0,1291.623818344225,0.10160397133535494,1.3482127803060653,0.7050406690125598,0.2885582375,0.613354144233163
0.01,1.7975,1.0,1368.789503349949,0.10664326284397571,1.347097857796562,0.724074740155556,0.288548,0.6158261387533088
0.0105,1.79724375,1.0,1443.1554079508926,0.11165428766232086,1.346040218936087,0.7414130141689471,0.2885372375,0.6181637974447227
0.011,1.796975,1.0,1514.6780647235478,0.11663720434227749,1.3450355832084373,0.7572289908761644,0.28852595000000003,0.6203776987245331
0.0115,1.79669375,1.0,1583.3562838763107,0.1215921715196889,1.3440798525175206,0.7716786846469523,0.2885141375,0.6224778542459224
0.012,1.7964,1.0,1649.1768556405364,0.12651934513251023,1.3431696650047553,0.7849019520393741,0.28850180000000003,0.6244725160093241
0.0125,1.79609375,1.0,1712.1600228224638,0.13141888078690775,1.3423017500043921,0.7970235078961476,0.2884889375,0.6263696171681462
0.013000000000000001,1.7957750000000001,1.0,1772.3527238045258,0.13629093357217273,1.3414729548257345,0.8081543577749096,0.28847555,0.6281767255184372
0.0135,1.79544375,1.0,1829.8223361035577,0.14113565865629976,1.3406802676095244,0.8183932121852192,0.2884616375,0.6299010052981595
0.014,1.7951000000000001,1.0,1884.6239567519947,0.1459532090321739,1.3399211318976179,0.8278279300741151,0.2884472,0.6315485462035788
0.0145,1.79474375,1.0,1936.8130240845908,0.15074373633124147,1.3391932505094288,0.8365366596619482,0.2884322375,0.6331248048751525
0.015,1.794375,1.0,1986.4659716925128,0.15550739218494875,1.3384943262643718,0.8445888657692502,0.28841675,0.6346351756595313
0.0155,1.79399375,1.0,2033.6630279543463,0.1602443272532931,1.3378222239360802,0.8520463990953084,0.2884007375,0.6360846460933702
0.016,1.7936,1.0,2078.5052584623727,0.16495469295008264,1.3371747662007183,0.8589643300342134,0.2883842,0.6374782431042442
0.0165,1.7931937500000001,1.0,2121.0658859087307,0.16963863752259747,1.3365502223828198,0.8653918968234586,0.2883671375,0.6388199866520233
0.017,1.792775,1.0,2161.418395401242,0.17429630835655371,1.3359469859989064,0.8713730967064446,0.28834955,0.6401135924689114
0.0175,1.7923437500000001,1.0,2199.647201794169,0.1789278528376674,1.3353634505654999,0.87694726908914,0.2883314375,0.6413627424260253
0.018000000000000002,1.7919,1.0,2235.839091862896,0.183533417505986,1.334798086191972,0.8821496630630234,0.2883128,0.6425709230937275
0.0185,1.79144375,1.0,2270.087140221221,0.18811314944026075,1.3342493889368399,0.8870119019886501,0.2882936375,0.6437415369749655
0.019,1.790975,1.0,2302.4707684277214,0.19266719358652434,1.3337160695018233,0.8915624478711138,0.28827395,0.6448775030492802
0.0195,1.79049375,1.0,2333.058689496842,0.19719569283224628,1.3331970101468704,0.895826950633858,0.2882537375,0.6459813534093952
0.02,1.79,1.0,2361.9253441953456,0.201698790064896,1.3326910931319285,0.8998285265251864,0.288233,0.6470556012457989
0.0205,1.78949375,1.0,2389.150421600434,0.206176628171943,1.3321972007169456,0.9035880425104966,0.2882117375,0.6481027418234228
0.021,1.788975,1.0,2414.8044971840714,0.21062934802935035,1.3317143495863424,0.907124393916417,0.28818995000000003,0.6491249690003502
0.021500000000000002,1.78844375,1.0,2438.976764925299,0.21505709357201833,1.331241416766569,0.9104546643832057,0.2881676375,0.6501247570742226
0.022,1.7879,1.0,2461.7291124296703,0.2194600039522821,1.3307775790386196,0.9135944085475525,0.2881448,0.6511039324150184
0.0225,1.78734375,1.0,2483.1188917678205,0.2238382171314684,1.3303220858928988,0.9165577697306113,0.28812143749999997,0.6520641567964426
0.023,1.786775,1.0,2503.2061642969456,0.22819187107090388,1.329874186819812,0.9193576148283782,0.28809755,0.6530070818557645
0.0235,1.78619375,1.0,2522.0534741170027,0.23252110373191526,1.3294331313097638,0.9220056671701805,0.28807313749999996,0.6539343494752676
0.024,1.7856,1.0,2539.722642091172,0.23682605253230968,1.328998197046376,0.9245126288167973,0.2880482,0.6548475329726848
0.0245,1.78499375,1.0,2556.267501010699,0.24110685316893085,1.3285687557913615,0.9268882949432142,0.2880227375,0.655747999737617
0.025,1.784375,1.0,2571.763324569826,0.2453636446484053,1.3281439946753497,0.9291415983217658,0.28799675,0.6566374960411482
0.025500000000000002,1.78374375,1.0,2586.252795982604,0.2495965596195699,1.3277234219223581,0.9312807756842513,0.2879702375,0.6575170877662628
0.026000000000000002,1.7831000000000001,1.0,2599.7798545576384,0.2538057307312615,1.3273065457564035,0.9333133841883445,0.2879432,0.6583878351562862
0.0265,1.78244375,1.0,2612.389591159439,0.2579912906323171,1.3268928744015027,0.935246366655689,0.2879156375,0.6592507929385312
0.027,1.781775,1.0,2624.1281490329848,0.26215337197157357,1.3264819160816728,0.9370861097522981,0.28788755,0.6601070104325242
0.0275,1.7810937500000001,1.0,2635.0426299895616,0.2662921073978678,1.3260731790209306,0.9388384959504795,0.2878589375,0.6609575316428067
0.028,1.7804,1.0,2645.175018779218,0.2704076259086842,1.3256662267250614,0.940508956653074,0.2878298,0.6618032805186891
0.0285,1.77969375,1.0,2654.573552678165,0.2745000626778044,1.3252605719323063,0.9421025017421685,0.2878001375,0.662645281716419
0.029,1.778975,1.0,2663.2717741586807,0.2785695455276429,1.3248558691422632,0.9436237792531611,0.28776995,0.6634842611091352
0.029500000000000002,1.7782437500000001,1.0,2671.302691604253,0.28261620163917595,1.3244517827721864,0.9450770914851064,0.2877392375,0.6643209204590241
0.03,1.7775,1.0,2678.6998035239285,0.28664015819337985,1.3240479772393317,0.9464664241085374,0.287708,0.665155958058347
0.0305,1.77674375,1.0,2685.4970532124203,0.290641542371231,1.3236441169609536,0.9477954734864205,0.2876762375,0.6659900687390452
0.031,1.775975,1.0,2691.728785906985,0.2946204813537057,1.3232398663543072,0.9490676713147728,0.28764395,0.6668239438751582
0.0315,1.7751937500000001,1.0,2697.424827688233,0.2985770988239586,1.3228349344638117,0.9502862113410654,0.2876111375,0.6676581794953648
0.032,1.7744,1.0,2702.61249031375,0.30251151874044235,1.3224290560871241,0.9514540679095896,0.2875778,0.6684933156593309
0.0325,1.77359375,1.0,2707.3335409376273,0.30642387743060173,1.3220218365006482,0.9525739988654118,0.2875439375,0.6693301556656563
0.033,1.772775,1.0,2711.6081969993998,0.3103142952548861,1.3216130800759507,0.9536485935105709,0.28750955,0.6701690903190693
0.0335,1.7719437500000002,1.0,2715.4568595129685,0.31418289257374443,1.321202591184598,0.9546802674998304,0.2874746375,0.6710105083427935
0.034,1.7711000000000001,1.0,2718.90009567151,0.31802978974762613,1.3207901741981565,0.9556712765530692,0.2874392,0.6718547963581519
0.0345,1.7702437500000001,1.0,2721.95862230077,0.3218551071369803,1.3203756334881929,0.9566237289306777,0.2874032375,0.6727023388617319
0.035,1.7693750000000001,1.0,2724.6532901610653,0.32565896510225617,1.3199587734262734,0.9575395967965494,0.28736675,0.6735535182001104
0.035500000000000004,1.76849375,1.0,2727.005069097736,0.32944148400390294,1.3195393983839647,0.9584207265794885,0.2873297375,0.6744087145421361
0.036000000000000004,1.7676,1.0,2729.035034040112,0.33320278420236976,1.3191173127328335,0.9592688484317301,0.2872922,0.6752683058487722
0.0365,1.76669375,1.0,2730.7643518490604,0.3369429860581058,1.3186923208444459,0.9600855848725875,0.2872541375,0.6761326678405
0.037,1.765775,1.0,2732.2142690128485,0.3406622099315604,1.3182642270903684,0.9608724586957952,0.28721555,0.6770021739622781
0.0375,1.76484375,1.0,2733.3956640053125,0.34436056371757373,1.3178329306354453,0.961630906819424,0.2871764375,0.6778770032005237
0.038,1.7639,1.0,2734.334994904346,0.34803818075189497,1.3173981896145037,0.9623622716843631,0.28713679999999997,0.6787576187163123
0.0385,1.76294375,1.0,2735.043756293288,0.3516951742236021,1.316959898518044,0.9630678248036417,0.28709663750000003,0.6796442051384926
0.039,1.761975,1.0,2735.533301204028,0.3553316570793953,1.316517953450685,0.9637487632167201,0.28705595,0.6805369424215243
0.0395,1.7609937500000001,1.0,2735.8150140776524,0.3589477422659748,1.3160722505170466,0.9644062145570176,0.2870147375,0.6814360090978615
0.04,1.76,1.0,2735.9003062969105,0.36254354273004086,1.3156226858217481,0.9650412418145577,0.286973,0.6823415822533996
0.0405,1.7589937500000001,1.0,2735.800611958883,0.3661191714182937,1.3151691554694085,0.9656548477231249,0.2869307375,0.6832538375022316
0.041,1.757975,1.0,2735.5273838861945,0.36967474127743344,1.3147115555646474,0.9662479788051815,0.28688795,0.6841729489607139
0.0415,1.75694375,1.0,2735.0920898779373,0.37321036525416035,1.3142497822120842,0.9668215291045464,0.2868446375,0.6850990892208471
0.042,1.7559,1.0,2734.5062092000935,0.37672615629517464,1.313783731516338,0.9673763436339197,0.28680079999999997,0.6860324293229676
0.0425,1.75484375,1.0,2733.781229315141,0.38022222734717653,1.3133132995820285,0.9679132215617554,0.2867564375,0.686973138727749
0.043000000000000003,1.753775,1.0,2732.9200462893577,0.38369867494880927,1.3128384606042964,0.9684329229043758,0.28671155,0.6879212294857592
0.043500000000000004,1.75269375,1.0,2731.9396153395046,0.3871556263645364,1.3123590611205034,0.9689361619187499,0.28666613750000003,0.6888769672701456
0.044,1.7516,1.0,2730.851198101282,0.3905931978191341,1.3118749993758092,0.9694236176625094,0.2866202,0.6898405126413871
0.0445,1.75049375,1.0,2729.6603500497895,0.3940114941936497,1.3113862254621957,0.9698959362058918,0.2865737375,0.6908119215319088
0.045,1.7493750000000001,1.0,2728.372627871692,0.39741062036913044,1.3108926894716437,0.970353730382218,0.28652675,0.6917912488300004
0.0455,1.74824375,1.0,2726.993588460151,0.4007906812266235,1.3103943414961352,0.9707975818175876,0.2864792375,0.6927785483647341
0.046,1.7471,1.0,2725.5287879658936,0.4041517816471761,1.3098911316276511,0.9712280428176752,0.2864312,0.6937738728907328
0.0465,1.7459437500000001,1.0,2723.9837809024284,0.4074940265118354,1.3093830099581731,0.9716456381229701,0.28638263750000004,0.6947772740727709
0.047,1.744775,1.0,2722.364119306973,0.41081752070164873,1.3088699265796824,0.9720508665427996,0.28633355,0.695788802470222
0.0475,1.74359375,1.0,2720.6753519569406,0.41412236909766326,1.3083518315841605,0.9724442024775755,0.28628393750000003,0.6968085075213443
0.048,1.7424,1.0,2718.9230236406315,0.4174086765809262,1.3078286750635888,0.9728260973378862,0.2862338,0.6978364375274091
0.0485,1.74119375,1.0,2717.112674484721,0.4206765480324848,1.3073004071099485,0.9731969808683243,0.2861831375,0.6988726396366706
0.049,1.739975,1.0,2715.249839335014,0.42392608833338624,1.3067669778152213,0.9735572623832639,0.28613195,0.6999171598281745
0.0495,1.73874375,1.0,2713.3400471943137,0.42715740236467775,1.3062283372713883,0.9739073319211992,0.2860802375,0.7009700428954109
0.05,1.7375,1.0,2711.3860327526017,0.4303705880803379,1.3056844609964513,0.9742475622235627,0.286028,0.7020312828613171
0.0505,1.73624375,1.0,2709.388102309566,0.4335657394883509,1.3051353466386262,0.974578309840978,0.2859752375,0.703100829820553
0.051000000000000004,1.734975,1.0,2707.3593296725003,0.4367429816459096,1.3045808753272357,0.9748999108692391,0.28592195,0.7041788596457109
0.051500000000000004,1.73369375,1.0,2705.3017911701286,0.43990241102868244,1.304021028429031,0.9752126894379989,0.2858681375,0.7052653516356961
0.052000000000000005,1.7324,1.0,2703.2175605334924,0.4430441241123379,1.3034557873107648,0.9755169551241467,0.2858138,0.7063602842716961
0.0525,1.73109375,1.0,2701.1087087891797,0.4461682173725445,1.3028851333391887,0.9758130037292424,0.28575893750000003,0.7074636352107841
0.053,1.729775,1.0,2698.9773041587555,0.4492747872849707,1.3023090478810544,0.9761011180089156,0.28570355000000003,0.7085753812794974
0.0535,1.72844375,1.0,2696.825411967058,0.45236393032528505,1.301727512303114,0.9763815683575839,0.2856476375,0.7096954984673922
0.054,1.7271,1.0,2694.65509455781,0.455435742969156,1.3011405079721194,0.9766546134515885,0.2855912,0.7108239619205801
0.0545,1.7257437500000001,1.0,2692.468411216627,0.458490321692252,1.3005480162548226,0.976920500853599,0.2855342375,0.7119607459352388
0.055,1.724375,1.0,2690.267418102117,0.4615277629702417,1.2999500185179753,0.9771794675809293,0.28547675,0.7131058239511041
0.0555,1.72299375,1.0,2688.054168184584,0.46454816327879334,1.2993464961283296,0.977431740640198,0.2854187375,0.714259168544936
0.056,1.7216,1.0,2685.8307111922927,0.4675516190935755,1.2987374304526373,0.977677537530594,0.2853602,0.7154207514239658
0.0565,1.72019375,1.0,2683.5990935656982,0.4705382268902568,1.2981228028576504,0.9779170667178284,0.28530113749999997,0.7165905434193194
0.057,1.718775,1.0,2681.3613584191703,0.4735080831445056,1.2975025947101206,0.9781505280807088,0.28524155,0.7177685144794188
0.0575,1.71734375,1.0,2679.1195478753452,0.4764612813034698,1.2968767873550997,0.9783781130630558,0.2851814375,0.7189546337044481
0.058,1.7159,1.0,2676.876655891633,0.4793978938566853,1.2962453533701404,0.9786000030399606,0.2851208,0.7201488858628848
0.0585,1.71444375,1.0,2674.6345435402795,0.48231804934630507,1.2956082756894658,0.9788163775203155,0.2850596375,0.7213512351527449
0.059000000000000004,1.7129750000000001,1.0,2672.393896245412,0.485221835998725,1.2949655480184583,0.9790274059867445,0.28499795,0.7225616246242684
0.059500000000000004,1.71149375,1.0,2670.155398282404,0.48810934204034084,1.2943171640625,0.9792332512342342,0.2849357375,0.723779996614182
0.06,1.71,1.0,2667.9197327789834,0.49098065569754845,1.2936631175269737,0.9794340696842332,0.284873,0.7250062927434273
0.0605,1.7084937500000001,1.0,2665.687581717359,0.49383586519674366,1.2930034021172616,0.9796300116816407,0.2848097375,0.7262404539148926
0.061,1.7069750000000001,1.0,2663.4596259370537,0.4966750587643224,1.2923380115387462,0.9798212217757393,0.28474595,0.727482420311135
0.0615,1.7054437500000001,1.0,2661.2365451384294,0.49949832462668037,1.2916669394968099,0.9800078389860563,0.2846816375,0.7287321313921054
0.062,1.7039,1.0,2659.0190178877992,0.5023057510102135,1.290990179696835,0.98018999705407,0.2846168,0.7299895258928688
0.0625,1.70234375,1.0,2656.807721622414,0.5050974261413175,1.2903077258442042,0.9803678246816144,0.2845514375,0.7312545418213214
0.063,1.7007750000000001,1.0,2654.6033326571714,0.5078734382463882,1.2896195716442995,0.9805414457567805,0.28448555,0.7325271164559071
0.0635,1.69919375,1.0,2652.406526191846,0.5106338755518216,1.2889257108025034,0.9807109795680566,0.28441913750000003,0.7338071863433296
0.064,1.6976,1.0,2650.2179763188715,0.5133788262840133,1.2882261370241987,0.980876541007403,0.2843522,0.7350946872962622
0.0645,1.69599375,1.0,2648.038356033078,0.5161083786693594,1.2875208440147674,0.9810382407629078,0.2842847375,0.736389554391058
0.065,1.694375,1.0,2645.8683372409046,0.5188226209342555,1.286809825479592,0.9811961855016329,0.28421675,0.7376917219654526
0.0655,1.69274375,1.0,2643.7085907714068,0.5215216413050975,1.286093075124055,0.981350478043214,0.2841482375,0.7390011236162688
0.066,1.6911,1.0,2641.556925538201,0.5242054792409904,1.2853706130868965,0.9815012154594418,0.2840792,0.7403176440893139
0.0665,1.6894437500000001,1.0,2639.4161844905075,0.5268742653128501,1.2846424130081995,0.9816484953674234,0.2840096375,0.7416412522859361
0.067,1.687775,1.0,2637.2878063674025,0.5295281046733277,1.2839084614706817,0.9817924108018175,0.28393955,0.7429718925553267
0.0675,1.68609375,1.0,2635.171731283985,0.5321670762725783,1.2831687588996277,0.9819330504402194,0.2838689375,0.744309483364938
0.068,1.6844000000000001,1.0,2633.0678995039266,0.5347912590607566,1.2824233057203218,0.9820704998823546,0.2837978,0.745653942557416
0.0685,1.68269375,1.0,2630.976251438284,0.5374007319880176,1.2816721023580486,0.9822048417767673,0.2837261375,0.7470051873507557
0.069,1.680975,1.0,2628.896727644956,0.5399955740045164,1.2809151492380921,0.9823361559414383,0.28365395,0.748363134338458
0.0695,1.67924375,1.0,2626.829268827181,0.5425758640604077,1.280152446785737,0.982464519478666,0.28358123749999997,0.7497276994896837
0.07,1.6775,1.0,2624.773815833099,0.5451416811058465,1.2793839954262674,0.9825900068845175,0.283508,0.7510987981494115
0.07050000000000001,1.67574375,1.0,2622.730309654224,0.5476931040909877,1.2786097955849676,0.9827126901531416,0.2834342375,0.7524763450385925
0.07100000000000001,1.673975,1.0,2620.6986914247937,0.5502302119659863,1.2778298476871222,0.9828326388762191,0.28335995,0.7538602542543065
0.07150000000000001,1.67219375,1.0,2618.67890242079,0.5527530836809972,1.2770441521580154,0.9829499203378057,0.2832851375,0.7552504392699185
0.07200000000000001,1.6704,1.0,2616.670884058849,0.5552617981861753,1.2762527094229317,0.9830645996048113,0.2832098,0.7566468129352337
0.0725,1.66859375,1.0,2614.6745778954537,0.5577564344316754,1.2754555199071553,0.9831767396133431,0.2831339375,0.7580492874766542
0.073,1.6667750000000001,1.0,2612.6899256258125,0.5602370713676528,1.2746525840359706,0.983286401251128,0.28305755,0.7594577744973345
0.0735,1.66494375,1.0,2610.716869082939,0.562703787944262,1.2738439022346622,0.9833936434362144,0.2829806375,0.7608721849773368
0.074,1.6631,1.0,2608.7553502367928,0.5651566631116582,1.2730294749285138,0.983498523192148,0.2829032,0.7622924292737885
0.0745,1.6612437500000001,1.0,2606.8053111931076,0.5675957758199963,1.2722093025428105,0.983601095719796,0.2828252375,0.7637184171210353
0.075,1.659375,1.0,2604.8666941928973,0.5700212050194311,1.2713833855028365,0.9837014144659952,0.28274675,0.7651500576307999
0.0755,1.65749375,1.0,2602.9394416110654,0.5724330296601176,1.2705517242338757,0.9837995311891774,0.2826677375,0.766587259292337
