Time [s],Phi [rad],STIM [ ],Fsee [N],Gamma [ ],Lcerel [ ],q [ ],Lmtc [m],fisomrel [ ]
0.0,1.8,1.0,17.967200954851844,1.0170348430386549e-05,1.3793397414261186,0.0050000275638494365,0.288653,0.5411395426491247
0.0005,1.79999375,1.0,18.276586290287323,0.0056193226096132335,1.3793024053242466,0.012940987357472414,0.2886527375,0.5412298638878856
0.001,1.799975,1.0,21.618330078938957,0.011197011961532312,1.3789383073715096,0.03560946570482961,0.28865195,0.5421102015510694
0.0015,1.79994375,1.0,31.06936209866597,0.016743414887092842,1.378046192986177,0.07060292273935291,0.2886506375,0.5442636351041399
0.002,1.7999,1.0,53.582784191546025,0.02225870687754923,1.376368105973729,0.11471927882745393,0.2886488,0.548300538283635
0.0025,1.79984375,1.0,97.11964709770807,0.027743062440068494,1.3739351330728624,0.16457624282982852,0.28864643749999996,0.5541215441765966
0.003,1.7997750000000001,1.0,160.95925671127824,0.03319665510544734,1.3712143029607053,0.21728184572898843,0.28864354999999997,0.5605865474406814
0.0035,1.79969375,1.0,237.6846531516917,0.03861965742770359,1.3685846935241661,0.270614271802769,0.2886401375,0.5667899352668895
0.004,1.7996,1.0,321.46825435037977,0.044012240994858495,1.3661560531169015,0.32291714048645187,0.2886362,0.5724800534625409
0.0045000000000000005,1.7994937500000001,1.0,409.2693628313837,0.049374576434121145,1.3639227763258426,0.37303577830874796,0.2886317375,0.5776792502273302
0.005,1.799375,1.0,499.4152003871568,0.054706833402978924,1.3618583063023226,0.42024864987122473,0.28862675,0.5824571625000461
0.0055,1.79924375,1.0,590.7921747988341,0.06000918063665917,1.35993880069759,0.4641747996737292,0.2886212375,0.5868751905369277
0.006,1.7991000000000001,1.0,682.5199053918058,0.0652817858912947,1.358146382081584,0.5046809749881759,0.2886152,0.5909794929906635
0.006500000000000001,1.79894375,1.0,773.8833932943671,0.07052481599918549,1.3564672171640533,0.5418016839030888,0.2886086375,0.5948058771916955
0.007,1.798775,1.0,864.2876631239405,0.07573843685381895,1.3548903650819384,0.5756776266404708,0.28860155,0.5983827448087006
0.0075,1.79859375,1.0,953.2443196143032,0.08092281341772939,1.3534067622073565,0.6065106932137775,0.2885939375,0.6017336110526563
0.008,1.7984,1.0,1040.3585804911352,0.08607810970185903,1.35200864449098,0.6345327748423678,0.2885858,0.6048785529452259
0.0085,1.79819375,1.0,1125.31986671127,0.09120448892665405,1.3506891616682934,0.6599850442027907,0.2885771375,0.6078351782155279
0.009000000000000001,1.797975,1.0,1207.8793774777266,0.0963021129957903,1.3494423193014828,0.6831049474569943,0.28856795,0.6106188312538282
0.0095,1.79774375,1.0,1287.8729686663487,0.1013711436305635,1.3482623783620418,0.7041181573218395,0.2885582375,0.6132439917653509
0.01,1.7975,1.0,1365.1682126829326,0.10641174124256465,1.3471443703262036,0.7232347155882185,0.288548,0.6157231701237998
0.0105,1.79724375,1.0,1439.6627749751724,0.11142406476155103,1.3460839053885367,0.740647092065415,0.2885372375,0.6180673802009514
0.011,1.796975,1.0,1511.3112110043198,0.11640827279395108,1.3450766880519058,0.7565296041065382,0.28852595000000003,0.6202872428671162
0.0115,1.79669375,1.0,1580.1130910376278,0.1213645238049663,1.344118577692438,0.7710390300229545,0.2885141375,0.6223928714506808
0.012,1.7964,1.0,1646.0684596416654,0.12629297451359905,1.3432060309507816,0.7843158780973857,0.28850180000000003,0.6243929219356223
0.0125,1.79609375,1.0,1709.1831205602516,0.13119378012193036,1.3423359297382031,0.7964856009629142,0.2884889375,0.6262949974817604
0.013000000000000001,1.7957750000000001,1.0,1769.499183321222,0.13606709583204118,1.3415051559659683,0.8076598186595512,0.28847555,0.6281065958184301
0.0135,1.79544375,1.0,1827.0724671861171,0.14091307581852186,1.3407108068453075,0.8179378168529551,0.2884616375,0.6298346495498073
0.014,1.7951000000000001,1.0,1881.9868218078623,0.14573187466596912,1.339949989442754,0.8274078033603922,0.2884472,0.631485984304437
0.0145,1.79474375,1.0,1934.2920915730178,0.1505236437688751,1.339220461611789,0.8361483773874437,0.2884322375,0.6330659388516733
0.015,1.794375,1.0,1984.055209897986,0.15528853432036172,1.3385200203364154,0.8442294147104635,0.28841675,0.6345797060951306
0.0155,1.79399375,1.0,2031.360192991179,0.16002669735538097,1.337846480746418,0.8517130814218893,0.2884007375,0.6360323834415184
0.016,1.7936,1.0,2076.2948501466853,0.16473828289830658,1.3371977965131592,0.8586547811482305,0.2883842,0.6374287181972899
0.0165,1.7931937500000001,1.0,2118.955099184702,0.16942344135264595,1.336571992598933,0.8651039352641917,0.2883671375,0.6387732582843871
0.017,1.792775,1.0,2159.4079744081255,0.17408231964103876,1.3359675262614703,0.8711047915445957,0.28834955,0.6400695832198606
0.0175,1.7923437500000001,1.0,2197.7312255492056,0.17871506468612472,1.3353828547585025,0.8766969099786353,0.2883314375,0.6413212395855779
0.018000000000000002,1.7919,1.0,2234.0124212116234,0.18332182341054346,1.3348164353477607,0.8819157140808551,0.2883128,0.642531743051718
0.0185,1.79144375,1.0,2268.3318809384145,0.18790274101600912,1.3342668870558971,0.8867930147144618,0.2882936375,0.6437042353889035
0.019,1.790975,1.0,2300.7909386419633,0.19245796502623694,1.3337326973031807,0.8913573558671729,0.28827395,0.6448421133633405
0.0195,1.79049375,1.0,2331.4586297378205,0.19698763838501723,1.3332127440050159,0.8956345124141435,0.2882537375,0.6459479184714534
0.02,1.79,1.0,2360.403712879565,0.20149190333164854,1.3327059639101326,0.899647724802707,0.288233,0.6470240484012422
0.0205,1.78949375,1.0,2387.7000695078573,0.20597090210542948,1.332211293767261,0.9034179701508419,0.2882117375,0.6480728835889114
0.021,1.788975,1.0,2413.426272761303,0.21042477694565856,1.331727670325131,0.9069642134753787,0.28818995000000003,0.6490967880760878
0.021500000000000002,1.78844375,1.0,2437.6512193019976,0.21485366802660344,1.3312541646254372,0.9103036555520576,0.2881676375,0.6500978265889787
0.022,1.7879,1.0,2460.459468643635,0.21925771845344866,1.3307897326444396,0.9134518745702176,0.2881448,0.6510782932940695
0.0225,1.78734375,1.0,2481.9110776217344,0.22363706665804609,1.3303335976483142,0.9164230721921869,0.28812143749999997,0.6520399051808727
0.023,1.786775,1.0,2502.061464250398,0.22799184984374832,1.329885053088193,0.9192301805139824,0.28809755,0.6529842211383934
0.0235,1.78619375,1.0,2520.9684554738924,0.2323222052139079,1.3294433924152078,0.9218849812502949,0.28807313749999996,0.6539127907970644
0.024,1.7856,1.0,2538.6920853621336,0.2366282699718774,1.3290079090804903,0.9243982239580247,0.2880482,0.6548271548548592
0.0245,1.78499375,1.0,2555.2926574865455,0.24091018092553776,1.3285779129460513,0.926779733394171,0.2880227375,0.6557288109821975
0.025,1.784375,1.0,2570.8217881140254,0.24516807256135886,1.328152812242463,0.9290385151104671,0.28799675,0.6566190427849579
0.025500000000000002,1.78374375,1.0,2585.35081566142,0.2494020837453265,1.3277318453107323,0.9311827939367271,0.2879702375,0.6574994820447138
0.026000000000000002,1.7831000000000001,1.0,2598.921069133047,0.2536123463378385,1.3273145448287644,0.9332201614273599,0.2879432,0.6583711375750598
0.0265,1.78244375,1.0,2611.574998622939,0.2577989921992928,1.3269004434744651,0.9351575915167389,0.2879156375,0.659235012934305
0.027,1.781775,1.0,2623.3560812560904,0.2619621531900872,1.3264890739257398,0.9370014990489639,0.28788755,0.6600921065277833
0.0275,1.7810937500000001,1.0,2634.3087319716824,0.2661019611706195,1.326079968860494,0.9387577920487117,0.2878589375,0.6609434116962348
0.028,1.7804,1.0,2644.4782191482373,0.2702185480012877,1.3256726609566336,0.9404319184700011,0.2878298,0.6617899167902601
0.0285,1.77969375,1.0,2653.905842781881,0.27431204275540116,1.3252667266072642,0.9420289132559136,0.2878001375,0.6626325145478165
0.029,1.778975,1.0,2662.633602198437,0.27838257854687065,1.324861741917394,0.9435534317578637,0.28776995,0.6634720938724377
0.029500000000000002,1.7782437500000001,1.0,2670.695098487402,0.28243028330023584,1.3244573657174492,0.9450097912131472,0.2877392375,0.6643093680857571
0.03,1.7775,1.0,2678.1225010911135,0.28645528353565086,1.324053274509755,0.9464019927941633,0.287708,0.6651450104576063
0.0305,1.77674375,1.0,2684.9484177763575,0.29045770577326996,1.323649144796636,0.9477337470427067,0.2876762375,0.6659796909196622
0.031,1.775975,1.0,2691.205853260723,0.2944376765332472,1.3232446530804174,0.9490084986383346,0.28764395,0.6668140760679867
0.0315,1.7751937500000001,1.0,2696.928170159279,0.29839532233573673,1.3228394758634239,0.9502294487648432,0.2876111375,0.6676488291588959
0.032,1.7744,1.0,2702.140531615143,0.3023307646777177,1.3224333674883886,0.951399583312387,0.2875778,0.6684844500321996
0.0325,1.77359375,1.0,2706.8738049667227,0.30624413153719426,1.3220260325773652,0.9525216785584942,0.2875439375,0.6693215380818933
0.033,1.772775,1.0,2711.1649010483457,0.3101355542423791,1.3216171229054354,0.9535983168711206,0.28750955,0.6701607980039224
0.0335,1.7719437500000002,1.0,2715.0332805261346,0.3140051527163493,1.321206451450927,0.9546319227502313,0.2874746375,0.6710026005940795
0.034,1.7711000000000001,1.0,2718.498566168916,0.317853046882182,1.3207938311921668,0.9556247600723613,0.2874392,0.6718473146334554
0.0345,1.7702437500000001,1.0,2721.5805271335616,0.32167935666295444,1.3203790751074818,0.9565789446270893,0.2874032375,0.6726953068663093
0.035,1.7693750000000001,1.0,2724.299064025303,0.3254842019817436,1.3199619961751994,0.957496455535103,0.28736675,0.673546941975707
0.035500000000000004,1.76849375,1.0,2726.67419473416,0.3292677027616267,1.3195424073736468,0.9583791456593318,0.2873297375,0.6744025825569335
0.036000000000000004,1.7676,1.0,2728.726041046217,0.3330299789256809,1.319120121681151,0.9592287511084048,0.2872922,0.6752625890886714
0.0365,1.76669375,1.0,2730.4748160310714,0.33677115039698324,1.3186949520760394,0.960046899920958,0.2872541375,0.6761273199019483
0.037,1.765775,1.0,2731.9408122040354,0.340491337098611,1.3182667115366389,0.9608351200098084,0.28721555,0.6769971311468556
0.0375,1.76484375,1.0,2733.1391487230676,0.3441906538922704,1.317835260654973,0.9615948500148467,0.2871764375,0.6778722802435757
0.038,1.7639,1.0,2734.086784491469,0.3478692203377871,1.3174004438089257,0.9623274415980991,0.28713679999999997,0.6787530557075796
0.0385,1.76294375,1.0,2734.80433587824,0.35152715922376976,1.3169620726000553,0.9630341637180979,0.28709663750000003,0.6796398103733332
0.039,1.761975,1.0,2735.3029992672214,0.35516458328683476,1.3165200445425203,0.9637162168498105,0.28705595,0.6805327213099521
0.0395,1.7609937500000001,1.0,2735.594002380976,0.3587816052635986,1.3160742571504789,0.9643747318274584,0.2870147375,0.6814319641797607
0.04,1.76,1.0,2735.688599878364,0.3623783378906777,1.3156246079380898,0.9650107746256184,0.286973,0.6823377132140533
0.0405,1.7589937500000001,1.0,2735.5980691865416,0.3659548939046885,1.3151709944195114,0.9656253507632074,0.2869307375,0.6832501411881899
0.041,1.757975,1.0,2735.33370656484,0.36951138604224737,1.3147133141089022,0.9662194093637622,0.28688795,0.6841694193960186
0.0415,1.75694375,1.0,2734.906823401791,0.37304792703997086,1.3142514645204206,0.9667938469021481,0.2868446375,0.6850957176236314
0.042,1.7559,1.0,2734.3287427454184,0.3765646296344753,1.313785343168225,0.9673495106649214,0.28680079999999997,0.6860292041224468
0.0425,1.75484375,1.0,2733.61079606578,0.3800616065623772,1.313314847566474,0.9678872019489488,0.2867564375,0.6869700455816237
0.043000000000000003,1.753775,1.0,2732.759167291164,0.38353896172997337,1.31283992203982,0.968407681425498,0.28671155,0.6879183137057379
0.043500000000000004,1.75269375,1.0,2731.784423124267,0.3869968094846058,1.3123604711491317,0.9689116678136671,0.28666613750000003,0.6888741583657285
0.044,1.7516,1.0,2730.7012220602264,0.3904352712770685,1.3118763622827652,0.9693998401670557,0.2866202,0.6898378018152724
0.0445,1.75049375,1.0,2729.51515398195,0.39385445223279875,1.3113875452183712,0.9698728461574856,0.2865737375,0.6908093006469287
0.045,1.7493750000000001,1.0,2728.231810024509,0.39725445747723376,1.3108939697336004,0.9703313001202325,0.28652675,0.6917887104058774
0.0455,1.74824375,1.0,2726.8567815597503,0.4006353921358108,1.3103955856061036,0.9707757850908482,0.2864792375,0.6927760855747578
0.046,1.7471,1.0,2725.3956592371323,0.4039973613339671,1.3098923426135318,0.9712068546985102,0.2864312,0.6937714795583463
0.0465,1.7459437500000001,1.0,2723.854032080088,0.4073404701971398,1.3093841905335357,0.9716250349272941,0.28638263750000004,0.6947749446680768
0.047,1.744775,1.0,2722.2374866382415,0.4106648238507663,1.3088710791437663,0.972030825755749,0.28633355,0.6957865321063943
0.0475,1.74359375,1.0,2720.551606196274,0.41397052742028373,1.308352958221874,0.9724247026842628,0.28628393750000003,0.6968062919509541
0.048,1.7424,1.0,2718.8019700375307,0.41725768603112945,1.30782977754551,0.9728071181588769,0.2862338,0.6978342731386535
0.0485,1.74119375,1.0,2716.994152764827,0.42052640480874054,1.3073014868923252,0.9731785028994717,0.2861831375,0.6988705234495093
0.049,1.739975,1.0,2715.133723676,0.4237767888785544,1.3067680360399703,0.9735392671395698,0.28613195,0.6999150894903683
0.0495,1.73874375,1.0,2713.2262789517067,0.42700894336066736,1.3062293744674707,0.9738898017634843,0.2860802375,0.7009680172616761
0.05,1.7375,1.0,2711.281402924375,0.4302229700024078,1.3056854152227968,0.9742304765752352,0.286028,0.7020294225767421
0.0505,1.73624375,1.0,2709.298180449537,0.43341896883213216,1.3051361670291846,0.974561650439185,0.2859752375,0.7030992333250561
0.051000000000000004,1.734975,1.0,2707.278048255901,0.4365970404548189,1.304581617165023,0.9748836644459219,0.28592195,0.7041774186388372
0.051500000000000004,1.73369375,1.0,2705.2224417968773,0.4397572854754463,1.3040217529087015,0.9751968442093439,0.2858681375,0.7052639469334199
0.052000000000000005,1.7324,1.0,2703.137927464283,0.44289980398874734,1.303456514660912,0.9755014976504475,0.2858138,0.7063588766258025
0.0525,1.73109375,1.0,2701.035374240588,0.446024695798792,1.302885803421135,0.9757979164531977,0.28575893750000003,0.7074623408352473
0.053,1.729775,1.0,2698.904717707511,0.44913205926989064,1.3023097113891802,0.976086391226123,0.28570355000000003,0.7085741020401486
0.0535,1.7284495980254926,1.0,2697.0245314362414,0.45222199274598585,1.3017283325283244,0.9763671999638306,0.2856478831170707,0.7096939201201431
0.054,1.7271241893710467,1.0,2695.70028049405,0.4552945941032582,1.3011418715582455,0.9766406153259803,0.28559221595358397,0.7108213430943788
0.0545,1.7257987807166009,1.0,2694.882157395406,0.45834996093596164,1.3005507833806715,0.9769069133539936,0.28553654879009727,0.7119554419938287
0.055,1.7244733720621552,1.0,2694.532097632879,0.4613881894241766,1.2999554141170737,0.9771663516936396,0.2854808816266105,0.7130955023656085
0.0555,1.7231479634077094,1.0,2694.6124781645904,0.46440937570162555,1.2993561071179718,0.9774191769641263,0.2854252144631238,0.7142408199335887
0.056,1.7218225547532637,1.0,2695.0978584256927,0.467413612346205,1.2987530952753246,0.9776656186872607,0.2853695472996371,0.7153909058144543
0.0565,1.7204971460988179,1.0,2695.9350309040537,0.47040100080658837,1.298146866225013,0.9779059124881688,0.28531388013615033,0.7165447900516715
0.057,1.719171737444372,1.0,2697.099634406155,0.47337163427380663,1.2975376442250077,0.978140268470576,0.2852582129726636,0.7177020097864564
0.0575,1.7178463287899264,1.0,2698.569828640189,0.47632560520227335,1.2969256308675494,0.9783688868624472,0.2852025458091769,0.7188621483861856
0.058,1.7165209201354805,1.0,2700.32380369399,0.4792630060464021,1.2963110277448795,0.9785919598443831,0.28514687864569016,0.7200247922090984
0.0585,1.7151955114810347,1.0,2702.339768009461,0.4821839292606063,1.2956940364492397,0.9788096719426336,0.28509121148220345,0.7211895306388894
0.059000000000000004,1.713870102826589,1.0,2704.595937257636,0.48508846729929955,1.2950748585728709,0.9790222003999798,0.28503554431871675,0.7223559561167101
0.059500000000000004,1.7125446941721432,1.0,2707.070524114976,0.4879767126168954,1.2944536957080146,0.9792297155258924,0.28497987715523,0.7235236641705738
0.06,1.7112192855176973,1.0,2709.7417289411965,0.4908487576678073,1.2938307494469121,0.9794323810272704,0.2849242099917433,0.7246922534421747
0.0605,1.7098938768632517,1.0,2712.597783041482,0.49370469029363284,1.2932061297314974,0.9796303490236632,0.2848685428282566,0.7258614970914423
0.061,1.7085684682088058,1.0,2715.613812241928,0.4965446068912664,1.2925800658775735,0.9798237728749599,0.28481287566476987,0.7270309472291925
0.0615,1.7072430595543602,1.0,2718.7792666738924,0.49936859541407347,1.2919526563733528,0.9800127925811297,0.2847572085012831,0.7282004031777519
0.062,1.7059176508999143,1.0,2722.083596095402,0.5021767438086203,1.2913239995963546,0.9801975428900287,0.2847015413377964,0.7293696660050485
0.0625,1.7045922422454685,1.0,2725.516234928807,0.5049691400214734,1.2906941939240983,0.9803781535425778,0.28464587417430964,0.7305385383253147
0.063,1.7032668335910228,1.0,2729.0665996484654,0.5077458719991991,1.2900633377341029,0.9805547494988317,0.28459020701082294,0.7317068243066065
0.0635,1.701941424936577,1.0,2732.7240863812667,0.5105070276883636,1.2894315294038874,0.9807274511522482,0.28453453984733623,0.7328743296776998
0.064,1.700616016282131,1.0,2736.4780687229495,0.5132526950355334,1.2887988673109712,0.980896374532853,0.2844788726838495,0.7340408617343752
0.0645,1.6992906076276855,1.0,2740.3191445096377,0.5159829604555919,1.2881654385047168,0.9810616308213298,0.2844232055203628,0.735206250163853
0.065,1.6979651989732396,1.0,2744.2434651808853,0.5186979048849573,1.2875312794844258,0.9812233243291878,0.28436753835687606,0.7363704187437787
0.0655,1.6966397903187938,1.0,2748.233527943732,0.521397627534654,1.2868965503662047,0.9813815630607207,0.28431187119338935,0.7375330656504203
0.066,1.6953143816643481,1.0,2752.2849904830205,0.5240822111372505,1.2862612916974159,0.9815364442318172,0.2842562040299026,0.7386941099353539
0.0665,1.6939889730099023,1.0,2756.3934992553786,0.5267517384253149,1.2856255440254227,0.9816880616710938,0.2842005368664159,0.7398534713015985
0.067,1.6926635643554566,1.0,2760.5546890308183,0.5294062921314154,1.2849893478975878,0.9818365059630455,0.2841448697029292,0.7410110701049353
0.0675,1.6913381557010108,1.0,2764.7641824717803,0.5320459549881202,1.2843527438612738,0.981981864584186,0.2840892025394425,0.7421668273551173
0.068,1.690012747046565,1.0,2769.0175897479025,0.5346708097279977,1.283715772463844,0.9821242220325687,0.2840335353759557,0.7433206647169781
0.0685,1.6886873383921193,1.0,2773.310508187869,0.5372809390836161,1.2830784742526606,0.9822636599510501,0.283977868212469,0.7444725045114342
0.069,1.6873619297376734,1.0,2777.6385219669146,0.5398764257875435,1.2824408897750872,0.9824002572446437,0.28392220104898225,0.7456222697163809
0.0695,1.6860365210832275,1.0,2781.997201831844,0.5424573525723481,1.281803059578486,0.9825340901922823,0.28386653388549554,0.7467698839674882
0.07,1.684711112428782,1.0,2786.382104861243,0.5450238021705983,1.2811650242102204,0.9826652325532933,0.28381086672200884,0.7479152715588846
0.07050000000000001,1.683385703774336,1.0,2790.7887742633334,0.5475758573148622,1.2805268242176526,0.9827937556688706,0.28375519955852213,0.7490583574437444
0.07100000000000001,1.6820602951198902,1.0,2795.2189409885427,0.5501135815252174,1.2798884444429126,0.9829197248500801,0.28369953239503537,0.7501991666687712
0.07150000000000001,1.6807348864654446,1.0,2799.6633686290525,0.5526370804039769,1.2792499682099328,0.9830432102915093,0.28364386523154866,0.7513375486439782
0.07200000000000001,1.6794094778109987,1.0,2804.120024637152,0.5551464327966061,1.2786114139759206,0.9831642754196916,0.28358819806806196,0.7524734693952111
0.0725,1.678084069156553,1.0,2808.5875533845306,0.55764171515232,1.2779727940741727,0.9832829812258804,0.2835325309045752,0.7536069061052217
0.073,1.6767586605021072,1.0,2813.064594895282,0.5601230039203334,1.2773341208379854,0.9833993867722481,0.2834768637410885,0.7547378361575948
