Time [s],Phi [rad],STIM [ ],Fsee [N],Gamma [ ],Lcerel [ ],q [ ],Lmtc [m],fisomrel [ ]
0.0,1.8,1.0,17.968031915630526,3.1026486555166875e-05,1.379339648331909,0.0050002542791340214,0.288653,0.5411397678680602
0.0005,1.79999375,1.0,18.284384829255885,0.005640061761303812,1.379301539147015,0.01299899064503236,0.2886527375,0.5412319591859232
0.001,1.799975,1.0,21.641644389586993,0.011217634782979134,1.3789359267966594,0.035718226638195245,0.28865195,0.542115954664403
0.0015,1.79994375,1.0,31.125707235014644,0.01676392203082629,1.3780413947582237,0.070751751425872,0.2886506375,0.5442752036009466
0.002,1.7999,1.0,53.70507940497749,0.022279098992403223,1.3763601766416378,0.1148955112142696,0.2886488,0.5483195709128674
0.0025,1.79984375,1.0,97.3258890462186,0.02776334017129473,1.3739252000725006,0.16476795556524598,0.28864643749999996,0.5541452319857794
0.003,1.7997750000000001,1.0,161.22802657346804,0.03321681909463202,1.3712042468791956,0.21747962200476906,0.28864354999999997,0.5606103542692895
0.0035,1.79969375,1.0,237.98855617398388,0.038639708312839194,1.3685753355235122,0.2708109815866247,0.2886401375,0.5668119325374057
0.004,1.7996,1.0,321.7917004695111,0.044032179410375016,1.3661474884381806,0.3231076094517049,0.2886362,0.5725000532857539
0.0045000000000000005,1.7994937500000001,1.0,409.60437334233796,0.049394403010928976,1.36391491397631,0.37321658358786736,0.2886317375,0.5776974980408638
0.005,1.799375,1.0,499.75706944765443,0.05472654876856316,1.361851042868325,0.4204178070453046,0.28862675,0.5824739246655153
0.0055,1.79924375,1.0,591.1371571975442,0.0600287854143039,1.3599320615718011,0.4643314124817514,0.2886212375,0.5868906602444935
0.006,1.7991000000000001,1.0,682.8653734639362,0.06530128070151373,1.358140103194287,0.5048249003339947,0.2886152,0.5909938344514842
0.006500000000000001,1.79894375,1.0,774.2180634904511,0.07054420132910905,1.3564615047496311,0.5419333746044435,0.2886086375,0.594818863621265
0.007,1.798775,1.0,864.6377701185266,0.07575771366165776,1.3548847103107835,0.575797442590582,0.28860155,0.5983955433279058
0.0075,1.79859375,1.0,953.5892876360135,0.08094198208264644,1.3534014567257033,0.6066196583232317,0.2885939375,0.6017455688270117
0.008,1.7984,1.0,1040.6897942801254,0.08609717077132287,1.3520037684235995,0.6346318394727603,0.2885858,0.6048894994119418
0.0085,1.79819375,1.0,1125.6434125839542,0.09122344307991513,1.3506845817889572,0.6600750339848964,0.2885771375,0.6078454212229087
0.009000000000000001,1.797975,1.0,1208.1977126511329,0.0963209609823421,1.3494379698788463,0.6831866995489927,0.28856795,0.6106285242568574
0.0095,1.79774375,1.0,1288.1788746401894,0.10138988580124977,1.3482583306180642,0.7041925302023597,0.2885582375,0.613252981999742
0.01,1.7975,1.0,1365.4579271002053,0.10643037815847314,1.3471406469119007,0.7233024740282128,0.288548,0.6157314134616935
0.0105,1.79724375,1.0,1439.9400762079624,0.1114425971320572,1.3460804349218556,0.7407088845253782,0.2885372375,0.6180750400647299
0.011,1.796975,1.0,1511.5677349375592,0.11642670078943211,1.3450735546226884,0.7565860883644396,0.28852595000000003,0.620294138711934
0.0115,1.79669375,1.0,1580.3659139019428,0.12138284882886369,1.3441155574467796,0.7710906571647373,0.2885141375,0.6223994997547582
0.012,1.7964,1.0,1646.3159948863251,0.1263111970563048,1.343203133712943,0.7843631522587684,0.28850180000000003,0.6243992634235195
0.0125,1.79609375,1.0,1709.4225693359285,0.13121190057079407,1.3423331793721982,0.7965289768209005,0.2884889375,0.6263010022350841
0.013000000000000001,1.7957750000000001,1.0,1769.7264517303008,0.13608511447137,1.3415025903755649,0.8076997059226204,0.28847555,0.6281121835675356
0.0135,1.79544375,1.0,1827.2942616776904,0.14093099351120775,1.3407083428091982,0.8179745336282145,0.2884616375,0.6298400036358736
0.014,1.7951000000000001,1.0,1882.194228418184,0.14574969153673986,1.3399477191089382,0.8274416963243235,0.2884472,0.6314909064816023
0.0145,1.79474375,1.0,1934.4874422582989,0.15054136055676304,1.3392183523507815,0.8361797108984923,0.2884322375,0.6330705020038938
0.015,1.794375,1.0,1984.2429545449274,0.15530615176650253,1.3385180187802053,0.8442584167003733,0.28841675,0.6345840272995045
0.0155,1.79399375,1.0,2031.5414039883515,0.16004421573355043,1.3378445714701503,0.8517399666141715,0.2884007375,0.6360364972198677
0.016,1.7936,1.0,2076.4761535163966,0.16475570360585357,1.337195907046381,0.8586797245025908,0.2883842,0.63743278147694
0.0165,1.7931937500000001,1.0,2119.126296554178,0.16944076438314448,1.3365702265008605,0.8651271447310059,0.2883671375,0.6387770492128808
0.017,1.792775,1.0,2159.564439826504,0.17409954528420446,1.3359659273275106,0.8711264356706426,0.28834955,0.6400730091676208
0.0175,1.7923437500000001,1.0,2197.8741468697885,0.1787321935278148,1.3353814070202534,0.8767171229585066,0.2883314375,0.6413243361770252
0.018000000000000002,1.7919,1.0,2234.1447443351553,0.18333885584767126,1.3348151058919715,0.8819346113154559,0.2883128,0.6425345818448595
0.0185,1.79144375,1.0,2268.4629115590496,0.18791967839629142,1.3342655805823938,0.8868106844079897,0.2882936375,0.6437070205290665
0.019,1.790975,1.0,2300.9214204726927,0.19247480780378654,1.3337314055109057,0.8913738985311571,0.28827395,0.6448448628052149
0.0195,1.79049375,1.0,2331.584944549507,0.19700438659673827,1.3332115017180803,0.8956500287668746,0.2882537375,0.6459505584272378
0.02,1.79,1.0,2360.523788732623,0.20150855730172823,1.3327047902444908,0.899662302247286,0.288233,0.6470265387384226
0.0205,1.78949375,1.0,2387.8134258958985,0.20598746244533805,1.3322101921307101,0.9034316842976026,0.2882117375,0.6480752176163159
0.021,1.788975,1.0,2413.5326305479243,0.21044124432258943,1.3317266422262983,0.9069771323561496,0.28818995000000003,0.6490989631290354
0.021500000000000002,1.78844375,1.0,2437.750162734997,0.21487004323048217,1.3312532129602939,0.9103158412003979,0.2881676375,0.6500998370646754
0.022,1.7879,1.0,2460.5530876533207,0.2192740023585152,1.3307888363737745,0.9134633783693636,0.2881448,0.6510801840895543
0.0225,1.78734375,1.0,2481.996448590645,0.2236532591947365,1.3303327838800572,0.9164339498843308,0.28812143749999997,0.6520416195601131
0.023,1.786775,1.0,2502.1379567093904,0.22800795122719392,1.3298843268924576,0.9192404787479999,0.28809755,0.6529857489499686
0.0235,1.78619375,1.0,2521.037771273814,0.2323382159439354,1.329442736824293,0.9218947385669423,0.28807313749999996,0.6539141682197693
0.024,1.7856,1.0,2538.7582916470997,0.23664419083300875,1.3290072850888794,0.9244074716630276,0.2880482,0.6548284641532041
0.0245,1.78499375,1.0,2555.355864904781,0.2409260114870841,1.3285773191566788,0.9267885061377378,0.2880227375,0.6557300552800067
0.025,1.784375,1.0,2570.892986450267,0.24518381579548168,1.328152145407703,0.9290468288050301,0.28799675,0.6566204383428628
0.025500000000000002,1.78374375,1.0,2585.424010826089,0.24941773920390173,1.3277311617030176,0.9311906882665818,0.2879702375,0.6575009108698677
0.026000000000000002,1.7831000000000001,1.0,2598.9919245974593,0.25362791387798217,1.3273138848024937,0.9332276704080267,0.2879432,0.6583725153555482
0.0265,1.78244375,1.0,2611.6408589736916,0.25781447198336094,1.3268998314660014,0.9351647440459024,0.2879156375,0.6592362888632011
0.027,1.781775,1.0,2623.4159921985774,0.26197754568567594,1.3264885184534116,0.9370083193999501,0.28788755,0.6600932631316846
0.0275,1.7810937500000001,1.0,2634.363457118205,0.2661172671505652,1.3260794625245949,0.9387643003127901,0.2878589375,0.6609444646673193
0.028,1.7804,1.0,2644.527265070188,0.27023376748805733,1.3256722080400007,0.9404381345926995,0.2878298,0.6617908574947401
0.0285,1.77969375,1.0,2653.9460265676807,0.2743271762864534,1.3252663561877747,0.9420348594456806,0.2878001375,0.6626332829474736
0.029,1.778975,1.0,2662.671591115503,0.27839762804445467,1.3248613923048245,0.9435591163381284,0.28776995,0.6634728182071777
0.029500000000000002,1.7782437500000001,1.0,2670.7340907444604,0.2824452491843502,1.324457007413155,0.9450152257093294,0.2877392375,0.664310109504145
0.03,1.7775,1.0,2678.164127069073,0.28647016612842935,1.3240528925347712,0.9464071897917626,0.287708,0.6651457998719643
0.0305,1.77674375,1.0,2684.9927297076442,0.2904725052989812,1.323648738691678,0.9477387200860447,0.2876762375,0.6659805291558863
0.031,1.775975,1.0,2691.2513168187097,0.29445239311829496,1.3232442369058803,0.9490132621391526,0.28764395,0.6668149340150993
0.0315,1.7751937500000001,1.0,2696.9716577536406,0.2984099560086599,1.3228390781993826,0.9502340179198434,0.2876111375,0.6676496479189187
0.032,1.7744,1.0,2702.1858378264956,0.30234532039236506,1.3224329535941903,0.9514039660502712,0.2875778,0.6684853011368836
0.0325,1.77359375,1.0,2706.9205310727393,0.3062586081832927,1.3220256060851687,0.9525258850072353,0.2875439375,0.6693224139843104
0.033,1.772775,1.0,2711.208804687876,0.3101499490111334,1.321616722492428,0.9536023601128368,0.28750955,0.6701616193023869
0.0335,1.7719437500000002,1.0,2715.0722780376127,0.31401946442436107,1.3212060960364331,0.9546358132300106,0.2874746375,0.6710033286640105
0.034,1.7711000000000001,1.0,2718.5316451374515,0.31786727508014667,1.3207935299099751,0.9556285066690596,0.2874392,0.6718479310200827
0.0345,1.7702437500000001,1.0,2721.6077496628354,0.32169350163566096,1.3203788273058445,0.9565825547672426,0.2874032375,0.6726958131828183
0.035,1.7693750000000001,1.0,2724.3215692092103,0.32549826474807486,1.3199617914168325,0.9574999352974674,0.28736675,0.673547359800164
0.035500000000000004,1.76849375,1.0,2726.694200411558,0.32928168507455924,1.3195422254357294,0.9583824998708508,0.2873297375,0.6744029533277471
0.036000000000000004,1.7676,1.0,2728.746844922037,0.33304388327228496,1.3191199325553264,0.95923198343234,0.2872922,0.6752629739983542
0.0365,1.76669375,1.0,2730.490322972879,0.33678497031044896,1.3186948111491614,0.9600500204090815,0.2872541375,0.6761276063348225
0.037,1.765775,1.0,2731.953094996713,0.3405050750553465,1.3182665999407057,0.9608381327401835,0.28721555,0.6769973576600217
0.0375,1.76484375,1.0,2733.1574887475094,0.3442043209797046,1.31783509406238,0.96159775423012,0.2871764375,0.6778726179284378
0.038,1.7639,1.0,2734.11541189298,0.3478828216774159,1.317400183815706,0.9623302396548554,0.28713679999999997,0.6787535819953958
0.0385,1.76294375,1.0,2734.8388150803507,0.3515406907423729,1.3169617595022045,0.9630368633651638,0.28709663750000003,0.6796404432821004
0.039,1.761975,1.0,2735.3396866189664,0.3551780417684681,1.3165197114233975,0.9637188249330244,0.28705595,0.6805333937514323
0.0395,1.7609937500000001,1.0,2735.6300474312748,0.35879498834959417,1.3160739298808064,0.9643772543429602,0.2870147375,0.6814326238829818
0.04,1.76,1.0,2735.721946269366,0.3623916440796436,1.3156243051759524,0.9650132167694664,0.286973,0.6823383226473128
0.0405,1.7589937500000001,1.0,2735.627455199018,0.3659681225525089,1.315170727610357,0.965627716977584,0.2869307375,0.6832506774794583
0.041,1.757975,1.0,2735.358665350208,0.36952453736208263,1.3147130874855417,0.9662217033800063,0.28688795,0.6841698742516511
0.0415,1.75694375,1.0,2734.9276829343403,0.37306100210225746,1.314251275103028,0.9667960717808353,0.2868446375,0.685096097245284
0.042,1.7559,1.0,2734.346625528871,0.3765776303669258,1.313785180764337,0.9673516688331983,0.28680079999999997,0.6860295291221057
0.0425,1.75484375,1.0,2733.625293829757,0.3800745320701459,1.3133147158865746,0.9678892963803664,0.2867564375,0.6869703087018975
0.043000000000000003,1.753775,1.0,2732.770597491203,0.3835518134372366,1.3128398182057028,0.9684097147740366,0.28671155,0.6879185208706085
0.043500000000000004,1.75269375,1.0,2731.799947789612,0.38700959880198793,1.3123603300950049,0.9689136391543237,0.28666613750000003,0.6888744393588635
0.044,1.7516,1.0,2730.7191161434753,0.39044799412565395,1.3118761996683552,0.9694017525777882,0.2866202,0.6898381252564548
0.0445,1.75049375,1.0,2729.533876378181,0.3938671053694891,1.3113873750396285,0.9698747025750799,0.2865737375,0.6908096386030922
0.045,1.7493750000000001,1.0,2728.250003602064,0.3972670384947474,1.3108938043226999,0.9703331033438056,0.28652675,0.6917890383729555
0.0455,1.74824375,1.0,2726.87327314214,0.4006478994626831,1.3103954356314436,0.9707775377853959,0.2864792375,0.6927763824590765
0.046,1.7471,1.0,2725.4094595400575,0.4040097942345504,1.3098922170797342,0.9712085593984766,0.2864312,0.6937717276575475
0.0465,1.7459437500000001,1.0,2723.864335606784,0.40735282877160345,1.309384096781447,0.9716266940401362,0.28638263750000004,0.694775129651557
0.047,1.744775,1.0,2722.2436715379063,0.4106771090350965,1.308871022850456,0.9720324415654812,0.28633355,0.6957866429952584
0.0475,1.74359375,1.0,2720.5532340884492,0.4139827409862837,1.3083529434006365,0.972426277354963,0.28628393750000003,0.6968063210974614
0.048,1.7424,1.0,2718.7987858065353,0.41726983058641925,1.307829806545863,0.9728086537381433,0.2862338,0.6978342162051551
0.0485,1.7411944745981527,1.0,2717.022003087585,0.4205384837967574,1.3073015604000098,0.9731800013218167,0.28618316793312243,0.6988703793868596
0.049,1.739986230764716,1.0,2715.669354472826,0.4237888034016216,1.3067682266938643,0.9735407349075391,0.28613242169211806,0.6999147164894831
0.0495,1.7387779869312796,1.0,2714.8163050331264,0.4270208929978655,1.3062303424159112,0.9738912848339387,0.28608167545111374,0.7009661268617149
0.05,1.737569743097843,1.0,2714.426997921886,0.4302348537706573,1.3056882322491303,0.9742320467340722,0.2860309292101094,0.7020239306900566
0.0505,1.7363614992644063,1.0,2714.468298390528,0.43343078644930993,1.3051421972986295,0.9745633963001081,0.28598018296910505,0.7030874981752688
0.051000000000000004,1.7351532554309699,1.0,2714.9071785851993,0.43660879176313633,1.3045925386695163,0.9748856919978821,0.2859294367281007,0.7041562034019746
0.051500000000000004,1.7339450115975332,1.0,2715.710692349912,0.4397689704414494,1.3040395574668984,0.9751992760176985,0.2858786904870964,0.7052294244111371
0.052000000000000005,1.7327367677640968,1.0,2716.8467922425552,0.4429114229217323,1.303483547140997,0.9755044746439905,0.28582794424609204,0.7063065580826478
0.0525,1.7315285239306601,1.0,2718.2886621949665,0.44603624838160294,1.3029247538409903,0.9758015965130306,0.2857771980050877,0.7073870966529829
0.053,1.7303202800972235,1.0,2720.0063439772207,0.44914354767773335,1.3023634525637762,0.9760909386368316,0.2857264517640834,0.7084704800819932
0.0535,1.729112036263787,1.0,2721.9806161987776,0.4522334177978203,1.301799820640562,0.9763727786291513,0.2856757055230791,0.7095563401190197
0.054,1.7279037924303504,1.0,2724.192267235092,0.45530595572956045,1.3012340354025556,0.9766473821109993,0.2856249592820747,0.710644310953737
0.0545,1.726695548596914,1.0,2726.622086412917,0.4583612584606506,1.3006662741809643,0.976915003334826,0.2855742130410704,0.7117340292415091
0.055,1.7254873047634773,1.0,2729.2508558926575,0.4613994229787876,1.3000967143069952,0.9771758857712346,0.285523466800066,0.71282513412674
0.0555,1.7242790609300407,1.0,2732.060986004993,0.4644205453923764,1.2995255181868153,0.9774302616943898,0.2854727205590617,0.7139172957746167
0.056,1.7230708170966043,1.0,2735.035414966239,0.46742472230002924,1.2989528432721023,0.9776783534653473,0.2854219743180574,0.7150101961081821
0.0565,1.7218625732631676,1.0,2738.1592242195225,0.4704120493304266,1.2983788273637475,0.9779203730438603,0.28537122807705306,0.7161035566997288
0.057,1.7206543294297312,1.0,2741.421317510694,0.4733826198686323,1.2978035733969449,0.9781565215231357,0.2853204818360487,0.7171971673214621
0.0575,1.7194460855962945,1.0,2744.8105823519654,0.47633652729971027,1.2972271843068885,0.9783869918528112,0.28526973559504437,0.718290819225124
0.058,1.7182378417628579,1.0,2748.315887313905,0.4792738650087244,1.296649763028773,0.9786119692368304,0.28521898935404,0.7193843051497859
0.0585,1.7170295979294214,1.0,2751.9260795524515,0.48219472638073857,1.2960714124977921,0.9788316315088472,0.2851682431130357,0.7204774193289611
0.059000000000000004,1.7158213540959848,1.0,2755.6365712344127,0.4850991973899572,1.2954921760453277,0.9790461455737879,0.28511749687203136,0.7215700698214191
0.059500000000000004,1.7146131102625484,1.0,2759.4303438673023,0.4879873795505765,1.2949122093103045,0.9792556792448307,0.28506675063102704,0.7226619540807244
0.06,1.7134048664291117,1.0,2763.297591754855,0.4908593667508296,1.2943316023814613,0.9794603896437158,0.28501600439002267,0.7237528948965606
0.0605,1.712196622595675,1.0,2767.23332453146,0.49371524734592565,1.293750401652437,0.9796604250597558,0.28496525814901835,0.7248427982430865
0.061,1.7109883787622386,1.0,2771.232539679732,0.4965551096910739,1.2931686535168705,0.9798559281319011,0.28491451190801403,0.7259315707752078
0.0615,1.709780134928802,1.0,2775.2902219439766,0.49937904214148365,1.2925864043684006,0.9800470361084652,0.28486376566700966,0.727019119830264
0.062,1.7085718910953656,1.0,2779.4013427908794,0.5021871330523641,1.2920037006006666,0.9802338810930201,0.28481301942600534,0.7281053534295799
0.0625,1.707363647261929,1.0,2783.5608599178504,0.5049794707789242,1.2914205886073071,0.9804165902773003,0.284762273185001,0.7291901802798809
0.063,1.7061554034284923,1.0,2787.763716809389,0.5077561436763737,1.290837114781961,0.9805952861618906,0.28471152694399665,0.7302735097745676
0.0635,1.7049471595950558,1.0,2792.0048423411995,0.5105172400999214,1.2902533255182678,0.9807700867654283,0.28466078070299233,0.731355251994855
0.064,1.7037389157616192,1.0,2796.279150431605,0.5132628484047767,1.2896692672098657,0.9809411058229932,0.284610034461988,0.7324353177107762
0.0645,1.7025306719281827,1.0,2800.5815397409724,0.5159930569461487,1.289084986250394,0.9811084529743236,0.28455928822098364,0.7335136183820459
0.065,1.701322428094746,1.0,2804.912071850453,0.5187079391898519,1.2885004826005515,0.9812722305863204,0.2845085419799793,0.7345901515919926
0.0655,1.7001141842613094,1.0,2809.2630594088096,0.5214075976217688,1.287915825651808,0.9814325428494276,0.284457795738975,0.7356647874337938
0.066,1.698905940427873,1.0,2813.630484242259,0.5240921218747241,1.2873310517336445,0.9815894877768613,0.2844070494979707,0.7367374576200183
0.0665,1.6976976965944364,1.0,2818.01275294051,0.5267615937871075,1.2867461753725211,0.9817431583731836,0.2843563032569663,0.7378081342768857
0.067,1.6964894527609997,1.0,2822.4082671177275,0.529416095197309,1.286161211094899,0.9818936444248428,0.284305557015962,0.7388767897471322
0.0675,1.6952812089275633,1.0,2826.815423381845,0.5320557079437185,1.2855761734272382,0.9820410326347295,0.2842548107749576,0.739943396590102
0.068,1.6940729650941266,1.0,2831.2326133086904,0.5346805138647258,1.2849910768959998,0.982185406750197,0.2842040645339533,0.7410079275818187
0.0685,1.6928647212606902,1.0,2835.658223420484,0.537290594798721,1.284405936027644,0.9823268476849163,0.284153318292949,0.7420703557150499
0.069,1.6916564774272536,1.0,2840.0906351694907,0.539886032584094,1.2838207653486318,0.9824654336348958,0.28410257205194467,0.7431306541993523
0.0695,1.690448233593817,1.0,2844.5282249257766,0.5424669090592343,1.283235579385423,0.9826012401889879,0.2840518258109403,0.7441887964611087
0.07,1.6892399897603805,1.0,2848.9693639703814,0.5450333060625323,1.2826503926644792,0.9827343404341793,0.284001079569936,0.745244756143545
0.07050000000000001,1.6880317459269438,1.0,2853.4124184921343,0.5475853054323777,1.2820652197122604,0.9828648050559421,0.2839503333289316,0.746298507106742
0.07100000000000001,1.6868235020935074,1.0,2857.8557495904856,0.5501229890071604,1.281480075055227,0.9829927024339149,0.2838995870879273,0.7473500234276267
0.07150000000000001,1.6856152582600707,1.0,2862.2977132814744,0.5526464386252703,1.2808949732198402,0.9831180987331548,0.28384884084692297,0.748399279399953
0.07200000000000001,1.684407014426634,1.0,2866.7366605098546,0.5551557361250973,1.28030992873256,0.9832410579911972,0.28379809460591865,0.74944624953427
0.0725,1.6831987705931977,1.0,2871.174816126877,0.5576509236633861,1.2797249217424307,0.9833616383537165,0.28374734836491433,0.7504909698858132
