Time [s],Phi [rad],STIM [ ],Fsee [N],Gamma [ ],Lcerel [ ],q [ ],Lmtc [m],fisomrel [ ]
0.0,1.8,1.0,17.966476611056336,1.2625325957660874e-05,1.3793398225775693,0.005000042404549055,0.288653,0.5411393463227624
0.0005,1.79999375,1.0,18.276756026943826,0.005621763816659214,1.3793023864697702,0.012947805950128684,0.2886527375,0.5412299094972484
0.001,1.799975,1.0,21.620368986773684,0.011199439475336602,1.3789380991317461,0.035622264410118315,0.28865195,0.5421107048036319
0.0015,1.79994375,1.0,31.075289159754202,0.01674582878446544,1.3780456880460297,0.07062044394424562,0.2886506375,0.5442648525185078
0.002,1.7999,1.0,53.59645420085539,0.022261107234863815,1.3763672191938021,0.11474003035179463,0.2886488,0.5483026668250144
0.0025,1.79984375,1.0,97.14321175717755,0.02774544933327813,1.373933997621183,0.16459881863192052,0.28864643749999996,0.5541242519867382
0.003,1.7997750000000001,1.0,160.9902399314786,0.03319902861007298,1.3712131432890167,0.2173051356550203,0.28864354999999997,0.5605892928873979
0.0035,1.79969375,1.0,237.71984363280814,0.038622017618843194,1.3685836096073902,0.270637435933935,0.2886401375,0.566792483191285
0.004,1.7996,1.0,321.50581171371516,0.04401458794719097,1.3661550583971451,0.3229395695086267,0.2886362,0.5724823763079823
0.0045000000000000005,1.7994937500000001,1.0,409.30833871305686,0.04937691022191164,1.3639218614369204,0.3730570691867761,0.2886317375,0.5776813736233639
0.005,1.799375,1.0,499.45503564075784,0.054709154100092715,1.3618574598248083,0.4202685689047499,0.28862675,0.5824591159730141
0.0055,1.79924375,1.0,590.8324186302597,0.06001148831645065,1.3599380144452764,0.46419324138009765,0.2886212375,0.5868769953992092
0.006,1.7991000000000001,1.0,682.5602492065967,0.06528408062680864,1.3581456487502181,0.5046979224600197,0.2886152,0.5909811679887926
0.006500000000000001,1.79894375,1.0,773.9256855854289,0.07052709786495323,1.3564664952177556,0.54181715593607,0.2886086375,0.5948075184539854
0.007,1.798775,1.0,864.3297339825793,0.07574070591605685,1.3548896855117607,0.575691723412297,0.28860155,0.5983842828997563
0.0075,1.79859375,1.0,953.285497756082,0.08092506975613514,1.3534061288521868,0.6065235159429028,0.2885939375,0.6017350385513761
0.008,1.7984,1.0,1040.4012392586542,0.08608035340886186,1.3520080164330504,0.634544405244602,0.2885858,0.6048799629045579
0.0085,1.79819375,1.0,1125.355530591616,0.09120671979481054,1.3506886568041372,0.6599956572625783,0.2885771375,0.607836307362596
0.009000000000000001,1.797975,1.0,1207.9228846417013,0.09630433152191878,1.349441724828039,0.6831145253795708,0.28856795,0.6106201560880263
0.0095,1.79774375,1.0,1287.9270477013274,0.10137335005939996,1.3482616627539574,0.7041267850944228,0.2885582375,0.6132455811729873
0.01,1.7975,1.0,1365.2127462692752,0.1064139350470761,1.3471437979541467,0.7232426231672996,0.288548,0.6157244373149571
0.0105,1.79724375,1.0,1439.69853714213,0.11142624612476913,1.3460834578008611,0.7406543469272392,0.2885372375,0.6180683681014016
0.011,1.796975,1.0,1511.3500399811285,0.11641044208831734,1.345076213740484,0.756536203744584,0.28852595000000003,0.6202882867045021
0.0115,1.79669375,1.0,1580.1564830288585,0.12136668117764793,1.344118059310464,0.7710450340853947,0.2885141375,0.6223940091084184
0.012,1.7964,1.0,1646.1008258318627,0.12629511942119392,1.3432056521133544,0.7843214266679169,0.28850180000000003,0.6243937511398188
0.0125,1.79609375,1.0,1709.2067069815314,0.13119591281107917,1.3423356588103637,0.7964907290472618,0.2884889375,0.6262955889887574
0.013000000000000001,1.7957750000000001,1.0,1769.517084215798,0.13606921623907706,1.341504953880153,0.8076645535556389,0.28847555,0.6281070359544472
0.0135,1.79544375,1.0,1827.1094775686274,0.140915185368985,1.3407103956663644,0.8179420932581952,0.2884616375,0.6298355430002214
0.014,1.7951000000000001,1.0,1882.0224029826481,0.14573397232136204,1.33994959995185,0.827411748687517,0.2884472,0.6314868287390852
0.0145,1.79474375,1.0,1934.3165377878204,0.1505257291381548,1.3392201976527118,0.8361520603600494,0.2884322375,0.6330665098994105
0.015,1.794375,1.0,1984.0734425013209,0.15529060781085874,1.3385198259534572,0.8442328426597414,0.28841675,0.6345801257539574
0.0155,1.79399375,1.0,2031.3762127053365,0.1600287589343693,1.3378463119559896,0.8517162641092544,0.2884007375,0.6360327471228833
0.016,1.7936,1.0,2076.3246436065024,0.16474033407813451,1.3371974860127005,0.8586576904719042,0.2883842,0.6374293859270237
0.0165,1.7931937500000001,1.0,2118.9830194450697,0.16942548093690935,1.3365717045644163,0.8651066437589905,0.2883671375,0.6387738765516686
0.017,1.792775,1.0,2159.4277615259257,0.17408434720544866,1.3359673240519627,0.8711073353509573,0.28834955,0.6400700164839397
0.0175,1.7923437500000001,1.0,2197.746412707843,0.17871708057850738,1.3353827009161658,0.8766992937748053,0.2883314375,0.6413215686421482
0.018000000000000002,1.7919,1.0,2234.0217454427047,0.18332382724187404,1.3348163416655434,0.8819179546388768,0.2883128,0.6425319430921623
0.0185,1.79144375,1.0,2268.3546745436824,0.18790473524068288,1.3342666597838564,0.8867950760526826,0.2882936375,0.6437047198882131
0.019,1.790975,1.0,2300.817153163836,0.19245994856276147,1.3337324377720237,0.8913592769906067,0.28827395,0.6448426657485407
0.0195,1.79049375,1.0,2331.4792055692774,0.19698961024743789,1.3332125416425527,0.8956363256683394,0.2882537375,0.6459483485080042
0.02,1.79,1.0,2360.4166549683423,0.20149386333404032,1.3327058374079517,0.8996494433338696,0.288233,0.64702431681975
0.0205,1.78949375,1.0,2387.710635650758,0.20597285086189682,1.332211191080728,0.9034195902971046,0.2882117375,0.6480731011502681
0.021,1.788975,1.0,2413.432052605575,0.21042671379043867,1.3317276144541579,0.9069657475012834,0.28818995000000003,0.6490969062772756
0.021500000000000002,1.78844375,1.0,2437.668892814429,0.21485559603539517,1.3312539946353183,0.91030507798866,0.2881676375,0.650098185708369
0.022,1.7879,1.0,2460.482206469897,0.21925963662221817,1.330789514960088,0.9134532065019084,0.2881448,0.6510787525270083
0.0225,1.78734375,1.0,2481.9299929298395,0.22363897361289473,1.3303334173436916,0.9164243363405247,0.28812143749999997,0.6520402850320104
0.023,1.786775,1.0,2502.0729862320964,0.22799374506941184,1.3298849437013542,0.9192313881102462,0.28809755,0.6529844512728136
0.0235,1.78619375,1.0,2520.9744256973245,0.2323240890537565,1.3294433359483009,0.9218861333135644,0.28807313749999996,0.6539129094363998
0.024,1.7856,1.0,2538.694551339787,0.23663014262716833,1.329007885838603,0.9243993210029775,0.2880482,0.6548272036224898
0.0245,1.78499375,1.0,2555.292969138674,0.24091204261005955,1.3285779100182802,0.9267807770983184,0.2880227375,0.6557288171174075
0.025,1.784375,1.0,2570.8380025296833,0.24516992699310544,1.3281526603794511,0.9290394817555879,0.28799675,0.6566193606055122
0.025500000000000002,1.78374375,1.0,2585.3727788698648,0.24940392854863458,1.3277316401838886,0.9311837032434851,0.2879702375,0.6574999107856447
0.026000000000000002,1.7831000000000001,1.0,2598.9416952471443,0.25361418004897557,1.3273143526933653,0.9332210272099154,0.2879432,0.6583715386509034
0.0265,1.78244375,1.0,2611.590312462525,0.25780081426645696,1.3269003011696536,0.9351584222525777,0.2879156375,0.6592353096147633
0.027,1.781775,1.0,2623.3652544829856,0.26196396397340743,1.3264889888745266,0.9370022983919087,0.28788755,0.6600922836214581
0.0275,1.7810937500000001,1.0,2634.3140357004495,0.26610376189148943,1.3260799197883388,0.9387585593778296,0.2878589375,0.6609435137462708
0.028,1.7804,1.0,2644.479393129269,0.270220336716391,1.325672650115407,0.9404326553475499,0.2878298,0.6617899393074225
0.0285,1.77969375,1.0,2653.909967144777,0.27431382430290757,1.3252666885882087,0.9420296141039233,0.2878001375,0.6626325934147361
0.029,1.778975,1.0,2662.6384622879486,0.27838435191457495,1.3248616971897789,0.9435541011523157,0.28776995,0.6634721865401034
0.029500000000000002,1.7782437500000001,1.0,2670.698125351972,0.282432046814929,1.324457337903152,0.9450104336070545,0.2877392375,0.6643094256403059
0.03,1.7775,1.0,2678.122697071361,0.28645703626750546,1.3240532727113627,0.9464026106675703,0.287708,0.6651450141742831
0.0305,1.77674375,1.0,2684.9463663446,0.2904594475358403,1.323649163597446,0.9477343410664623,0.2876762375,0.6659796521131173
0.031,1.775975,1.0,2691.2037269901707,0.2944394078834692,1.323244672544437,0.9490090678232619,0.28764395,0.6668140359427288
0.0315,1.7751937500000001,1.0,2696.9235885833878,0.2983970404126918,1.3228395177589605,0.9502299963068579,0.2876111375,0.6676487428991131
0.032,1.7744,1.0,2702.134024022651,0.3023324701115058,1.3224334269386846,0.951400110036292,0.2875778,0.6684843277824488
0.0325,1.77359375,1.0,2706.877441108348,0.30624583313946047,1.3220259993883763,0.952522175042936,0.2875439375,0.6693216062433593
0.033,1.772775,1.0,2711.1739803112664,0.31013724983244506,1.3216170400998484,0.9535987889917824,0.28750955,0.670160967848892
0.0335,1.7719437500000002,1.0,2715.0439660843604,0.31400684052634903,1.3212063540649135,0.9546323752364161,0.2874746375,0.6710028000903234
0.034,1.7711000000000001,1.0,2718.507889499385,0.3178547255570617,1.3207937462753845,0.9556251965916188,0.2874392,0.6718474883628962
0.0345,1.7702437500000001,1.0,2721.5863917265797,0.3216810252604724,1.320379021723074,0.9565793678628939,0.2874032375,0.6726954159431318
0.035,1.7693750000000001,1.0,2724.3002483577848,0.32548585997247054,1.3199619853997948,0.9574968672581677,0.28736675,0.6735469639637166
0.035500000000000004,1.76849375,1.0,2726.6703545725372,0.3292693500289454,1.3195424422973596,0.9583795467930915,0.2873297375,0.674402511385965
0.036000000000000004,1.7676,1.0,2728.7177111471156,0.33303161576578655,1.3191201974075812,0.9592291417891554,0.2872922,0.6752624349698546
0.0365,1.76669375,1.0,2730.463411307115,0.33677277751888307,1.3186950557222723,0.9600472795530942,0.2872541375,0.6761271092416383
0.037,1.765775,1.0,2731.9286284229092,0.3404929556241245,1.3182668222332456,0.9608354873165705,0.28721555,0.6769969064590293
0.0375,1.76484375,1.0,2733.1207292544836,0.3441922600418218,1.3178354279697637,0.96159520962434,0.2871764375,0.6778719410946338
0.038,1.7639,1.0,2734.068582581975,0.34787082024403365,1.3174006091188413,0.962327789571091,0.28713679999999997,0.6787527210809583
0.0385,1.76294375,1.0,2734.7865589235475,0.35152875189358634,1.316962234029339,0.9630345002006339,0.28709663750000003,0.67963948405335
0.039,1.761975,1.0,2735.285833835715,0.35516616791552447,1.3165202004044556,0.963716542038692,0.28705595,0.6805324066834288
0.0395,1.7609937500000001,1.0,2735.5776141638307,0.3587831812348926,1.3160744059473901,0.9643750459649532,0.2870147375,0.6814316642378968
0.04,1.76,1.0,2735.6731336519188,0.3623799047767353,1.3156247483613417,0.9650110779947161,0.286973,0.6823374305543359
0.0405,1.7589937500000001,1.0,2735.5836487849488,0.3659564514660973,1.3151711253495093,0.965625643683361,0.2869307375,0.683249878016339
0.041,1.757975,1.0,2735.320434863259,0.36951293422802306,1.3147134346150917,0.9662196921870689,0.28688795,0.6841691775279732
0.0415,1.75694375,1.0,2734.894782308341,0.3730494659875573,1.3142515738612883,0.966794120009921,0.2868446375,0.6850954984875741
0.042,1.7559,1.0,2734.3179932016583,0.3765661596697445,1.3137854407912977,0.9673497744646141,0.28680079999999997,0.686029008760877
0.0425,1.75484375,1.0,2733.6013780545927,0.38006312819962934,1.3133149331083191,0.9678874568713942,0.2867564375,0.6869698746534743
0.043000000000000003,1.753775,1.0,2732.7489021901174,0.3835404769483513,1.3128400152901407,0.9684079297492307,0.28671155,0.6879181276570936
0.043500000000000004,1.75269375,1.0,2731.7753079799895,0.3869983235596295,1.3123605539677679,0.9689119091753325,0.28666613750000003,0.6888739933831287
0.044,1.7516,1.0,2730.691868723353,0.3904367799267112,1.311876447282434,0.9694000751764713,0.2866202,0.689837632750278
0.0445,1.75049375,1.0,2729.5046024038957,0.393855952078508,1.311387641128055,0.9698730752450563,0.2865737375,0.6908091101808216
0.045,1.7493750000000001,1.0,2728.2195280093806,0.3972559460439309,1.3108940813985464,0.9703315235419281,0.28652675,0.6917884890030422
0.0455,1.74824375,1.0,2726.842664429766,0.4006368678518913,1.3103957139878237,0.9707760029331016,0.2864792375,0.6927758314349144
0.046,1.7471,1.0,2725.380029419964,0.4039988235313004,1.3098924847898028,0.9712070668830134,0.2864312,0.6937711985676079
0.0465,1.7459437500000001,1.0,2723.8376386279438,0.40734191911106954,1.3093843396983988,0.9716252412156754,0.28638263750000004,0.6947746503488066
0.047,1.744775,1.0,2722.2215046869082,0.41066626062010997,1.3088712246075278,0.972031025754123,0.28633355,0.6957862455658359
0.0475,1.74359375,1.0,2720.537636373697,0.41397195408733295,1.308353085411105,0.9724248958476365,0.28628393750000003,0.6968060418286091
0.048,1.7424,1.0,2718.7920378304198,0.41725910554164974,1.307829868003046,0.9728073037954087,0.2862338,0.697834095552383
0.0485,1.74119375,1.0,2716.98937390132,0.4205278134356535,1.3073015304302618,0.9731786800844514,0.2861831375,0.6988704381225093
0.049,1.739975,1.0,2715.134669939892,0.4237781851574535,1.3067680274160645,0.9735394356069484,0.28613195,0.6999151063624258
0.0495,1.73874375,1.0,2713.2333955021977,0.4270103332533273,1.3062293095870554,0.9738899622181488,0.2860802375,0.7009681439726894
0.05,1.7375,1.0,2711.288840603489,0.43022435670670006,1.305685347390391,0.9742306332059457,0.286028,0.7020295548176527
0.0505,1.73624375,1.0,2709.304291734683,0.43342035450099703,1.305136111273227,0.9745618046166816,0.2859752375,0.703099341827337
0.051000000000000004,1.734975,1.0,2707.2830316095615,0.43659842561964335,1.3045815716827192,0.9748838162021931,0.28592195,0.7041775069875147
0.051500000000000004,1.73369375,1.0,2705.2283389309446,0.4397586690460643,1.3040216990660236,0.9751969923067202,0.2858681375,0.7052640513297455
0.052000000000000005,1.7324,1.0,2703.1434881766163,0.4429011837636851,1.3034564638702963,0.9755016426979884,0.2858138,0.7063589749213506
0.0525,1.73109375,1.0,2701.0317494045216,0.4460260687559309,1.3028858365426932,0.9757980633464427,0.28575893750000003,0.7074622768553347
0.053,1.729775,1.0,2698.8963880773213,0.449133423006227,1.30230978753037,0.9760865371562837,0.28570355000000003,0.7085739552402506
0.0535,1.72844375,1.0,2696.7406649060226,0.45222334549799853,1.301728287280483,0.9763673346516782,0.2856476375,0.7096940071900075
0.054,1.7271,1.0,2694.567835713655,0.45529593521467077,1.301141306240188,0.9766407146212537,0.2855912,0.7108224288136267
0.0545,1.7257437500000001,1.0,2692.381151317594,0.4583512911396689,1.3005488148566409,0.9769069247237414,0.2855342375,0.7119592152049382
0.055,1.724375,1.0,2690.181870043153,0.46138951144003276,1.2999508017731354,0.9771662030675139,0.28547675,0.7131043256238943
0.0555,1.72299375,1.0,2687.969833884051,0.46441069054024847,1.299347268588372,0.9774187781090534,0.2854187375,0.7142576938414575
0.056,1.7216,1.0,2685.74869976876,0.4674149232362563,1.2987381819469983,0.977664866725644,0.2853602,0.7154193196651855
0.0565,1.72019375,1.0,2683.5212088012886,0.4704023043369016,1.2981235168346499,0.9779046772720079,0.28530113749999997,0.7165891859379472
0.057,1.718775,1.0,2681.2861232640325,0.4733729284605785,1.2975032846854653,0.9781384115968913,0.28524155,0.7177672053614764
0.0575,1.71734375,1.0,2679.0527830737365,0.4763268900224717,1.2968773999051788,0.9783662577701853,0.2851814375,0.718953473933484
0.058,1.7159,1.0,2676.8196954663563,0.4792642822773567,1.2962458761859732,0.978588401725807,0.2851208,0.7201478980956794
0.0585,1.7144458401288016,1.0,2674.674389103139,0.4821851978653345,1.2956088537429564,0.978805028936383,0.2850597252854097,0.7213501453723705
0.059000000000000004,1.7129905687676805,1.0,2673.0584078015254,0.4850897292887978,1.2949664751006875,0.9790163176207398,0.2849986038882426,0.7225598806335316
0.059500000000000004,1.7115352974065594,1.0,2671.984180286736,0.48797796880994504,1.2943191236382598,0.9792224521474063,0.2849374824910755,0.7237763184336949
0.06,1.7100800260454385,1.0,2671.4048370787104,0.4908500077365558,1.2936672269882756,0.9794236120467057,0.2848763610939084,0.724998596278752
0.0605,1.7086247546843174,1.0,2671.28235659111,0.4937059365895966,1.2930111330185456,0.9796199655983133,0.28481523969674133,0.7262260074208806
0.061,1.7071694833231963,1.0,2671.581884933558,0.496545845046139,1.2923511616637517,0.9798116731136937,0.28475411829957425,0.727457902658976
0.0615,1.7057142119620752,1.0,2672.2708900452553,0.49936982230716276,1.291687612428744,0.9799988877341044,0.2846929969024071,0.7286936758788867
0.062,1.704258940600954,1.0,2673.3018278154564,0.5021779623736528,1.2910209233719367,0.9801817644995524,0.28463187550524005,0.7299324686216369
0.0625,1.702803669239833,1.0,2674.6527722717583,0.5049703523012085,1.2903512976407714,0.9803604399876404,0.284570754108073,0.7311738646630108
0.063,1.7013483978787118,1.0,2676.301835189329,0.5077470791454294,1.2896789383826894,0.9805350457473013,0.2845096327109059,0.7324174510761416
0.0635,1.6998931265175907,1.0,2678.227153321598,0.5105082299619151,1.289004048745132,0.9807057085267582,0.2844485113137388,0.7336628182682443
0.064,1.6984378551564696,1.0,2680.406876545325,0.5132538918062651,1.2883268318755408,0.9808725504895842,0.28438738991657175,0.734909560014712
0.0645,1.6969825837953485,1.0,2682.8191569212468,0.5159841517340789,1.287647490921357,0.9810356894195663,0.2843262685194046,0.7361572734905861
0.065,1.6955273124342274,1.0,2685.4421386698154,0.5186990968009559,1.2869662290300221,0.9811952389150234,0.28426514712223755,0.7374055592993907
0.0655,1.6940720410731063,1.0,2688.2570823713513,0.5213988125007162,1.2862832206507206,0.9813513070430085,0.2842040257250705,0.738654073896208
0.066,1.6926167697119852,1.0,2691.2468833836165,0.5240833849861304,1.2855986251013645,0.9815039973953394,0.28414290432790335,0.7399025042736298
0.0665,1.691161498350864,1.0,2694.392470680761,0.5267529017767737,1.2849126194998068,0.9816534109313003,0.28408178293073627,0.7411505078117293
0.067,1.689706226989743,1.0,2697.6832892108423,0.529407445705058,1.2842253028199713,0.9817996410421759,0.2840206615335692,0.7423978865972438
0.0675,1.688250955628622,1.0,2701.108769534098,0.5320470996033958,1.2835367740357815,0.9819427779238126,0.2839595401364021,0.7436444444176729
0.068,1.686795684267501,1.0,2704.6583250546687,0.5346719463041989,1.2828471321211603,0.9820829087108461,0.28389841873923505,0.7448899867692439
0.0685,1.6853404129063798,1.0,2708.321349469093,0.5372820686398796,1.2821564760500317,0.9822201176044195,0.283837297342068,0.7461343208642471
0.069,1.6838851415452587,1.0,2712.087214432439,0.5398775494428499,1.281464904796319,0.982354485993747,0.28377617594490084,0.7473772556377523
0.0695,1.6824298701841376,1.0,2715.945267441499,0.542458471545522,1.280772517333945,0.9824860925718625,0.28371505454773377,0.7486186017536975
0.07,1.6809745988230165,1.0,2719.889742431252,0.5450249122769092,1.28007936790526,0.9826150110265025,0.2836539331505667,0.7498582515108101
0.07050000000000001,1.6795193274618954,1.0,2723.9091215900135,0.547576957580246,1.279385562967013,0.982741315574529,0.2835928117533996,0.7510960051199146
0.07100000000000001,1.6780640561007742,1.0,2727.9922287787476,0.5501146934322775,1.2786912055843935,0.9828650778784754,0.2835316903562325,0.7523316706948894
0.07150000000000001,1.6766087847396531,1.0,2732.1347119074053,0.5526381977705493,1.2779963365369862,0.9829863639821814,0.2834705689590654,0.7535651685969857
0.07200000000000001,1.675153513378532,1.0,2736.332207107151,0.5551475485326072,1.2773009966043751,0.9831052378155507,0.28340944756189834,0.7547964199050394
0.0725,1.673698242017411,1.0,2740.5803382862755,0.5576428236559968,1.276605226566144,0.9832217612772852,0.28334832616473127,0.7560253464167478
0.073,1.6722429706562898,1.0,2744.8747167226506,0.560124101078264,1.2759090672018776,0.9833359943138712,0.2832872047675642,0.7572518706498399
0.0735,1.6707876992951687,1.0,2749.210940693621,0.5625914587369545,1.2752125592911596,0.9834479949950059,0.28322608337039706,0.758475915843144
