Time [s],Phi [rad],STIM [ ],Fsee [N],Gamma [ ],Lcerel [ ],q [ ],Lmtc [m],fisomrel [ ]
0.0,1.8,1.0,19.677677999053675,0.0013361018148853225,1.3791524668436776,0.0054573232435818925,0.288653,0.5415924964488327
0.0005,1.79999375,1.0,20.36211615522927,0.006937816649080518,1.379076999128057,0.017027603559213976,0.2886527375,0.5417749640690916
0.001,1.799975,1.0,24.695137993618548,0.012508110293092494,1.3786345064391745,0.042848401317517125,0.28865195,0.5428441024667179
0.0015,1.79994375,1.0,36.44954229369338,0.018047158992457252,1.3776061125883747,0.08029346429992246,0.2886506375,0.5453240552802796
0.002,1.7999,1.0,63.41860725241331,0.023555138009188317,1.375756879383,0.12605602910879513,0.2886488,0.5497664783046864
0.0025,1.79984375,1.0,112.18753108080243,0.029032221618665303,1.3732352194122517,0.1768208411402316,0.28864643749999996,0.5557891294333175
0.003,1.7997750000000001,1.0,179.66090307275218,0.03447858311984773,1.3705335165526136,0.22985560057692567,0.28864354999999997,0.5621967892575066
0.0035,1.79969375,1.0,258.329047988525,0.039894394839913465,1.3679620323347605,0.28307900268839387,0.2886401375,0.5682523684951296
0.004,1.7996,1.0,343.1537410840857,0.045279828138250815,1.3655910614890165,0.3349570144568071,0.2886362,0.5737983920897134
0.0045000000000000005,1.7994937500000001,1.0,431.5414227518634,0.050635053414572924,1.3634068927209575,0.38444436513115926,0.2886317375,0.5788757344480182
0.005,1.799375,1.0,521.9920767118689,0.05596024008916953,1.3613838532074047,0.43090863470906926,0.28862675,0.5835513732173755
0.0055,1.79924375,1.0,613.4727922661313,0.061255556731534,1.3594998502646627,0.47403518907172043,0.2886212375,0.5878821991699144
0.006,1.7991000000000001,1.0,705.1293816895127,0.06652117078945746,1.3577387508664551,0.5137370916104932,0.2886152,0.5919100322975395
0.006500000000000001,1.79894375,1.0,796.285164812773,0.07175724891913285,1.3560875328530158,0.5500787107372124,0.2886086375,0.5956685872023356
0.007,1.798775,1.0,886.369372853314,0.07696395682628895,1.3545359247185278,0.58321871509757,0.28860155,0.5991845602167679
0.0075,1.79859375,1.0,974.901008532694,0.08214145905353427,1.3530755308831586,0.6133686155564703,0.2885939375,0.6024798134297695
0.008,1.7984,1.0,1061.5301370267646,0.08728991987048204,1.3516985058974686,0.6407638293069208,0.2885858,0.6055744928236232
0.0085,1.79819375,1.0,1145.9447307143728,0.09240950179599687,1.3503985158490024,0.6656457849619805,0.2885771375,0.6084849492691851
0.009000000000000001,1.797975,1.0,1227.9123128652304,0.09750036670710406,1.3491697163422407,0.6882497451986155,0.28856795,0.6112261134868596
0.0095,1.79774375,1.0,1307.2805705735059,0.10256267607972859,1.3480065222721205,0.7087979572140441,0.2885582375,0.6138120550257147
0.01,1.7975,1.0,1383.9247525490393,0.10759659004156283,1.3469041205928944,0.7274964343026562,0.288548,0.6162548823841536
0.0105,1.79724375,1.0,1457.7591999698561,0.11260226747013125,1.3458581223019066,0.744533351046444,0.2885372375,0.6185655587940033
0.011,1.796975,1.0,1528.7403360927767,0.11757986658264293,1.3448643932926,0.7600788816140894,0.28852595000000003,0.6207543056088229
0.0115,1.79669375,1.0,1596.8844580799591,0.12252954615452151,1.3439187462089426,0.7742857795130363,0.2885141375,0.6228313010397607
0.012,1.7964,1.0,1662.183297830647,0.12745146204312155,1.3430178696368316,0.787290948076189,0.28850180000000003,0.6248046591511787
0.0125,1.79609375,1.0,1724.6488952596965,0.13234576938137713,1.342158679987268,0.7992164691740503,0.2884889375,0.6266818804507983
0.013000000000000001,1.7957750000000001,1.0,1784.328574070858,0.13721262330222236,1.3413380936712533,0.8101709272180272,0.28847555,0.6284703629109525
0.0135,1.79544375,1.0,1841.2859127543388,0.1420521779085304,1.3405532030459446,0.8202508790545883,0.2884616375,0.6301770277268739
0.014,1.7951000000000001,1.0,1895.5922415486575,0.14686458724651033,1.339801324611079,0.8295421856514019,0.2884472,0.6318082263793245
0.0145,1.79474375,1.0,1947.3032646258673,0.15165000258966857,1.3390802079175623,0.8381212862363858,0.2884322375,0.6333693003781337
0.015,1.794375,1.0,1996.4937301979435,0.15640857510379394,1.338387616630388,0.8460561401223439,0.28841675,0.6348655003546094
0.0155,1.79399375,1.0,2043.2460440078346,0.16114045509394065,1.3377214288456531,0.8534072535930937,0.2884007375,0.6363017745486304
0.016,1.7936,1.0,2087.656755826282,0.16584579375542963,1.3370795465203378,0.8602285328825241,0.2883842,0.6376829697628936
0.0165,1.7931937500000001,1.0,2129.809258404731,0.17052474023731382,1.3364601602117272,0.866568142126993,0.2883671375,0.639013267188453
0.017,1.792775,1.0,2169.771407451421,0.17517744125921236,1.33586174626648,0.8724691770191593,0.28834955,0.6402961970498428
0.0175,1.7923437500000001,1.0,2207.6214869165897,0.1798040435407443,1.3352827810312546,0.8779701811403734,0.2883314375,0.6415352574743232
0.018000000000000002,1.7919,1.0,2243.447335543525,0.18440469380152877,1.3347217408527101,0.8831056805217812,0.2883128,0.6427339164557755
0.0185,1.79144375,1.0,2277.3337837629406,0.18897953746050206,1.3341772189152836,0.8879066810975926,0.2882936375,0.6438953646621384
0.019,1.790975,1.0,2309.374854237093,0.19352872114977884,1.3336477929943908,0.8924010431501316,0.28827395,0.6450228004782275
0.0195,1.79049375,1.0,2339.644752109645,0.19805238837388275,1.3331323041951355,0.896613905060258,0.2882537375,0.6461188389720653
0.02,1.79,1.0,2368.2104676022013,0.2025506810360666,1.3326297198318877,0.9005679576314694,0.288233,0.6471858083053568
0.0205,1.78949375,1.0,2395.143927641304,0.2070237410395831,1.3321390072190176,0.9042836895147729,0.2882117375,0.6482260200368795
0.021,1.788975,1.0,2420.5215829656436,0.21147171028768505,1.3316591336708945,0.907779630961371,0.28818995000000003,0.6492417699383666
0.021500000000000002,1.78844375,1.0,2444.4139083783984,0.21589472896543485,1.3311891636137196,0.9110725873200589,0.2881676375,0.6502351336251431
0.022,1.7879,1.0,2466.901164408514,0.22029293950929948,1.330728102171046,0.9141777950152776,0.2881448,0.6512082985788845
0.0225,1.78734375,1.0,2488.046899472209,0.22466648091918148,1.3302751457201347,0.9171091353240309,0.28812143749999997,0.652163036095484
0.023,1.786775,1.0,2507.905907909445,0.22901549006630312,1.3298295996884113,0.9198792603968504,0.28809755,0.6531008774533876
0.0235,1.78619375,1.0,2526.5353213850967,0.23334010382188675,1.3293907695033016,0.9224997009039674,0.28807313749999996,0.6540233449171646
0.024,1.7856,1.0,2543.9944131847606,0.23764045905715464,1.3289579605922317,0.9249809809244848,0.2880482,0.6549319520503818
0.0245,1.78499375,1.0,2560.3444132065883,0.24191669264332918,1.3285304783826273,0.9273327196800787,0.2880227375,0.6558282039977107
0.025,1.784375,1.0,2575.638378142775,0.24616893800617473,1.3281077214572838,0.929563735977648,0.28799675,0.6567134028064715
0.025500000000000002,1.78374375,1.0,2589.939175998808,0.2503973346293319,1.3276890109203372,0.9316821027413569,0.2879702375,0.6575890054912346
0.026000000000000002,1.7831000000000001,1.0,2603.2902367798083,0.2546020147209613,1.3272738623759892,0.9336952573942136,0.2879432,0.6584560555022387
0.0265,1.78244375,1.0,2615.734126373889,0.2587831097106015,1.3268618098388982,0.9356100369949227,0.2879156375,0.6593155525154335
0.027,1.781775,1.0,2627.314415507347,0.2629407510277911,1.326452387323723,0.9374327323847271,0.28788755,0.6601684911053632
0.0275,1.7810937500000001,1.0,2638.0755918413524,0.26707507010206866,1.3260451288451223,0.9391691390908157,0.2878589375,0.6610158608302539
0.028,1.7804,1.0,2648.062976883457,0.2711861983629728,1.3256395684177544,0.9408246028677403,0.2878298,0.6618586463032483
0.0285,1.77969375,1.0,2657.315053909822,0.27527426464011406,1.3252353100122662,0.9424040694912669,0.2878001375,0.6626976821467636
0.029,1.778975,1.0,2665.8705126620184,0.27933939949171105,1.324831961524049,0.9439121127587685,0.28776995,0.6635337907284401
0.029500000000000002,1.7782437500000001,1.0,2673.7794668058723,0.28338173685604967,1.3244290311804627,0.9453529537489394,0.2877392375,0.6643679965794207
0.03,1.7775,1.0,2681.0694460903783,0.28740140194264024,1.3240262396098097,0.9467305291729714,0.287708,0.6652008802433871
0.0305,1.77674375,1.0,2687.7683758849057,0.29139851996099303,1.3236233074403914,0.9480484906278664,0.2876762375,0.6660330193920343
0.031,1.775975,1.0,2693.90454221817,0.2953732161206184,1.3232199553005102,0.9493102288248791,0.28764395,0.6668649888250517
0.0315,1.7751937500000001,1.0,2699.5065585475977,0.29932561563102666,1.3228159038184675,0.9505188954752279,0.2876111375,0.6676973604651338
0.032,1.7744,1.0,2704.603334259142,0.30325584370172803,1.3224108736225653,0.9516774230849003,0.2875778,0.6685307033480046
0.0325,1.77359375,1.0,2709.224044897975,0.30716402554223293,1.3220045853411053,0.952788542880816,0.2875439375,0.6693655836074708
0.033,1.772775,1.0,2713.398104128953,0.3110502863620516,1.3215967596023896,0.9538548010647986,0.28750955,0.6702025644554936
0.0335,1.7719437500000002,1.0,2717.1516216492955,0.31491474430369204,1.3211871490643448,0.9548785752924159,0.2874746375,0.6710421405482092
0.034,1.7711000000000001,1.0,2720.511648111973,0.31875753087143616,1.3207754994432832,0.955862089060361,0.2874392,0.6718848181023986
0.0345,1.7702437500000001,1.0,2723.4968699084543,0.3225787651516934,1.3203616340205144,0.9568074260824366,0.2874032375,0.6727309421164094
0.035,1.7693750000000001,1.0,2726.125964367644,0.32637856594919923,1.3199453772836378,0.9577165359279753,0.28736675,0.6735808531722917
0.035500000000000004,1.76849375,1.0,2728.4177190710666,0.3301570520686891,1.3195265537202536,0.9585912441550801,0.2873297375,0.6744348898841132
0.036000000000000004,1.7676,1.0,2730.391019532389,0.33391434231489847,1.3191049878179617,0.9594332616185789,0.2872922,0.6752933888702122
0.0365,1.76669375,1.0,2732.0648375603178,0.3376505554925628,1.3186805040643619,0.9602441929779143,0.2872541375,0.6761566847234829
0.037,1.765775,1.0,2733.4582203036002,0.34136581040641745,1.318252926947054,0.9610255444819438,0.28721555,0.6770251099796974
0.0375,1.76484375,1.0,2734.5902799799187,0.345060225861198,1.317822080953638,0.9617787310994771,0.2871764375,0.6778989950838621
0.038,1.7639,1.0,2735.4600484607627,0.3487338988753052,1.3173879733989322,0.9625050960572331,0.28713679999999997,0.6787782982835417
0.0385,1.76294375,1.0,2736.1006662414297,0.35238696888008336,1.31695030227422,0.9632058825355504,0.28709663750000003,0.6796636029600784
0.039,1.761975,1.0,2736.5351959881204,0.3560195623352135,1.316508857486727,0.9638822668455396,0.28705595,0.6805553033560164
0.0395,1.7609937500000001,1.0,2736.7726840030027,0.35963178958033815,1.3160635564724883,0.9645353657308786,0.2870147375,0.6814535340241141
0.04,1.76,1.0,2736.8222001234417,0.3632237609550997,1.3156143166675385,0.9651662320593956,0.286973,0.6823584282987333
0.0405,1.7589937500000001,1.0,2736.6928345228025,0.36679558679914054,1.3151610555079127,0.965775859148651,0.2869307375,0.6832701182753136
0.041,1.757975,1.0,2736.3936946624594,0.3703473774521032,1.3147036904296454,0.9663651847548907,0.28688795,0.6841887347894193
0.0415,1.75694375,1.0,2735.9339023946486,0.3738792432536301,1.3142421388687717,0.9669350947547912,0.2868446375,0.6851144073953431
0.042,1.7559,1.0,2735.322591216949,0.37739129454336356,1.3137763182613262,0.9674864265465966,0.28680079999999997,0.6860472643442823
0.0425,1.75484375,1.0,2734.568903677676,0.3808836416609461,1.313306146043344,0.9680199721946937,0.2867564375,0.6869874325620754
0.043000000000000003,1.753775,1.0,2733.681988931855,0.38435639494602014,1.3128315396508596,0.9685364813393939,0.28671155,0.6879350376265072
0.043500000000000004,1.75269375,1.0,2732.6710004498077,0.38780966473822814,1.312352416519908,0.9690366638916463,0.28666613750000003,0.6888902037441769
0.044,1.7516,1.0,2731.545093874817,0.39124356137721245,1.311868694086524,0.969521192530577,0.2866202,0.6898530537269327
0.0445,1.75049375,1.0,2730.3134250339895,0.3946581952026156,1.3113802897867426,0.9699907050200963,0.2865737375,0.6908237089678706
0.045,1.7493750000000001,1.0,2728.985148098722,0.3980536765540799,1.3108871210565984,0.9704458063593395,0.28652675,0.6918022894169003
0.0455,1.74824375,1.0,2727.569413897221,0.40143011577124793,1.3103891053321264,0.9708870707803652,0.2864792375,0.6927889135558742
0.046,1.7471,1.0,2726.067854817762,0.40478759413358545,1.3098862283877122,0.9713150446938418,0.2864312,0.6937835633151744
0.0465,1.7459437500000001,1.0,2724.494408809465,0.4081262527993016,1.3093783640639853,0.9717302472355435,0.28638263750000004,0.6947864408453194
0.047,1.744775,1.0,2722.853700513183,0.4114461961064422,1.3088654708433278,0.9721331730570661,0.28633355,0.6957975794666116
0.0475,1.74359375,1.0,2721.149551297884,0.4147475250546416,1.3083475144947785,0.9725242927415912,0.28628393750000003,0.6968169971457028
0.048,1.7424,1.0,2719.3857801673885,0.41803034064353417,1.307824460787376,0.9729040541242542,0.2862338,0.6978447109086776
0.0485,1.74119375,1.0,2717.5662033323497,0.42129474387275423,1.3072962754901594,0.9732728835990506,0.2861831375,0.698880736829962
0.049,1.739975,1.0,2715.694633807026,0.42454083574193613,1.306762924372167,0.9736311873390435,0.28613195,0.6999250900211611
0.0495,1.73874375,1.0,2713.7748810324965,0.42776871725071425,1.3062243732024381,0.9739793524363693,0.2860802375,0.7009777846198147
0.05,1.7375,1.0,2711.8107505262456,0.4309784893987229,1.3056805877500113,0.9743177479679868,0.286028,0.7020388337780856
0.0505,1.73624375,1.0,2709.8060435568464,0.43417025318559643,1.3051315337839253,0.9746467259926342,0.2859752375,0.7031082496513688
0.051000000000000004,1.734975,1.0,2707.7645568455046,0.43734410961096926,1.3045771770732189,0.9749666224840112,0.28592195,0.7041860433868274
0.051500000000000004,1.73369375,1.0,2705.690082292996,0.44050015967447564,1.3040174833869307,0.9752777582047926,0.2858681375,0.7052722251118537
0.052000000000000005,1.7324,1.0,2703.5864067326474,0.44363850437575,1.3034524184940999,0.9755804395257119,0.2858138,0.7063668039224544
0.0525,1.73109375,1.0,2701.45731170982,0.4467592447144265,1.302881948163765,0.9758749591936202,0.28575893750000003,0.7074697878715637
0.053,1.729775,1.0,2699.3065732865894,0.4498624816901398,1.3023060381649647,0.9761615970521095,0.28570355000000003,0.7085811839572798
0.0535,1.72844375,1.0,2697.1367600978233,0.4529483072294406,1.3017246652557606,0.9764406204772628,0.2856476375,0.7097009769652399
0.054,1.7271,1.0,2694.9480982705213,0.4560168003347069,1.3011378275875836,0.976712285309959,0.2855912,0.710829109680583
0.0545,1.7257437500000001,1.0,2692.7480454598644,0.45906810044129936,1.3005454571319013,0.9769768383726658,0.2855342375,0.7119656511395934
0.055,1.724375,1.0,2690.537809889403,0.46210229929813124,1.2999475429649305,0.9772345147079242,0.28547675,0.7131105595322103
0.0555,1.72299375,1.0,2688.3185978966308,0.46511948865411545,1.299344074162889,0.9774855394607261,0.2854187375,0.7142637922945243
0.056,1.7216,1.0,2686.091613909053,0.4681197602581651,1.2987350398019943,0.9777301283746523,0.2853602,0.7154253061049134
0.0565,1.72019375,1.0,2683.858060424401,0.4711032058591932,1.2981204289584636,0.9779684882592058,0.28530113749999997,0.7165950568801711
0.057,1.718775,1.0,2681.6191379922175,0.47406991720611286,1.2975002307085144,0.9782008174302358,0.28524155,0.7177729997716222
0.0575,1.71734375,1.0,2679.3760451983494,0.4770199860478371,1.296874434128364,0.9784273061252007,0.2851814375,0.7189590891612362
0.058,1.7159,1.0,2677.1299786527406,0.479953504133279,1.29624302829423,0.9786481368949032,0.2851208,0.7201532786577296
0.0585,1.71444375,1.0,2674.88213297925,0.4828705632113515,1.29560600228233,0.9788634849732051,0.2850596375,0.7213555210926632
0.059000000000000004,1.7129750000000001,1.0,2672.633700808112,0.48577125503096785,1.2949633451688811,0.9790735186261222,0.28499795,0.722565768516529
0.059500000000000004,1.71149375,1.0,2670.3858727715365,0.48865567134104093,1.2943150460301007,0.9792783994816027,0.2849357375,0.7237839721948331
0.06,1.71,1.0,2668.139837501171,0.4915239038904839,1.2936610939422066,0.9794782828412024,0.284873,0.7250100826041661
0.0605,1.7084937500000001,1.0,2665.896781629182,0.4943760444282097,1.293001477981416,0.9796733179747789,0.2848097375,0.7262440494282709
0.061,1.7069750000000001,1.0,2663.657889791077,0.49721218470313155,1.2923361872239463,0.9798636483992547,0.28474595,0.7274858215541002
0.0615,1.7054437500000001,1.0,2661.4243446315572,0.5000324164641624,1.291665210746015,0.9800494121424268,0.2846816375,0.7287353470678658
0.062,1.7039,1.0,2659.197326813441,0.5028368314602153,1.2909885376238395,0.9802307419927301,0.2846168,0.7299925732510821
0.0625,1.70234375,1.0,2656.9782901149742,0.5056255212114379,1.2903061543993086,0.9804077655871261,0.2845514375,0.7312574512687653
0.063,1.7007750000000001,1.0,2654.769469526962,0.5083985711341422,1.2896180403918756,0.980580604962526,0.28448555,0.7325299447690368
0.0635,1.69919375,1.0,2652.5694586981544,0.511156066620012,1.288924208461907,0.9807493793404898,0.28441913750000003,0.7338099546066981
0.064,1.6976,1.0,2650.3774348150996,0.5138980945514096,1.288224666108741,0.9809142034001382,0.2843522,0.7350973910921706
0.0645,1.69599375,1.0,2648.189688714493,0.5166247416597578,1.287519447479959,0.9810751889624492,0.2842847375,0.7363921151811834
0.065,1.694375,1.0,2646.009599118288,0.5193360943528206,1.286808521344922,0.9812324405257015,0.28421675,0.737694107410521
0.0655,1.69274375,1.0,2643.859708749956,0.5220322392266656,1.2860916794290749,0.9813860500813951,0.2841482375,0.7390036701576896
0.066,1.6911,1.0,2641.7200249142365,0.5247132607941293,1.2853691061225168,0.9815361253947982,0.2840792,0.7403203867054713
0.0665,1.6894458802847587,1.0,2639.6746722889447,0.5273792435680478,1.284640985815348,0.9816827704632294,0.28400972697195986,0.7416438430933254
0.067,1.6877906780322858,1.0,2638.1572227812167,0.5300302720612575,1.2839075028976679,0.9818260856792116,0.283940208477356,0.7429736281837076
0.0675,1.6861354757798128,1.0,2637.1965235746375,0.5326664301469481,1.2831688752920591,0.9819661695530494,0.2838706899827521,0.7443092731691017
0.068,1.6844802735273396,1.0,2636.7330775778705,0.5352878021439752,1.2824256504215394,0.9821031329877058,0.28380117148814826,0.7456497193366403
0.0685,1.6828250712748667,1.0,2636.726871079539,0.5378944705717829,1.2816781971254605,0.9822370746791442,0.2837316529935444,0.7469942387249688
0.069,1.6811698690223937,1.0,2637.1432525702544,0.5404865173731831,1.2809268358248524,0.982368087768549,0.2836621344989405,0.7483421967902947
0.0695,1.6795146667699208,1.0,2637.947666963307,0.5430640244909878,1.280171886940746,0.982496262357414,0.28359261600433666,0.749692964821626
0.07,1.6778594645174478,1.0,2639.1082142266923,0.5456270731321973,1.2794136469961064,0.9826216844813365,0.2835230975097328,0.7510459626031099
0.07050000000000001,1.6762042622649747,1.0,2640.5977197075867,0.5481757434938499,1.2786523692917295,0.9827444353630296,0.2834535790151289,0.7524006922452346
0.07100000000000001,1.6745490600125017,1.0,2642.3737330005865,0.5507101208061489,1.2778884485637736,0.9828646004223086,0.28338406052052506,0.7537564099324584
0.07150000000000001,1.6728938577600287,1.0,2644.41764727287,0.5532302835812691,1.2771220593043653,0.9829822519881737,0.2833145420259212,0.7551127686444766
0.07200000000000001,1.6712386555075558,1.0,2646.710868986114,0.5557363103313855,1.276353376005632,0.9830974601069313,0.2832450235313173,0.7564694246501587
0.0725,1.6695834532550828,1.0,2649.2348086841203,0.5582282795686727,1.275582573159701,0.9832102926337482,0.28317550503671346,0.7578260375340499
0.073,1.6679282510026097,1.0,2651.9708724549187,0.5607062698053059,1.274809825258699,0.9833208153200034,0.2831059865421096,0.759182270220929
0.0735,1.6662730487501367,1.0,2654.9004540684227,0.56317035955346,1.2740353067947532,0.9834290918966557,0.2830364680475057,0.7605377889984232
0.074,1.6646178464976638,1.0,2658.004927789218,0.5656206273253095,1.2732591922599907,0.9835351841538253,0.28296694955290186,0.7618922635376831
0.0745,1.6629626442451908,1.0,2661.2669880370786,0.5680571508636532,1.2724816437544613,0.9836391514289737,0.282897431058298,0.7632453884466418
