Time [s],Phi [rad],STIM [ ],Fsee [N],Gamma [ ],Lcerel [ ],q [ ],Lmtc [m],fisomrel [ ]
0.0,1.8,1.0,18.097163175918322,0.000366870748454048,1.3793252075629856,0.0050348638308177355,0.288653,0.5411747031482713
0.0005,1.79999375,1.0,18.520604022109556,0.00597402220252817,1.3792753894628347,0.01396090035659156,0.2886527375,0.5412952134815532
0.001,1.799975,1.0,22.12709805228717,0.011549721970211087,1.378886646331075,0.0374924436143729,0.28865195,0.5422350421938487
0.0015,1.79994375,1.0,32.156365000383786,0.017094146471604687,1.377954380402083,0.07316457622883163,0.2886506375,0.544484969180094
0.002,1.7999,1.0,55.81685659048953,0.02260747113494621,1.3762246514283452,0.11774289259232851,0.2886488,0.548644807581697
0.0025,1.79984375,1.0,100.78503415160647,0.028089870405941943,1.3737601432433142,0.16785921472889584,0.28864643749999996,0.5545387605954633
0.003,1.7997750000000001,1.0,165.67098113804343,0.03354151775278067,1.371039211340406,0.22066455292179613,0.28864354999999997,0.5610009682649539
0.0035,1.79969375,1.0,242.97669890340674,0.03896258566810567,1.3684225823523615,0.27397583521421087,0.2886401375,0.5671709209592393
0.004,1.7996,1.0,327.08002786746533,0.04435324567889722,1.3660080620779589,0.3261699817630989,0.2886362,0.5728255691770952
0.0045000000000000005,1.7994937500000001,1.0,415.0682158322222,0.04971366835200707,1.3637871341921162,0.37612213793400645,0.2886317375,0.5779940082789774
0.005,1.799375,1.0,505.3220671974402,0.05504402328535309,1.361733155057147,0.42313520836542534,0.28862675,0.5827459328201596
0.0055,1.79924375,1.0,596.7449110629378,0.060344479147109144,1.3598227903331943,0.4668466597780034,0.2886212375,0.5871414526684761
0.006,1.7991000000000001,1.0,688.4722329907058,0.06561520364206022,1.3580384196288484,0.5071360108347504,0.2886152,0.5912260525181016
0.006500000000000001,1.79894375,1.0,779.7937777894626,0.07085636352297404,1.3563665150695077,0.5440461924194588,0.2886086375,0.5950347797742805
0.007,1.798775,1.0,870.1245087358511,0.07606812468809133,1.3547962400708258,0.577722929933212,0.28860155,0.5985957526518015
0.0075,1.79859375,1.0,958.9759890635373,0.08125065188397336,1.3533187353825606,0.6083708804108425,0.2885939375,0.6019319873331253
0.008,1.7984,1.0,1045.9740468520326,0.08640410937060077,1.3519260793314798,0.6362229094772262,0.2885858,0.6050638861172608
0.0085,1.79819375,1.0,1130.7989326550685,0.0915286599505086,1.3506116926163156,0.6615204067193982,0.2885771375,0.6080084215584254
0.009000000000000001,1.797975,1.0,1213.2063903306057,0.09662446567886561,1.349369611452588,0.6845002635817238,0.28856795,0.6107808501067211
0.0095,1.79774375,1.0,1293.0397733379755,0.1016916882968618,1.3481940756456032,0.7053872163777651,0.2885582375,0.6133956813944641
0.01,1.7975,1.0,1370.1609663452587,0.10673048771335562,1.347080258537095,0.7243902832225471,0.288548,0.6158650960899981
0.0105,1.79724375,1.0,1444.4804949645622,0.11174102325113586,1.3460236583551086,0.7417007201638225,0.2885372375,0.6182003439366934
0.011,1.796975,1.0,1515.9634616105795,0.1167234536455665,1.3450199022593554,0.7574916712139542,0.28852595000000003,0.6204122035871966
0.0115,1.79669375,1.0,1584.5972981311131,0.1216779369539453,1.3440650447444755,0.7719189278423406,0.2885141375,0.6225103475286418
0.012,1.7964,1.0,1650.369298100693,0.12660462924195232,1.3431557234017744,0.7851220687133923,0.28850180000000003,0.6245030277315209
0.0125,1.79609375,1.0,1713.304506417303,0.13150368633205836,1.342288617359036,0.7972255346256856,0.2884889375,0.626398285798595
0.013000000000000001,1.7957750000000001,1.0,1773.4558806736686,0.13637526364747699,1.341460513060281,0.8083400814027826,0.28847555,0.6282038202187809
0.0135,1.79544375,1.0,1830.885852094618,0.14121951617375675,1.3406684626677459,0.8185642448513728,0.2884616375,0.6299266535191156
0.014,1.7951000000000001,1.0,1885.6361859234419,0.14603659601748678,1.3399100606753347,0.8279857583108539,0.2884472,0.6315725467209512
0.0145,1.79474375,1.0,1937.7722166060405,0.15082665528525607,1.3391829015769514,0.8366825663748241,0.2884322375,0.6331471915747453
0.015,1.794375,1.0,1987.3776316042408,0.1555898458199183,1.3384846137907696,0.8447239665040246,0.28841675,0.6346561423052091
0.0155,1.79399375,1.0,2034.5385671638871,0.16032631860420485,1.3378130050861459,0.8521716685397815,0.2884007375,0.6361045076360574
0.016,1.7936,1.0,2079.348314374978,0.16503622475764776,1.3371659856013651,0.8590806641770458,0.2883842,0.6374971242138394
0.0165,1.7931937500000001,1.0,2121.871777063744,0.16971971193512825,1.3365419134462897,0.8655001214030046,0.2883671375,0.6388378204525194
0.017,1.792775,1.0,2162.1859267316686,0.17437692779152744,1.335939146730782,0.8714739394809637,0.28834955,0.6401303880541906
0.0175,1.7923437500000001,1.0,2200.378791582657,0.17900801998172655,1.335356043564704,0.8770413716106356,0.2883314375,0.6413785843259832
0.018000000000000002,1.7919,1.0,2236.534366960974,0.18361313473007954,1.3347911040283584,0.8822376081203341,0.2883128,0.6425858311972987
0.0185,1.79144375,1.0,2270.7517226747723,0.1881924198825662,1.3342427655030018,0.8870941981548298,0.2882936375,0.6437556559595197
0.019,1.790975,1.0,2303.103772724127,0.19274601950857626,1.3337098052800205,0.8916395683840935,0.28827395,0.6448908350126621
0.0195,1.79049375,1.0,2333.660252220335,0.19727407657536275,1.3331910961992897,0.8958993194396679,0.2882537375,0.6459939203237108
0.02,1.79,1.0,2362.49664419967,0.20177673405017882,1.332685511100685,0.8998965238761047,0.288233,0.6470674448459056
0.0205,1.78949375,1.0,2389.6936964820356,0.2062541349002775,1.332191922824082,0.903652009875969,0.2882117375,0.648113923502676
0.021,1.788975,1.0,2415.3222875035012,0.21070642004142473,1.3317093460502387,0.9071846398860742,0.28818995000000003,0.6491355540271779
0.021500000000000002,1.78844375,1.0,2439.4702671914347,0.21513373332538893,1.3312366716079902,0.9105114715590542,0.2881676375,0.6501347811927949
0.022,1.7879,1.0,2462.1989109878027,0.21953621378838684,1.3307730827083093,0.9136480347089464,0.2881448,0.6511134175881441
0.0225,1.78734375,1.0,2483.565946021785,0.2239139994242168,1.3303178256995811,0.9166084486250888,0.28812143749999997,0.6520731314575929
0.023,1.786775,1.0,2503.631810625644,0.22826722822667703,1.3298701469301908,0.9194055586963567,0.28809755,0.653015580880913
0.0235,1.78619375,1.0,2522.459427080441,0.2325960381895658,1.329429292748523,0.922051068975361,0.28807313749999996,0.6539424141556377
0.024,1.7856,1.0,2540.1092672680693,0.2369005664240107,1.3289945539736838,0.9245556670040697,0.2880482,0.6548551768356405
0.0245,1.78499375,1.0,2556.639384694223,0.24118094941929322,1.328565262976563,0.9269291261285924,0.2880227375,0.6557553187663968
0.025,1.784375,1.0,2572.119870551518,0.24543732540455404,1.3281406560139708,0.92918037402031,0.28799675,0.6566444830061253
0.025500000000000002,1.78374375,1.0,2586.5936159798844,0.2496698270777291,1.3277202394645635,0.9313176345530202,0.2879702375,0.6575237393025802
0.026000000000000002,1.7831000000000001,1.0,2600.104770104339,0.2538785871367544,1.3273035197069976,0.9333484532684351,0.2879432,0.658394151745571
0.0265,1.78244375,1.0,2612.6986350922357,0.25806373827956586,1.3268900031199287,0.9352797624795656,0.2879156375,0.659256778891113
0.027,1.781775,1.0,2624.4215666132777,0.2622254132040995,1.3264791960820133,0.9371179393324234,0.28788755,0.6601126738700329
0.0275,1.7810937500000001,1.0,2635.3208797013135,0.2663637446082912,1.3260706049719073,0.9388688576632064,0.2878589375,0.6609628844810407
0.028,1.7804,1.0,2645.4393468434123,0.27047886114776,1.32566378614759,0.9405379400846698,0.2878298,0.6618083494643393
0.0285,1.77969375,1.0,2654.824850403252,0.27457089852812977,1.325258255773807,0.9421301903691113,0.2878001375,0.6626500862595048
0.029,1.778975,1.0,2663.510294730142,0.2786399841230374,1.3248536743382149,0.9436502509481705,0.28776995,0.6634888082556156
0.029500000000000002,1.7782437500000001,1.0,2671.528872480177,0.28268624513310736,1.3244497046431232,0.9451024181450882,0.2877392375,0.6643252205261165
0.03,1.7775,1.0,2678.914266794593,0.28670980875896407,1.3240460094908422,0.9464906721743659,0.287708,0.6651600246589957
0.0305,1.77674375,1.0,2685.7006057822455,0.290710802201232,1.3236422516836823,0.9478187044114578,0.2876762375,0.665993918766314
0.031,1.775975,1.0,2691.9224195236334,0.29468935266053564,1.3232380940239532,0.9490899419877219,0.28764395,0.6668275974864859
0.0315,1.7751937500000001,1.0,2697.6082644775724,0.2986455831782479,1.3228332572371406,0.9503075759165525,0.2876111375,0.6676616327221243
0.032,1.7744,1.0,2702.785244181795,0.30257961805586464,1.3224274780532248,0.9514745771460489,0.2875778,0.6684965605747362
0.0325,1.77359375,1.0,2707.4979780566664,0.30649159448862445,1.3220203357457792,0.9525936972179764,0.2875439375,0.6693332377747949
0.033,1.772775,1.0,2711.766321940416,0.3103816326814035,1.3216116380670055,0.9536675227734789,0.28750955,0.6701720480225046
0.0335,1.7719437500000002,1.0,2715.610312885622,0.31424985283907786,1.3212011927691052,0.954698467019478,0.2874746375,0.6710133729709953
0.034,1.7711000000000001,1.0,2719.0501521358565,0.3180963751665237,1.3207888076042802,0.9556887834214888,0.2874392,0.6718575922060718
0.0345,1.7702437500000001,1.0,2722.106188922953,0.3219213198686173,1.320374290324732,0.9566405781614638,0.2874032375,0.6727050832236108
0.035,1.7693750000000001,1.0,2724.79890508287,0.32572480715023455,1.3199574486826622,0.9575558214850393,0.28736675,0.6735562214045969
0.035500000000000004,1.76849375,1.0,2727.148900491578,0.3295069572162518,1.3195380904302725,0.9584363580487871,0.2873297375,0.674411379987803
0.036000000000000004,1.7676,1.0,2729.1768793198967,0.3332678902715451,1.3191160233197647,0.959283916366001,0.2872922,0.6752709300401127
0.0365,1.76669375,1.0,2730.9036371081743,0.3370077265209905,1.3186910551033404,0.9601001174388649,0.2872541375,0.6761352404244887
0.037,1.765775,1.0,2732.350048660105,0.3407265861694643,1.318262993533201,0.9608864826554501,0.28721555,0.6770046777655792
0.0375,1.76484375,1.0,2733.5258845099247,0.3444245815629194,1.3178317478381332,0.9616444492643821,0.2871764375,0.677879400721165
0.038,1.7639,1.0,2734.454367375737,0.3481018372631752,1.3173971055354252,0.9623753590872813,0.28713679999999997,0.6787598131305298
0.0385,1.76294375,1.0,2735.15433319184,0.35175847226359613,1.3169588944451247,0.9630804770150796,0.28709663750000003,0.6796462347963148
0.039,1.761975,1.0,2735.6368383814092,0.3553945993465514,1.3165170133841628,0.963760999135917,0.28705595,0.6805388400458217
0.0395,1.7609937500000001,1.0,2735.912970158121,0.3590103312944101,1.3160713611694705,0.9644180521994498,0.2870147375,0.6814378018127492
0.04,1.76,1.0,2735.9938422080195,0.36260578088954154,1.315621836617979,0.9650526983740323,0.286973,0.6823432916131815
0.0405,1.7589937500000001,1.0,2735.8905905990605,0.3661810609143147,1.3151683385466195,0.965665939628916,0.2869307375,0.6832554795209294
0.041,1.757975,1.0,2735.6143699174568,0.36973628415109877,1.314710765772323,0.9662587217746635,0.28688795,0.6841745341422134
0.0415,1.75694375,1.0,2735.1763496309113,0.37327156338226297,1.3142490171120205,0.9668319381917296,0.2868446375,0.6851006225896974
0.042,1.7559,1.0,2734.5877106793064,0.37678701139017634,1.3137829913826433,0.9673864332742559,0.28680079999999997,0.6860339104558674
0.0425,1.75484375,1.0,2733.8596422918226,0.38028274095720804,1.3133125874011222,0.9679230056135457,0.2867564375,0.6869745617857594
0.043000000000000003,1.753775,1.0,2732.998805093723,0.38375885887217887,1.312837745169761,0.9684424133394088,0.28671155,0.6879226568785066
0.043500000000000004,1.75269375,1.0,2732.016340083809,0.387215479741993,1.3123583640379222,0.968945372297516,0.28666613750000003,0.6888783559169416
0.044,1.7516,1.0,2730.9238980075347,0.3906527175194969,1.3118743387290328,0.9694325602412307,0.2866202,0.6898418266655884
0.0445,1.75049375,1.0,2729.72757138226,0.39407067814723257,1.3113856144673939,0.96990462241364,0.2865737375,0.6908131348940164
0.045,1.7493750000000001,1.0,2728.433453634988,0.397469467567742,1.3108921364773076,0.9703621708644936,0.28652675,0.6917923452696911
0.0455,1.74824375,1.0,2727.047637986685,0.40084919172356703,1.3103938499830756,0.9708057864771324,0.2864792375,0.6927795213414667
0.046,1.7471,1.0,2725.576216403167,0.4042099565572497,1.3098907002089992,0.9712360208527099,0.2864312,0.6937747255228832
0.0465,1.7459437500000001,1.0,2724.0252786121087,0.40755186801133203,1.3093826323793805,0.9716533980630307,0.28638263750000004,0.6947780190752715
0.047,1.744775,1.0,2722.400911186479,0.4108750320283559,1.308869591718521,0.972058416282332,0.28633355,0.6957894620906703
0.0475,1.74359375,1.0,2720.7091966954818,0.41417955455086325,1.3083515234507221,0.9724515493074403,0.28628393750000003,0.6968091134745497
0.048,1.7424,1.0,2718.956212920318,0.4174655415213961,1.307828372800286,0.9728332479749104,0.2862338,0.6978370309283424
0.0485,1.74119375,1.0,2717.144750004833,0.42073309080847543,1.3073001148926109,0.9732039425671585,0.2861831375,0.6988732123309571
0.049,1.739975,1.0,2715.279812652184,0.4239823081025955,1.3067667046558589,0.9735640424967957,0.28613195,0.699917694242937
0.0495,1.73874375,1.0,2713.3710732892173,0.4272133098011549,1.3062280544181595,0.9739139362721785,0.2860802375,0.7009705953037907
0.05,1.7375,1.0,2711.421377160816,0.43042619455949654,1.3056841386588276,0.9742539963453212,0.286028,0.7020319112640646
0.0505,1.73624375,1.0,2709.433566491057,0.4336210610329635,1.3051349318571783,0.9745845779756191,0.2859752375,0.7031016369914387
0.051000000000000004,1.734975,1.0,2707.4104802760103,0.43679800787689876,1.3045804084925263,0.9749060201737466,0.28592195,0.7041797664621359
0.051500000000000004,1.73369375,1.0,2705.3549540902004,0.4399571337466454,1.3040205430441865,0.9752186465856555,0.2858681375,0.7052662927522895
0.052000000000000005,1.7324,1.0,2703.2698199080523,0.44309853729754645,1.3034553099914739,0.9755227663209634,0.2858138,0.7063612080292683
0.0525,1.73109375,1.0,2701.1579059397545,0.4462223171849448,1.3028846838137031,0.9758186747296881,0.28575893750000003,0.7074645035429626
0.053,1.729775,1.0,2699.0220364811025,0.4493285720641837,1.3023086389901894,0.9761066541309708,0.28570355000000003,0.7085761696170259
0.0535,1.72844375,1.0,2696.8650317784,0.4524174005906061,1.3017271500002474,0.9763869744971369,0.2856476375,0.7096961956400771
0.054,1.7271,1.0,2694.6897079075443,0.45548890141955495,1.301140191323192,0.9766598940961972,0.2855912,0.7108245700568603
0.0545,1.7257437500000001,1.0,2692.4988766672236,0.45854317320637333,1.3005477374383383,0.976925660095638,0.2855342375,0.7119612803593612
0.055,1.724375,1.0,2690.295345487009,0.4615803146064043,1.2999497628250007,0.9771845091301431,0.28547675,0.7131063130778885
0.0555,1.72299375,1.0,2688.077091982326,0.4646004034509802,1.2993462861598941,0.9774366684816175,0.2854187375,0.7142595693950217
0.056,1.7216,1.0,2685.8497014617546,0.4676035554360276,1.2987372564409494,0.9776823554017531,0.2853602,0.7154210829532348
0.0565,1.72019375,1.0,2683.6171256913194,0.4705898747519701,1.2981226375569268,0.9779217778834087,0.28530113749999997,0.7165908577044046
0.057,1.718775,1.0,2681.380417805644,0.47355945196254623,1.2975024199196104,0.9781551356320228,0.28524155,0.7177688461159943
0.0575,1.71734375,1.0,2679.14062921167,0.47651237763149457,1.2968765939407847,0.9783826202099476,0.2851814375,0.7189549999047145
0.058,1.7159,1.0,2676.89880958023,0.4794487423225535,1.2962451500322343,0.9786044154317055,0.2851208,0.7201492700330963
0.0585,1.71444375,1.0,2674.656006839177,0.4823686365994617,1.2956080786057438,0.9788206977370083,0.2850596375,0.7213516067060599
0.059000000000000004,1.7129750000000001,1.0,2672.413267168385,0.4852721510259577,1.2949653700730976,0.9790316365429554,0.28499795,0.7225619593674762
0.059500000000000004,1.71149375,1.0,2670.171634997344,0.4881593761657801,1.2943170148460805,0.9792373945767259,0.2849357375,0.7237802766967221
0.06,1.71,1.0,2667.9321530041725,0.4910304025826672,1.2936630033364767,0.9794381281899905,0.284873,0.7250065066052311
0.0605,1.7084937500000001,1.0,2665.6958621172244,0.4938853208403578,1.2930033259560707,0.9796339876561818,0.2848097375,0.7262405962330376
0.061,1.7069750000000001,1.0,2663.463801518277,0.4967242215025903,1.2923379731166473,0.9798251174516777,0.28474595,0.7274824919453138
0.0615,1.7054437500000001,1.0,2661.2370086478527,0.49954719513310336,1.2916669352299908,0.9800116565218884,0.2846816375,0.7287321393289042
0.062,1.7039,1.0,2659.016519213268,0.5023543322956354,1.2909902027078857,0.9801937385331665,0.2846168,0.7299894831888508
0.0625,1.70234375,1.0,2656.8033671972535,0.505145723553925,1.2903077659621165,0.9803714921113917,0.2845514375,0.731254467544914
0.063,1.7007750000000001,1.0,2654.598584870103,0.5079214594717107,1.289619615404468,0.9805450410680344,0.28448555,0.7325270356280871
0.0635,1.69919375,1.0,2652.4017102017697,0.5106816104976921,1.2889257552096751,0.980714503833584,0.28441913750000003,0.7338071045169607
0.064,1.6976,1.0,2650.2130541544025,0.5134262686152693,1.2882261824291175,0.9808799957064931,0.2843522,0.7350946038339832
0.0645,1.69599375,1.0,2648.0348731009567,0.5161555490022698,1.2875208761565822,0.981041628524337,0.2842847375,0.7363894954532887
0.065,1.694375,1.0,2645.8672308347204,0.5188695335980248,1.2868098356941104,0.9811995086793333,0.28421675,0.7376917032816243
0.0655,1.69274375,1.0,2643.710191077513,0.5215683043418655,1.2860930603437435,0.9813537387364112,0.2841482375,0.7390011505840279
0.066,1.6911,1.0,2641.5638174812025,0.524251943173123,1.2853705494075225,0.9815044175967892,0.2840792,0.740317759983574
0.0665,1.6894437500000001,1.0,2639.4281736291596,0.5269205320311284,1.2846423021874889,0.9816516406534214,0.2840096375,0.7416414534611169
0.067,1.687775,1.0,2637.3033230372444,0.529574152855213,1.2839083179856838,0.9817954999387776,0.28393955,0.7429721523550378
0.0675,1.68609375,1.0,2635.1893291558035,0.5322128875847079,1.2831685961041484,0.981936084265383,0.2838689375,0.7443097773609876
0.068,1.6844000000000001,1.0,2633.0862553706106,0.5348368181589441,1.2824231358449238,0.9820734793595195,0.2837978,0.7456542485316318
0.0685,1.68269375,1.0,2630.9941650046285,0.537446026517253,1.2816719365100513,0.9822077679884688,0.2837261375,0.7470054852763955
0.069,1.680975,1.0,2628.913121319293,0.5400405945989657,1.2809149974015723,0.9823390300816488,0.28365395,0.7483634063612072
0.0695,1.67924375,1.0,2626.843187515814,0.5426206043434132,1.280152317821528,0.9824673428459789,0.28358123749999997,0.7497279299082449
0.07,1.6775,1.0,2624.7844267372207,0.5451861376899269,1.279383897071959,0.9825927808757815,0.283508,0.7510989733956791
0.07050000000000001,1.67574375,1.0,2622.736902069168,0.5477372765778377,1.2786097344549074,0.9827154162575205,0.2834342375,0.752476453657417
0.07100000000000001,1.673975,1.0,2620.7006765417186,0.5502741029464769,1.277829829272414,0.9828353186696449,0.28335995,0.7538602868828486
0.07150000000000001,1.67219375,1.0,2618.675813130907,0.5527966987351757,1.27704418082652,0.9829525554778031,0.2832851375,0.7552503886165896
0.07200000000000001,1.6704,1.0,2616.662374760285,0.5553051458832652,1.2762527884192667,0.9830671918256675,0.2832098,0.7566466737582267
0.0725,1.66859375,1.0,2614.660424302187,0.5577995263300765,1.2754556513526951,0.9831792907216027,0.2831339375,0.7580490565620615
0.073,1.6667791220270836,1.0,2612.868554030898,0.5602799203505033,1.2746527860611145,0.9832889137915605,0.2830577231251375,0.7594574206277668
0.0735,1.6649642734150227,1.0,2611.641409403467,0.5627464024571227,1.2738445788611659,0.9833961368134426,0.28298149948343093,0.7608710032791796
0.074,1.663149424802962,1.0,2610.9437791731116,0.5651990496774598,1.2730314529431244,0.9835010350698322,0.2829052758417244,0.7622889850247656
0.0745,1.6613345761909009,1.0,2610.734228574549,0.5676379392418167,1.27221379143185,0.9836036798696868,0.28282905220001786,0.763710624216509
0.075,1.65951972757884,1.0,2610.9714743221207,0.5700631483804955,1.271391977452203,0.9837041404309392,0.2827528285583113,0.7651351867811957
