Time [s],Phi [rad],STIM [ ],Fsee [N],Gamma [ ],Lcerel [ ],q [ ],Lmtc [m],fisomrel [ ]
0.0,1.8,1.0,17.966654962216126,1.88297150733237e-05,1.3793398025959454,0.005000094025311114,0.288653,0.541139394663486
0.0005,1.79999375,1.0,18.27901065695364,0.0056279334040607145,1.3793021360320679,0.01296504696826424,0.2886527375,0.5412305153109397
0.001,1.799975,1.0,21.627240384530683,0.011205574456230648,1.3789373974076122,0.03565460763349994,0.28865195,0.5421124006567135
0.0015,1.79994375,1.0,31.091980303011965,0.01675192935297017,1.3780442663473236,0.07066471009389691,0.2886506375,0.5442682802356948
0.002,1.7999,1.0,53.63275457226662,0.02226717358399753,1.376364864920379,0.11479245212239739,0.2886488,0.5483083177725283
0.0025,1.79984375,1.0,97.20448700528486,0.02775148165499359,1.373931045747573,0.1646558483191974,0.28864643749999996,0.5541312915373929
0.003,1.7997750000000001,1.0,161.07012847610807,0.03320502709523251,1.371210153653488,0.2173639711554692,0.28864354999999997,0.5605963706140111
0.0035,1.79969375,1.0,237.81019501745584,0.03862798245723995,1.3685808270238462,0.2706959556259456,0.2886401375,0.5667990240765867
0.004,1.7996,1.0,321.60198510778736,0.04402051932755841,1.3661525114763888,0.322996233643509,0.2886362,0.572488323786776
0.0045000000000000005,1.7994937500000001,1.0,409.4079585633934,0.04938280833193627,1.363919523237525,0.37311085911857717,0.2886317375,0.5776868004036113
0.005,1.799375,1.0,499.5566998116098,0.054715019126438565,1.3618552996693616,0.42031889400463845,0.28862675,0.5824641010879992
0.0055,1.79924375,1.0,590.9350162877236,0.06001732044454272,1.3599360100941147,0.4642398347501637,0.2886212375,0.5868815964206933
0.006,1.7991000000000001,1.0,682.6629959243246,0.06528988004123602,1.3581437812163086,0.5047407414130614,0.2886152,0.5909854335972093
0.006500000000000001,1.79894375,1.0,774.0274569925226,0.07053286474545388,1.356464758020038,0.5418563110039226,0.2886086375,0.5948114677605734
0.007,1.798775,1.0,864.4330833640704,0.07574644045924893,1.354888016180403,0.5757273776346604,0.28860155,0.5983880611337307
0.0075,1.79859375,1.0,953.3892126120593,0.08093077212297217,1.3534045336892826,0.606555923483067,0.2885939375,0.6017386338260866
0.008,1.7984,1.0,1040.5033629523775,0.08608602379422513,1.3520065129352221,0.6345738461430116,0.2885858,0.6048833381734225
0.0085,1.79819375,1.0,1125.4624944971313,0.09121235857850914,1.3506871426522733,0.6600223429760244,0.2885771375,0.6078396938086228
0.009000000000000001,1.797975,1.0,1208.024302884131,0.09630993867373482,1.3494403391104237,0.6831387965698915,0.28856795,0.6106232442678319
0.0095,1.79774375,1.0,1288.0015915292715,0.10137892502873704,1.3482606763673823,0.7041490269968178,0.2885582375,0.6132477719902212
0.01,1.7975,1.0,1365.2944160797672,0.10641947915878668,1.347142748309576,0.7232628116302823,0.288548,0.6157267611481966
0.0105,1.79724375,1.0,1439.788953284067,0.11143175953564385,1.3460823262065653,0.7406726822466413,0.2885372375,0.61807086571254
0.011,1.796975,1.0,1511.4330067583733,0.11641592457188411,1.345075200288662,0.7565529706629021,0.28852595000000003,0.6202905170463644
0.0115,1.79669375,1.0,1580.2151034524784,0.12137213208874126,1.3441173590134832,0.77106048302364,0.2885141375,0.622395545999954
0.012,1.7964,1.0,1646.1607315498234,0.12630053995326518,1.3432049509430937,0.784335560713515,0.28850180000000003,0.624395285867821
0.0125,1.79609375,1.0,1709.2811942514386,0.13120130355371204,1.3423348032169964,0.7965036182748815,0.2884889375,0.6262974569718762
0.013000000000000001,1.7957750000000001,1.0,1769.6002943120689,0.13607457728615252,1.3415040145226316,0.8076763506838887,0.28847555,0.6281090818396884
0.0135,1.79544375,1.0,1827.1735765669675,0.1409205155466573,1.3407096835474404,0.8179530246544608,0.2884616375,0.6298370903603414
0.014,1.7951000000000001,1.0,1882.066865158558,0.1457392716991793,1.3399491132498498,0.8274219005941575,0.2884472,0.6314878839306148
0.0145,1.79474375,1.0,1934.3690346491728,0.15053099938922404,1.3392196308211848,0.8361614034822199,0.2884322375,0.6330677361783772
0.015,1.794375,1.0,1984.1372762476728,0.1552958491855243,1.3385191454108092,0.844241442379618,0.28841675,0.634581594994692
0.0155,1.79399375,1.0,2031.443201151541,0.16003397143733517,1.3378456061448298,0.8517242186970416,0.2884007375,0.63603426788467
0.016,1.7936,1.0,2076.37281835186,0.1647455162910549,1.337196983951503,0.8586651299629758,0.2883842,0.6374304656058987
0.0165,1.7931937500000001,1.0,2119.01549743567,0.16943063299283062,1.336571369513255,0.8651136049656383,0.2883671375,0.6387745957397064
0.017,1.792775,1.0,2159.4671011369182,0.17408947110150289,1.3359669220333867,0.8711137955482805,0.28834955,0.6400708778680237
0.0175,1.7923437500000001,1.0,2197.7956346835695,0.1787221766879029,1.3353822023128086,0.8767052885917186,0.2883314375,0.6413226351141912
0.018000000000000002,1.7919,1.0,2234.078529276337,0.18332889582286194,1.3348157711524316,0.8819235307606316,0.2883128,0.6425331613125083
0.0185,1.79144375,1.0,2268.401855420468,0.1879097745772111,1.334266189353166,0.8868003120590924,0.2882936375,0.6437057227529126
0.019,1.790975,1.0,2300.844973504764,0.19246495734290725,1.3337321623444227,0.8913642243766356,0.28827395,0.6448432519672063
0.0195,1.79049375,1.0,2331.506450108114,0.19699459081998671,1.3332122736949985,0.8956409650189666,0.2882537375,0.6459489179177597
0.02,1.79,1.0,2360.455532558494,0.20149881735493194,1.3327054574018309,0.8996537725589041,0.288233,0.6470251231346891
0.0205,1.78949375,1.0,2387.7584565763923,0.20597777828251038,1.3322107263382867,0.9034236396946177,0.2882117375,0.6480740857965177
0.021,1.788975,1.0,2413.4859582211225,0.21043161493748927,1.3317270933777332,0.906969545063461,0.28818995000000003,0.6490980086707929
0.021500000000000002,1.78844375,1.0,2437.7128966439304,0.21486046865463604,1.3312535713935372,0.9103086741020175,0.2881676375,0.6500990798438354
0.022,1.7879,1.0,2460.5086300344,0.21926447905248195,1.3307892619909734,0.9134566304198064,0.2881448,0.6510792861972806
0.0225,1.78734375,1.0,2481.949630328923,0.22364378789030673,1.330333230156675,0.9164275816018315,0.28812143749999997,0.6520406793821976
0.023,1.786775,1.0,2502.098090057818,0.22799853370120635,1.3298847053727259,0.9192344466288789,0.28809755,0.6529849526822381
0.0235,1.78619375,1.0,2521.0075583008706,0.2323288527245718,1.3294430225783893,0.9218890141323031,0.28807313749999996,0.6539135678393331
0.024,1.7856,1.0,2538.7337159469885,0.2366348811997941,1.3290075167129292,0.9244020398324085,0.2880482,0.6548279781453815
0.0245,1.78499375,1.0,2555.3341964692727,0.24091675536626425,1.328577522715609,0.9267833512681163,0.2880227375,0.6557296287183467
0.025,1.784375,1.0,2570.868416506924,0.24517461146337327,1.3281523755256923,0.9290419406389508,0.28799675,0.6566199567501436
0.025500000000000002,1.783743752167708,1.0,2585.3883232706617,0.2494085823173949,1.3277314959854163,0.931186059973179,0.28797023759104373,0.6575002121784472
0.026000000000000002,1.783106484960956,1.0,2599.251999517185,0.25361880681123705,1.3273143909458076,0.9332232974737786,0.28794347236836015,0.658371458800303
0.0265,1.782469217754204,1.0,2612.760270769232,0.2578054170430191,1.326900932058676,0.9351606788909113,0.2879167071456766,0.6592339943213295
0.027,1.781831950547452,1.0,2625.919920990469,0.26196854372780415,1.326491028213711,0.9370046705769529,0.287889941922993,0.6600880372957709
0.0275,1.7811946833407002,1.0,2638.737918326692,0.2661083175806552,1.326084588300602,0.9387612266883067,0.2878631767003094,0.6609338050791673
0.028,1.7805574161339481,1.0,2651.221408016188,0.2702248693166353,1.3256815212090385,0.940435836513194,0.28783641147762584,0.6617715138487457
0.0285,1.7799201489271963,1.0,2663.3777054844936,0.2743183296508075,1.3252817358287097,0.942033566857342,0.2878096462549422,0.6626013786232829
0.029,1.7792828817204442,1.0,2675.214257159826,0.27838882913083585,1.3248851413473652,0.94355910003511,0.2877828810322587,0.6634236126648677
0.029500000000000002,1.7786456145136924,1.0,2686.738340688073,0.28243649197383464,1.3244916499342503,0.9450167661252608,0.28775611580957505,0.664238421948176
0.03,1.7780083473069406,1.0,2697.9609433050437,0.286461456092759,1.3241011411927763,0.9464105763631876,0.28772935058689153,0.6650460786911354
0.0305,1.7773710801001885,1.0,2708.890180647172,0.29046384598627856,1.3237135224825678,0.9477442490382318,0.2877025853642079,0.6658467964347197
0.031,1.7767338128934367,1.0,2719.5343071241487,0.29444378615306244,1.3233287011632493,0.9490212356981557,0.2876758201415243,0.6666407876405811
0.0315,1.7760965456866846,1.0,2729.901710077125,0.2984014010917801,1.3229465845944453,0.9502447436179691,0.28764905491884074,0.6674282637078535
0.032,1.7754592784799328,1.0,2740.0009041285325,0.30233681530110085,1.3225670801357805,0.9514177561148083,0.28762228969615716,0.6682094349894037
0.0325,1.7748220112731807,1.0,2749.8405257216978,0.306250153279694,1.3221900951468792,0.952543050938541,0.2875955244734736,0.6689845108075412
0.033,1.774184744066429,1.0,2759.429327850604,0.310141539526229,1.3218155369873663,0.9536232169410019,0.28756875925079,0.6697536994691744
0.0335,1.7735474768596768,1.0,2768.7761749802294,0.31401109853937526,1.321443313016866,0.9546606692033865,0.28754199402810643,0.6705172082804247
0.034,1.772910209652925,1.0,2777.8754960812694,0.31785891103102504,1.3210734616208046,0.9556576658366998,0.28751522880542285,0.671274975264138
0.0345,1.772272942446173,1.0,2786.7533490110673,0.3216851503112726,1.320705736739697,0.9566163103016204,0.2874884635827393,0.6720275204791075
0.035,1.7716356752394211,1.0,2795.4213863670257,0.3254899492351184,1.3203400235579363,0.9575385736899359,0.2874616983600557,0.6727750934531276
0.035500000000000004,1.770998408032669,1.0,2803.885099977379,0.32927342234288637,1.3199762634735175,0.9584263027829367,0.2874349331373721,0.6735178278492542
0.036000000000000004,1.7703611408259172,1.0,2812.1500470370415,0.3330356841749001,1.319614397884435,0.9592812281086753,0.28740816791468854,0.674255856712277
0.0365,1.7697238736191654,1.0,2820.22184760773,0.3367768492714834,1.3192543681886835,0.9601049725885187,0.28738140269200496,0.6749893124759073
0.037,1.7690866064124133,1.0,2828.106182194592,0.3404970321729601,1.318896115784258,0.9608990594471654,0.28735463746932133,0.6757183269697484
0.0375,1.7684493392056615,1.0,2835.8087893993093,0.34419634741965394,1.318539582069153,0.9616649194563786,0.2873278722466378,0.6764430314260502
0.038,1.7678120719989094,1.0,2843.3354636481445,0.34787490955188866,1.3181847084413632,0.9624038975753237,0.28730110702395417,0.6771635564862396
0.0385,1.7671748047921576,1.0,2850.692052997793,0.35153283310998806,1.3178314362988834,0.9631172590438534,0.28727434180127065,0.6778800322072347
0.039,1.7665375375854055,1.0,2857.8844570157776,0.3551702326342759,1.3174797070397084,0.9638061949792853,0.287247576578587,0.6785925880675412
0.0395,1.7659002703786537,1.0,2864.9186247383163,0.3587872226650759,1.317129462061833,0.964471827522075,0.28722081135590344,0.6793013529731264
0.04,1.7652630031719017,1.0,2871.800552703437,0.36238391774271195,1.3167806427632516,0.9651152145711964,0.28719404613321986,0.6800064552630778
0.0405,1.7646257359651498,1.0,2878.536283060423,0.36596043240750764,1.316433190541959,0.965737354145974,0.2871672809105363,0.680708022715039
0.041,1.7639884687583978,1.0,2885.1319017556757,0.3695168811997869,1.3160870467959502,0.9663391884074779,0.2871405156878527,0.6814061825504298
0.0415,1.763351201551646,1.0,2891.593536794582,0.37305337865987337,1.3157421529232196,0.9669216073693432,0.2871137504651691,0.6821010614394458
0.042,1.7627139343448939,1.0,2897.927356579459,0.3765700393280909,1.315398450321762,0.9674854523249892,0.28708698524248555,0.6827927855058389
0.0425,1.762076667138142,1.0,2904.1395683234277,0.3800669777447633,1.3150558803895722,0.9680315190156189,0.28706022001980197,0.6834814803314783
0.043000000000000003,1.76143939993139,1.0,2910.2351248188857,0.3835443028459543,1.314714395895482,0.9685605605943519,0.2870334547971184,0.6841672481382076
0.043500000000000004,1.7608021327246381,1.0,2916.213887301205,0.38700210732008344,1.31437399465126,0.9690732914160971,0.2870066895744348,0.6848501004050049
0.044,1.7601648655178863,1.0,2922.086451210361,0.3904405317811321,1.3140345802464288,0.9695703883188261,0.28697992435175124,0.6855302372750295
0.0445,1.7595275983111343,1.0,2927.85577378621,0.39385968042051606,1.313696123753829,0.9700524927337394,0.2869531591290676,0.6862077230287706
0.045,1.7588903311043824,1.0,2933.5248314929395,0.397259657429651,1.313358596246301,0.970520213207428,0.2869263939063841,0.6868826216790425
0.0455,1.7582530638976304,1.0,2939.096619413256,0.40064056699995276,1.3130219687966864,0.9709741274083209,0.28689962868370045,0.6875549969727242
0.046,1.7576157966908785,1.0,2944.574150663116,0.40400251332283693,1.3126862124778256,0.9714147839919668,0.2868728634610169,0.6882249123924493
0.0465,1.7569785294841265,1.0,2949.960455822341,0.4073456005897193,1.3123512983625594,0.9718427043363504,0.2868460982383333,0.688892431158238
0.047,1.7563412622773746,1.0,2955.2585823864147,0.41066993299201554,1.3120171975237287,0.9722583841574552,0.2868193330156497,0.6895576162290769
0.0475,1.7557039950706226,1.0,2960.4715942347866,0.41397561472114147,1.3116838810341742,0.9726622950143989,0.28679256779296614,0.6902205303044475
0.048,1.7550667278638707,1.0,2965.6025711187845,0.4172627499685127,1.311351319966737,0.9730548857126565,0.28676580257028256,0.690881235825799
0.0485,1.7544294606571187,1.0,2970.654608168082,0.420531442925545,1.3110194853942576,0.9734365836131637,0.286739037347599,0.6915397949779694
0.049,1.7537921934503669,1.0,2975.630815415034,0.4237817977836541,1.310688348389577,0.9738077958544279,0.2867122721249154,0.692196269690551
0.0495,1.7531549262436148,1.0,2980.534317338449,0.4270139187342557,1.3103578800255362,0.9741689104941735,0.2866855069022318,0.6928507216392056
0.05,1.752517659036863,1.0,2985.368252425141,0.4302279099687656,1.3100280513749756,0.9745202975765105,0.28665874167954825,0.6935032122469245
0.0505,1.751880391830111,1.0,2990.135772750563,0.4334238756785994,1.3096988335107362,0.9748623101301117,0.28663197645686467,0.6941538026852336
0.051000000000000004,1.751243124623359,1.0,2994.836922669485,0.43660189497421126,1.3093702245877175,0.9751952840804942,0.2866052112341811,0.6948025004417897
0.051500000000000004,1.7506058574166072,1.0,2999.475522789832,0.4397620838171344,1.3090421900444742,0.9755195421823915,0.2865784460114975,0.6954493774633772
0.052000000000000005,1.7499685902098552,1.0,3004.0563031192037,0.4429045645148709,1.3087146875669062,0.9758353929003588,0.28655168078881393,0.696094520664756
0.0525,1.7493313230031033,1.0,3008.5807296724693,0.44602943169888987,1.308387703246037,0.9761431298569011,0.28652491556613036,0.6967379607354409
0.053,1.7486940557963513,1.0,3013.050275116251,0.4491367800006605,1.3080612231728905,0.9764430338120575,0.2864981503434467,0.6973797282436944
0.0535,1.7480567885895995,1.0,3017.4664186118275,0.45222670405165183,1.3077352334384904,0.976735373337009,0.2864713851207632,0.6980198536369828
0.054,1.7474195213828474,1.0,3021.8306456608784,0.45529929848333295,1.307409720133861,0.977020405446858,0.28644461989807957,0.6986583672424147
0.0545,1.7467822541760956,1.0,3026.1444479575603,0.45835465792717306,1.3070846693500258,0.9772983761953873,0.28641785467539604,0.6992952992671727
0.055,1.7461449869693435,1.0,3030.4093232425844,0.4613928770146411,1.3067600671780089,0.9775695212343769,0.2863910894527124,0.6999306797989271
0.0555,1.7455077197625917,1.0,3034.626775163767,0.46441405037720634,1.306435899708834,0.9778340663398744,0.28636432423002883,0.700564538806242
0.056,1.7448704525558396,1.0,3038.7983131391024,0.4674182726463378,1.3061121530335247,0.978092227907627,0.28633755900734525,0.7011969061389667
0.0565,1.7442331853490878,1.0,3042.9254522250617,0.4704056384535046,1.3057888132431055,0.9783442134197251,0.2863107937846617,0.7018278115286134
0.057,1.743595918142336,1.0,3047.009712989178,0.47337624243017584,1.3054658664285996,0.9785902218843479,0.2862840285619781,0.7024572845887275
0.0575,1.7429586509355839,1.0,3051.0526213864036,0.47633017920782067,1.3051432986810312,0.9788304442503714,0.2862572633392945,0.7030853548152391
0.058,1.742321383728832,1.0,3055.0557086402055,0.4792675434179081,1.3048210960914242,0.9790650637984655,0.28623049811661094,0.7037120515868073
0.0585,1.74168411652208,1.0,3059.020511127883,0.48218842969190734,1.3044992447508024,0.9792942565101888,0.28620373289392737,0.7043374041651498
0.059000000000000004,1.7410468493153282,1.0,3062.9485702699635,0.4850929326612875,1.3041777307501896,0.9795181914164909,0.2861769676712438,0.7049614416953609
0.059500000000000004,1.740409582108576,1.0,3066.841432424202,0.48798114695751754,1.3038565401806095,0.9797370309269152,0.2861502024485602,0.705584193206217
0.06,1.7397723149018243,1.0,3070.6991539881446,0.49085314167318195,1.3035356719431244,0.9799509297778753,0.28612343722587663,0.7062056628126148
0.0605,1.7391350476950722,1.0,3074.522704577971,0.49370901005385925,1.30321511712629,0.9801600382810082,0.286096672003193,0.706825869726053
0.061,1.7384977804883204,1.0,3078.315194959658,0.49654888126839214,1.3028948485200882,0.9803645028334811,0.2860699067805095,0.7074448684310997
0.0615,1.7378605132815683,1.0,3082.0772938436244,0.49937284013467587,1.3025748598756575,0.9805644619123532,0.28604314155782584,0.7080626727398796
0.062,1.7372232460748165,1.0,3085.8096722539085,0.5021809714706057,1.3022551449441364,0.9807600488022856,0.2860163763351423,0.7086792964119869
0.0625,1.7365859788680644,1.0,3089.5130034887347,0.5049733600940768,1.3019356974766636,0.9809513918293064,0.2859896111124587,0.709294753154594
0.063,1.7359487116613126,1.0,3093.1879630842104,0.5077500908229845,1.3016165112243774,0.981138614582365,0.2859628458897751,0.7099090566225608
0.0635,1.7353114444545605,1.0,3096.8352287767943,0.5105112484752241,1.301297579938416,0.9813218361233971,0.28593608066709153,0.7105222204185389
0.064,1.7346741772478087,1.0,3100.4554804679233,0.5132569178686907,1.3009788973699186,0.9815011711865781,0.28590931544440795,0.7111342580930742
0.0645,1.7340369100410569,1.0,3104.0494001889456,0.5159871838212796,1.300660457270023,0.9816767303673941,0.2858825502217244,0.7117451831447086
0.065,1.7333996428343048,1.0,3107.617672067375,0.5187021311508861,1.300342253389868,0.981848620302126,0.2858557849990408,0.7123550090200774
0.0655,1.732762375627553,1.0,3111.160982293416,0.5214018446754054,1.300024279480592,0.9820169438382931,0.2858290197763572,0.7129637491140037
0.066,1.732125108420801,1.0,3114.6800190879467,0.5240864092127329,1.2997065292933336,0.982181800196577,0.28580225455367364,0.7135714167695923
0.0665,1.731487841214049,1.0,3118.1754726707436,0.5267559095807635,1.2993889965792311,0.982343285124709,0.28577548933099006,0.71417802527832
0.067,1.730850574007297,1.0,3121.648035230335,0.5294104305973927,1.2990716750894233,0.9825014910437719,0.2857487241083065,0.7147835878801225
0.0675,1.7302133068005452,1.0,3125.0984008939918,0.5320500570805158,1.2987545585750484,0.9826565071873443,0.2857219588856229,0.7153881177634821
0.068,1.7295760395937931,1.0,3128.527265699069,0.5346748738480278,1.2984376407872447,0.9828084197338818,0.28569519366293933,0.7159916280655088
0.0685,1.7289387723870413,1.0,3131.935327564831,0.5372849657178241,1.2981209154771511,0.9829573119327116,0.28566842844025575,0.7165941318720195
0.069,1.7283015051802892,1.0,3135.3232862655595,0.5398804175078,1.297804376395906,0.9831032642239883,0.2856416632175721,0.7171956422176198
0.0695,1.7276642379735374,1.0,3138.6918434044637,0.5424613140358507,1.2974880172946477,0.9832463543529423,0.2856148979948886,0.7177961720857762
0.07,1.7270269707667854,1.0,3142.041674635966,0.5450277390788946,1.2971718321596246,0.98338665742689,0.28558813277220496,0.7183957339633033
0.07050000000000001,1.7263897035600335,1.0,3145.371950471785,0.5475797266210284,1.2968558277363351,0.9835242436941058,0.28556136754952144,0.7189943161319367
