Time [s],Phi [rad],STIM [ ],Fsee [N],Gamma [ ],Lcerel [ ],q [ ],Lmtc [m],fisomrel [ ]
0.0,1.8,1.0,18.170814750964965,0.00045928823319522433,1.3793169941631134,0.00505454211174848,0.288653,0.5411945725097596
0.0005,1.79999375,1.0,18.62208834968315,0.006065921298266351,1.3792642062891751,0.014234772793917286,0.2886527375,0.5413222634816393
0.001,1.799975,1.0,22.297139555561003,0.011641105584690196,1.3788695127511295,0.03798816081443277,0.28865195,0.5422764423077863
0.0015,1.79994375,1.0,32.479318395660734,0.017185017496178203,1.3779274025472492,0.07383386200635784,0.2886506375,0.5445499949103618
0.002,1.7999,1.0,56.44443063733846,0.022697832444893838,1.3761848724120846,0.11852953939947246,0.2886488,0.548740247985662
0.0025,1.79984375,1.0,101.78153289411198,0.028179724860701586,1.373713121734491,0.16871120530224176,0.28864643749999996,0.5546508375110383
0.003,1.7997750000000001,1.0,166.93250665485732,0.0336308681946711,1.370992755983958,0.22154098725895646,0.28864354999999997,0.5611108896920515
0.0035,1.79969375,1.0,244.37990772603163,0.039051434925077524,1.3683798947557733,0.2748458186962495,0.2886401375,0.5672712153690225
0.004,1.7996,1.0,328.5614416316361,0.04444159656206513,1.3659692071756824,0.32701111003974526,0.2886362,0.5729162608392937
0.0045000000000000005,1.7994937500000001,1.0,416.5927163363278,0.04980152364797773,1.3637516318519993,0.37691974452993326,0.2886317375,0.5780763722098455
0.005,1.799375,1.0,506.876359274322,0.055131385793787915,1.3617003453534622,0.42388078305270577,0.28862675,0.5828216204438336
0.0055,1.79924375,1.0,598.3093098120088,0.060431351616787546,1.3597923985540987,0.46753655112623627,0.2886212375,0.5872111924192875
0.006,1.7991000000000001,1.0,690.0371824600448,0.06570158883285591,1.358010112364757,0.5077697459354947,0.2886152,0.5912906870043817
0.006500000000000001,1.79894375,1.0,781.3459895474246,0.07094226414850989,1.356340131563609,0.5446254996152958,0.2886086375,0.5950947405523911
0.007,1.798775,1.0,871.6592807294752,0.07615354350123445,1.3547715427887763,0.5782507443662386,0.28860155,0.5986516340155339
0.0075,1.79859375,1.0,960.4817335299374,0.08133559153884716,1.3532956538623266,0.6088509057487903,0.2885939375,0.6019839954145124
0.008,1.7984,1.0,1047.4463117191988,0.08648857256194499,1.3519044690646331,0.6366590660291462,0.2885858,0.6051123872842432
0.0085,1.79819375,1.0,1132.23454114816,0.09161264944259587,1.3505914254548368,0.6619166307751884,0.2885771375,0.6080537385125817
0.009000000000000001,1.797975,1.0,1214.601573947297,0.09670798410774369,1.3493505951273859,0.6848603590962485,0.28856795,0.610823219656063
0.0095,1.79774375,1.0,1294.3877983695127,0.10177473800482569,1.3481762778487036,0.7057147763129715,0.2885582375,0.613435202625709
0.01,1.7975,1.0,1371.4715689323743,0.10681307176420732,1.3470634484955575,0.7246885120537808,0.288548,0.6159023045866439
0.0105,1.79724375,1.0,1445.7507906011808,0.1118231441653297,1.3460077896717708,0.7419726218659639,0.2885372375,0.6182353618828305
0.011,1.796975,1.0,1517.1801218010246,0.11680511366604128,1.3450050659733133,0.7577400179873325,0.28852595000000003,0.6204448483824929
0.0115,1.79669375,1.0,1585.7606776215193,0.12175913863733363,1.3440511685737322,0.772146128907719,0.2885141375,0.6225407952903359
0.012,1.7964,1.0,1651.4978595769871,0.12668537594413057,1.343142533310361,0.7853301879422737,0.28850180000000003,0.6245318936012365
0.0125,1.79609375,1.0,1714.397550750236,0.13158398057998638,1.3422760790599335,0.7974165093626356,0.2884889375,0.6264256559418309
0.013000000000000001,1.7957750000000001,1.0,1774.5014196857508,0.13645510753845536,1.341448724699182,0.8085156867032168,0.28847555,0.6282294910755812
0.0135,1.79544375,1.0,1831.865389953148,0.14129891098000266,1.3406575929092885,0.8187260829655746,0.2884616375,0.6299502691111272
0.014,1.7951000000000001,1.0,1886.5747547110466,0.14611554547279373,1.339899797765779,0.8281350783045811,0.2884472,0.631594794256322
0.0145,1.79474375,1.0,1938.686540049846,0.15090516264314657,1.3391730391306735,0.8368205152551418,0.2884322375,0.6331685252769854
0.015,1.794375,1.0,1988.2634660584079,0.15566791334173982,1.338475178585329,0.8448516428242135,0.28841675,0.634676509826625
0.0155,1.79399375,1.0,2035.3866037988882,0.16040394841925218,1.3378040777111015,0.852290067701424,0.2884007375,0.6361237406943625
0.016,1.7936,1.0,2080.1378427831296,0.16511341771958313,1.3371577641158257,0.8591907084292011,0.2883842,0.6375148026033715
0.0165,1.7931937500000001,1.0,2122.6201831100034,0.16979647170579015,1.3365341986083537,0.8656025163054345,0.2883671375,0.6388543787214068
0.017,1.792775,1.0,2162.9073006167328,0.174453257672513,1.335931780165245,0.8715693269868636,0.28834955,0.6401461705198006
0.0175,1.7923437500000001,1.0,2201.0737553748068,0.1790839222283337,1.3353490085251505,0.8771303649942371,0.2883314375,0.6413936303609649
0.018000000000000002,1.7919,1.0,2237.203698135091,0.18368861198183423,1.3347843834267201,0.8823207574363124,0.2883128,0.6426001805280321
0.0185,1.79144375,1.0,2271.381052301277,0.18826747250749895,1.3342364943031457,0.8871720346933938,0.2882936375,0.6437690238391047
0.019,1.790975,1.0,2303.6985194437316,0.19282065034418652,1.3337039204402175,0.8917125222036196,0.28827395,0.6449033593202456
0.0195,1.79049375,1.0,2334.230619843984,0.19734828912932506,1.3331854896338609,0.895967767421484,0.2882537375,0.6460058338566468
0.02,1.79,1.0,2363.046002551327,0.2018505310318385,1.3326801440924154,0.8999608216358186,0.288233,0.6470788320365106
0.0205,1.78949375,1.0,2390.218389346565,0.20632751822065082,1.3321868260242216,0.903712493897158,0.2882117375,0.6481247213518928
0.021,1.788975,1.0,2415.826147864642,0.21077939286468594,1.3317044776376192,0.9072415996677344,0.28818995000000003,0.6491458530457722
0.021500000000000002,1.78844375,1.0,2439.935567757652,0.21520629469648014,1.3312321980560222,0.9105652109251672,0.2881676375,0.6501442314125513
0.022,1.7879,1.0,2462.636250826651,0.21960836743433398,1.3307688974181968,0.9136987763307073,0.2881448,0.6511222464947397
0.0225,1.78734375,1.0,2483.9845804426286,0.22398574884614358,1.330313836680042,0.9166563976553488,0.28812143749999997,0.6520815347503526
0.023,1.786775,1.0,2504.036235488453,0.2283385761510872,1.329866308775653,0.9194509104645593,0.28809755,0.6530236554040993
0.0235,1.78619375,1.0,2522.849288012454,0.23266698656834306,1.3294256066391246,0.9220940099222628,0.28807313749999996,0.6539501584516734
0.024,1.7856,1.0,2540.4840021829837,0.23697111731708947,1.3289910232045516,0.9245963678629688,0.2880482,0.654862584983489
0.0245,1.78499375,1.0,2556.9991104006094,0.2412511049310269,1.3285618845939065,0.9269677419622785,0.2880227375,0.6557623979339939
0.025,1.784375,1.0,2572.4471114558132,0.2455070845332908,1.3281375919660927,0.9292170737360189,0.28799675,0.6566508952126724
0.025500000000000002,1.78374375,1.0,2586.89904723374,0.24973919424034546,1.3277173876325996,0.9313525314458118,0.2879702375,0.6575296997553076
0.026000000000000002,1.7831000000000001,1.0,2600.3960221623865,0.25394756590532813,1.3273008073378514,0.9333816556800552,0.2879432,0.6583998135076234
0.0265,1.78244375,1.0,2612.9802498900367,0.2581323313813759,1.3268873868262727,0.9353113742610552,0.2879156375,0.6592622332075597
0.027,1.781775,1.0,2624.6949602646723,0.2622936225216262,1.3264766618422874,0.9371480602528742,0.28788755,0.6601179504857038
0.0275,1.7810937500000001,1.0,2635.584311091633,0.26643157117921595,1.3260681681303204,0.9388975837720693,0.2878589375,0.660967951951968
0.028,1.7804,1.0,2645.6933046702297,0.2705463092072825,1.3256614414347956,0.9405653583302491,0.2878298,0.6618132192685307
0.0285,1.77969375,1.0,2655.0624980023217,0.2746379654348176,1.3252560655265089,0.9421563880511447,0.2878001375,0.662654629586146
0.029,1.778975,1.0,2663.735677975879,0.2787066732331387,1.3248516005107105,0.9436752971192558,0.28776995,0.6634931047373398
0.029500000000000002,1.7782437500000001,1.0,2671.745799683269,0.28275256010430555,1.3244477116185982,0.9451263771576519,0.2877392375,0.6643293444689252
0.03,1.7775,1.0,2679.124751824172,0.28677575256674287,1.3240440783201908,0.9465136056389347,0.287708,0.6651640156429148
0.0305,1.77674375,1.0,2685.904855888249,0.2907763771388753,1.3236403800855068,0.947840671433723,0.2876762375,0.6659977818179488
0.031,1.775975,1.0,2692.1188253597816,0.2947545603391273,1.3232362963845643,0.9491109993812712,0.28764395,0.666831303251244
0.0315,1.7751937500000001,1.0,2697.799727199741,0.2987104286859235,1.3228315066873824,0.9503277724796533,0.2876111375,0.6676652368939879
0.032,1.7744,1.0,2702.970015681623,0.30264410329021363,1.3224257902991303,0.9514939624825585,0.2875778,0.6685000310905014
0.0325,1.77359375,1.0,2707.664455466681,0.3065557138897687,1.3220188164163766,0.9526123261039867,0.2875439375,0.6693363580159308
0.033,1.772775,1.0,2711.918519715173,0.3104453894035876,1.321610250150132,0.9536854322320786,0.28750955,0.6701748947652091
0.0335,1.7719437500000002,1.0,2715.751634715005,0.31431324988384063,1.3211999049429124,0.9547156921883667,0.2874746375,0.6710160110480359
0.034,1.7711000000000001,1.0,2719.1833872647994,0.3181594153826979,1.3207875942372347,0.9557053577025819,0.2874392,0.6718600745646917
0.0345,1.7702437500000001,1.0,2722.2335090683514,0.32198400595232946,1.3203731314756146,0.9566565333567909,0.2874032375,0.6727074509837645
0.035,1.7693750000000001,1.0,2724.9218618999175,0.3257871416449056,1.3199563301005686,0.9575711879203678,0.28736675,0.673558503917653
0.035500000000000004,1.76849375,1.0,2727.268423542038,0.3295689425125964,1.319537003554613,0.95845116468625,0.2873297375,0.6744135948958522
0.036000000000000004,1.7676,1.0,2729.2932744944537,0.3333295286075721,1.319114965280264,0.959298190906849,0.2872922,0.67527308333602
0.0365,1.76669375,1.0,2731.0165854549714,0.3370690199820028,1.3186900287200378,0.960113886417351,0.2872541375,0.6761373265128237
0.037,1.765775,1.0,2732.458605571478,0.3407875366880587,1.318262007316451,0.9608997715247268,0.28721555,0.677006679524564
0.0375,1.76484375,1.0,2733.630564734859,0.34448519017396223,1.317830797044484,0.9616572804629049,0.2871764375,0.677881327965778
0.038,1.7639,1.0,2734.5574349645804,0.3481621078514358,1.317396169547897,0.9623877527900474,0.28713679999999997,0.6787617077688859
0.0385,1.76294375,1.0,2735.2534141127776,0.3518184055285634,1.3169579947765286,0.9630924555204232,0.28709663750000003,0.6796480534031953
0.039,1.761975,1.0,2735.7300915872825,0.3554541962665507,1.3165161667062582,0.9637725830709271,0.28705595,0.6805405491504344
0.0395,1.7609937500000001,1.0,2735.999088217103,0.3590695931266036,1.3160705793129652,0.9644292606321764,0.2870147375,0.6814393778468322
0.04,1.76,1.0,2736.07205169405,0.36266470916992766,1.3156211265725293,0.9650635489169589,0.286973,0.6823447208580595
0.0405,1.7589937500000001,1.0,2735.960652264782,0.3662396574577287,1.31516770246083,0.965676448534442,0.2869307375,0.6832567580534497
0.041,1.757975,1.0,2735.6765786712162,0.36979455105121245,1.3147102009537464,0.966268904023278,0.28688795,0.6841756677795044
0.0415,1.75694375,1.0,2735.231534340552,0.37332950301158463,1.3142485160271584,0.9668418075734851,0.2868446375,0.685101626832681
0.042,1.7559,1.0,2734.637233824804,0.376844626400051,1.3137825416569453,0.9673960024641041,0.28680079999999997,0.6860348104314649
0.0425,1.75484375,1.0,2733.9031840554044,0.3803400312280097,1.313312191940216,0.9679322874053993,0.2867564375,0.686975351982198
0.043000000000000003,1.753775,1.0,2733.0312959960647,0.38381581888231925,1.312837450029716,0.9684514225039286,0.28671155,0.687923245723549
0.043500000000000004,1.75269375,1.0,2732.045477239597,0.3872721211222455,1.3123580993148891,0.9689541162546391,0.28666613750000003,0.6888788832665493
0.044,1.7516,1.0,2730.951432591422,0.3907090434489289,1.3118740885159568,0.9694410489324264,0.2866202,0.6898423243378227
0.0445,1.75049375,1.0,2729.754869020518,0.39412669136351014,1.3113853663531407,0.969912865461556,0.2865737375,0.6908136276183685
0.045,1.7493750000000001,1.0,2728.4614945683584,0.39752517036712975,1.3108918815466626,0.9703701775958246,0.28652675,0.6917928507282396
0.0455,1.74824375,1.0,2727.0770173162514,0.4009045859609282,1.3103935828167441,0.9708135659437604,0.2864792375,0.6927800502110492
0.046,1.7471,1.0,2725.6071444114723,0.40426504364604615,1.3098904188836067,0.9712435818512689,0.2864312,0.6937752815183125
0.0465,1.7459437500000001,1.0,2724.0575811510457,0.40760664892362414,1.3093823384674723,0.9716607491530319,0.28638263750000004,0.6947785989936174
0.047,1.744775,1.0,2722.4340301241546,0.41092950729480265,1.3088692902885621,0.9720655658029792,0.28633355,0.6957900558566326
0.0475,1.74359375,1.0,2720.742190413083,0.41423372426072236,1.3083512230670984,0.972458505393244,0.28628393750000003,0.6968097041869405
0.048,1.7424,1.0,2718.9877568518073,0.4175194053225238,1.3078280855233022,0.9728400185702082,0.2862338,0.6978375949077122
0.0485,1.74119375,1.0,2717.1764193436397,0.42078665598134746,1.3072998263773954,0.9732105343555015,0.2861831375,0.6988737777692049
0.049,1.739975,1.0,2715.3138622365245,0.42403558173833394,1.3067663943495997,0.9735704613791551,0.28613195,0.6999183013320978
0.0495,1.73874375,1.0,2713.4024083349996,0.42726627283115537,1.306227768749983,0.9739201892991337,0.2860802375,0.7009711532092058
0.05,1.7375,1.0,2711.4495996660594,0.4304788477261623,1.3056838812737865,0.9742600897385483,0.286028,0.7020324130401581
0.0505,1.73624375,1.0,2709.4596410997037,0.4336734114322192,1.3051346939733721,0.9745905175762656,0.2859752375,0.7031020999163793
0.051000000000000004,1.734975,1.0,2707.4351617997336,0.4368500616361363,1.3045801832339663,0.9749118115613297,0.28592195,0.7041802040215673
0.051500000000000004,1.73369375,1.0,2705.3787877844748,0.4400088960247238,1.3040203254407956,0.9752242950960057,0.2858681375,0.7052667146647728
0.052000000000000005,1.7324,1.0,2703.2931417644145,0.4431500122847919,1.3034550969790866,0.9755282770628889,0.2858138,0.7063616202723635
0.0525,1.73109375,1.0,2701.18084299263,0.4462735081031508,1.3028844742340655,0.9758240526004576,0.28575893750000003,0.7074649083799545
0.053,1.729775,1.0,2699.044507126794,0.4493794811666108,1.3023084335909592,0.9761119038307109,0.28570355000000003,0.7085765656243005
0.0535,1.72844375,1.0,2696.8867461045606,0.45246802916198203,1.3017269514349938,0.9763921005422294,0.2856476375,0.7096965777351558
0.054,1.7271,1.0,2694.7101680303313,0.45553924977607474,1.301140004151396,0.9766649008317525,0.2855912,0.7108249295270955
0.0545,1.7257437500000001,1.0,2692.5173770748784,0.4585932406956992,1.3005475681253926,0.9769305517071211,0.2855342375,0.7119616048913026
0.055,1.724375,1.0,2690.310973387461,0.46163009960766554,1.2999496197422096,0.9771892896542123,0.28547675,0.7131065867873211
0.0555,1.72299375,1.0,2688.093553019851,0.464649924198784,1.2993461353870739,0.9774413411703056,0.2854187375,0.7142598572347693
0.056,1.7216,1.0,2685.8677078631745,0.4676528121558648,1.2987370914452117,0.9776869232661264,0.2853602,0.7154213973050232
0.0565,1.72019375,1.0,2683.629103746784,0.4706388230093589,1.2981225277542479,0.9779262441301024,0.28530113749999997,0.7165910664713575
0.057,1.718775,1.0,2681.386581933288,0.473608097946726,1.297502363389539,0.9781595038743808,0.28524155,0.7177689533725722
0.0575,1.71734375,1.0,2679.142294170495,0.4765607337079183,1.2968765786653687,0.978386893882715,0.2851814375,0.7189550288263558
0.058,1.7159,1.0,2676.897104398833,0.47949681927922605,1.2962451656832332,0.9786085977745212,0.2851208,0.7201492404633728
0.0585,1.71444375,1.0,2674.6518751182048,0.48241644364693953,1.295608116544629,0.9788247918073181,0.2850596375,0.7213515351815596
0.059000000000000004,1.7129750000000001,1.0,2672.4074673854534,0.4853196957973491,1.2949654233510521,0.9790356452280591,0.28499795,0.7225618591432863
0.059500000000000004,1.71149375,1.0,2670.16474081397,0.48820666471674506,1.294317078203999,0.9792413206050239,0.2849357375,0.7237801577725165
0.06,1.71,1.0,2667.924553573539,0.49107743939141774,1.2936630732049659,0.9794419741414858,0.284873,0.7250063757519607
0.0605,1.7084937500000001,1.0,2665.68776239287,0.4939321088076574,1.2930034004554491,0.9796377559722925,0.2848097375,0.7262404570202287
0.061,1.7069750000000001,1.0,2663.455222562437,0.4967707619517544,1.2923380520569452,0.9798288104444078,0.28474595,0.7274823447689758
0.0615,1.7054437500000001,1.0,2661.227787939163,0.499593487809999,1.2916670201109501,0.9800152763824075,0.2846816375,0.7287319814400466
0.062,1.7039,1.0,2659.006310952836,0.5024003753686815,1.2909902967189606,0.9801972873398322,0.2846168,0.7299893087226126
0.0625,1.70234375,1.0,2656.7916426129427,0.5051915136140923,1.2903078739824727,0.9803749718372633,0.2845514375,0.7312542675503085
0.063,1.7007750000000001,1.0,2654.584632517818,0.5079669915325217,1.2896197440029826,0.980548453587906,0.28448555,0.7325267980983636
0.0635,1.69919375,1.0,2652.386128865023,0.51072689811026,1.288925898881987,0.9807178517114319,0.28441913750000003,0.7338068397807267
0.064,1.6976,1.0,2650.1969784621615,0.5134713223335973,1.288226330720982,0.9808832809367657,0.2843522,0.7350943312471909
0.0645,1.69599375,1.0,2648.018026740799,0.5162003531888242,1.2875210316214638,0.9810448517944732,0.2842847375,0.7363892103805141
0.065,1.694375,1.0,2645.8501177700487,0.5189140796622308,1.2868099936849289,0.9812026707993464,0.28421675,0.7376914142935302
0.0655,1.69274375,1.0,2643.692550823634,0.5216125678344045,1.2860932232680988,0.9813568397291426,0.2841482375,0.7390008533165491
0.066,1.6911,1.0,2641.544626339958,0.5242959064985939,1.2853707267278052,0.9815074583122574,0.2840792,0.740317437266723
0.0665,1.6894437500000001,1.0,2639.4083038392055,0.5269642131776089,1.2846424858525503,0.9816546234907388,0.2840096375,0.7416411200500024
0.067,1.687775,1.0,2637.283591856881,0.5296175677108539,1.283908500442972,0.9817984270879664,0.28393955,0.7429718219905069
0.0675,1.68609375,1.0,2635.17049895987,0.5322560499377333,1.283168770299708,0.9819389577179567,0.2838689375,0.7443094627772677
0.068,1.6844000000000001,1.0,2633.0690337461365,0.534879739697652,1.2824232952233965,0.982076300918438,0.2837978,0.7456539614641525
0.0685,1.68269375,1.0,2630.9792048453223,0.5374887168300143,1.281672075014675,0.9822105392775082,0.2837261375,0.7470052364697937
0.069,1.680975,1.0,2628.901020919418,0.5400830611742248,1.2809151094741815,0.9823417525542177,0.28365395,0.7483632055775147
0.0695,1.67924375,1.0,2626.834490662849,0.5426628525696882,1.280152398402554,0.9824700177934191,0.28358123749999997,0.7497277859352571
0.07,1.6775,1.0,2624.7796228032726,0.5452281708558089,1.2793839416004302,0.9825954094351833,0.283508,0.7510988940555083
0.07050000000000001,1.67574375,1.0,2622.7364261019256,0.5477790958719915,1.2786097388684479,0.9827179994190813,0.2834342375,0.7524764458152273
0.07100000000000001,1.673975,1.0,2620.704909353685,0.5503157074576406,1.277829790007245,0.9828378572835996,0.28335995,0.7538603564557721
0.07150000000000001,1.67219375,1.0,2618.685081388154,0.5528380854521607,1.2770440948174595,0.9829550502609518,0.2832851375,0.7552505405828269
0.07200000000000001,1.6704,1.0,2616.6769510696286,0.5553463096949565,1.2762526530997291,0.9830696433675239,0.2832098,0.7566469121663288
0.0725,1.66859375,1.0,2614.6805272977704,0.5578404600254324,1.2754554646546918,0.9831816994901875,0.2831339375,0.7580493845403948
0.073,1.6667750000000001,1.0,2612.6958190079577,0.560320616282993,1.2746525292829856,0.9832912794686869,0.28305755,0.7594578704032486
0.0735,1.66494375,1.0,2610.7228351718313,0.562786858307043,1.2738438467852478,0.9833984421743136,0.2829806375,0.7608722818171485
0.074,1.6631,1.0,2608.7615847975853,0.5652392659369868,1.2730294169621168,0.9835032445850471,0.2829032,0.7622925302083118
0.0745,1.6612437500000001,1.0,2606.8120769305124,0.567677919012229,1.2722092396142302,0.983605741857352,0.2828252375,0.7637185263668451
0.075,1.659375,1.0,2604.8743206535864,0.5701028973721742,1.2713833145422258,0.9837059873947925,0.28274675,0.7651501804466689
0.0755,1.65749375,1.0,2602.945328297853,0.5725142433377007,1.270551669440756,0.9838040320484598,0.2826677375,0.7665873538355228
