Time [s],Phi [rad],STIM [ ],Fsee [N],Gamma [ ],Lcerel [ ],q [ ],Lmtc [m],fisomrel [ ]
0.0,1.8,1.0,17.967476890527244,1.0121782655369428e-05,1.3793397105122502,0.005000027302259529,0.288653,0.5411396174377621
0.0005,1.79999375,1.0,18.276820352725398,0.005619274316253689,1.3793023793244368,0.012940851968538444,0.2886527375,0.541229926781955
0.001,1.799975,1.0,21.618512913213397,0.011196963939060412,1.3789382886976966,0.03560921081769509,0.28865195,0.5421102466800418
0.0015,1.79994375,1.0,31.06946637050282,0.016743367133988923,1.3780461841026,0.0706025731997208,0.2886506375,0.5442636565225227
0.002,1.7999,1.0,53.58273958650465,0.022258659392302604,1.376368108867464,0.1147188646768725,0.2886488,0.5483005313377831
0.0025,1.79984375,1.0,97.11940273735541,0.027743015221176472,1.373935144847969,0.16457579257379829,0.28864643749999996,0.5541215160954349
0.003,1.7997750000000001,1.0,160.9588488387404,0.03319660815141599,1.3712143182277208,0.2172813817188795,0.28864354999999997,0.5605865112969658
0.0035,1.79969375,1.0,237.68414053943664,0.03861961073704735,1.3685847093139443,0.270613810735367,0.2886401375,0.5667898981503674
0.004,1.7996,1.0,321.4676744380953,0.04401219456609998,1.3661560684765341,0.3229166943814945,0.2886362,0.57248001759505
0.0045000000000000005,1.7994937500000001,1.0,409.2687369947344,0.049374530265791,1.363922791016591,0.37303535508396335,0.2886317375,0.5776792161310416
0.005,1.799375,1.0,499.4145410362544,0.05470678749361413,1.3618583203134553,0.4202482541128459,0.28862675,0.5824571301655765
0.0055,1.79924375,1.0,590.7914946653799,0.060009134984813604,1.3599388139857322,0.46417443339918607,0.2886212375,0.5868751600336239
0.006,1.7991000000000001,1.0,682.5192100127276,0.06528174049552146,1.3581463947217112,0.5046806385191378,0.2886152,0.5909794641193886
0.006500000000000001,1.79894375,1.0,773.8824554086054,0.07052477085837541,1.3564672331743612,0.5418013789265983,0.2886086375,0.5948058407940549
0.007,1.798775,1.0,864.2869488823856,0.07573839196611783,1.3548903766192182,0.57567734656602,0.28860155,0.5983827186960123
0.0075,1.79859375,1.0,953.2444255286507,0.08092276878132722,1.3534067605782851,0.6065104308233666,0.2885939375,0.6017336147243708
0.008,1.7984,1.0,1040.3462697360658,0.0860780649508626,1.3520088257425709,0.6345326439440473,0.2885858,0.6048781460438022
0.0085,1.79819375,1.0,1125.3164275781073,0.09120444455378532,1.3506892103536896,0.6599848555286654,0.2885771375,0.6078350693287808
0.009000000000000001,1.797975,1.0,1207.9014249853342,0.09630206950902989,1.3494420180472801,0.6831045843288736,0.28856795,0.6106195026245036
0.0095,1.79774375,1.0,1287.8926424691608,0.10137110037226973,1.3482621180240684,0.7041178400153806,0.2885582375,0.6132445699916769
0.01,1.7975,1.0,1365.1675001029346,0.1064116976991783,1.3471443794847802,0.7232345574892515,0.288548,0.6157231498473437
0.0105,1.79724375,1.0,1439.6610435971606,0.11142402140687592,1.3460839270580431,0.7406469542430674,0.2885372375,0.6180673323727139
0.011,1.796975,1.0,1511.323889212789,0.11640823024503977,1.3450765331818682,0.7565293960747429,0.28852595000000003,0.6202875836963746
0.0115,1.79669375,1.0,1580.1218891017563,0.12136448139452517,1.3441184725858806,0.7710388590555055,0.2885141375,0.6223931021210477
0.012,1.7964,1.0,1646.0565893950206,0.12629293144489126,1.343206169889714,0.7843158245032238,0.28850180000000003,0.6243926178240842
0.0125,1.79609375,1.0,1709.1740136013132,0.13119373742483825,1.3423360343467183,0.7964855401664068,0.2884889375,0.6262947690936305
0.013000000000000001,1.7957750000000001,1.0,1769.5075127812445,0.13606705412156656,1.3415050619333495,0.8076596858409593,0.28847555,0.6281068006183008
0.0135,1.79544375,1.0,1827.0929833019402,0.14091303492903065,1.3407105789142975,0.8179376423579336,0.2884616375,0.6298351448210596
0.014,1.7951000000000001,1.0,1881.993937131741,0.14573183324118502,1.3399499115542517,0.8274076935594562,0.2884472,0.6314861531704606
0.0145,1.79474375,1.0,1934.2817164777223,0.15052360156073005,1.33922057363784,0.8361483409987849,0.2884322375,0.6330656964949452
0.015,1.794375,1.0,1984.052544842393,0.15528849284812052,1.3385200487494044,0.8442293545704241,0.28841675,0.6345796447535104
0.0155,1.79399375,1.0,2031.3736082330834,0.16002665705809752,1.3378463393977564,0.8517129714684489,0.2884007375,0.6360326879959693
0.016,1.7936,1.0,2076.315277986721,0.16473824340129892,1.3371975836187557,0.8586546556740033,0.2883842,0.6374291760257406
0.0165,1.7931937500000001,1.0,2118.96218993472,0.1694234010883625,1.3365719194482621,0.8651038577285849,0.2883671375,0.6387734153026547
0.017,1.792775,1.0,2159.3991774420033,0.17408227830173775,1.335967616160166,0.8711047648824725,0.28834955,0.6400693905983911
0.0175,1.7923437500000001,1.0,2197.7261071880284,0.17871502402340003,1.3353829066064145,0.8766968756892737,0.2883314375,0.6413211286869678
0.018000000000000002,1.7919,1.0,2234.018353989427,0.18332178406391827,1.3348163757400584,0.8819156533253503,0.2883128,0.642531870332564
0.0185,1.79144375,1.0,2268.349545198483,0.18790270332080833,1.3342667109277833,0.8867929282915413,0.2882936375,0.6437046108594445
0.019,1.790975,1.0,2300.8008137882334,0.19245792669158626,1.333732599536275,0.8913572926488109,0.28827395,0.6448423214501287
0.0195,1.79049375,1.0,2331.4544570790854,0.19698759830741971,1.333212785043053,0.8956344846100549,0.2882537375,0.6459478312622835
0.02,1.79,1.0,2360.3957325209913,0.20149186254025894,1.3327060419141563,0.8996477068855105,0.288233,0.6470238828884429
0.0205,1.78949375,1.0,2387.704754894485,0.20597086278208876,1.3322112482325366,0.9034179265581713,0.2882117375,0.6480729800630739
0.021,1.788975,1.0,2413.4436544116597,0.21042473928529137,1.331727502305283,0.9069641461916416,0.28818995000000003,0.6490971435404925
0.021500000000000002,1.78844375,1.0,2437.6784782467207,0.21485363230224888,1.3312539024394847,0.910303572307497,0.2881676375,0.6500983804802689
0.022,1.7879,1.0,2460.478865826226,0.21925768208534344,1.330789546942231,0.9134518098972388,0.2881448,0.6510786850566119
0.0225,1.78734375,1.0,2481.913320071746,0.22363702808102992,1.330333576272782,0.9164230415828483,0.28812143749999997,0.6520399502131192
0.023,1.786775,1.0,2502.0484309257436,0.22799180929122811,1.3298851768236508,0.9192301783639514,0.28809755,0.6529839608164179
0.0235,1.78619375,1.0,2520.958512364625,0.2323221659023597,1.3294434864581728,0.9218849747913902,0.28807313749999996,0.653912593208813
0.024,1.7856,1.0,2538.693076596572,0.2366282330547945,1.3290078997380852,0.9243982005295838,0.2880482,0.654827174457698
0.0245,1.78499375,1.0,2555.303485373523,0.2409101458889022,1.3285778112251247,0.9267796955825724,0.2880227375,0.655729024140645
0.025,1.784375,1.0,2570.8427963445984,0.24516803954505256,1.3281526154810288,0.9290384632958001,0.28799675,0.656619454569388
0.025500000000000002,1.78374375,1.0,2585.3656175372744,0.24940204916361527,1.3277317070675339,0.931182752923568,0.2879702375,0.6574997709904342
0.026000000000000002,1.7831000000000001,1.0,2598.922524016328,0.2536123086071992,1.32731453127628,0.93322014074016,0.2879432,0.658371165865399
0.0265,1.78244375,1.0,2611.5633369098464,0.25779895185605606,1.3269005518419423,0.935157589926833,0.2879156375,0.6592347870071225
0.027,1.781775,1.0,2623.345808149447,0.2619621141034039,1.326489169174861,0.9370014963219143,0.28788755,0.6600919081999648
0.0275,1.7810937500000001,1.0,2634.306703644013,0.26610192502279734,1.3260799876273812,0.9387577793392136,0.2878589375,0.6609433726687721
0.028,1.7804,1.0,2644.4835691245235,0.2702185142877911,1.325672611551848,0.9404318972555097,0.2878298,0.6617900194036962
0.0285,1.77969375,1.0,2653.91466305124,0.27431201157193985,1.3252666453006063,0.9420288891848588,0.2878001375,0.6626326832107448
0.029,1.778975,1.0,2662.6388929910413,0.27838254654879835,1.3248616932260016,0.94355341272616,0.28776995,0.6634721947523445
0.029500000000000002,1.7782437500000001,1.0,2670.6957554657397,0.2824302488919212,1.3244573596803788,0.9450097777770717,0.2877392375,0.664309380577925
0.03,1.7775,1.0,2678.11911758999,0.2864552455094466,1.3240533055581118,0.9464019835400109,0.287708,0.6651449462910108
0.0305,1.77674375,1.0,2684.949370759792,0.29045766722572075,1.3236491360628062,0.947733732808458,0.2876762375,0.6659797089470636
0.031,1.775975,1.0,2691.2168662425834,0.2944376403157002,1.3232445522669858,0.9490084739024045,0.28764395,0.6668142838957778
0.0315,1.7751937500000001,1.0,2696.947987557676,0.29839528902014056,1.322839294646593,0.9502294156131685,0.2876111375,0.6676492022706961
0.032,1.7744,1.0,2702.169409165443,0.30233073757979745,1.3224331036775703,0.9513995428324549,0.2875778,0.6684849925154631
0.0325,1.77359375,1.0,2706.908068608613,0.3062441102354265,1.3220257198358603,0.9525216349179556,0.2875439375,0.6693221803705232
0.033,1.772775,1.0,2711.19114014693,0.31013553122778326,1.3216168835974054,0.95359828234108,0.28750955,0.6701612888555262
0.0335,1.7719437500000002,1.0,2715.045459121966,0.31400512417072435,1.3212063404576866,0.9546319021984645,0.2874746375,0.6710028279648621
0.034,1.7711000000000001,1.0,2718.4924894787764,0.3178530051028188,1.3207938865386661,0.9556247551784476,0.2874392,0.6718472014012035
0.0345,1.7702437500000001,1.0,2721.567342906945,0.3216793096963741,1.3203791951214978,0.9565789457365844,0.2874032375,0.6726950616495575
0.035,1.7693750000000001,1.0,2724.286879000846,0.32548415577866047,1.3199621070382634,0.9574964559687221,0.28736675,0.6735467157513867
0.035500000000000004,1.76849375,1.0,2726.668064831206,0.32926766117694833,1.3195424631210444,0.9583791415120309,0.2873297375,0.6744024689494132
0.036000000000000004,1.7676,1.0,2728.7279637612505,0.33302994371850786,1.3191201042019227,0.9592287410637587,0.2872922,0.6752626246624809
0.0365,1.76669375,1.0,2730.483724826261,0.33677112123060937,1.31869487111298,0.9600468850796816,0.2872541375,0.6761274844588044
0.037,1.765775,1.0,2731.952572673127,0.3404913115405232,1.3182666046862979,0.9608351037313677,0.28721555,0.6769973480276015
0.0375,1.76484375,1.0,2733.1517980629123,0.3441906324755197,1.317835145753958,0.9615948341929632,0.2871764375,0.6778725131491079
0.038,1.7639,1.0,2734.0987489342047,0.347869201862869,1.3174003351480426,0.962327427320795,0.28713679999999997,0.6787532756629792
0.0385,1.76294375,1.0,2734.810822029092,0.3515271375298415,1.3169620137006328,0.9630341537824989,0.28709663750000003,0.6796399294350761
0.039,1.761975,1.0,2735.299695886616,0.35516454968324235,1.316520074537143,0.963716213042286,0.28705595,0.6805326607621218
0.0395,1.7609937500000001,1.0,2735.5803035900553,0.3587815570969654,1.3160743815286988,0.9643747339783959,0.2870147375,0.6814317134606203
0.04,1.76,1.0,2735.6721941323335,0.3623782849484518,1.3156247568915798,0.9650107781484387,0.286973,0.6823374133837091
0.0405,1.7589937500000001,1.0,2735.584500441905,0.36595484345954393,1.3151711176168828,0.965625352506162,0.2869307375,0.6832498935590723
0.041,1.757975,1.0,2735.3263731601965,0.3695113428520843,1.3147133806957045,0.9662194075366765,0.28688795,0.6841692857496191
0.0415,1.75694375,1.0,2734.906977716958,0.3730478933479153,1.3142514631191415,0.9667938410076268,0.2868446375,0.6850957204320116
0.042,1.7559,1.0,2734.3354915585846,0.37656460516887946,1.3137852818782911,0.9673495014337823,0.28680079999999997,0.6860293267747493
0.0425,1.75484375,1.0,2733.6211015295444,0.3800615885368191,1.3133147539642496,0.9678871912796532,0.2867564375,0.686970232615822
0.043000000000000003,1.753775,1.0,2732.773001405516,0.38353895367357677,1.312839796368114,0.9684076699224173,0.28671155,0.6879185644399138
0.043500000000000004,1.75269375,1.0,2731.800389580821,0.38699681080099485,1.3123603260809809,0.9689116563953389,0.28666613750000003,0.6888744473551764
0.044,1.7516,1.0,2730.71246690688,0.39043527014091584,1.311876260093947,0.9693998319299819,0.2866202,0.6898380050695557
0.0445,1.75049375,1.0,2729.5184346852516,0.39385444191518215,1.3113875153981096,0.9698728423138313,0.2865737375,0.6908093598666838
0.045,1.7493750000000001,1.0,2728.2274928120955,0.39725443634563623,1.310894008984565,0.9703313000784182,0.28652675,0.6917886325813303
0.0455,1.74824375,1.0,2726.8435462547627,0.400635348567426,1.3103957059684634,0.9707757880398322,0.2864792375,0.6927758473097552
0.046,1.7471,1.0,2725.377187320432,0.4039973020228277,1.3098925106429393,0.9712068590393796,0.2864312,0.6937711474726267
0.0465,1.7459437500000001,1.0,2723.8350752673196,0.4073404064640186,1.3093843630225894,0.9716250390087928,0.28638263750000004,0.6947746043275083
0.047,1.744775,1.0,2722.221598567679,0.41066476418711817,1.308871223753047,0.9720308283693111,0.28633355,0.6957862472490278
0.0475,1.74359375,1.0,2720.54114352745,0.4139704774882458,1.3083530534799466,0.972424703053988,0.28628393750000003,0.6968061046224274
0.048,1.7424,1.0,2718.798093732651,0.417257648663521,1.3078298128489212,0.9728071159315484,0.2862338,0.697834203830989
0.0485,1.74119375,1.0,2716.9968295312237,0.42052638000906317,1.307301462505605,0.9731784981346744,0.2861831375,0.6988705712433554
0.049,1.739975,1.0,2715.1417275482354,0.4237767738209917,1.3067679630956313,0.9735392602999569,0.28613195,0.6999152322007571
0.0495,1.73874375,1.0,2713.2371602359417,0.4270089323954262,1.3062292752646343,0.973889793726144,0.2860802375,0.7009682110041354
0.05,1.7375,1.0,2711.287495458323,0.4302229580284859,1.3056853596582476,0.9742304714567649,0.286028,0.7020295309011728
0.0505,1.73624375,1.0,2709.297096109493,0.4334189530162904,1.3051361769221048,0.9745616492927005,0.2859752375,0.7030992140732205
0.051000000000000004,1.734975,1.0,2707.27031976678,0.4365970196549591,1.30458168770184,0.9748836667398277,0.28592195,0.7041772816221266
0.051500000000000004,1.73369375,1.0,2705.2115183780156,0.4397572602406114,1.3040218526430865,0.9751968478964346,0.2858681375,0.7052637535569688
0.052000000000000005,1.7324,1.0,2703.1249305984625,0.4428997747880566,1.3034566333723139,0.9755015021022555,0.2858138,0.7063586468824652
0.0525,1.73109375,1.0,2701.0134303445334,0.44602463554845817,1.3028860039315158,0.9757979227726732,0.28575893750000003,0.7074619535152992
0.053,1.729775,1.0,2698.8816893105127,0.4491319856197655,1.3023099218921543,0.9760863967576769,0.28570355000000003,0.7085736961911976
0.0535,1.72844375,1.0,2696.7313896155774,0.4522219187004617,1.3017283720999768,0.9763671948840131,0.2856476375,0.7096938439728888
0.054,1.7271,1.0,2694.564210958648,0.4552945284890301,1.30114133940073,0.9766405762465098,0.2855912,0.7108223651273415
0.0545,1.7257437500000001,1.0,2692.381830560996,0.45834990868395414,1.3005488086401615,0.976906788812928,0.2855342375,0.7119592271204707
0.055,1.724375,1.0,2690.185923114345,0.461388152983717,1.299950764664018,0.9771660699927146,0.28547675,0.7131043966118331
0.0555,1.72299375,1.0,2687.978160734214,0.46440935508680203,1.2993471923180473,0.9774186471720988,0.2854187375,0.7142578394493049
0.056,1.7216,1.0,2685.760212917775,0.4674136086916926,1.2987380764479959,0.9776647382177788,0.2853602,0.715419520663748
0.0565,1.72019375,1.0,2683.53374650755,0.47040100749687186,1.2981234018996113,0.9779045519512949,0.28530113749999997,0.7165894044636572
0.057,1.718775,1.0,2681.3004256596096,0.47337164520082325,1.2975031535186408,0.9781382885960078,0.28524155,0.7177674542297962
0.0575,1.71734375,1.0,2679.061911816866,0.47632561550203006,1.2968773161508311,0.9783661401984839,0.2851814375,0.7189536325098198
0.058,1.7159,1.0,2676.8198636879156,0.47926301209897554,1.2962458746419299,0.9785882910259404,0.2851208,0.7201479010128762
0.0585,1.71444375,1.0,2674.575937230806,0.48218392869014304,1.295608813837684,0.9788049179412921,0.2850596375,0.7213502206042012
0.059000000000000004,1.7129750000000001,1.0,2672.3317856414424,0.4850884589740159,1.2949661185838406,0.9790161907572298,0.28499795,0.7225605512996929
0.059500000000000004,1.71149375,1.0,2670.0890593477684,0.4879766966490774,1.294317773726147,0.9792222725706581,0.2849357375,0.7237788522604736
0.06,1.71,1.0,2667.849406008516,0.4908487354138108,1.2936637641103503,0.9794233200787252,0.284873,0.7250050817874378
0.0605,1.7084937500000001,1.0,2665.614844922158,0.4937046688401508,1.293004071138459,0.9796194836821907,0.2848097375,0.7262392037509213
0.061,1.7069750000000001,1.0,2663.3884132775092,0.49654458525593914,1.2923386668149963,0.9798109070533885,0.28474595,0.7274811986123424
0.0615,1.7054437500000001,1.0,2661.1672148788775,0.4993685722778258,1.2916675777181084,0.979997731190645,0.2846816375,0.7287309442221022
0.062,1.7039,1.0,2658.951356228194,0.5021767187826925,1.290990802817372,0.9801800903951964,0.2846168,0.7299883695015987
0.0625,1.70234375,1.0,2656.7409436513567,0.5049691136474211,1.2903083410823637,0.9803581139060965,0.2845514375,0.7312534027359885
0.063,1.7007750000000001,1.0,2654.5375322767654,0.5077458453196098,1.289620178127333,0.9805319254069882,0.28448555,0.7325259962420021
0.0635,1.69919375,1.0,2652.3399696983643,0.5105070021107379,1.2889263245086766,0.9807016452509125,0.28441913750000003,0.7338060555035297
0.064,1.6976,1.0,2650.150512772998,0.5132526709009516,1.2882267593510048,0.9808673876598571,0.2843522,0.7350935433482715
0.0645,1.69599375,1.0,2647.971860536067,0.5159829384485911,1.287521457664014,0.9810292624575468,0.2842847375,0.7363884291542113
0.065,1.694375,1.0,2645.797520742853,0.5186978912446552,1.2868104792731183,0.981187379689022,0.28421675,0.7376905260813909
0.0655,1.6927438969406154,1.0,2643.649245671975,0.5213976156508318,1.2860936895945347,0.9813418358082884,0.2841482436715058,0.7390000024687053
0.066,1.6911083135823095,1.0,2641.8867013818513,0.52408219676696,1.285371320676534,0.9814927417208269,0.28407954917045697,0.7403163562988864
0.0665,1.6894727302240038,1.0,2640.6856165130553,0.5267517192833376,1.2846437683481158,0.9816402124279966,0.2840108546694082,0.741638791902373
0.067,1.6878371468656979,1.0,2640.0034490701273,0.5294062677566439,1.2839114222617216,0.9817843586908054,0.2839421601683593,0.7429665315986174
0.0675,1.6862015635073921,1.0,2639.796308987331,0.5320459265144533,1.283174686223499,0.9819252881866655,0.2838734656673105,0.74429877896117
0.068,1.6845659801490864,1.0,2640.0247961449923,0.5346707790596471,1.2824339238659228,0.9820631030160866,0.2838047711662616,0.7456348171227619
0.0685,1.6829303967907805,1.0,2640.655082604843,0.5372809080637763,1.2816894483236623,0.982197899439072,0.2837360766652128,0.7469740264767564
0.069,1.6812948134324748,1.0,2641.653421334291,0.5398763961983918,1.2809415727313855,0.9823297705389872,0.28366738216416393,0.7483157930842335
0.0695,1.6796592300741688,1.0,2642.9984116717947,0.5424573227274258,1.2801904966973503,0.9824588008278584,0.2835986876631151,0.7496597116087123
0.07,1.6780236467158631,1.0,2644.64063526241,0.545023775462512,1.2794366790059373,0.9825850846420894,0.28352999316206623,0.7510049184506785
0.07050000000000001,1.6763880633575572,1.0,2646.5604146917485,0.5475758340231102,1.2786803038512302,0.9827087001394017,0.2834612986610174,0.7523510467008483
0.07100000000000001,1.6747524799992515,1.0,2648.7387691495715,0.5501135778362339,1.2779215491538667,0.9828297226663996,0.2833926041599686,0.7536977439920755
0.07150000000000001,1.6731168966409458,1.0,2651.156725712501,0.5526370863288975,1.2771605928344856,0.9829482251683503,0.28332390965891974,0.7550446612871062
0.07200000000000001,1.6714813132826398,1.0,2653.795310308657,0.5551464389281149,1.2763976128137247,0.9830642782862495,0.2832552151578709,0.7563914529045739
0.0725,1.669845729924334,1.0,2656.6355393833373,0.5576417150609,1.2756327870122224,0.983177950449391,0.28318652065682204,0.7577377765429683
0.073,1.6682101465660284,1.0,2659.658412267008,0.5601229941542668,1.2748662933506167,0.9832893079636745,0.2831178261557732,0.7590832933025915
0.0735,1.6665745632077225,1.0,2662.844904245021,0.5625903556352294,1.2740983097495464,0.9833984150958734,0.28304913165472434,0.7604276677054902
0.074,1.6649389798494167,1.0,2666.1862068001165,0.5650438739411561,1.2733289198936448,0.9835053296977954,0.2829804371536755,0.7617707319826961
0.0745,1.6633033964911108,1.0,2669.6583808168707,0.5674836335758969,1.2725583464477945,0.9836101145329236,0.28291174265262664,0.7631120783853445
