Time [s],Phi [rad],STIM [ ],Fsee [N],Gamma [ ],Lcerel [ ],q [ ],Lmtc [m],fisomrel [ ]
0.0,1.8,1.0,17.968077230797892,2.2527684131207668e-05,1.3793396432552212,0.005000134392698445,0.288653,0.5411397801498774
0.0005,1.79999375,1.0,18.281550633264327,0.005631610630437438,1.3793018539174335,0.012975328996896733,0.2886527375,0.5412311977512689
0.001,1.799975,1.0,21.63246209765752,0.011209231056275113,1.3789368642278936,0.035673883586463964,0.28865195,0.5421136891872798
0.0015,1.79994375,1.0,31.10305072831436,0.016755565442380722,1.3780433236140426,0.07069108440700722,0.2886506375,0.5442705531595927
0.002,1.7999,1.0,53.655539439003014,0.022270789277818764,1.3763633876067605,0.11482368190241239,0.2886488,0.5483118637409548
0.0025,1.79984375,1.0,97.2421366595165,0.027755077067633388,1.3739292324746906,0.16468982281948957,0.28864643749999996,0.5541356157553854
0.003,1.7997750000000001,1.0,161.118783103649,0.03320860234044987,1.3712083332350122,0.21739902259298247,0.28864354999999997,0.5606006802834315
0.0035,1.79969375,1.0,237.86497417089473,0.03863153764815659,1.368579140228274,0.270730820179426,0.2886401375,0.5668029891217674
0.004,1.7996,1.0,321.6601296226775,0.04402405457666392,1.3661509718436382,0.32302999369438423,0.2886362,0.5724919190623702
0.0045000000000000005,1.7994937500000001,1.0,409.4680665159293,0.049386323751095466,1.3639181125681668,0.3731429074935701,0.2886317375,0.5776900744414002
0.005,1.799375,1.0,499.61794252077635,0.05471851482689871,1.3618539984932891,0.42034887868095633,0.28862675,0.5824671038725087
0.0055,1.79924375,1.0,590.9967509547282,0.06002079653684746,1.3599348041275057,0.46426759644100296,0.2886212375,0.58688436472479
0.006,1.7991000000000001,1.0,682.7247518385043,0.06529333663539541,1.3581426588026826,0.5047662547104491,0.2886152,0.5909879972759735
0.006500000000000001,1.79894375,1.0,774.0888381877153,0.07053630195109821,1.3564637103224944,0.5418796387650581,0.2886086375,0.5948138495635231
0.007,1.798775,1.0,864.4936793407,0.0757498583846101,1.354887037461747,0.5757486369398355,0.28860155,0.5983902762806907
0.0075,1.79859375,1.0,953.4485568847768,0.08093417087414571,1.3534036209971332,0.6065752610518933,0.2885939375,0.6017406908996004
0.008,1.7984,1.0,1040.5619027976288,0.08608940348667815,1.352005651126082,0.6345914127898941,0.2885858,0.6048852728804306
0.0085,1.79819375,1.0,1125.5193084761434,0.09121571930711234,1.3506863384383452,0.6600383034393353,0.2885771375,0.6078414924512323
0.009000000000000001,1.797975,1.0,1208.0805186828156,0.09631328055500354,1.3494395710367577,0.6831532935199303,0.28856795,0.610624955974639
0.0095,1.79774375,1.0,1288.0576089817878,0.1013822482569264,1.3482599351462186,0.7041622015590052,0.2885582375,0.6132494182779071
0.01,1.7975,1.0,1365.3479582536213,0.10642278366079788,1.3471420601867516,0.7232748113298736,0.288548,0.6157282845959748
0.0105,1.79724375,1.0,1439.840622726984,0.1114350454111232,1.3460816795587087,0.7406836227061924,0.2885372375,0.6180722929649977
0.011,1.796975,1.0,1511.484861252986,0.11641919204178235,1.3450745668922368,0.7565629486429487,0.28852595000000003,0.620291910982574
0.0115,1.79669375,1.0,1580.268804694248,0.12137538141130204,1.3441167174939084,0.7710695886842773,0.2885141375,0.6223969538941889
0.012,1.7964,1.0,1646.2110645985263,0.1263037711451608,1.3432043618266076,0.7843439100950684,0.28850180000000003,0.624396575329053
0.0125,1.79609375,1.0,1709.3187088457553,0.13120451636241134,1.3423343723150138,0.7965113328859035,0.2884889375,0.6262983977413441
0.013000000000000001,1.7957750000000001,1.0,1769.6289708353638,0.13607777190328355,1.34150369079891,0.8076834755807171,0.28847555,0.6281097868964366
0.0135,1.79544375,1.0,1827.197430733913,0.14092369192989543,1.3407094185386306,0.817959600373269,0.2884616375,0.6298376661960086
0.014,1.7951000000000001,1.0,1882.103987168849,0.1457424310164452,1.3399487069008464,0.8274279091395275,0.2884472,0.631488764912125
0.0145,1.79474375,1.0,1934.4081311592784,0.15053414107223378,1.3392192086840962,0.8361669425815178,0.2884322375,0.6330686494251774
0.015,1.794375,1.0,1984.1717262612103,0.1552989729497587,1.3385187781377845,0.8442465804915568,0.28841675,0.6345823879084866
0.0155,1.79399375,1.0,2031.4751513839103,0.16003707750151744,1.3378452695113163,0.8517289861458538,0.2884007375,0.6360349932041647
0.016,1.7936,1.0,2076.4015437589114,0.16474860461405183,1.3371966845876224,0.858669563183055,0.2883842,0.6374311093849346
0.0165,1.7931937500000001,1.0,2119.0516336555006,0.16943370486072984,1.336570996725894,0.8651177024680243,0.2883671375,0.6387753959277367
0.017,1.792775,1.0,2159.500338176096,0.17409252572162504,1.3359665823809457,0.8711176172066782,0.28834955,0.6400716056226634
0.0175,1.7923437500000001,1.0,2197.821782096136,0.17872521377643474,1.335381937449895,0.8767088702100606,0.2883314375,0.6413232016337843
0.018000000000000002,1.7919,1.0,2234.0997617054895,0.18333191560485634,1.334815557829859,0.8819268872663306,0.2883128,0.6425336168210469
0.0185,1.79144375,1.0,2268.419655674237,0.1879127769307173,1.3342660118718164,0.8868034584531235,0.2882936375,0.6437061011074959
0.019,1.790975,1.0,2300.8728639362803,0.19246794404515993,1.3337318862245802,0.8913671459163238,0.28827395,0.6448438396587497
0.0195,1.79049375,1.0,2331.5386666753734,0.1969975612793132,1.3332119568500185,0.8956436933399818,0.2882537375,0.6459495912378235
0.02,1.79,1.0,2360.4839093209607,0.20150177067694894,1.3327051800372471,0.8996563412451298,0.288233,0.6470257116593845
0.0205,1.78949375,1.0,2387.780503896505,0.2059807142818391,1.3322105120753827,0.9034260667491049,0.2882117375,0.6480745397532272
0.021,1.788975,1.0,2413.5050061043353,0.21043453413775548,1.3317269092535418,0.9069718348001575,0.28818995000000003,0.6490983982050142
0.021500000000000002,1.78844375,1.0,2437.7277935585394,0.21486337053504106,1.331253428111494,0.9103108389803906,0.2881676375,0.6500993825394874
0.022,1.7879,1.0,2460.530934909094,0.21926736621786033,1.3307890484536788,0.9134586587199105,0.2881448,0.6510797366808345
0.0225,1.78734375,1.0,2481.978194375141,0.22364666029748828,1.3303329578806675,0.916429485461419,0.28812143749999997,0.6520412529904629
0.023,1.786775,1.0,2502.1247835291374,0.22800138983234794,1.3298844519537634,0.9192362490579583,0.28809755,0.6529854858391748
0.0235,1.78619375,1.0,2521.0283178772997,0.23233169188086233,1.32944282623427,0.9218907292177382,0.28807313749999996,0.653913980365997
0.024,1.7856,1.0,2538.7486157316766,0.23663770350145447,1.3290073762834909,0.9244036736991936,0.2880482,0.6548282728031042
0.0245,1.78499375,1.0,2555.3475080839485,0.24091956175254742,1.3285773976627293,0.9267849029363443,0.2880227375,0.6557298907690965
0.025,1.784375,1.0,2570.8785867776396,0.2451774002735369,1.3281522802725005,0.9290434173224169,0.28799675,0.6566201560968057
0.025500000000000002,1.78374375,1.0,2585.40532282384,0.24941135866164782,1.327731336239071,0.9311874534592228,0.2879702375,0.6575005460680898
0.026000000000000002,1.7831000000000001,1.0,2598.971528517941,0.2536215692800103,1.3273140747932457,0.9332245972880229,0.2879432,0.6583721187571479
0.0265,1.78244375,1.0,2611.6202455209327,0.2578081637523385,1.3269000230160428,0.9351618201913404,0.2879156375,0.6592358895156591
0.027,1.781775,1.0,2623.39554965487,0.26197127370234696,1.3264887079884813,0.9370055347190436,0.28788755,0.6600928684821817
0.0275,1.7810937500000001,1.0,2634.3424605362134,0.26611103075374987,1.3260796567915794,0.9387616468309904,0.2878589375,0.6609440606718298
0.028,1.7804,1.0,2644.506856168167,0.2702275665302616,1.3256723965063562,0.940435602620873,0.2878298,0.6617904660516797
0.0285,1.77969375,1.0,2653.926011033627,0.27432100976265616,1.3252665406932829,0.9420324414691771,0.2878001375,0.6626329002086255
0.029,1.778975,1.0,2662.6409101833665,0.2783914919751912,1.3248616746617061,0.9435568183288934,0.28776995,0.6634722332142595
0.029500000000000002,1.7782437500000001,1.0,2670.7017584775845,0.28243914650538415,1.324457304517855,0.9450130304668379,0.2877392375,0.6643094947226019
0.03,1.7775,1.0,2678.1363835213488,0.28646409878137163,1.3240531471192392,0.9464050843989726,0.287708,0.6651452737312397
0.0305,1.77674375,1.0,2684.973020129511,0.29046647423129035,1.3236489193233687,0.9477366955471798,0.2876762375,0.6659801563163762
0.031,1.775975,1.0,2691.2402744412957,0.2944463982832768,1.3232443379877536,0.9490113130505943,0.28764395,0.6668147256341164
0.0315,1.7751937500000001,1.0,2696.9670898122617,0.29840399636546755,1.3228391199699037,0.9502321421710364,0.2876111375,0.6676495619166396
0.032,1.7744,1.0,2702.182714483729,0.3023393939059992,1.322432982127329,0.951402164551841,0.2875778,0.6684852424632572
0.0325,1.77359375,1.0,2706.9166710302256,0.30625271633300827,1.3220256413175393,0.9525241565588766,0.2875439375,0.6693223416263633
0.033,1.772775,1.0,2711.19830152742,0.3101440884895647,1.3216168182837826,0.9536007061941167,0.28750955,0.6701614228221184
0.0335,1.7719437500000002,1.0,2715.053009033996,0.31401362996950394,1.321206271649452,0.9546342307757119,0.2874746375,0.6710029689191916
0.034,1.7711000000000001,1.0,2718.509690113055,0.31786147147730276,1.3207937298754333,0.9556269871538368,0.2874392,0.6718475219152026
0.0345,1.7702437500000001,1.0,2721.5870127413154,0.3216877320604658,1.3203790160700841,0.9565810919207727,0.2874032375,0.6726954274935102
0.035,1.7693750000000001,1.0,2724.303771880857,0.3254925307664977,1.319961953341762,0.9574985249499358,0.28736675,0.673547029380498
0.035500000000000004,1.76849375,1.0,2726.67887620448,0.329275986642903,1.3195423647988247,0.9583811398103447,0.2873297375,0.6744026693200729
0.036000000000000004,1.7676,1.0,2728.731335514983,0.3330382187371863,1.3191200735496298,0.959230673273236,0.2872922,0.6752626870461699
0.0365,1.76669375,1.0,2730.480248858077,0.33677934609685223,1.3186949027025352,0.9600487539993561,0.2872541375,0.6761274202532577
0.037,1.765775,1.0,2731.9447933291567,0.3404994877694054,1.318266675365898,0.960836910485948,0.28721555,0.6769972045648536
0.0375,1.76484375,1.0,2733.1442135736347,0.3441987628023504,1.317835214648076,0.9615965783440852,0.2871764375,0.6778723735000365
0.038,1.7639,1.0,2734.0828127246637,0.3478772716022793,1.317400479880503,0.9623291161912956,0.28713679999999997,0.6787529826901353
0.0385,1.76294375,1.0,2734.7932718850625,0.3515351549459505,1.316962173070098,0.9630357859116147,0.28709663750000003,0.6796396072789581
0.039,1.761975,1.0,2735.290510469319,0.35517253066829774,1.3165201579406236,0.9637177857460745,0.28705595,0.6805324924019218
0.0395,1.7609937500000001,1.0,2735.584394109353,0.3587895099523746,1.316074344388782,0.9643762473487683,0.2870147375,0.6814317883265361
0.04,1.76,1.0,2735.6848140093725,0.3623862039812344,1.3156246423112752,0.9650122374731906,0.286973,0.6823376440238508
0.0405,1.7589937500000001,1.0,2735.6016833469603,0.36596272393793083,1.3151709616048055,0.9656267623785831,0.2869307375,0.6832502071463719
0.041,1.757975,1.0,2735.3449338537944,0.3695191810055172,1.314713212166075,0.9662207718924675,0.28688795,0.6841696240054562
0.0415,1.75694375,1.0,2734.9245125760485,0.3730556863670472,1.3142513038917858,0.966795163159514,0.2868446375,0.6850960395481904
0.042,1.7559,1.0,2734.35037881548,0.3765723512055742,1.3137851466786403,0.967350784103958,0.28680079999999997,0.6860295973337506
0.0425,1.75484375,1.0,2733.632501250192,0.38006928670415174,1.3133146504233404,0.9678884366301789,0.2867564375,0.6869704395092475
0.043000000000000003,1.753775,1.0,2732.7808552348038,0.3835466040458333,1.3128397250225883,0.9684088795837089,0.28671155,0.687918706785049
0.043500000000000004,1.75269375,1.0,2731.8054202820085,0.3870044144136723,1.312360280373086,0.9689128314928512,0.28666613750000003,0.6888745384095889
0.044,1.7516,1.0,2730.716177722483,0.3904428289907223,1.311876226371536,0.9694009731092009,0.2866202,0.6898380721436557
0.0445,1.75049375,1.0,2729.523108546348,0.39386195896003684,1.31138747291464,0.9698739497636784,0.2865737375,0.6908094442341657
0.045,1.7493750000000001,1.0,2728.2291460121464,0.3972618990743778,1.3108939939540993,0.9703323760910046,0.28652675,0.6917886623828713
0.0455,1.74824375,1.0,2726.8464888397434,0.4006427733407266,1.3103956792084603,0.9707768332224146,0.2864792375,0.6927759002829037
0.046,1.7471,1.0,2725.383049385968,0.40400469337367395,1.30989245731872,0.9712078740876986,0.2864312,0.6937712528602209
0.0465,1.7459437500000001,1.0,2723.843329559074,0.4073477618820831,1.3093842879162734,0.9716260250571801,0.28638263750000004,0.6947747525208561
0.047,1.744775,1.0,2722.2318296179133,0.4106720815748174,1.308871130632515,0.9720317864871809,0.28633355,0.6957864306817344
0.0475,1.74359375,1.0,2720.553047566107,0.41397775516074004,1.3083529450988398,0.9724256342473755,0.28628393750000003,0.6968063177578823
0.048,1.7424,1.0,2718.8114785811367,0.41726488534871436,1.3078296909466425,0.9728080211446528,0.2862338,0.6978344431495362
0.0485,1.74119375,1.0,2717.01161448094,0.4205335748476036,1.307301327807318,0.9731793782513943,0.2861831375,0.6988708352291432
0.049,1.739975,1.0,2715.1579432253648,0.4237839263662711,1.306767815312261,0.9735401161454146,0.28613195,0.6999155213282606
0.0495,1.73874375,1.0,2713.254948454731,0.42701604261358006,1.3062291130928665,0.973890626068189,0.2860802375,0.7009685277243507
0.05,1.7375,1.0,2711.307109064008,0.43023002629839385,1.3056851807805292,0.9742312810074532,0.286028,0.702029879627472
0.0505,1.73624375,1.0,2709.3188988131433,0.43342598012957567,1.305135978006644,0.9745624367097466,0.2859752375,0.7030996011668649
0.051000000000000004,1.734975,1.0,2707.2947859738974,0.4366040068159889,1.3045814644026057,0.9748844326280236,0.28592195,0.704177715377437
0.051500000000000004,1.73369375,1.0,2705.2392330122766,0.4397642090664967,1.304021599599809,0.9751975928090328,0.2858681375,0.7052642441861398
0.052000000000000005,1.7324,1.0,2703.149998142778,0.44290666988264105,1.303456404409421,0.9755022285184218,0.2858138,0.7063590899965113
0.0525,1.73109375,1.0,2701.0340980108285,0.44603150551192217,1.3028858150825477,0.9757986353679022,0.28575893750000003,0.7074623183092497
0.053,1.729775,1.0,2698.8982506166603,0.44913882644871256,1.3023097705048785,0.9760870954349669,0.28570355000000003,0.7085739880653307
0.0535,1.72844375,1.0,2696.7441818103093,0.4522287269312411,1.3017282551195826,0.9763678795838788,0.2856476375,0.7096940690768243
0.054,1.7271,1.0,2694.5736149395707,0.4553013011977368,1.3011412533698292,0.9766412469434724,0.2855912,0.7108225303534704
0.0545,1.7257437500000001,1.0,2692.3882707921816,0.45835664348642874,1.300548749698788,0.9769074455122893,0.2855342375,0.7119593400972426
0.055,1.724375,1.0,2690.189867543961,0.4613948480355458,1.2999507285496283,0.9771667127275941,0.28547675,0.7131044656968979
0.0555,1.72299375,1.0,2687.98012071212,0.46441600908331715,1.2993471743655192,0.9774192760007098,0.2854187375,0.714257873722511
0.056,1.7216,1.0,2685.760743113806,0.46742022086797164,1.2987380715896302,0.9776653532209273,0.2853602,0.7154195299199905
0.0565,1.72019375,1.0,2683.533444830078,0.4704075776277383,1.2981234046651309,0.9779051532300772,0.28530113749999997,0.7165893992055824
0.057,1.718775,1.0,2681.299933175641,0.4733781736008463,1.2975031580351901,0.9781388762696976,0.28524155,0.7177674456603593
0.0575,1.71734375,1.0,2679.061912672835,0.4763321030255244,1.2968773161429779,0.9783667144025874,0.2851814375,0.7189536325246888
0.058,1.7159,1.0,2676.82108503246,0.4792694601400018,1.296245863431663,0.9785888519104083,0.2851208,0.720147922192693
0.0585,1.71444375,1.0,2674.5791491390482,0.4821903391825074,1.295608784344415,0.9788054656688769,0.2850596375,0.7213502762066872
0.059000000000000004,1.7129750000000001,1.0,2672.337801041479,0.48509483439127027,1.2949660633244033,0.9790167255019734,0.28499795,0.7225606552516074
0.059500000000000004,1.71149375,1.0,2670.098733949439,0.48798304000451936,1.2943176848147973,0.9792227945165028,0.2849357375,0.7237790191494186
0.06,1.71,1.0,2667.8605318502878,0.4908550319409275,1.2936636618189439,0.9794238294698553,0.284873,0.7250052733644419
0.0605,1.7084937500000001,1.0,2665.62447227624,0.49371090938781165,1.2930039825870998,0.9796199815953202,0.2848097375,0.7262393692222529
0.061,1.7069750000000001,1.0,2663.394600561338,0.4965507825339158,1.29233860988123,0.979811395788245,0.28474595,0.7274813047599172
0.0615,1.7054437500000001,1.0,2661.171280307207,0.49937473709222585,1.2916675402934847,0.9799982112314187,0.2846816375,0.7287310138365704
0.062,1.7039,1.0,2658.954874514361,0.5021828587757277,1.290990770416015,0.9801805618268685,0.2846168,0.7299884296323151
0.0625,1.70234375,1.0,2656.745745585493,0.5049752332974071,1.290308296840972,0.9803585764342387,0.2845514375,0.7312534846469836
0.063,1.7007750000000001,1.0,2654.5442553306434,0.5077519463702501,1.2896201161605059,0.9805323790966767,0.28448555,0.7325261106989002
0.0635,1.69919375,1.0,2652.3507649712033,0.5105130837072425,1.2889262249667677,0.9807020892549689,0.28441913750000003,0.7338062389236377
0.064,1.6976,1.0,2650.165635144657,0.5132587310213701,1.288226619851908,0.98086782195062,0.2843522,0.7350937997727799
0.0645,1.69599375,1.0,2647.9892259101002,0.5159889740256189,1.2875212974080779,0.9810296880185211,0.2842847375,0.7363887230126774
0.065,1.694375,1.0,2645.821896753213,0.5187038984329748,1.2868102542274278,0.9811877942698163,0.28421675,0.7376909377232087
0.0655,1.69274375,1.0,2643.6640065918687,0.5214035899564236,1.286093486902109,0.9813422436655275,0.2841482375,0.7390003722965331
0.066,1.6911,1.0,2641.5159137821042,0.5240881343089512,1.2853709920242717,0.9814931354814727,0.2840792,0.7403169544358515
0.0665,1.6894437500000001,1.0,2639.377976124282,0.5267576172035434,1.2846427661860669,0.9816405654649688,0.2840096375,0.7416406111541585
0.067,1.687775,1.0,2637.2505508689906,0.5294121243531862,1.2839088059796455,0.9817846259837874,0.28393955,0.7429712687729975
0.0675,1.68609375,1.0,2635.1339947242373,0.5320517414708654,1.283169107997158,0.9819254061677941,0.2838689375,0.7443088529212175
0.068,1.6844000000000001,1.0,2633.0286638620596,0.534676554269567,1.2824236688307555,0.982062992043683,0.2837978,0.7456532885337237
0.0685,1.68269375,1.0,2630.9348178856594,0.5372866483131089,1.2816724859617565,0.9821974666957061,0.2837261375,0.7470044982529467
0.069,1.680976654863437,1.0,2628.932483630372,0.5398821041625259,1.2809155654281366,0.9823289104373794,0.2836540195042644,0.7483623887123416
0.0695,1.679258086938213,1.0,2627.4485764723795,0.542463002072688,1.2801531836409372,0.9824574134877271,0.28358183965140493,0.7497263829586969
0.07,1.677539519012989,1.0,2626.511353268618,0.5450294230643926,1.2793857398352613,0.9825830688733794,0.28350965979854553,0.7510956899767338
0.07050000000000001,1.6758209510877649,1.0,2626.077439540431,0.5475814481584369,1.2786136332462117,0.9827059666431507,0.28343747994568613,0.7524695260502088
0.07100000000000001,1.6741023831625408,1.0,2626.1045832859186,0.5501191581816288,1.277837254258885,0.9828261935765851,0.2833653000928267,0.7538471305672313
0.07150000000000001,1.6723838152373167,1.0,2626.5559067250665,0.5526426330480334,1.2770569446492095,0.982943831460208,0.28329312023996733,0.7552278361659595
0.07200000000000001,1.6706652473120926,1.0,2627.3866121558726,0.5551519546823279,1.2762731204599527,0.9830589630201074,0.2832209403871079,0.7566108511202821
0.0725,1.6689466793868686,1.0,2628.5702397205705,0.5576472013478544,1.275486028441137,0.9831716606049699,0.2831487605342485,0.7579956892019424
0.073,1.6672281114616445,1.0,2630.080380306659,0.5601284513079551,1.2746959153427844,0.9832819943298506,0.2830765806813891,0.7593818689221615
0.0735,1.6655095435364204,1.0,2631.8906583440917,0.562595782825972,1.273903027914918,0.9833900321661978,0.2830044008285296,0.7607689135811215
0.074,1.6637909756111964,1.0,2633.9747159530675,0.5650492741652474,1.2731076129075598,0.9834958400277442,0.2829322209756703,0.7621563513135666
0.0745,1.6620724076859723,1.0,2636.3073323100753,0.5674890032154587,1.2723099065836994,0.9835994813694608,0.2828600411228108,0.7635437333430387
