Time [s],Phi [rad],STIM [ ],Fsee [N],Gamma [ ],Lcerel [ ],q [ ],Lmtc [m],fisomrel [ ]
0.0,1.8,1.0,18.709751119398668,0.0008786846021571148,1.3792573932830088,0.00519855248345926,0.288653,0.5413387424750549
0.0005,1.79999375,1.0,19.27913529148218,0.006482965185248364,1.379192527860696,0.015526968931303696,0.2886527375,0.5414956212200743
0.001,1.799975,1.0,23.266685814339983,0.012055810185409254,1.3787730442776884,0.04027776413016054,0.28865195,0.5425095055121565
0.0015,1.79994375,1.0,34.17594891010635,0.01759739593168088,1.3777878275611928,0.07689913790243688,0.2886506375,0.5448863435797018
0.002,1.7999,1.0,59.551403723305896,0.023107897763325676,1.3759911153106181,0.12211559539633544,0.2886488,0.5492049783401705
0.0025,1.79984375,1.0,106.54644244029892,0.028587490037426874,1.3734913982756083,0.1725844273173711,0.28864643749999996,0.5551791307848564
0.003,1.7997750000000001,1.0,172.84667564502067,0.034036346131152355,1.3707772724094234,0.2255183636800022,0.28864354999999997,0.5616205812009829
0.0035,1.79969375,1.0,250.91327851643246,0.03945463844940627,1.3681827351449352,0.27878864816891336,0.2886401375,0.5677342906288091
0.004,1.7996,1.0,335.42083215330143,0.04484253842920259,1.3657904286069176,0.3308195968645527,0.2886362,0.5733334258277026
0.0045000000000000005,1.7994937500000001,1.0,423.63850027616627,0.05020021656078448,1.3635883882728024,0.380528522956829,0.2886317375,0.5784549869680673
0.005,1.799375,1.0,514.0141720484329,0.055527842331860394,1.3615503144950925,0.4272528131777708,0.28862675,0.5831676342107772
0.0055,1.79924375,1.0,605.4852423338824,0.06082558438320683,1.3596534972048369,0.47065557711141914,0.2886212375,0.5875298531515638
0.006,1.7991000000000001,1.0,697.1808685625931,0.06609361021683696,1.3578813011093256,0.510634471661774,0.2886152,0.5915847395290059
0.006500000000000001,1.79894375,1.0,788.4259998417344,0.07133208667157837,1.356220121108784,0.5472437513606756,0.2886086375,0.5953674276697807
0.007,1.798775,1.0,878.6276741009201,0.07654117930916544,1.3546596811268408,0.5806362999147577,0.28860155,0.5989046893590804
0.0075,1.79859375,1.0,967.329895914985,0.08172105318794866,1.3531909060858234,0.6110202166745358,0.2885939375,0.6022199740378671
0.008,1.7984,1.0,1054.1376993073106,0.08687187201310292,1.3518064420594254,0.6386301116315372,0.2885858,0.6053323575430108
0.0085,1.79819375,1.0,1138.7416126441258,0.0919937986485587,1.35049972275687,0.663707362020259,0.2885771375,0.6082587511076443
0.009000000000000001,1.797975,1.0,1220.932621071629,0.09708699565042676,1.349264439991225,0.6864877938015083,0.28856795,0.6110151497372959
0.0095,1.79774375,1.0,1300.5247543757391,0.10215162373742187,1.348095369315842,0.7071950940125611,0.2885582375,0.6136148401175625
0.01,1.7975,1.0,1377.390085306441,0.10718784305268424,1.3469876363060589,0.7260366625047799,0.288548,0.6160700900852494
0.0105,1.79724375,1.0,1451.4632478869391,0.11219581327007934,1.3459365149940616,0.7432019839861524,0.2885372375,0.618392626255623
0.011,1.796975,1.0,1522.6994669779042,0.1171756930172561,1.344937836157776,0.7588626799367575,0.28852595000000003,0.6205927588864519
0.0115,1.79669375,1.0,1591.0682202376156,0.12212763928870135,1.3439879275189126,0.7731731174098904,0.2885141375,0.6226795463049852
0.012,1.7964,1.0,1656.5775777017534,0.12705180860277496,1.3430832196924234,0.7862713400030735,0.28850180000000003,0.6246616848389042
0.0125,1.79609375,1.0,1719.2732719047071,0.1319483577697204,1.342220198336948,0.7982804042742456,0.2884889375,0.6265476270734056
0.013000000000000001,1.7957750000000001,1.0,1779.1939905220954,0.136817441716683,1.3413958590941355,0.8093099829684162,0.28847555,0.6283446026574528
0.0135,1.79544375,1.0,1836.375834285565,0.14165921355498182,1.3406075787651355,0.8194576811490277,0.2884616375,0.6300589199226787
0.014,1.7951000000000001,1.0,1890.8818310978577,0.14647382639593587,1.3398527341510975,0.8288102034084571,0.2884472,0.6316968083227789
0.0145,1.79474375,1.0,1942.7899814301804,0.1512614326738304,1.3391288055406383,0.8374446220618867,0.2884322375,0.6332642004227678
0.015,1.794375,1.0,1992.1882956112847,0.15602218504520382,1.3384333996809163,0.8454294979469852,0.28841675,0.6347666899885751
0.0155,1.79399375,1.0,2039.1501723832594,0.16075623394663244,1.3377644806333924,0.8528259473052493,0.2884007375,0.6362090421634399
0.016,1.7936,1.0,2083.7445800999494,0.16546372816942514,1.337120226412202,0.8596884694489809,0.2883842,0.6375955132136024
0.0165,1.7931937500000001,1.0,2126.054386837402,0.1701448165048908,1.3364988150314805,0.8660656643764082,0.2883671375,0.638930317227071
0.017,1.792775,1.0,2166.169858115917,0.1747996472038431,1.3358984787325685,0.8720009471061445,0.28834955,0.6402175127077367
0.0175,1.7923437500000001,1.0,2204.182337117303,0.17942836825649316,1.335317554291057,0.8775331737321229,0.2883314375,0.6414608985467605
0.018000000000000002,1.7919,1.0,2240.182012735222,0.18403112715423178,1.3347544910314784,0.8826971770913896,0.2883128,0.642664001065867
0.0185,1.79144375,1.0,2274.2365353501123,0.1886080681016437,1.3342080506394352,0.8875242835936815,0.2882936375,0.643829652065653
0.019,1.790975,1.0,2306.420717466093,0.1931593353033137,1.3336769948005305,0.8920426389390527,0.28827395,0.6449606605257869
0.0195,1.79049375,1.0,2336.8159393348797,0.19768507296382645,1.333160085200367,0.8962775725093981,0.2882537375,0.6460598138688908
0.02,1.79,1.0,2365.50118082547,0.20218542411807292,1.3326561656173963,0.900251934936675,0.288233,0.647129704964067
0.0205,1.78949375,1.0,2392.5626687732756,0.2066605328014691,1.3321640608218739,0.9039863538713375,0.2882117375,0.648172948655365
0.021,1.788975,1.0,2418.0750834462406,0.21111054104769153,1.331682754101662,0.9074995170808835,0.28818995000000003,0.6491918068607666
0.021500000000000002,1.78844375,1.0,2442.0982313797904,0.2155355881563979,1.3312114110964812,0.9108083877450214,0.2881676375,0.6501881414524162
0.022,1.7879,1.0,2464.695311387674,0.21993581342724586,1.3307491974460521,0.9139283535088859,0.2881448,0.65116380226018
0.0225,1.78734375,1.0,2485.932633530315,0.2243113561598932,1.3302952787900955,0.9168733946070928,0.28812143749999997,0.6521206275796336
0.023,1.786775,1.0,2505.878526566437,0.22866235549806543,1.3298488286132326,0.9196562335104292,0.28809755,0.6530604281329028
0.0235,1.78619375,1.0,2524.58960337707,0.23298894785241397,1.3294091555444412,0.9222884879912446,0.28807313749999996,0.6539847201642162
0.024,1.7856,1.0,2542.1474535322445,0.23729127422417912,1.3289753532341775,0.9247807237330697,0.2880482,0.6548954622590821
0.0245,1.78499375,1.0,2558.597839704117,0.24156946869928198,1.3285468729187961,0.9271426574254795,0.2880227375,0.6557938529823993
0.025,1.784375,1.0,2573.9881047867457,0.2458236653636437,1.3281231658346522,0.929383181275141,0.28799675,0.65668108431966
0.025500000000000002,1.78374375,1.0,2588.367041798239,0.25005399830318537,1.3277036832180997,0.9315104442101377,0.2879702375,0.6575583418536076
0.026000000000000002,1.7831000000000001,1.0,2601.784770459217,0.2542606016038281,1.3272878763054936,0.9335319240971761,0.2879432,0.6584268049216835
0.0265,1.78244375,1.0,2614.2926204481964,0.2584436093514929,1.3268751963331886,0.9354544920609558,0.2879156375,0.659287646754271
0.027,1.781775,1.0,2625.9364207382246,0.2626031516018975,1.3264651557060814,0.9372844775300601,0.28788755,0.6601419072378956
0.0275,1.7810937500000001,1.0,2636.7699889640808,0.2667393655326023,1.3260572016617032,0.9390277043379749,0.2878589375,0.6609907565195774
0.028,1.7804,1.0,2646.8288806262435,0.27085237983659227,1.32565095839527,0.9406895664613608,0.2878298,0.661834991378323
0.0285,1.77969375,1.0,2656.1491672121447,0.2749423231155486,1.3252460516337725,0.9422750447131422,0.2878001375,0.6626754014561269
0.029,1.778975,1.0,2664.7675416319944,0.2790093239711523,1.3248421071042014,0.9437887435924249,0.28776995,0.663512772487572
0.029500000000000002,1.7782437500000001,1.0,2672.721261836663,0.2830535110050845,1.324438750533547,0.9452349245700731,0.2877392375,0.6643478863272666
0.03,1.7775,1.0,2680.0480975408263,0.2870750128190263,1.324035607648801,0.9466175360325052,0.287708,0.665181520968343
0.0305,1.77674375,1.0,2686.778828028557,0.2910739538261358,1.3236323724493841,0.9479402477351028,0.2876762375,0.6660143096389768
0.031,1.775975,1.0,2692.946188025166,0.29505046179510575,1.3232287245202792,0.9492064663059037,0.28764395,0.6668469121332701
0.0315,1.7751937500000001,1.0,2698.5945096013284,0.2990046717729001,1.3228242406306512,0.9504193475138117,0.2876111375,0.667680196623863
0.032,1.7744,1.0,2703.746055545607,0.3029367055758072,1.322418702365764,0.9515818484357037,0.2875778,0.6685146057550282
0.0325,1.77359375,1.0,2708.4233245572445,0.30684668502011553,1.3220118913108818,0.9526967229043556,0.2875439375,0.6693505798928215
0.033,1.772775,1.0,2712.649029543546,0.3107347319221134,1.3216035890512685,0.9537665379398559,0.28750955,0.6701885571088737
0.0335,1.7719437500000002,1.0,2716.4460769756733,0.3146009680980894,1.321193577172188,0.9547936886652584,0.2874746375,0.6710289731611405
0.034,1.7711000000000001,1.0,2719.8375473009796,0.31844551536433174,1.3207816372589047,0.9557804118623963,0.2874392,0.6718722614716086
0.0345,1.7702437500000001,1.0,2722.846676414127,0.322268495537129,1.3203675508966826,0.9567287983061962,0.2874032375,0.6727188531009615
0.035,1.7693750000000001,1.0,2725.496838185166,0.32607003043276944,1.3199510996707853,0.9576408040004094,0.28736675,0.6735691767202017
0.035500000000000004,1.76849375,1.0,2727.8115280458,0.3298502418675415,1.319532065166477,0.9585182604240882,0.2873297375,0.6744236585792291
0.036000000000000004,1.7676,1.0,2729.809277601285,0.33360924751206766,1.3191102750510606,0.9593628876781939,0.2872922,0.6752826286888918
0.0365,1.76669375,1.0,2731.508463874545,0.337347167475174,1.318685559173902,0.9601762997708835,0.2872541375,0.6761464106314332
0.037,1.765775,1.0,2732.9334937149883,0.3410641267154876,1.3182576932876446,0.9609600072905872,0.28721555,0.6770154357883531
0.0375,1.76484375,1.0,2734.0973323409144,0.3447602398819961,1.3178265576909283,0.9617154371876773,0.2871764375,0.6778899210023439
0.038,1.7639,1.0,2735.0129950174855,0.3484356216236875,1.3173920326823934,0.9624439308547638,0.28713679999999997,0.6787700815999316
0.0385,1.76294375,1.0,2735.693540912137,0.3520903865895496,1.3169539985606797,0.9631467501917254,0.28709663750000003,0.6796561313660607
0.039,1.761975,1.0,2736.15206726583,0.3557246494285703,1.3165123356244275,0.9638250831773468,0.28705595,0.6805482825177608
0.0395,1.7609937500000001,1.0,2736.401703883729,0.35933852478973743,1.3160669241722767,0.9644800489925862,0.2870147375,0.6814467456769016
0.04,1.76,1.0,2736.455607942246,0.3629321273220389,1.3156176445028671,0.9651127027359703,0.286973,0.6823517298420338
0.0405,1.7589937500000001,1.0,2736.3269591143608,0.3665055716744625,1.3151643769148391,0.9657240397675773,0.2869307375,0.6832634423593151
0.041,1.757975,1.0,2736.0289550126226,0.3700589724959961,1.3147070017068327,0.9663149997144658,0.28688795,0.6841820888925242
0.0415,1.75694375,1.0,2735.5708348492744,0.3735924432488374,1.3142454352422814,0.9668864730319697,0.2868446375,0.6851078011141234
0.042,1.7559,1.0,2734.965006191516,0.37710609453536453,1.313779565218944,0.9674392985043759,0.28680079999999997,0.6860407667442938
0.0425,1.75484375,1.0,2734.220758649815,0.38060003691665856,1.313309307716436,0.9679742718187815,0.2867564375,0.686981115109208
0.043000000000000003,1.753775,1.0,2733.3455550589947,0.3840743808492227,1.3128345954616503,0.9684921473408618,0.28671155,0.6879289409513573
0.043500000000000004,1.7526977287930487,1.0,2732.541595543653,0.38752923640635456,1.3123553889671467,0.968993641573683,0.28666630460930803,0.688884282471883
0.044,1.7516202022491307,1.0,2732.1928785030477,0.3909647133101056,1.3118719321189538,0.9694794556450026,0.28662104849446346,0.6898466133813479
0.0445,1.7505426757052127,1.0,2732.276278600719,0.3943809197725542,1.311384549532238,0.9699502601373151,0.28657579237961894,0.6908152497213176
0.045,1.7494651491612947,1.0,2732.7565837204734,0.3977779638501226,1.3108935612597612,0.9704066906105853,0.28653053626477437,0.6917895203036452
0.0455,1.7483876226173767,1.0,2733.6004186270716,0.4011559531625,1.3103992713917465,0.9708493488673414,0.2864852801499298,0.6927687892840335
0.046,1.7473100960734587,1.0,2734.776545349137,0.40451499496090454,1.30990196512322,0.9712788048186035,0.2864400240350853,0.6937524617754035
0.0465,1.7462325695295406,1.0,2736.2589255413086,0.40785519503272544,1.3094018807853811,0.9716955962280673,0.2863947679202407,0.6947400387961378
0.047,1.7451550429856226,1.0,2738.0218187034307,0.411176659086455,1.3088992542418252,0.9721002340636963,0.28634951180539614,0.6957310291098351
0.0475,1.7440775164417046,1.0,2740.0509036961403,0.41447948742916785,1.3083942178699646,0.9724931961936975,0.2863042556905516,0.6967251479093521
0.048,1.7429999898977866,1.0,2742.3041309392597,0.41776379435025673,1.3078871556659781,0.9728749568489732,0.28625899957570705,0.6977216179078882
0.0485,1.7419224633538686,1.0,2744.7667132299007,0.42102968151282766,1.3073782041616362,0.97324594866888,0.2862137434608625,0.6987201518060189
0.049,1.7408449368099506,1.0,2747.4243479664406,0.4242772503484675,1.3068674954791706,0.9736065834500839,0.2861684873460179,0.6997204726350167
0.0495,1.7397674102660325,1.0,2750.262725933028,0.4275066022887632,1.3063551617408127,0.9739572536576309,0.28612323123117334,0.7007223050853333
0.05,1.7386898837221145,1.0,2753.2675263459055,0.43071783876530173,1.3058413350687936,0.9742983335108377,0.2860779751163288,0.7017253755208479
0.0505,1.7376123571781965,1.0,2756.4244122859473,0.43391106120967005,1.3053261475853448,0.9746301799988428,0.28603271900148425,0.7027294119920033
0.051000000000000004,1.7365348306342785,1.0,2759.719026519637,0.43708637105345505,1.3048097314126978,0.9749531338309535,0.2859874628866397,0.7037341442478284
0.051500000000000004,1.7354573040903605,1.0,2763.1369877059337,0.4402438697282437,1.3042922186730839,0.9752675203265182,0.28594220677179516,0.7047393037468499
0.052000000000000005,1.7343797775464425,1.0,2766.6664527452613,0.4433836563106992,1.3037737183241636,0.9755736485200139,0.2858969506569506,0.7057446685443614
0.0525,1.7333022510025244,1.0,2770.2969359481567,0.4465058308605648,1.3032543268616141,0.9758718130766947,0.285851694542106,0.7067500422184607
0.053,1.7322247244586064,1.0,2774.0152448446493,0.44961049641370177,1.3027341649849284,0.976162297544349,0.2858064384272615,0.7077551828790757
0.0535,1.7311471979146884,1.0,2777.8150032459876,0.4526977490396129,1.302213291693439,0.9764453686248762,0.28576118231241693,0.7087599691448225
0.054,1.7300696713707704,1.0,2781.689820603573,0.455767684807801,1.301691765986478,0.9767212815443205,0.28571592619757236,0.7097642804080364
0.0545,1.7289921448268524,1.0,2785.6332911168147,0.4588203997877689,1.3011696468633778,0.9769902806451568,0.2856706700827278,0.7107679968373353
0.055,1.7279146182829344,1.0,2789.638992918152,0.46185599004901934,1.3006469933234708,0.9772525999432278,0.2856254139678832,0.7117709993799647
0.0555,1.7268370917390163,1.0,2793.700487335831,0.4648745516610552,1.3001238643660893,0.977508463651723,0.2855801578530387,0.7127731697639198
0.056,1.7257595651950983,1.0,2797.8113182326842,0.4678761806933792,1.2996003189905656,0.9777580866744033,0.2855349017381941,0.7137743904998448
0.0565,1.7246820386511803,1.0,2801.965011423592,0.47086097321549425,1.2990764161962323,0.9780016750701191,0.28548964562334955,0.7147745448827106
0.057,1.7236045121072623,1.0,2806.1604831221007,0.4738290131887392,1.2985521664932733,0.9782394226365136,0.28544438950850504,0.715773609318153
0.0575,1.722526985563344,1.0,2810.387843428494,0.4767804084121221,1.2980276592516373,0.9784715219183335,0.28539913339366046,0.7167714104623404
0.058,1.7214494590194263,1.0,2814.6414303186875,0.4797152567125641,1.297502945733437,0.9786981547148873,0.2853538772788159,0.717767848469157
0.0585,1.720371932475508,1.0,2818.9189619947997,0.48263364784797624,1.2969780468151604,0.9789194932212398,0.2853086211639713,0.7187628817278457
0.059000000000000004,1.71929440593159,1.0,2823.2181498195187,0.48553567157626965,1.296452983373295,0.9791357028559213,0.28526336504912675,0.7197564689064825
0.059500000000000004,1.718216879387672,1.0,2827.536698235054,0.48842141765535535,1.2959277762843284,0.9793469425814638,0.28521810893428223,0.7207485689522082
0.06,1.7171393528437542,1.0,2831.8723046916825,0.49129097584314435,1.2954024464247487,0.9795533652073656,0.28517285281943766,0.7217391410914333
0.0605,1.716061826299836,1.0,2836.2226595864267,0.49414443589754775,1.2948770146710433,0.9797551176765783,0.2851275967045931,0.7227281448300169
0.061,1.714984299755918,1.0,2840.58544621079,0.49698188757647666,1.2943515018997003,0.9799523413365309,0.2850823405897486,0.7237155399534144
0.0615,1.713906773212,1.0,2844.958340708359,0.49980342063784206,1.2938259289872072,0.9801451721956372,0.285037084474904,0.7247012865268008
0.062,1.712829246668082,1.0,2849.3390120424388,0.502609124839555,1.2933003168100519,0.980333741166174,0.28499182836005943,0.7256853448951633
0.0625,1.7117517201241639,1.0,2853.725121972874,0.5053990899395266,1.292774686244722,0.9805181742943413,0.2849465722452149,0.7266676756833692
0.063,1.7106741935802459,1.0,2858.1143250425134,0.5081734056956679,1.2922490581677053,0.9806985929782837,0.28490131613037034,0.7276482397962029
0.0635,1.7095966670363278,1.0,2862.504268573923,0.51093216186589,1.2917234534554896,0.9808751141747789,0.28485606001552577,0.7286269984183764
0.064,1.7085191404924098,1.0,2866.897264323683,0.5136754153957163,1.2911978515510598,0.981047846151835,0.2848108039006812,0.7296039899618844
0.0645,1.7074416139484918,1.0,2871.287256744468,0.5164032958216438,1.2906723061143355,0.981216902171222,0.2847655477858366,0.7305791149814225
0.065,1.7063640874045738,1.0,2875.67340834428,0.5191158878232512,1.2901468244323513,0.9813823859626537,0.2847202916709921,0.731552360560658
0.0655,1.7052865608606558,1.0,2880.055210142128,0.5218132734249551,1.2896214108631947,0.9815443972559997,0.28467503555614754,0.7325237192908565
0.066,1.7042090343167378,1.0,2884.4321516877912,0.5244955346511715,1.2890960697649525,0.9817030322795308,0.28462977944130297,0.7334931838216125
0.0665,1.7031315077728197,1.0,2888.803721068033,0.5271627535263169,1.2885708054957126,0.9818583839081269,0.28458452332645845,0.734460746860828
0.067,1.7020539812289017,1.0,2893.169404914086,0.5298150120748077,1.2880456224135617,0.9820105418042043,0.2845392672116139,0.7354264011746934
0.0675,1.7009764546849837,1.0,2897.528688409082,0.5324523923210603,1.2875205248765873,0.9821595925517608,0.2844940110967693,0.736390139587665
0.068,1.6998989281410657,1.0,2901.8810552965483,0.535074976289491,1.2869955172428766,0.9823056197839259,0.2844487549819248,0.7373519549824417
0.0685,1.6988214015971477,1.0,2906.2259878882414,0.5376828460045161,1.2864706038705171,0.9824487043043738,0.2844034988670802,0.7383118402999402
0.069,1.6977438750532297,1.0,2910.5629670735516,0.5402760834905521,1.2859457891175958,0.9825889242029318,0.28435824275223565,0.7392697885392712
0.0695,1.6966663485093116,1.0,2914.891472328651,0.5428547707720154,1.2854210773422001,0.9827263549657013,0.2843129866373911,0.7402257927577098
0.07,1.6955888219653936,1.0,2919.2109817261685,0.5454189898733222,1.2848964729024173,0.9828610695799888,0.2842677305225465,0.7411798460706704
0.07050000000000001,1.6945112954214756,1.0,2923.520971945619,0.5479688228188888,1.2843719801563347,0.9829931386343229,0.284222474407702,0.7421319416516747
0.07100000000000001,1.6934337688775576,1.0,2927.8209182834435,0.5505043516331318,1.2838476034620392,0.9831226304138195,0.2841772182928574,0.7430820727323245
0.07150000000000001,1.6923562423336396,1.0,2932.1102946645556,0.5530256583404676,1.2833233471776186,0.9832496109911433,0.28413196217801284,0.7440302326022659
0.07200000000000001,1.6912787157897216,1.0,2936.3885736536636,0.5555328249653122,1.28279921566116,0.9833741443132928,0.2840867060631683,0.7449764146091604
