Time [s],Phi [rad],STIM [ ],Fsee [N],Gamma [ ],Lcerel [ ],q [ ],Lmtc [m],fisomrel [ ]
0.0,1.8,1.0,17.967838248308833,2.212383272001342e-05,1.3793396700286567,0.0050001296359147435,0.288653,0.5411397153780291
0.0005,1.79999375,1.0,18.281197243958943,0.005631209044313226,1.3793018931671355,0.012974205963733904,0.2886527375,0.5412311028055707
0.001,1.799975,1.0,21.631820326948105,0.011208831722731486,1.3789369297544756,0.035671778767155604,0.28865195,0.5421135308298841
0.0015,1.79994375,1.0,31.101770597434744,0.016755168348782434,1.3780434326186177,0.07068820484117894,0.2886506375,0.5442702903505505
0.002,1.7999,1.0,53.65297842448255,0.02227039441160186,1.3763635536408705,0.1148202723708824,0.2886488,0.5483114652130601
0.0025,1.79984375,1.0,97.23795359157428,0.027754684416303542,1.373929433921188,0.16468611360324395,0.28864643749999996,0.5541351353551653
0.003,1.7997750000000001,1.0,161.11340372897564,0.03320821189158356,1.3712085344914173,0.21739519569083773,0.28864354999999997,0.560600203828872
0.0035,1.79969375,1.0,237.85893294745864,0.03863114938939988,1.3685793262440533,0.2707270135750623,0.2886401375,0.5668025518669635
0.004,1.7996,1.0,321.65372748043353,0.04402366849573195,1.3661511413618028,0.323026307600877,0.2886362,0.5724915232125289
0.0045000000000000005,1.7994937500000001,1.0,409.46145568958684,0.04938593983577166,1.3639182677121227,0.3731394082287037,0.2886317375,0.5776897143667342
0.005,1.799375,1.0,499.61121308150297,0.054718133065034466,1.3618541414645362,0.4203456046935336,0.28862675,0.5824667739316436
0.0055,1.79924375,1.0,590.9899718389995,0.06002041691636876,1.3599349365522442,0.46426456514423803,0.2886212375,0.5868840607434055
0.006,1.7991000000000001,1.0,682.7179746559183,0.06529295914428879,1.3581427819754839,0.5047634688794906,0.2886152,0.5909877159402457
0.006500000000000001,1.79894375,1.0,774.08211159451,0.07053592657744634,1.356463825134706,0.5418770914816389,0.2886086375,0.5948135885533601
0.007,1.798775,1.0,864.4870276961534,0.07574948511640348,1.3548871448944086,0.5757463156384216,0.28860155,0.5983900331272163
0.0075,1.79859375,1.0,953.4420583316751,0.08093379970008777,1.353403720941002,0.6065731494389575,0.2885939375,0.6017404656411175
0.008,1.7984,1.0,1040.555518335548,0.086089034393894,1.352005745115378,0.6345894943293113,0.2885858,0.6048850618806364
0.0085,1.79819375,1.0,1125.513164268162,0.09121535228570284,1.350686425409934,0.66003655996537,0.2885771375,0.607841297937509
0.009000000000000001,1.797975,1.0,1208.0741802476055,0.0963129155912795,1.3494396576375893,0.6831517118885267,0.28856795,0.6106247629787129
0.0095,1.79774375,1.0,1288.0519685879462,0.1013818853447438,1.348260009779002,0.70416075946478,0.2885582375,0.613249252515081
0.01,1.7975,1.0,1365.3431223743391,0.10642242279022378,1.34714212233681,0.7232734941795421,0.288548,0.6157281470009413
0.0105,1.79724375,1.0,1439.8359721521642,0.11143468655475375,1.3460817377606076,0.740682421715622,0.2885372375,0.6180721645044581
0.011,1.796975,1.0,1511.4802826479763,0.116418835195849,1.3450746228189099,0.7565618526177819,0.28852595000000003,0.6202917879030201
0.0115,1.79669375,1.0,1580.2644830635982,0.1213750265606246,1.3441167691200704,0.7710685858396248,0.2885141375,0.6223968405942735
0.012,1.7964,1.0,1646.2072617445651,0.12630341829726321,1.3432044063362925,0.7843429896340359,0.28850180000000003,0.6243964779061004
0.0125,1.79609375,1.0,1709.315095407866,0.1312041654985423,1.3423344138196567,0.7965104880658356,0.2884889375,0.6262983071261227
0.013000000000000001,1.7957750000000001,1.0,1769.6252968696126,0.1360774230039374,1.3415037322734515,0.8076826999318745,0.28847555,0.6281096965666542
0.0135,1.79544375,1.0,1827.1939474833696,0.14092334497177442,1.3407094572358322,0.8179588859058994,0.2884616375,0.6298375821111755
0.014,1.7951000000000001,1.0,1882.100509089304,0.14574208598806418,1.3399487449728102,0.827427250612951,0.2884472,0.6314886823705715
0.0145,1.79474375,1.0,1934.4049108586617,0.15053379800232344,1.3392192434545147,0.8361663336775167,0.2884322375,0.6330685742032739
0.015,1.794375,1.0,1984.1687417151165,0.15529863183132916,1.3385188099560283,0.8442460165693417,0.28841675,0.6345823192154157
0.0155,1.79399375,1.0,2031.4720913355525,0.16003673829185833,1.3378453017524332,0.8517284640166292,0.2884007375,0.6360349237366306
0.016,1.7936,1.0,2076.3995981349694,0.16474826729054368,1.3371967048640159,0.8586690750310151,0.2883842,0.6374310657807709
0.0165,1.7931937500000001,1.0,2119.0495717724657,0.16943336936375414,1.3365710179965429,0.8651172490294528,0.2883671375,0.6387753502703151
0.017,1.792775,1.0,2159.4981777047383,0.17409219213901028,1.3359666044589271,0.8711171954557738,0.28834955,0.6400715583174069
0.0175,1.7923437500000001,1.0,2197.8192280129047,0.17872488212518856,1.3353819633216748,0.8767084782398331,0.2883314375,0.6413231462962334
0.018000000000000002,1.7919,1.0,2234.096195920219,0.18333158583116543,1.3348155936552926,0.8819265241449011,0.2883128,0.6425335403228764
0.0185,1.79144375,1.0,2268.415495720156,0.18791244906041468,1.334266053349492,0.8868031206707893,0.2882936375,0.6437060126854417
0.019,1.790975,1.0,2300.866409391137,0.19246761775035162,1.3337319501254858,0.8913668353084296,0.28827395,0.6448437036525518
0.0195,1.79049375,1.0,2331.5327316158996,0.19699723682757983,1.3332120152202502,0.8956434011649372,0.2882537375,0.645949467196619
0.02,1.79,1.0,2360.47987490215,0.2015014481922586,1.332705219470992,0.8996560629310894,0.288233,0.6470256279871142
0.0205,1.78949375,1.0,2387.7782772172304,0.20598039374454713,1.3322105337149186,0.9034258013789197,0.2882117375,0.6480744939057683
0.021,1.788975,1.0,2413.502985108182,0.21043421538460466,1.3317269287892364,0.9069715846573282,0.28818995000000003,0.6490983568751942
0.021500000000000002,1.78844375,1.0,2437.727674428874,0.2148630538659943,1.3312534292573097,0.9103105996343593,0.2881676375,0.6500993801188537
0.022,1.7879,1.0,2460.5273189538198,0.21926705072312325,1.3307890830712166,0.9134584394239157,0.2881448,0.6510796636508411
0.0225,1.78734375,1.0,2481.971150396693,0.22364634642461603,1.3303330250245926,0.9164292849509901,0.28812143749999997,0.6520411115373146
0.023,1.786775,1.0,2502.114689915797,0.22800107785049245,1.3298845477790215,0.9192360654742779,0.28809755,0.6529852842367043
0.0235,1.78619375,1.0,2521.015866842597,0.23233138188077232,1.3294429439960866,0.9218905601907931,0.28807313749999996,0.6539137329438499
0.024,1.7856,1.0,2538.734816808573,0.23663739539547549,1.3290075063373707,0.924403516419714,0.2880482,0.6548279999160235
0.0245,1.78499375,1.0,2555.333690965034,0.24091925527462177,1.3285775274644578,0.9267847542180513,0.2880227375,0.6557296187670392
0.025,1.784375,1.0,2570.8638645993906,0.24517709539839191,1.3281524181582194,0.9290432780055875,0.28799675,0.656619867528422
0.025500000000000002,1.78374375,1.0,2585.389994069369,0.24941105468078548,1.3277314794019985,0.9311873220862544,0.2879702375,0.6575002468398514
0.026000000000000002,1.7831000000000001,1.0,2598.960853309937,0.25362126699196236,1.3273141742337708,0.9332244656953486,0.2879432,0.6583719111787778
0.0265,1.78244375,1.0,2611.6171690210244,0.25780786363231395,1.326900051604413,0.9351616841915218,0.2879156375,0.6592358299140056
0.027,1.781775,1.0,2623.400675373746,0.26197097590223184,1.3264886604648014,0.9370053937052691,0.28788755,0.6600929674359044
0.0275,1.7810937500000001,1.0,2634.354027984319,0.2661107351021075,1.3260795497658133,0.9387615034224251,0.2878589375,0.6609442832414684
0.028,1.7804,1.0,2644.5207223995667,0.27022727253233236,1.3256722684583255,0.9404354623446033,0.2878298,0.6617907320064043
0.0285,1.77969375,1.0,2653.9450170927603,0.2743207194932979,1.3252663654932146,0.942032301169884,0.2878001375,0.6626332636442427
0.029,1.778975,1.0,2662.6622883547184,0.27839120286899516,1.32486147791804,0.9435566805481467,0.28776995,0.6634726408319731
0.029500000000000002,1.7782437500000001,1.0,2670.7211185004803,0.282438857383874,1.324457126616293,0.9450129001429296,0.2877392375,0.6643098628440651
0.03,1.7775,1.0,2678.153368955601,0.2864638101769662,1.324052991254815,0.9464049617648914,0.287708,0.6651455958507873
0.0305,1.77674375,1.0,2684.987627491604,0.2904661866016968,1.3236487854517178,0.9477365803614236,0.2876762375,0.6659804326391197
0.031,1.775975,1.0,2691.2528550303937,0.29444611201149073,1.3232442228251138,0.9490112046421751,0.28764395,0.6668149630426919
0.0315,1.7751937500000001,1.0,2696.978351156761,0.298403711759773,1.3228390169931148,0.9502320394799019,0.2876111375,0.6676497739378806
0.032,1.7744,1.0,2702.19372144895,0.3023391111999684,1.322432881573833,0.9514020661651978,0.2875778,0.6684854492346763
0.0325,1.77359375,1.0,2706.9288466283597,0.30625243568550214,1.3220255301853805,0.9525240607438363,0.2875439375,0.6693225698623233
0.033,1.772775,1.0,2711.208995437549,0.31014380708030376,1.3216167207527467,0.953600614829387,0.28750955,0.6701616228706944
0.0335,1.7719437500000002,1.0,2715.059834835,0.3140133487138245,1.3212062094406882,0.9546341463970305,0.2874746375,0.6710030963544156
0.034,1.7711000000000001,1.0,2718.516384855251,0.3178611918839525,1.3207936688999113,0.9556269060291387,0.2874392,0.6718476466636928
0.0345,1.7702437500000001,1.0,2721.596330926659,0.3216874552036545,1.3203789312483323,0.9565810114078408,0.2874032375,0.6726956008041338
0.035,1.7693750000000001,1.0,2724.31748194047,0.32549225728589737,1.3199618286038672,0.9574984434172247,0.28736675,0.6735472839173134
0.035500000000000004,1.76849375,1.0,2726.6977577294206,0.3292757167436479,1.3195421930844327,0.9583810565642839,0.2873297375,0.6744030192563494
0.036000000000000004,1.7676,1.0,2728.7551771703247,0.3330379521898731,1.3191198568079445,0.9592305884914751,0.2872922,0.6752631281596844
0.0365,1.76669375,1.0,2730.507846912159,0.3367790822375395,1.3186946518923195,0.9600486686694526,0.2872541375,0.6761279300230654
0.037,1.765775,1.0,2731.9739507287545,0.3404992254996142,1.3182664104554735,0.9608368263490527,0.28721555,0.6769977422697323
0.0375,1.76484375,1.0,2733.171739496671,0.34419850058906387,1.3178349646153233,0.9615964978432083,0.2871764375,0.6778728803188016
0.038,1.7639,1.0,2734.1195217975983,0.3478770261188555,1.3174001464897849,0.9623290332020535,0.28713679999999997,0.6787536575518593
0.0385,1.76294375,1.0,2734.8268169796766,0.35153491444909446,1.3169618684540245,0.9630357086524048,0.28709663750000003,0.679640223042518
0.039,1.761975,1.0,2735.3137264608927,0.3551722870911683,1.3165199471399647,0.9637177184348218,0.28705595,0.6805329179289349
0.0395,1.7609937500000001,1.0,2735.5985945479993,0.35878926230448016,1.316074215455952,0.9643761883670116,0.2870147375,0.6814320482267362
0.04,1.76,1.0,2735.691358226901,0.36238595175756455,1.3156245828941253,0.9650121853433482,0.286973,0.6823377636253489
0.0405,1.7589937500000001,1.0,2735.601976115034,0.3659624671189562,1.3151709589466238,0.9656267157509963,0.2869307375,0.6832502124893672
0.041,1.757975,1.0,2735.3404250519015,0.3695189200571898,1.3147132531055867,0.9662207295336638,0.28688795,0.6841695418357746
0.0415,1.75694375,1.0,2734.916696871128,0.3730554222407999,1.314251374863153,0.9667951239415691,0.2868446375,0.6850958973106445
0.042,1.7559,1.0,2734.3407953543633,0.3765720853383213,1.3137852337114617,0.9673507469948446,0.28680079999999997,0.6860294231653168
0.0425,1.75484375,1.0,2733.622733366881,0.3800690210182886,1.313314739142652,0.9678884006850043,0.2867564375,0.6869702622320533
0.043000000000000003,1.753775,1.0,2732.772530174199,0.38354634094923645,1.312839800648863,0.9684088439367565,0.28671155,0.6879185558991697
0.043500000000000004,1.75269375,1.0,2731.800208941344,0.3870041567996995,1.312360327722234,0.9689127953503452,0.28666613750000003,0.688874444085646
0.044,1.7516,1.0,2730.71167652983,0.390442571841652,1.3118762672765814,0.9694009374255117,0.2866202,0.6898379907832475
0.0445,1.75049375,1.0,2729.5196134154526,0.3938617051846428,1.311387504683935,0.9698739147361527,0.2865737375,0.6908093811438534
0.045,1.7493750000000001,1.0,2728.230795163194,0.3972616641670879,1.310893978960451,0.9703323410364034,0.28652675,0.6917886921114116
0.0455,1.74824375,1.0,2726.850945544843,0.4006425539196655,1.310395638679006,0.9707767992134947,0.2864792375,0.6927759805135583
0.046,1.7471,1.0,2725.38578739414,0.40400447957305363,1.3098924324124763,0.9712078427570298,0.2864312,0.6937713020837972
0.0465,1.7459437500000001,1.0,2723.841041688606,0.40734754625793035,1.3093843087337382,0.9716259975196136,0.28638263750000004,0.6947747114456216
0.047,1.744775,1.0,2722.2224266904896,0.4106718591049738,1.3088712162156682,0.9720317633558375,0.28633355,0.6957862620964732
0.0475,1.74359375,1.0,2720.535657146763,0.41397752324486203,1.3083531034311424,0.972425615649098,0.28628393750000003,0.696806006391528
0.048,1.7424,1.0,2718.7864435464603,0.41726464380827316,1.3078299189530374,0.9728080067349079,0.2862338,0.6978339955273165
0.0485,1.74119375,1.0,2716.9804914384017,0.4205333259258853,1.3073016113542293,0.9731793672286128,0.2861831375,0.6988702795251729
0.049,1.739975,1.0,2715.1227905516885,0.42378367086441193,1.3067681356806058,0.9735401072420796,0.28613195,0.6999148945505276
0.0495,1.73874375,1.0,2713.215196727848,0.4270157618409728,1.3062294755024442,0.9738906173759571,0.2860802375,0.7009678199410012
0.05,1.7375,1.0,2711.268809247806,0.4302297394058673,1.3056855300786467,0.9742312710892392,0.286028,0.7020291986624259
0.0505,1.73624375,1.0,2709.2860586336074,0.4334257007265645,1.305136277622059,0.9745624247284349,0.2859752375,0.7030990181089087
0.051000000000000004,1.734975,1.0,2707.2693727069895,0.43660374297053356,1.3045816963455263,0.9748844183384531,0.28592195,0.7041772648318928
0.051500000000000004,1.73369375,1.0,2705.221176431149,0.43976396330524353,1.3040217644618939,0.975197576549679,0.2858681375,0.7052639245327701
0.052000000000000005,1.7324,1.0,2703.143891763061,0.4429064588981634,1.303456460184007,0.9755022094092439,0.2858138,0.7063589820554597
0.0525,1.73109375,1.0,2701.0399375166876,0.4460313269167623,1.3028857617247116,0.975798613160457,0.28575893750000003,0.707462421378958
0.053,1.729775,1.0,2698.911729236376,0.44913866452850926,1.3023096472968523,0.9760870709740497,0.28570355000000003,0.7085742256098622
0.0535,1.72844375,1.0,2696.761679080823,0.4522285689008734,1.3017280951132746,0.9763678536346039,0.2856476375,0.7096943769748556
0.054,1.7271,1.0,2694.5921957178193,0.45530113720132376,1.3011410833868242,0.9766412201852668,0.2855912,0.7108228568131689
0.0545,1.7257437500000001,1.0,2692.4056842290606,0.4583564665973294,1.3005485903303462,0.9769074185336222,0.2855342375,0.7119596455690107
0.055,1.724375,1.0,2690.2045460259133,0.46139465425635945,1.2999505941566858,0.9771666860213619,0.28547675,0.7131047227839642
0.0555,1.72299375,1.0,2687.9911787755636,0.46441579734588295,1.2993470730786887,0.9774192499602068,0.2854187375,0.7142580670893566
0.056,1.7216,1.0,2685.767976337476,0.4674199930333689,1.2987380053092001,0.9776653281363391,0.2853602,0.7154196561985979
0.0565,1.72019375,1.0,2683.5373287107564,0.4704073384862864,1.2981233690610652,0.9779051292854399,0.28530113749999997,0.7165894668994895
0.057,1.718775,1.0,2681.30162199201,0.4733779308721046,1.2975031425471295,0.9781388535402697,0.28524155,0.7177674750464998
0.0575,1.71734375,1.0,2679.05575531751,0.4763318244723536,1.2968773726354355,0.978366692961377,0.2851814375,0.718953525564671
0.058,1.7159,1.0,2676.8099675084204,0.47926916372190603,1.2962459654753715,0.9785888318453039,0.2851208,0.7201477293991231
0.0585,1.71444375,1.0,2674.5660989280773,0.48219004395723664,1.2956089041777687,0.9788054470542134,0.2850596375,0.7213500502896006
0.059000000000000004,1.7129750000000001,1.0,2672.324703354038,0.48509455304288623,1.294966183644135,0.9790167084190801,0.28499795,0.7225604289107601
0.059500000000000004,1.71149375,1.0,2670.086333634386,0.48798277884339575,1.2943177987759782,0.9792227790680162,0.2849357375,0.7237788052412717
0.06,1.71,1.0,2667.8515416891555,0.49085480922330593,1.2936637444748058,0.9794238157411818,0.284873,0.7250051185619769
0.0605,1.7084937500000001,1.0,2665.6208785130148,0.4937107320471577,1.2930040156421259,0.9796199690885319,0.2848097375,0.7262393074540461
0.061,1.7069750000000001,1.0,2663.394894178231,0.4965506351794919,1.292338607179446,0.9798113839514675,0.28474595,0.727481309797135
0.0615,1.7054437500000001,1.0,2661.1741378380866,0.4993746064848493,1.2916675139882745,0.9799981996293702,0.2846816375,0.7287310627675374
0.062,1.7039,1.0,2658.9591577316783,0.5021827338277708,1.2909907309701185,0.9801805501319452,0.2846168,0.7299885028363396
0.0625,1.70234375,1.0,2656.7505011878357,0.5049751050727973,1.2903082530264864,0.9803585644182253,0.2845514375,0.7312535657675687
0.063,1.7007750000000001,1.0,2654.5487146310406,0.5077518080844696,1.2896200750588858,0.9805323666230372,0.28448555,0.7325261866163437
0.0635,1.69919375,1.0,2652.3543435874085,0.5105129307273285,1.2889261919688242,0.9807020762716757,0.28441913750000003,0.7338062997270222
0.064,1.6976,1.0,2650.1679326903973,0.5132585608659148,1.2882265986578099,0.9808678084834822,0.2843522,0.735093838731345
0.0645,1.69599375,1.0,2647.9900256889778,0.5159887863647695,1.2875212900273505,0.9810296741649759,0.2842847375,0.7363887365465823
0.065,1.694375,1.0,2645.8211654544634,0.5187036950884335,1.2868102609789538,0.9811877801931498,0.28421675,0.7376909253736748
0.0655,1.69274375,1.0,2643.6618939889936,0.5214033749014474,1.2860935064141277,0.9813422295894954,0.2841482375,0.7390003366953747
0.066,1.6911,1.0,2641.5127524343543,0.5240879136683522,1.2853710212343799,0.9814931216852905,0.2840792,0.740316901274385
0.0665,1.6894437500000001,1.0,2639.374281081452,0.5267573992536887,1.2846428003412182,0.9816405522786477,0.2840096375,0.7416405491514968
0.067,1.687775,1.0,2637.247577519695,0.5294118759594024,1.2839088334748994,0.9817846106024612,0.28393955,0.742971218988909
0.0675,1.68609375,1.0,2635.1325521256204,0.5320514758784244,1.2831691213425582,0.9819253891624623,0.2838689375,0.7443088288204195
0.068,1.6844000000000001,1.0,2633.0291195428326,0.5346762869660387,1.2824236646135938,0.9820629743002997,0.2837978,0.7456532961295546
0.0685,1.68269375,1.0,2630.937284162774,0.5372863879456523,1.2816724631281717,0.9821974487336941,0.2837261375,0.7470045392707549
0.069,1.680975,1.0,2628.8570504153454,0.5398818575406714,1.2809155167264579,0.9823288923468285,0.28365395,0.7483624759639897
0.0695,1.67924375,1.0,2626.788422769389,0.5424627744745029,1.2801528252486178,0.9824573823053484,0.28358123749999997,0.7497270232946984
0.07,1.6775,1.0,2624.731405732785,0.5450292174705532,1.279384388534817,0.9825829931659291,0.283508,0.7510980977137321
0.07050000000000001,1.67574375,1.0,2622.686003852997,0.5475812652522289,1.2786102064252216,0.9827057969806985,0.2834342375,0.752475615037294
0.07100000000000001,1.673975,1.0,2620.652221717368,0.5501189965429368,1.2778302787599969,0.9828258633967903,0.28335995,0.7538594904468827
0.07150000000000001,1.67219375,1.0,2618.6300639533383,0.5526424900660833,1.2770446053793083,0.9829432597512845,0.2832851375,0.7552496384892325
0.07200000000000001,1.6704,1.0,2616.6195352291966,0.5551518245450752,1.276253186123322,0.9830580511617816,0.2832098,0.756645973076254
0.0725,1.66859375,1.0,2614.620640253884,0.5576470787033188,1.2754560208322034,0.9831703006128324,0.2831339375,0.7580484074849767
0.073,1.6667750000000001,1.0,2612.6333837779016,0.560128331264221,1.2746531093461182,0.9832800690384448,0.28305755,0.7594568543574912
0.0735,1.66494375,1.0,2610.657770593343,0.5625956609511883,1.2738444515052318,0.9833874154008667,0.2829806375,0.7608712257008888
0.074,1.6631,1.0,2608.693805534062,0.5650491464876272,1.2730300471497105,0.983492396765835,0.2829032,0.762291432887203
0.0745,1.6612437500000001,1.0,2606.741493476643,0.5674888665969444,1.2722098961197192,0.9835950683744743,0.2828252375,0.7637173866533535
0.075,1.659375,1.0,2604.8008393402756,0.5699149000025466,1.271383998255424,0.9836954837120107,0.28274675,0.7651489971010842
0.0755,1.65749375,1.0,2602.8718480871826,0.5723273254278403,1.2705523533969905,0.9837936945734642,0.2826677375,0.7665861736969068
