Time [s],Phi [rad],STIM [ ],Fsee [N],Gamma [ ],Lcerel [ ],q [ ],Lmtc [m],fisomrel [ ]
0.0,1.8,1.0,17.96873247538763,4.1647259282817875e-05,1.3793395698484605,0.0050004570979596515,0.288653,0.541139957739748
0.0005,1.79999375,1.0,18.288623251573057,0.005650622959898893,1.3793010684664528,0.013028606380954124,0.2886527375,0.541233097768518
0.001,1.799975,1.0,21.65378366427441,0.011228136741600562,1.3789346877886894,0.03577367646765841,0.28865195,0.5421189489492617
0.0015,1.79994375,1.0,31.1547032563815,0.016774365081767828,1.3780389272133144,0.07082758718844365,0.2886506375,0.5442811527787192
0.002,1.7999,1.0,53.767713059020814,0.022289483466077238,1.3763561191196978,0.11498528332493496,0.2886488,0.548329309952678
0.0025,1.79984375,1.0,97.43126244490786,0.027773666396288848,1.3739201291535088,0.1648655957034487,0.28864643749999996,0.5541573246614263
0.003,1.7997750000000001,1.0,161.36518111908345,0.033227087397667235,1.371199118442702,0.21758033872254626,0.28864354999999997,0.5606224951127582
0.0035,1.79969375,1.0,238.14354833383064,0.038649919018806815,1.3685705651940017,0.27091114696595103,0.2886401375,0.566823145639586
0.004,1.7996,1.0,321.9566073435192,0.04404233284235194,1.3661431234498351,0.3232045911014675,0.2886362,0.5725102460153023
0.0045000000000000005,1.7994937500000001,1.0,409.7751418550142,0.049404499490199254,1.3639109074534683,0.3733086406504604,0.2886317375,0.5777067966721723
0.005,1.799375,1.0,499.93132603839933,0.054736588614719195,1.3618473415259,0.42050393046911483,0.28862675,0.5824824662966794
0.0055,1.79924375,1.0,591.31293942481,0.060038768944627736,1.359928628475946,0.46441114785315885,0.2886212375,0.5868985408272465
0.006,1.7991000000000001,1.0,683.0413855522794,0.06531120823206331,1.3581369047827336,0.5048981750892173,0.2886152,0.5910011397724592
0.006500000000000001,1.79894375,1.0,774.4021883033156,0.07055407328561428,1.3564583624888287,0.5420002726054873,0.2886086375,0.5948260070528789
0.007,1.798775,1.0,864.805147806497,0.07576753008001902,1.354882007305934,0.5758585527362353,0.28860155,0.598401661002905
0.0075,1.79859375,1.0,953.7475980927491,0.0809517433602001,1.353399022290193,0.6066752970409235,0.2885939375,0.6017510556260703
0.008,1.7984,1.0,1040.8566124510294,0.08610687747123111,1.3520013128515442,0.6346822908349388,0.2885858,0.604895011960425
0.0085,1.79819375,1.0,1125.8083459817244,0.09123309530618627,1.3506822473653892,0.6601208473866974,0.2885771375,0.6078506421644132
0.009000000000000001,1.797975,1.0,1208.3555318713745,0.09633055889639851,1.3494358138027478,0.6832283522489438,0.28856795,0.6106333291837098
0.0095,1.79774375,1.0,1288.334342035524,0.10139943007235012,1.3482562736596513,0.704230396625836,0.2885582375,0.6132575505634378
0.01,1.7975,1.0,1365.606319129502,0.10643986889684687,1.3471387399281536,0.7233369653631117,0.288548,0.6157356353351204
0.0105,1.79724375,1.0,1440.0810575895027,0.11145203459125137,1.3460786706467716,0.7407403456215729,0.2885372375,0.6180789340668477
0.011,1.796975,1.0,1511.7143869489098,0.11643608576532938,1.3450717633938947,0.7566147541031947,0.28852595000000003,0.6202980807022576
0.0115,1.79669375,1.0,1580.5025486410823,0.12139218104933218,1.3441139252959267,0.7711168994691096,0.2885141375,0.6224030816882316
0.012,1.7964,1.0,1646.4321055847229,0.12632047643451352,1.3432017747883471,0.7843872711256651,0.28850180000000003,0.6244022378256654
0.0125,1.79609375,1.0,1709.5235847863507,0.13122112758310636,1.342332019142307,0.7965511604021263,0.2884889375,0.6263035352995894
0.013000000000000001,1.7957750000000001,1.0,1769.8228501512808,0.1360942895945058,1.3415015022016448,0.8077201004140456,0.28847555,0.6281145535523598
0.0135,1.79544375,1.0,1827.3977409047286,0.14094011773819348,1.3407071932531243,0.8179932677062208,0.2884616375,0.6298425014846245
0.014,1.7951000000000001,1.0,1882.301727292914,0.1457587649430063,1.3399465424438266,0.8274589453486066,0.2884472,0.6314934575270651
0.0145,1.79474375,1.0,1934.5901829238883,0.15055038290283787,1.339217243071174,0.8361956517540736,0.2884322375,0.6330729017958932
0.015,1.794375,1.0,1984.339603932123,0.15531512331158187,1.3385169884325885,0.8442731789480421,0.28841675,0.6345862517300088
0.0155,1.79399375,1.0,2031.6295514640487,0.16005313688135278,1.3378436427610354,0.8517536694436453,0.2884007375,0.6360384982332714
0.016,1.7936,1.0,2076.5620451771865,0.1647645750285085,1.3371950119487386,0.858692445641125,0.2883842,0.6374347063676341
0.0165,1.7931937500000001,1.0,2119.2096324725135,0.16944958597973386,1.3365693668206815,0.8651389738276244,0.2883671375,0.6387788945086912
0.017,1.792775,1.0,2159.6460245459507,0.17410831720228942,1.3359650936290166,0.871137449891883,0.28834955,0.6400747954810144
0.0175,1.7923437500000001,1.0,2197.9559283947046,0.1787409161634357,1.3353805786258957,0.8767273885064565,0.2883314375,0.6413261080374982
0.018000000000000002,1.7919,1.0,2234.2254533140203,0.18334752939104454,1.334814295024917,0.8819441962859385,0.2883128,0.6425363132875248
0.0185,1.79144375,1.0,2268.5484381731726,0.1879283041572263,1.334264727838296,0.886819632287592,0.2882936375,0.6437088384030292
0.019,1.790975,1.0,2301.001810608119,0.192483385114398,1.3337306096531527,0.8913822865675421,0.28827395,0.6448465566981346
0.0195,1.79049375,1.0,2331.655389489311,0.197012915282273,1.3332108089174426,0.8956579141038614,0.2882537375,0.6459520306778812
0.02,1.79,1.0,2360.5847826269337,0.20151703768056467,1.3327041940791213,0.899669724392877,0.288233,0.647027803705875
0.0205,1.78949375,1.0,2387.870900139134,0.20599589532898635,1.3322096335861435,0.9034386672955762,0.2882117375,0.6480764009966845
0.021,1.788975,1.0,2413.5826936773997,0.21044962890409774,1.331726158302999,0.9069837179183593,0.28818995000000003,0.649099986918156
0.021500000000000002,1.78844375,1.0,2437.812386659177,0.21487838280096644,1.3312526144833745,0.9103220217794346,0.2881676375,0.6501011013964568
0.022,1.7879,1.0,2460.618405678199,0.21928229561903903,1.3307882110554294,0.9134692012377637,0.2881448,0.6510815032740711
0.0225,1.78734375,1.0,2482.059065148155,0.22366150547318878,1.3303321870189933,0.9164394519932264,0.28812143749999997,0.6520428769746456
0.023,1.786775,1.0,2502.195418647885,0.22801615047828883,1.3298837813738962,0.9192456878536078,0.28809755,0.6529868966404958
0.0235,1.78619375,1.0,2521.091028711964,0.23234636874921247,1.3294422331199682,0.9218996742319422,0.28807313749999996,0.653915226520818
0.024,1.7856,1.0,2538.8058531335805,0.23665229723278486,1.3290068368287768,0.9244121556720806,0.2880482,0.654829404719141
0.0245,1.78499375,1.0,2555.401021434865,0.24093407312158538,1.3285768949472403,0.9267929512730271,0.2880227375,0.6557309442182087
0.025,1.784375,1.0,2570.941720725424,0.24519183398926106,1.3281516889738674,0.9290510422417715,0.28799675,0.6566213935701474
0.025500000000000002,1.78374375,1.0,2585.471524055852,0.24942571264417063,1.3277307179574307,0.9311946922716314,0.2879702375,0.6575018383517444
0.026000000000000002,1.7831000000000001,1.0,2599.0352799989514,0.2536358418946727,1.327313480946703,0.9332314828829336,0.2879432,0.6583733583882405
0.0265,1.78244375,1.0,2611.679005694722,0.257822354549126,1.3268994769904572,0.9351683789450936,0.2879156375,0.65923702788063
0.027,1.781775,1.0,2623.449785459344,0.26198538341588923,1.326488205137466,0.9370117871067395,0.28788755,0.6600939155169513
0.0275,1.7810937500000001,1.0,2634.394914680325,0.26612506092311133,1.3260791714707787,0.9387676088795742,0.2878589375,0.6609450699391917
0.028,1.7804,1.0,2644.5558821567624,0.2702415164260242,1.3256719437762492,0.9404412941659516,0.2878298,0.6617914063679834
0.0285,1.77969375,1.0,2653.9825465789486,0.2743348853301828,1.3252660195438792,0.9420378667953427,0.2878001375,0.6626339812821453
0.029,1.778975,1.0,2662.707504264254,0.2784052948945212,1.324861061797875,0.9435619905723406,0.28776995,0.6634735029577716
0.029500000000000002,1.7782437500000001,1.0,2670.7638925812626,0.2824528723779735,1.3244567335624433,0.9450179810593057,0.2877392375,0.664310676167059
0.03,1.7775,1.0,2678.185341811102,0.2864777450394738,1.3240526978617901,0.9464098360376232,0.287708,0.6651462021954571
0.0305,1.77674375,1.0,2685.005929526777,0.2904800401379562,1.3236486177201219,0.9477412629425535,0.2876762375,0.6659807788515766
0.031,1.775975,1.0,2691.2601374899036,0.2944598849323548,1.3232441561616446,0.9490157036052354,0.28764395,0.6668151004698544
0.0315,1.7751937500000001,1.0,2696.9783005263293,0.29841740375924375,1.3228390174560927,0.9502363608243681,0.2876111375,0.6676497729846451
0.032,1.7744,1.0,2702.1874887115796,0.3023527207334126,1.3224329385126206,0.9514062179334251,0.2875778,0.6684853321496067
0.0325,1.77359375,1.0,2706.9289300398204,0.30626597056366917,1.3220255294240475,0.9525280408235107,0.2875439375,0.669322571425899
0.033,1.772775,1.0,2711.223058507619,0.3101572738499849,1.3216165924944532,0.9536044259573863,0.28750955,0.6701618859446965
0.0335,1.7719437500000002,1.0,2715.0904932573217,0.31402675119233164,1.3212059300279175,0.9546377955782845,0.2874746375,0.6710036687337391
0.034,1.7711000000000001,1.0,2718.5520209627007,0.317874523190681,1.32079334432852,0.9556304114745369,0.2874392,0.6718483106968227
0.0345,1.7702437500000001,1.0,2721.628579081986,0.3217007104450046,1.3203786377003406,0.9565843875018744,0.2874032375,0.6726962005907969
0.035,1.7693750000000001,1.0,2724.3412399768586,0.32550543355527417,1.319961612447459,0.9575017009885869,0.28736675,0.6735477250000705
0.035500000000000004,1.76849375,1.0,2726.711195898508,0.3292888131214614,1.3195420708739547,0.9583842031348908,0.2873297375,0.6744032683086241
0.036000000000000004,1.7676,1.0,2728.7597448396436,0.33305096974353793,1.319119815283908,0.9592336285056582,0.2872922,0.6752632126695293
0.0365,1.76669375,1.0,2730.508277253811,0.33679202402147534,1.3186946479813983,0.9600516037049288,0.2872541375,0.6761279379719789
0.037,1.765775,1.0,2731.9698429943005,0.3405120900772647,1.3182664477763322,0.9608396615119075,0.28721555,0.6769976665173317
0.0375,1.76484375,1.0,2733.1659659332654,0.34421129114588955,1.3178350170595985,0.961599236022633,0.2871764375,0.6778727740137906
0.038,1.7639,1.0,2734.1177167860765,0.34788974864004174,1.3174001628827938,0.9623316752570091,0.28713679999999997,0.6787536243685458
0.0385,1.76294375,1.0,2734.8368359714195,0.351547575985199,1.3169617774739928,0.9630382536467754,0.28709663750000003,0.6796404069532114
0.039,1.761975,1.0,2735.335100908696,0.35518488660683895,1.3165197530612707,0.9637201708414816,0.28705595,0.680533309700358
0.0395,1.7609937500000001,1.0,2735.624321096539,0.3588017939304393,1.3160739818727019,0.9643785568999398,0.2870147375,0.6814325190788741
0.04,1.76,1.0,2735.7163334472007,0.36239841138147777,1.3156243561363614,0.9650144770677817,0.286973,0.6823382200685819
0.0405,1.7589937500000001,1.0,2735.622997879417,0.36597485238543204,1.3151707680803244,0.9656289361781648,0.2869307375,0.6832505961341147
0.041,1.757975,1.0,2735.3561931686527,0.3695312303677797,1.3147131099326652,0.9662228827090131,0.28688795,0.6841698291980555
0.0415,1.75694375,1.0,2734.927813054502,0.3730676587539985,1.3142512739214591,0.9667972125269154,0.2868446375,0.6850960996133293
0.042,1.7559,1.0,2734.3497626061403,0.37658425096956616,1.3137851522747808,0.9673527723448787,0.28680079999999997,0.6860295861348618
0.0425,1.75484375,1.0,2733.629278845075,0.38008111467643646,1.313314679691646,0.9678903654883506,0.2867564375,0.6869703810258971
0.043000000000000003,1.753775,1.0,2732.7778944082597,0.38355836484155537,1.31283975191923,0.968410750151129,0.28671155,0.6879186531221766
0.043500000000000004,1.75269375,1.0,2731.808033484573,0.3870161161409858,1.3123602566300927,0.9689146435358604,0.28666613750000003,0.6888745857078528
0.044,1.7516,1.0,2730.726156448162,0.3904544751747677,1.3118761356889734,0.969402728183838,0.2866202,0.68983825251184
0.0445,1.75049375,1.0,2729.538725788845,0.3938735485429415,1.3113873309606112,0.9698756511369662,0.2865737375,0.690809726139116
0.045,1.7493750000000001,1.0,2728.2522048349606,0.39727344284554705,1.3108937843097457,0.9703340261289016,0.28652675,0.6917890780534609
0.0455,1.74824375,1.0,2726.873056551804,0.40065426468262455,1.310395437601116,0.9707784356203083,0.2864792375,0.6927763785599863
0.046,1.7471,1.0,2725.4077424151315,0.40401612065421416,1.309892232699462,0.9712094326907186,0.2864312,0.6937716967874442
0.0465,1.7459437500000001,1.0,2723.862721359039,0.40735911736035596,1.3093841114695226,0.9716275427983908,0.28638263750000004,0.6947751006703253
0.047,1.744775,1.0,2722.2444487989687,0.4106833614010901,1.3088710157760377,0.972033265418542,0.28633355,0.6957866569307356
0.0475,1.74359375,1.0,2720.5593757304064,0.41398895937645663,1.3083528874837462,0.9724270755694407,0.28628393750000003,0.6968064310600642
0.048,1.7424,1.0,2718.810543996465,0.4172760087394423,1.3078296994583467,0.9728094262676715,0.2862338,0.6978344264393621
0.0485,1.74119375,1.0,2717.0046015020093,0.4205446191427842,1.3073013916990182,0.9731807480249658,0.2861831375,0.698870710012266
0.049,1.739975,1.0,2715.149798915945,0.4237949045055801,1.3067678895362722,0.9735414503674558,0.28613195,0.6999153761143543
0.0495,1.73874375,1.0,2713.2491981417506,0.42702696419739394,1.3062291655173053,0.9738919249763204,0.2860802375,0.7009684253398433
0.05,1.7375,1.0,2711.305858110031,0.43024089758778955,1.3056851921893142,0.9742325452710209,0.286028,0.7020298573857846
0.0505,1.73624375,1.0,2709.3228345292864,0.4334368040463306,1.305135942099495,0.9745636674218174,0.2859752375,0.7030996710429006
0.051000000000000004,1.734975,1.0,2707.3031796531905,0.43661478294258105,1.304581387795044,0.9748856312974082,0.28592195,0.704177864186368
0.051500000000000004,1.73369375,1.0,2705.249942064778,0.4397749336461046,1.3040215018231582,0.9751987613523858,0.2858681375,0.7052644337665542
0.052000000000000005,1.7324,1.0,2703.166166477212,0.4429173555264651,1.303456256731034,0.9755033674588292,0.2858138,0.7063593757997093
0.0525,1.73109375,1.0,2701.054893551614,0.4460421479532263,1.3028856250658671,0.975799745686005,0.28575893750000003,0.7074626853586063
0.053,1.729775,1.0,2698.9191597307645,0.449149410295952,1.3023095793748547,0.9760881790318393,0.28570355000000003,0.7085743565631328
0.0535,1.72844375,1.0,2696.7619970906453,0.4522392419242061,1.301728092205193,0.9763689381095302,0.2856476375,0.7096943825708372
0.054,1.7271,1.0,2694.5864332077867,0.4553117422075524,1.3011411361040783,0.9766422817924155,0.2855912,0.7108227555674266
0.0545,1.7257437500000001,1.0,2692.395491043645,0.4583670105155546,1.3005486836187072,0.9769084578199629,0.2855342375,0.7119594667572138
0.055,1.724375,1.0,2690.1931417475735,0.4614051150880026,1.2999506985717104,0.9771676998472554,0.28547675,0.7131045230431854
0.0555,1.72299375,1.0,2687.9820970585943,0.46442619361401544,1.2993471562630694,0.9774202389830501,0.2854187375,0.7142579082819309
0.056,1.7216,1.0,2685.7635202081515,0.4674303382186205,1.2987380461421822,0.9776662931383432,0.2853602,0.7154195784029063
0.0565,1.72019375,1.0,2683.5385736247026,0.4704176400876984,1.2981233576487745,0.9779060710961308,0.28530113749999997,0.7165894885976432
0.057,1.718775,1.0,2681.3084178601543,0.4733881904071297,1.2975030802225709,0.978139773050212,0.28524155,0.7177675932974572
0.0575,1.71734375,1.0,2679.074211574938,0.47634208036279513,1.296877203303297,0.9783675910258232,0.2851814375,0.718953846169684
0.058,1.7159,1.0,2676.8371115265068,0.4792794011405753,1.2962457163306773,0.9785897092763953,0.2851208,0.7201482001139154
0.0585,1.71444375,1.0,2674.5982725598774,0.48220024392635086,1.2956086087444374,0.9788063046579759,0.2850596375,0.7213506072582211
0.059000000000000004,1.7129750000000001,1.0,2672.3588476002224,0.4851046999060024,1.294965869984302,0.979017546982735,0.28499795,0.7225610189553693
0.059500000000000004,1.71149375,1.0,2670.119987648947,0.4879928602654106,1.2943174894899967,0.9792235993528813,0.2849357375,0.723779385779036
0.06,1.71,1.0,2667.882841781161,0.49086481619045613,1.2936634567012462,0.9794246184762162,0.284873,0.7250056575200106
0.0605,1.7084937500000001,1.0,2665.648557146373,0.4937206588670196,1.2930037610577756,0.9796207549644732,0.2848097375,0.7262397831823915
0.061,1.7069750000000001,1.0,2663.4182789714623,0.4965604794809817,1.29233839199931,0.9798121536155012,0.28474595,0.7274817109797758
0.0615,1.7054437500000001,1.0,2661.1931505655366,0.49938436921822293,1.291667338965575,0.9799989536802893,0.2846816375,0.7287313883314424
0.062,1.7039,1.0,2658.974313328727,0.5021924192646241,1.2909905913962951,0.9801812891157521,0.2846168,0.7299887618585281
0.0625,1.70234375,1.0,2656.7629067615053,0.5049847208060658,1.2903081387311957,0.9803592888241366,0.2845514375,0.7312537773801941
0.063,1.7007750000000001,1.0,2654.555165391511,0.5077613304364313,1.2896200156019288,0.9805330766184431,0.28448555,0.7325262964373038
0.0635,1.69919375,1.0,2652.352304555363,0.5105223491712833,1.2889262107704644,0.9807027727029168,0.28441913750000003,0.7338062650823379
0.064,1.6976,1.0,2650.1604700652997,0.5132679053275556,1.2882266674980871,0.9808684925120092,0.2843522,0.7350937121905202
0.0645,1.69599375,1.0,2647.979716840674,0.5159980805320047,1.287521385162231,0.981030346659261,0.2842847375,0.7363885620994646
0.065,1.694375,1.0,2645.8100997480087,0.5187129564113869,1.2868103631403298,0.981188441749462,0.28421675,0.7376907385054596
0.0655,1.69274375,1.0,2643.6516736023914,0.5214126145924587,1.2860936008098176,0.9813428805512847,0.2841482375,0.7390001644632422
0.066,1.6911,1.0,2641.504493168916,0.5240971367019763,1.285371097548128,0.9814937621612808,0.2840792,0.7403167623857678
0.0665,1.6894437500000001,1.0,2639.368613163934,0.5267666043666963,1.2846428527326954,0.9816411821597233,0.2840096375,0.741640454043983
0.067,1.687775,1.0,2637.244088256089,0.529421099213375,1.283908865740953,0.9817852327587616,0.28393955,0.7429711605665994
0.0675,1.68609375,1.0,2635.130973068268,0.5320607028687686,1.2831691359503348,0.9819260029433154,0.2838689375,0.7443088024398623
0.068,1.6844000000000001,1.0,2633.02932217836,0.5346854969596336,1.282423662738275,0.9820635786051112,0.2837978,0.745653299507325
0.0685,1.68269375,1.0,2630.939190120838,0.5372955631127265,1.2816724454822073,0.982198042670244,0.2837261375,0.7470045709696205
0.069,1.680975,1.0,2628.860631388309,0.5398909829548036,1.2809154835595653,0.9823294752206135,0.28365395,0.7483625353842334
0.0695,1.67924375,1.0,2626.7937004324026,0.5424718381126212,1.2801527763477831,0.9824579536095753,0.28358123749999997,0.7497271106652711
0.07,1.6775,1.0,2624.7384516657603,0.5450382102129357,1.2793843232242945,0.9825835525721129,0.283508,0.7510982140832364
0.07050000000000001,1.67574375,1.0,2622.6949394627773,0.5475901808825037,1.2786101235665335,0.9827063443298317,0.2834342375,0.752475762264799
0.07100000000000001,1.673975,1.0,2620.663218161513,0.5501278317480812,1.2778301767519338,0.9828263986910469,0.28335995,0.7538596711925677
0.07150000000000001,1.67219375,1.0,2618.6433420648677,0.5526512444364249,1.2770444821579294,0.9829437831462277,0.2832851375,0.755249856204862
0.07200000000000001,1.6704,1.0,2616.6353654420313,0.5551605005742909,1.276253039161954,0.9830585629590416,0.2832098,0.7566462319954844
0.0725,1.66859375,1.0,2614.639342529897,0.5576556817884358,1.2754558471414414,0.9831708012532296,0.2831339375,0.7580487126134913
0.073,1.6667750000000001,1.0,2612.6553275344663,0.5601368697056159,1.2746529054738256,0.9832805590955297,0.28305755,0.7594572114629651
0.0735,1.66494375,1.0,2610.6833746323773,0.5626041459525877,1.2738442135365406,0.9833878955748511,0.2829806375,0.7608716413027855
0.074,1.6631,1.0,2608.723151989614,0.5650575610211163,1.2730297742957526,0.9834928662550134,0.2829032,0.7622919079974821
0.0745,1.6612437500000001,1.0,2606.7746443204715,0.5674972130742459,1.272209587778488,0.983595527510777,0.2828252375,0.7637179219434491
0.075,1.659375,1.0,2604.83786530854,0.5699231980225157,1.271383653742913,0.9836959337764205,0.28274675,0.7651495933710034
0.0755,1.65749375,1.0,2602.9125854169397,0.5723355884668352,1.2705519742113833,0.9837941365627976,0.2826677375,0.7665868279665912
