Time [s],Phi [rad],STIM [ ],Fsee [N],Gamma [ ],Lcerel [ ],q [ ],Lmtc [m],fisomrel [ ]
0.0,1.8,1.0,17.993337705283903,0.00016462303865749105,1.3793368143035964,0.005007064825387745,0.288653,0.5411466240880063
0.0005,1.79999375,1.0,18.353428712780666,0.005772908942428132,1.3792938785431392,0.013375350705078042,0.2886527375,0.5412504901138468
0.001,1.799975,1.0,21.809925706559927,0.011349736796465502,1.378918781841434,0.03641885828974822,0.28865195,0.5421573876524357
0.0015,1.79994375,1.0,31.50781979227636,0.01689528305651346,1.3780089688408104,0.0717079067844499,0.2886506375,0.5443533784308268
0.002,1.7999,1.0,54.51296090605231,0.022409723186497126,1.376308020767025,0.11602604383046056,0.2886488,0.5484447497015441
0.0025,1.79984375,1.0,98.67082316260014,0.027893231667024693,1.3738606819754704,0.16599671512654393,0.28864643749999996,0.5542990767628706
0.003,1.7997750000000001,1.0,162.96955081444344,0.033345982001751026,1.3711392894866183,0.21874653590874132,0.28864354999999997,0.5607641192581891
0.0035,1.79969375,1.0,239.9515909774421,0.038768146718101575,1.3685150317436554,0.2720705616879325,0.2886401375,0.566953671489071
0.004,1.7996,1.0,323.8773994614134,0.04415989737769745,1.3660923633150863,0.32432686962966234,0.2886362,0.5726287676096136
0.0045000000000000005,1.7994937500000001,1.0,411.7622731069599,0.04952140458165276,1.363864347174519,0.3743737333521692,0.2886317375,0.5778148496660109
0.005,1.799375,1.0,501.95751499121883,0.054852837962397864,1.361804350998663,0.4215002388402115,0.28862675,0.5825816696378707
0.0055,1.79924375,1.0,593.3557501510212,0.06015436622318405,1.3598887689424366,0.46533346932190767,0.2886212375,0.5869900318529895
0.006,1.7991000000000001,1.0,685.0844939352796,0.06542615710089163,1.3580998084589377,0.5057457269339068,0.2886152,0.5910858647374748
0.006500000000000001,1.79894375,1.0,776.4312778171477,0.07066837739297924,1.3564237589039663,0.5427751915343626,0.2886086375,0.594904668650406
0.007,1.798775,1.0,866.8044181510915,0.07588119299520082,1.3548497410195453,0.5765647719876382,0.28860155,0.5984746852626329
0.0075,1.79859375,1.0,955.7141048480589,0.08106476872789664,1.3533687989541525,0.607317582956619,0.2885939375,0.6018191706814405
0.008,1.7984,1.0,1042.7837232182867,0.08621926889932374,1.3519729599361303,0.6352658630177593,0.2885858,0.6049586590363496
0.0085,1.79819375,1.0,1127.6865808796895,0.09134485626380368,1.3506556753786636,0.6606509963652611,0.2885771375,0.6079100679997873
0.009000000000000001,1.797975,1.0,1210.1819348499089,0.09644169302778596,1.3494108723007343,0.6837101383093754,0.28856795,0.6106889104529336
0.0095,1.79774375,1.0,1290.1080104193645,0.10150994084535228,1.3482328153824903,0.704668565530454,0.2885582375,0.6133096501619402
0.01,1.7975,1.0,1367.3237572073917,0.10654975965049587,1.347116676691424,0.7237359176677911,0.288548,0.6157844794729
0.0105,1.79724375,1.0,1441.7414220943435,0.11156130881345837,1.3460578989381409,0.7411040761647973,0.2885372375,0.6181247786432382
0.011,1.796975,1.0,1513.3268263678092,0.11654474753549286,1.345052074552972,0.7569468166468359,0.28852595000000003,0.6203414089499053
0.0115,1.79669375,1.0,1582.0529085529245,0.1215002331683244,1.3440954106315346,0.771420614277523,0.2885141375,0.6224437129538125
0.012,1.7964,1.0,1647.9176535431181,0.12642792213043128,1.3431843926096354,0.7846655443499353,0.28850180000000003,0.624440282746032
0.0125,1.79609375,1.0,1710.9475202170056,0.13132797027299212,1.3423156679389934,0.796806554950411,0.2884889375,0.6263392330468138
0.013000000000000001,1.7957750000000001,1.0,1771.2031640666223,0.1362005337616662,1.3414859240584438,0.8079548342848736,0.28847555,0.6281484810904042
0.0135,1.79544375,1.0,1828.7264029364271,0.14104576622925452,1.3406924359689352,0.8182094272570631,0.2884616375,0.6298745665610748
0.014,1.7951000000000001,1.0,1883.5652898331768,0.1458638203149716,1.339932714212554,0.8276584058072565,0.2884472,0.6315234368880294
0.0145,1.79474375,1.0,1935.7920037569659,0.15065484865803183,1.3392042693313866,0.8363800155616725,0.2884322375,0.6331009683270413
0.015,1.794375,1.0,1985.482165798565,0.15541900281396964,1.338504809854053,0.8444438759598537,0.28841675,0.6346125437043093
0.0155,1.79399375,1.0,2032.7378278310925,0.1601564348863253,1.3378319678394095,0.851911897905885,0.2884007375,0.6360636527606894
0.016,1.7936,1.0,2077.62430913021,0.16486729369349343,1.337183943370573,0.8588393947774515,0.2883842,0.6374585087151474
0.0165,1.7931937500000001,1.0,2120.216060826906,0.16955172776942729,1.3365589859990472,0.86527569860483,0.2883671375,0.6388011764773378
0.017,1.792775,1.0,2160.6001008268126,0.17420988564808013,1.335955345276336,0.8712648540295914,0.28834955,0.640095682335006
0.0175,1.7923437500000001,1.0,2198.8579872009145,0.1788419144334735,1.3353714423714547,0.8768462900497441,0.2883314375,0.6413456493676342
0.018000000000000002,1.7919,1.0,2235.0960200485038,0.18344796258339527,1.3348055495449547,0.8820552757489003,0.2883128,0.6425549872254493
0.0185,1.79144375,1.0,2269.383203071442,0.18802817456104784,1.3342564056491575,0.8869235642854271,0.2882936375,0.6437265793447253
0.019,1.790975,1.0,2301.792836501165,0.19258269457527474,1.3337227792832655,0.8914796863625734,0.28827395,0.6448632225365205
0.0195,1.79049375,1.0,2332.4048341697426,0.19711166683491949,1.3332034390464818,0.8957493124334123,0.2882537375,0.6459676919885124
0.02,1.79,1.0,2361.2977108581,0.2016152345009353,1.3326972263605323,0.8997555936916405,0.288233,0.6470425879209462
0.0205,1.78949375,1.0,2388.557583423102,0.2060935416661986,1.3322029607999026,0.903519424115062,0.2882117375,0.6480905383793953
0.021,1.788975,1.0,2414.2576019505773,0.21054673017141168,1.331719634952989,0.9070597316236747,0.28818995000000003,0.6491137875849993
0.021500000000000002,1.78844375,1.0,2438.459293218065,0.21497493957755184,1.3312463929134841,0.9103936872728071,0.2881676375,0.6501142448399417
0.022,1.7879,1.0,2461.2276619778913,0.21937830944559625,1.3307823787750797,0.9135368642984016,0.2881448,0.6510938070532517
0.0225,1.78734375,1.0,2482.630900593586,0.22375697933652222,1.3303267366314682,0.9165034088955886,0.28812143749999997,0.652054359267872
0.023,1.786775,1.0,2502.7335793987713,0.2281110874369238,1.3298786726146499,0.9193062019623696,0.28809755,0.6529976446237138
0.0235,1.78619375,1.0,2521.604290141553,0.23244077315061326,1.3294373790096596,0.9219569776324429,0.28807313749999996,0.653925425099636
0.024,1.7856,1.0,2539.307217943706,0.23674617478704815,1.329002111793651,0.9244664539578538,0.2880482,0.654839318990172
0.0245,1.78499375,1.0,2555.8909515418404,0.2410274267759329,1.328572292687137,0.9268444521063582,0.2880227375,0.6557405882599436
0.025,1.784375,1.0,2571.4057275906935,0.2452846635469719,1.3281473434106308,0.9290999584375883,0.28799675,0.6566304879226581
0.025500000000000002,1.78374375,1.0,2585.9032921398384,0.2495180195298696,1.327726685684646,0.9312412068601174,0.2879702375,0.657510266231369
0.026000000000000002,1.7831000000000001,1.0,2599.436769524907,0.25372762915433045,1.327309741229695,0.9332757520598888,0.2879432,0.6583811648474174
0.0265,1.78244375,1.0,2612.0540379641293,0.25791362517386235,1.3268959921690424,0.9352105435632426,0.2879156375,0.6592442930606421
0.027,1.781775,1.0,2623.803193898619,0.2620761412887188,1.3264849286139382,0.9370519758183388,0.28788755,0.6601007378442337
0.0275,1.7810937500000001,1.0,2634.738400874758,0.2662153119967067,1.3260759935572999,0.938805931564588,0.2878589375,0.6609516786531242
0.028,1.7804,1.0,2644.894889538938,0.2703312661072932,1.3256688133300678,0.9404778605521328,0.2878298,0.6617979082403873
0.0285,1.77969375,1.0,2654.308578431889,0.27442413242994523,1.3252630142631825,0.9420727941417898,0.2878001375,0.6626402154095304
0.029,1.778975,1.0,2663.016014228949,0.27849403977413006,1.3248582226875845,0.9435953828707437,0.28776995,0.6634793850518617
0.029500000000000002,1.7782437500000001,1.0,2671.0543150759718,0.2825411169493147,1.3244540649342145,0.9450499301944691,0.2877392375,0.6643161981749507
0.03,1.7775,1.0,2678.461117021531,0.28656549276496623,1.324050167334013,0.9464404228357254,0.287708,0.6651514319221881
0.0305,1.77674375,1.0,2685.2694063667104,0.2905672941928597,1.3236462031126197,0.9477705636229297,0.2876762375,0.6659857627894927
0.031,1.775975,1.0,2691.5123942507807,0.29454664929964297,1.3232418470646443,0.9490437907276502,0.28764395,0.666819860670399
0.0315,1.7751937500000001,1.0,2697.226263698365,0.29850368614969286,1.3228367500680431,0.950263296355799,0.2876111375,0.6676544413440813
0.032,1.7744,1.0,2702.435650943213,0.30243852791551346,1.322430671492609,0.951432061929638,0.2875778,0.6684899938801825
0.0325,1.77359375,1.0,2707.165443590355,0.30635129776960884,1.3220233707081344,0.9525528636309017,0.2875439375,0.6693270048398325
0.033,1.772775,1.0,2711.440756376832,0.310242118884483,1.3216146070844121,0.9536282890196293,0.28750955,0.6701659582587347
0.0335,1.7719437500000002,1.0,2715.2869082167745,0.3141111144326401,1.3212041399912349,0.9546607521174693,0.2874746375,0.6710073356265663
0.034,1.7711000000000001,1.0,2718.7294005297895,0.3179584075865841,1.3207917287983955,0.9556525071136631,0.2874392,0.6718516158626808
0.0345,1.7702437500000001,1.0,2721.78520409333,0.32178411752206654,1.3203772120014323,0.9566056684967496,0.2874032375,0.6726991136166751
0.035,1.7693750000000001,1.0,2724.4812600831674,0.325588368406677,1.3199603385295335,0.957522205788141,0.28736675,0.6735503245155176
0.035500000000000004,1.76849375,1.0,2726.8492332022,0.32937128566913965,1.3195408155414374,0.9584039588393276,0.2873297375,0.674405826540539
0.036000000000000004,1.7676,1.0,2728.90313602036,0.3331329862323894,1.3191185117526079,0.9592526664168716,0.2872922,0.6752658656147981
0.0365,1.76669375,1.0,2730.6570591287614,0.3368735870193614,1.318693295878509,0.960069959048901,0.2872541375,0.6761306861036134
0.037,1.765775,1.0,2732.1251629933918,0.34059320495299056,1.318265036634604,0.9608573669814743,0.28721555,0.677000530790734
0.0375,1.76484375,1.0,2733.3216701905435,0.34429195695621195,1.3178336027363573,0.9616163274647541,0.2871764375,0.6778756408534038
0.038,1.7639,1.0,2734.2608580247843,0.34796995995196056,1.3173988628992324,0.9623481914322204,0.28713679999999997,0.6787562558363339
0.0385,1.76294375,1.0,2734.9570515291316,0.3516273308631714,1.316960685838693,0.9630542296296005,0.28709663750000003,0.6796426136245706
0.039,1.7619754865315342,1.0,2735.448816173913,0.3552641866127794,1.316518940270203,0.9637356382443423,0.2870559704343244,0.6805349504152667
0.0395,1.7610039741221568,1.0,2736.192071974656,0.358880641419752,1.3160734446245588,0.964393538984704,0.28701516691313056,0.681433602050912
0.04,1.7600324617127798,1.0,2737.3150393213396,0.36247680933068993,1.3156245032718263,0.9650290327967171,0.2869743633919367,0.6823379238980003
0.0405,1.7590609493034024,1.0,2738.756626269438,0.3660528110025941,1.3151726726923938,0.9656431812334343,0.28693355987074287,0.6832467678186647
0.041,1.7580894368940252,1.0,2740.4961365298655,0.3696087568543955,1.3147181429103099,0.9662369521785665,0.286892756349549,0.6841597274333093
0.0415,1.757117924484648,1.0,2742.5128980315044,0.37314475730502505,1.314261103949624,0.9668112596739629,0.2868519528283552,0.685076398419527
0.042,1.7561464120752708,1.0,2744.78625194944,0.37666092277341373,1.3138017458343847,0.9673669674757257,0.28681114930716134,0.6859963785436615
0.0425,1.7551748996658936,1.0,2747.295542533719,0.3801573636784925,1.3133402585886413,0.9679048923406779,0.2867703457859675,0.6869192676900618
0.043000000000000003,1.7542033872565164,1.0,2750.0201077388356,0.3836341904391924,1.3128768322364424,0.9684258070661451,0.28672954226477365,0.6878446678880392
0.043500000000000004,1.7532318748471392,1.0,2752.9392706536514,0.3870915134744443,1.3124116568018374,0.9689304433038608,0.2866887387435798,0.6887721833365147
0.044,1.752260362437762,1.0,2756.0323317322313,0.39052944320317917,1.3119449223088748,0.9694194941668545,0.286647935222386,0.6897014204263714
0.0445,1.7512888500283847,1.0,2759.279428339032,0.39394808939777953,1.3114768109479322,0.9698936159422392,0.2866071317011922,0.6906320033217669
0.045,1.7503173376190075,1.0,2762.671984317549,0.3973475555301627,1.311007402633201,0.9703534223410064,0.28656632817999833,0.6915637611841517
0.0455,1.7493458252096303,1.0,2766.185069701891,0.40072795904562825,1.3105369248487118,0.9707995089581145,0.2865255246588045,0.6924962318415355
0.046,1.7483743128002531,1.0,2769.8101196002913,0.40408940420549216,1.3100654569141226,0.97123242840771,0.28648472113761064,0.6934292488158049
0.0465,1.747402800390876,1.0,2773.538552986949,0.40743199527107044,1.309593078149092,0.9716527057608265,0.2864439176164168,0.6943626465630426
0.047,1.7464312879814987,1.0,2777.361771030529,0.41075583650367903,1.3091198678732783,0.9720608401821841,0.28640311409522295,0.6952962604783386
0.0475,1.7454597755721215,1.0,2781.2711555619876,0.41406103216463386,1.3086459054063397,0.9724573064548747,0.2863623105740291,0.6962299269001939
0.048,1.7444882631627443,1.0,2785.258067682064,0.41734768651525095,1.3081712700679344,0.972842556401587,0.28632150705283527,0.6971634831145288
0.0485,1.743516750753367,1.0,2789.3138465081283,0.4206159038168462,1.3076960411777208,0.9732170202102939,0.2862807035316414,0.6980967673582856
0.049,1.7425452383439899,1.0,2793.429808060627,0.4238657883307357,1.307220298055357,0.9735811076716464,0.2862399000104476,0.6990296188226325
0.0495,1.7415737259346127,1.0,2797.5972442889856,0.42709744431823526,1.3067441200205019,0.9739352093347092,0.28619909648925373,0.6999618776557651
0.05,1.7406022135252355,1.0,2801.815318187367,0.4303109630895242,1.3062675155538266,0.9742796913443647,0.2861582929680599,0.7008935233306333
0.0505,1.7396307011158583,1.0,2806.069779124606,0.4335064637618171,1.3057906133711097,0.97461491415651,0.28611748944686605,0.7018243009378844
0.051000000000000004,1.738659188706481,1.0,2810.356165842123,0.43668404663450355,1.305313454112707,0.974941213866523,0.2860766859256722,0.7027541286280867
0.051500000000000004,1.7376876762971039,1.0,2814.6714478905396,0.43984380934191797,1.3048360654922018,0.9752589102785522,0.28603588240447836,0.703682950176129
0.052000000000000005,1.7367161638877266,1.0,2819.012585702946,0.44298584951839476,1.3043584752231772,0.9755683089112951,0.2859950788832845,0.7046107096933121
0.0525,1.7357446514783494,1.0,2823.3765304627177,0.44611026479826826,1.3038807110192163,0.9758697017614538,0.28595427536209067,0.7055373516277281
0.053,1.7347731390689722,1.0,2827.7602239879193,0.44921715281587304,1.3034028005939025,0.9761633680200174,0.2859134718408968,0.706462820764594
0.0535,1.733801626659595,1.0,2832.1605986329855,0.45230661120554344,1.302924771660819,0.9764495747446634,0.285872668319703,0.7073870622265328
0.054,1.7328301142502178,1.0,2836.574577207451,0.45537873760161385,1.302446651933549,0.9767285774913235,0.28583186479850914,0.7083100214738097
0.0545,1.7318586018408406,1.0,2840.9990729116835,0.4584336296384187,1.3019684691256754,0.9770006209077159,0.2857910612773153,0.7092316443045154
0.055,1.7308870894314634,1.0,2845.430989289409,0.46147138495029244,1.301490250950782,0.9772659392914393,0.28575025775612145,0.7101518768547019
0.0555,1.7299155770220862,1.0,2849.867220197663,0.4644921011715694,1.3010120251224515,0.9775247571150217,0.2857094542349276,0.7110706655984714
0.056,1.728944064612709,1.0,2854.305772673175,0.46749586946159455,1.300533809373352,0.9777772883393271,0.28566865071373376,0.7119879764781304
0.0565,1.7279725522033318,1.0,2858.7469955152824,0.470482773316957,1.3000556005820263,0.9780237362261777,0.2856278471925399,0.712903815559182
0.057,1.7270010397939546,1.0,2863.184572813418,0.47345293737817007,1.2995774547852124,0.9782643028234338,0.2855870436713461,0.7138180758431572
0.0575,1.7260295273845774,1.0,2867.6178182769713,0.4764064515001819,1.2990993779225557,0.9784991760412163,0.28554624015015223,0.71473074657634
0.058,1.7250580149752002,1.0,2872.0460435735763,0.47934340553794047,1.2986213759337013,0.9787285362620106,0.2855054366289584,0.7156418170773694
0.0585,1.724086502565823,1.0,2876.4685583384467,0.48226388934639375,1.2981434547582942,0.9789525567025079,0.28546463310776454,0.7165512767372098
0.059000000000000004,1.7231149901564458,1.0,2880.8846701846614,0.48516799278048983,1.2976656203359798,0.9791714037552858,0.2854238295865707,0.717459115019121
0.059500000000000004,1.7221434777470686,1.0,2885.2936847142305,0.4880558056951767,1.2971878786064028,0.9793852373116032,0.2853830260653769,0.7183653214586287
0.06,1.7211719653376913,1.0,2889.6949055297778,0.49092741794540234,1.2967102355092086,0.9795942110664924,0.28534222254418307,0.7192698856634885
0.0605,1.7202004529283141,1.0,2894.087634247271,0.49378291938611485,1.2962326969840425,0.9797984728072517,0.2853014190229892,0.7201727973136494
0.061,1.719228940518937,1.0,2898.4711705095065,0.49662239987226225,1.2957552689705494,0.9799981646863591,0.2852606155017954,0.7210740461612182
0.0615,1.7182574281095597,1.0,2902.8448119999985,0.4994459492587925,1.2952779574083744,0.9801934234797643,0.28521981198060153,0.7219736220304154
0.062,1.7172859157001825,1.0,2907.2078544580945,0.5022536574006536,1.2948007682371627,0.9803843808314469,0.2851790084594077,0.7228715148175341
0.0625,1.7163144032908053,1.0,2911.559591694632,0.5050456141527938,1.2943237073965597,0.9805711634850695,0.28513820493821385,0.7237677144908939
0.063,1.715342890881428,1.0,2915.8993156085526,0.5078219093701608,1.29384678082621,0.9807538935034978,0.28509740141702,0.724662211090795
0.0635,1.714371378472051,1.0,2920.226316204053,0.5105826329077028,1.2933699944657593,0.9809326884769104,0.28505659789582616,0.7255549947294655
0.064,1.7133998660626737,1.0,2924.5398954864067,0.513327874210479,1.2928933541329892,0.9811076616846042,0.2850157943746323,0.726446055818646
0.0645,1.7124283536532965,1.0,2928.8414062550914,0.5160576744077913,1.2924168476343332,0.9812789180020426,0.28497499085343847,0.7273354184298444
0.065,1.7114568412439193,1.0,2933.128775495315,0.5187721839787951,1.2919404928521414,0.9814465677396316,0.2849341873322446,0.728223050488676
0.0655,1.710485328834542,1.0,2937.4020094341154,0.5214714839944882,1.2914642893993253,0.9816107115290109,0.2848933838110508,0.7291089540974054
0.066,1.7095138164251649,1.0,2941.661114579901,0.524155655525868,1.290988236888796,0.9817714464653925,0.28485258028985694,0.7299931313531569
0.0665,1.7085423040157877,1.0,2945.9060977207437,0.5268247796439319,1.2905123349334644,0.9819288662572384,0.2848117767686631,0.7308755843479164
0.067,1.7075707916064105,1.0,2950.1369659233596,0.5294789374196778,1.290036583146242,0.9820830613685815,0.28477097324746925,0.7317563151685367
0.0675,1.7065992791970332,1.0,2954.3537265317495,0.5321182099241031,1.28956098114004,0.9822341191543991,0.2847301697262754,0.7326353258967393
0.068,1.705627766787656,1.0,2958.5563871659115,0.5347426782282051,1.2890855285277691,0.9823821239894236,0.28468936620508156,0.7335126186091212
0.0685,1.7046562543782788,1.0,2962.7449557205573,0.5373524234029817,1.2886102249223412,0.9825271573907547,0.2846485626838877,0.7343881953771544
0.069,1.7036847419689016,1.0,2966.919440363832,0.5399475265194302,1.2881350699366674,0.9826692981346095,0.2846077591626939,0.7352620582671933
0.0695,1.7027132295595244,1.0,2971.079849536036,0.5425280686485482,1.2876600631836583,0.9828086223675303,0.28456695564150003,0.7361342093404775
0.07,1.7017417171501472,1.0,2975.226191948354,0.5450941308613334,1.2871852042762257,0.9829452037123485,0.2845261521203062,0.7370046506531329
0.07050000000000001,1.70077020474077,1.0,2979.3584765815795,0.5476457942287831,1.2867104928272806,0.983079113369188,0.28448534859911234,0.7378733842561795
0.07100000000000001,1.6997986923313928,1.0,2983.4767126848537,0.5501831398218949,1.286235928449734,0.9832104202117684,0.2844445450779185,0.7387404121955318
0.07150000000000001,1.6988271799220156,1.0,2987.5809097743954,0.5527062487116665,1.2857615107564973,0.9833391908792604,0.28440374155672465,0.7396057365120036
