Time [s],Phi [rad],STIM [ ],Fsee [N],Gamma [ ],Lcerel [ ],q [ ],Lmtc [m],fisomrel [ ]
0.0,1.8,1.0,18.12785758211621,0.000407217455275161,1.3793217825885873,0.005042917738624361,0.288653,0.541182988692017
0.0005,1.79999375,1.0,18.563484660412584,0.006014142596231543,1.3792706604566234,0.014079978362956876,0.2886527375,0.5413066521581528
0.001,1.799975,1.0,22.199874037821736,0.011589617320230656,1.3788793053080801,0.037708460173429235,0.28865195,0.542252780641794
0.0015,1.79994375,1.0,32.29484838166335,0.01713381804018999,1.3779427957035553,0.07345649211469243,0.2886506375,0.544512892779913
0.002,1.7999,1.0,56.088321935817994,0.022646920177365644,1.376207417193782,0.11808615729113411,0.2886488,0.5486861583175502
0.0025,1.79984375,1.0,101.21717868761264,0.028129098170809656,1.373739723344437,0.1682311077388006,0.28864643749999996,0.5545874336556877
0.003,1.7997750000000001,1.0,166.22113372380466,0.03358052548037266,1.3710189304407483,0.22104715548155776,0.28864354999999997,0.5610489580822806
0.0035,1.79969375,1.0,243.5861358671829,0.039001374593869764,1.3684040273170064,0.2743557173398602,0.2886401375,0.5672145173999057
0.004,1.7996,1.0,327.7238309256328,0.04439181702949021,1.365991165457506,0.32653730007293374,0.2886362,0.5728650089510727
0.0045000000000000005,1.7994937500000001,1.0,415.7329793205834,0.049752023345846795,1.3637716452765447,0.3764704480686225,0.2886317375,0.5780299428979456
0.005,1.799375,1.0,505.99257801128266,0.055082163108019305,1.36171899499896,0.4234609105065986,0.28862675,0.5827785990336171
0.0055,1.79924375,1.0,597.429971235299,0.060382405084129606,1.3598094766828428,0.46714792555670187,0.2886212375,0.5871720041110293
0.006,1.7991000000000001,1.0,689.1556387120877,0.06565291683519221,1.3580260540332525,0.5074127833438862,0.2886152,0.5912542877339878
0.006500000000000001,1.79894375,1.0,780.4726713928163,0.0708938651745171,1.3563549724410118,0.5442991880360707,0.2886086375,0.5950610128079266
0.007,1.798775,1.0,870.797977869262,0.07610541597865166,1.3547854000438635,0.5779534178896378,0.28860155,0.5986202803434814
0.0075,1.79859375,1.0,959.6351111177137,0.08128773397029393,1.3533086294883137,0.6085805160155241,0.2885939375,0.6019547587024539
0.008,1.7984,1.0,1046.619697847802,0.08644098349923764,1.351916600435774,0.6364133772077274,0.2885858,0.6050851605157135
0.0085,1.79819375,1.0,1131.4277851971365,0.09156532724379149,1.3506028132261965,0.6616934418225582,0.2885771375,0.6080282760136377
0.009000000000000001,1.797975,1.0,1213.8182203109723,0.09666092729630643,1.3493612708766016,0.6846575153135234,0.28856795,0.610799433710095
0.0095,1.79774375,1.0,1293.6323439724301,0.10172794536781382,1.3481862508714095,0.7055302498026084,0.2885582375,0.6134130570921934
0.01,1.7975,1.0,1370.7337283118568,0.1067665414210315,1.3470729111930797,0.7245205302155667,0.288548,0.6158813594258948
0.0105,1.79724375,1.0,1445.0329869246752,0.11177687475192573,1.346016755703124,0.741819484873897,0.2885372375,0.6182155764435098
0.011,1.796975,1.0,1516.4940489644177,0.11675910399010143,1.3450134314007522,0.7576001382212559,0.28852595000000003,0.6204264418146634
0.0115,1.79669375,1.0,1585.1087826327441,0.12171338735839315,1.3440589434026116,0.772018136411857,0.2885141375,0.6225237355378781
0.012,1.7964,1.0,1650.8616928594874,0.12663988083384506,1.343149967970904,0.7852129633953528,0.28850180000000003,0.6245156233468353
0.0125,1.79609375,1.0,1713.7778762400244,0.1315387403716605,1.3422831868483458,0.7973089578662006,0.2884889375,0.6264101403091211
0.013000000000000001,1.7957750000000001,1.0,1773.9003538685,0.13641012081563997,1.3414555012393021,0.8084168271824209,0.28847555,0.6282147342902327
0.0135,1.79544375,1.0,1831.3175498886587,0.1412541777757833,1.3406636718353766,0.8186349066588945,0.2884616375,0.6299370621544607
0.014,1.7951000000000001,1.0,1886.0580002662505,0.14607106325149036,1.3399054479724326,0.8280509211422202,0.2884472,0.6315825460416451
0.0145,1.7947443944429287,1.0,1938.1999081344563,0.150860929242161,1.3391785789863344,0.836742805255051,0.288432264566603,0.6331565419541165
0.015,1.7943859083030675,1.0,1988.1965766898215,0.15562392771341468,1.3384808172948324,0.8447798351931374,0.28841720814872884,0.634664337766015
0.0155,1.7940274221632064,1.0,2036.23675501714,0.16036020935861428,1.3378103367255356,0.8522237792837147,0.28840215173085465,0.6361102563819523
0.016,1.7936689360233453,1.0,2082.3734580052533,0.16506992523067754,1.337165625154956,0.8591297437102056,0.2883870953129805,0.637497899278915
0.0165,1.7933104498834842,1.0,2126.6536790309524,0.16975322314973068,1.3365453464562813,0.8655469084990761,0.2883720388951063,0.6388304521001964
0.017,1.792951963743623,1.0,2169.1339625056025,0.17441025093589987,1.3359481645026992,0.8715191801284831,0.2883569824772322,0.6401110674976639
0.0175,1.792593477603762,1.0,2209.877616483856,0.17904115610653343,1.3353727642135298,0.8770858206309552,0.288341926059358,0.6413428221421433
0.018000000000000002,1.7922349914639006,1.0,2248.9449290853026,0.1836460848215898,1.3348179419529953,0.8822820169428182,0.2883268696414838,0.6425285259769155
0.0185,1.7918765053240395,1.0,2286.4167775155297,0.1882251857113273,1.3342823603576484,0.8871392949820163,0.28831181322360966,0.6436712485769112
0.019,1.7915180191841784,1.0,2322.341241897877,0.19277860181220566,1.333765074357242,0.8916860703706897,0.2882967568057355,0.6447731987860482
0.0195,1.7911595330443173,1.0,2356.7716861170743,0.1973064761606846,1.3332651388815293,0.8959479098029539,0.28828170038786133,0.6458365663465402
0.02,1.7908010469044562,1.0,2389.7663843615323,0.20180895179322392,1.3327816088602638,0.8999478544761789,0.28826664396998714,0.6468635229731328
0.0205,1.790442560764595,1.0,2421.3881674680206,0.20628617174628333,1.3323135392231984,0.903706703617313,0.288251587552113,0.647856223370382
0.021,1.790084074624734,1.0,2451.692484441426,0.2107382768880434,1.3318600961975007,0.9072432860901771,0.2882365311342388,0.6488165706370714
0.021500000000000002,1.7897255884848728,1.0,2480.748512235279,0.2151654111056249,1.3314203497739552,0.9105746348974504,0.28822147471636467,0.6497466573842768
0.022,1.7893671023450117,1.0,2508.607048340789,0.21956771406512307,1.330993578318029,0.9137162401230123,0.2882064182984905,0.6506481221690908
0.0225,1.7890086162051506,1.0,2535.311899438107,0.22394532346120907,1.33057915307856,0.9166821904958379,0.28819136188061634,0.6515223965237946
0.023,1.7886501300652895,1.0,2560.909329514792,0.2282983769885539,1.3301764453043863,0.9194853037033196,0.28817630546274214,0.65237090231556
0.0235,1.7882916439254284,1.0,2585.4478921376867,0.23262701234182864,1.3297848262443464,0.9221372586803881,0.288161249044868,0.6531950522289104
0.024,1.7879331577855673,1.0,2608.97827148985,0.23693136721570435,1.329403667147278,0.9246487125485645,0.2881461926269938,0.6539962502229761
0.0245,1.7875746716457062,1.0,2631.5423745270077,0.2412115763355747,1.3290324388481756,0.9270294201941732,0.2881311362091197,0.6547756829898648
0.025,1.787216185505845,1.0,2653.195852847584,0.24546777918317292,1.3286705007897255,0.9292882915564303,0.2881160797912455,0.6555347637456348
0.025500000000000002,1.786857699365984,1.0,2673.978357268565,0.24970011012430635,1.3283173753164874,0.9314335164716447,0.2881010233733713,0.656274556968408
0.026000000000000002,1.7864992132261228,1.0,2693.9231315287157,0.2539087012238412,1.3279726557075486,0.9334726202787668,0.28808596695549715,0.6569959729213577
0.0265,1.7861407270862617,1.0,2713.0645643253165,0.25809368454664366,1.3276359352419957,0.9354125170599453,0.288070910537623,0.6576999168944604
0.027,1.7857822409464006,1.0,2731.4381153475524,0.26225519215758003,1.3273068071989156,0.9372595675101756,0.2880558541197488,0.6583872894172573
0.0275,1.7854237548065395,1.0,2749.0802449769417,0.2663933561215165,1.326984864857395,0.9390196306233844,0.28804079770187463,0.6590589864610688
0.028,1.7850652686666781,1.0,2766.0283476556083,0.2705083085033193,1.3266697014965205,0.9406981099226148,0.2880257412840005,0.6597158996306575
0.0285,1.784706782526817,1.0,2782.307337249711,0.27460017587978985,1.326361030599671,0.9423000099258948,0.2880106848661263,0.6603586661540838
0.029,1.784348296386956,1.0,2797.963462054204,0.27866909550406366,1.3260583800562882,0.9438299349841245,0.28799562844825216,0.6609883061067257
0.029500000000000002,1.7839898102470948,1.0,2813.020720689903,0.2827151939830776,1.3257614845240304,0.9452921708657989,0.28798057203037797,0.6616054056144767
0.03,1.7836313241072337,1.0,2827.5024056309517,0.2867385973544949,1.3254700898333367,0.9466906895831064,0.28796551561250383,0.6622105249485961
0.0305,1.7832728379673726,1.0,2841.432308867033,0.29073943165597926,1.325183941814646,0.9480291751652556,0.28795045919462964,0.6628042218937784
0.031,1.7829143518275115,1.0,2854.834691620718,0.29471782292519383,1.3249027862983973,0.9493110481746758,0.28793540277675544,0.6633870518352614
0.0315,1.7825558656876503,1.0,2867.7342554968404,0.29867389719980214,1.3246263691150297,0.9505394878482787,0.2879203463588813,0.6639595678418128
0.032,1.7821973795477892,1.0,2880.1561150641633,0.30260778051746756,1.3243544360949824,0.951717452119571,0.28790528994100717,0.6645223207445983
0.0325,1.7818388934079281,1.0,2892.122532543388,0.3065195965607323,1.3240867616731442,0.9528476984513722,0.287890233523133,0.6650758000899701
0.033,1.781480407268067,1.0,2903.6535462071315,0.310409468519031,1.3238231428500817,0.9539327998440877,0.2878751771052588,0.6656204469218608
0.0335,1.7811219211282059,1.0,2914.7783202343544,0.3142775268764257,1.323563298960986,0.9549751502565614,0.28786012068738465,0.6661568608593227
0.034,1.7807634349883448,1.0,2925.5117199595397,0.3181238911708373,1.323307077897907,0.9559769969037406,0.2878450642695105,0.6666853743020302
0.0345,1.7804049488484837,1.0,2935.8688277532433,0.32194868094018675,1.3230543275528952,0.9569404403740213,0.2878300078516363,0.6672063183971515
0.035,1.7800464627086225,1.0,2945.8649310609426,0.32575201572239504,1.3228048958180008,0.9578674459186017,0.2878149514337621,0.6677200230737554
0.035500000000000004,1.7796879765687614,1.0,2955.515510954489,0.3295340150553831,1.3225586305852737,0.9587598537465626,0.287799895015888,0.6682268170757428
0.036000000000000004,1.7793294904289003,1.0,2964.8362311964343,0.3332947984770719,1.3223153797467646,0.9596193884235916,0.2877848385980138,0.6687270279933002
0.0365,1.7789710042890392,1.0,2973.8429278182566,0.3370344855253823,1.3220749911945238,0.9604476674616748,0.28776978218013965,0.669220982292881
0.037,1.778612518149178,1.0,2982.551599210169,0.34075319573823537,1.3218373128206011,0.9612462091777262,0.28775472576226546,0.6697090053457097
0.0375,1.778254032009317,1.0,2990.9745004413658,0.3444510438777151,1.3216022263493445,0.9620164421497883,0.2877396693443913,0.6701913520636
0.038,1.7778955458694559,1.0,2999.125262171444,0.3481281482935481,1.321369602642028,0.9627597091364183,0.28772461292651713,0.670668298780947
0.0385,1.7775370597295945,1.0,3007.022663516034,0.35178463420523437,1.3211392690375425,0.9634772707429731,0.28770955650864294,0.6711402100830131
0.039,1.7771785735897334,1.0,3014.6756314079757,0.3554206141100093,1.3209111393102868,0.9641703192475172,0.2876945000907688,0.6716072725337172
0.0395,1.7768200874498723,1.0,3022.093176593984,0.3590362005051082,1.3206851272346602,0.9648399779935999,0.28767944367289466,0.6720696720997761
0.04,1.7764616013100112,1.0,3029.284389503974,0.3626315058877663,1.3204611465850618,0.9654873061146947,0.28766438725502047,0.6725275941625879
0.0405,1.77610311517015,1.0,3036.258436285059,0.36620664275521914,1.3202391111358904,0.9661133028865831,0.2876493308371463,0.6729812235296391
0.041,1.775744629030289,1.0,3043.0245550003197,0.3697617236047019,1.3200189346615456,0.9667189117406081,0.28763427441927214,0.6734307444454382
0.0415,1.7753861428904278,1.0,3049.592051992349,0.3732968609334499,1.3198005309364265,0.9673050239674951,0.28761921800139795,0.6738763406019763
0.042,1.7750276567505667,1.0,3055.970298412012,0.37681216723869854,1.319583813734932,0.9678724821385662,0.2876041615835238,0.6743181951487125
0.0425,1.7746691706107056,1.0,3062.1687269116437,0.3803077550176831,1.3193686968314615,0.9684220832686081,0.2875891051656496,0.6747564907020855
0.043000000000000003,1.7743106844708445,1.0,3068.196828503528,0.383783736767639,1.319155094000414,0.9689545817423392,0.2875740487477755,0.6751914093545501
0.043500000000000004,1.7739521983309834,1.0,3074.0557416332954,0.38724020737339976,1.3189429910309098,0.9694706949877057,0.2875589923299013,0.675622986199799
0.044,1.7735937121911223,1.0,3079.7624638548573,0.39067729998257816,1.3187322381862474,0.9699710981583911,0.28754393591202715,0.6760515316989326
0.0445,1.7732352260512612,1.0,3085.3225355857558,0.3940951208733746,1.3185227843480183,0.9704564349332762,0.28752887949415296,0.67647715513771
0.045,1.7728767399114,1.0,3090.7408980244236,0.3974937748874388,1.3183145837989076,0.970927316201849,0.2875138230762788,0.676899954531021
0.0455,1.772518253771539,1.0,3096.0225218488654,0.4008733668664207,1.3181075908216007,0.9713843218700182,0.2874987666584046,0.6773200276201438
0.046,1.7721597676316778,1.0,3101.1724059703733,0.40423400165197004,1.317901759698782,0.9718280027304333,0.28748371024053043,0.6777374718763323
0.0465,1.7718012814918167,1.0,3106.1955763322244,0.4075757840857367,1.317697044713137,0.9722588822025867,0.2874686538226563,0.6781523845042696
0.047,1.7714427953519556,1.0,3111.097084755063,0.4108988190093705,1.3174934001473506,0.972677457952923,0.28745359740478216,0.6785648624453899
0.0475,1.7710843092120945,1.0,3115.882007829009,0.4142032112645212,1.3172907802841076,0.9730842034042905,0.28743854098690796,0.6789750023810655
0.048,1.7707258230722331,1.0,3120.555445851759,0.4174890656928388,1.3170891394060933,0.9734795691432627,0.28742348456903377,0.6793829007356605
0.0485,1.770367336932372,1.0,3125.122521813058,0.420756487135973,1.3168884317959924,0.9738639842331333,0.28740842815115963,0.6797886536794537
0.049,1.770008850792511,1.0,3129.5883804254813,0.42400558043557374,1.3166886117364902,0.9742378574397177,0.28739337173328544,0.680192357131424
0.0495,1.7696503646526498,1.0,3133.958187201796,0.4272364504332907,1.3164896335102716,0.9746015783765032,0.2873783153154113,0.6805941067619068
0.05,1.7692918785127887,1.0,3138.2316495461405,0.4304491776916468,1.3162914978375675,0.9749555188400293,0.2873632588975371,0.6809939043229211
0.0505,1.7689333923729276,1.0,3142.4171939116577,0.4336438871228509,1.316094131613979,0.9753000338020933,0.287348202479663,0.6813919003801167
0.051000000000000004,1.7685749062330665,1.0,3146.5207921013925,0.4368206915230138,1.3158974827461045,0.9756354620086741,0.2873331460617888,0.681788202789141
0.051500000000000004,1.7682164200932053,1.0,3150.5448508338545,0.4399796870317853,1.3157015294690753,0.9759621270115901,0.2873180896439146,0.6821828580704292
0.052000000000000005,1.7678579339533442,1.0,3154.491786687914,0.4431209697888153,1.3155062500180223,0.9762803379203369,0.28730303322604045,0.6825759126261645
0.0525,1.7674994478134831,1.0,3158.3640257718303,0.44624463593375374,1.315311622628077,0.9765903901720311,0.2872879768081663,0.6829674127412282
0.053,1.767140961673622,1.0,3162.164003403899,0.44935078160625047,1.3151176255343697,0.976892566253878,0.2872729203902921,0.6833574045841223
0.0535,1.7667824755337609,1.0,3165.8941638028755,0.45243950294595536,1.314924236972032,0.9771871363814681,0.2872578639724179,0.6837459342078553
0.054,1.7664239893938998,1.0,3169.556959789028,0.45551089609251827,1.3147314351761947,0.97747435913597,0.2872428075545438,0.684133047550806
0.0545,1.7660655032540387,1.0,3173.1548524955674,0.4585650571855891,1.314539198381989,0.9777544820630234,0.28722775113666965,0.6845187904375504
0.055,1.7657070171141775,1.0,3176.690311090989,0.4616020823648177,1.3143475048245459,0.97802774223595,0.28721269471879546,0.6849032085796624
0.0555,1.7653485309743164,1.0,3180.1658125117874,0.464622067769854,1.3141563327389962,0.978294366785682,0.28719763830092127,0.685286347576483
0.056,1.7649900448344553,1.0,3183.5838412052076,0.46762510954034786,1.3139656603604715,0.9785545733996363,0.2871825818830471,0.685668252915858
0.0565,1.7646315586945942,1.0,3186.9468888829974,0.4706113038159491,1.3137754659241023,0.9788085707915947,0.28716752546517293,0.6860489699748485
0.057,1.764273072554733,1.0,3190.257454285839,0.4735807467363077,1.3135857276650198,0.9790565591445024,0.2871524690472988,0.6864285440204083
0.0575,1.763914586414872,1.0,3193.51804295722,0.47653353444107344,1.3133964238183553,0.9792987305279466,0.2871374126294246,0.6868070202100314
0.058,1.7635561002750106,1.0,3196.7311670294744,0.47946976306989625,1.3132075326192394,0.9795352692919598,0.28712235621155047,0.6871844435923727
0.0585,1.7631976141351495,1.0,3199.8953127740856,0.4823894907725357,1.3130190661533911,0.9797663511130457,0.2871072997936763,0.6875607915320757
0.059000000000000004,1.7628391279952884,1.0,3203.0158681121425,0.4852928516884284,1.312830978581528,0.9799921478986848,0.2870922433758021,0.6879361570144247
0.059500000000000004,1.7624806418554273,1.0,3206.094983531839,0.48817994370935974,1.312643251314234,0.980212823271438,0.28707718695792794,0.6883105784683184
0.06,1.7621221557155662,1.0,3209.1337427844596,0.4910508537282646,1.3124558747476156,0.9804285340889222,0.2870621305400538,0.6886840763255815
0.0605,1.761763669575705,1.0,3212.1332326247466,0.493905668638078,1.3122688392777793,0.980639431175085,0.2870470741221796,0.6890566709697337
0.061,1.761405183435844,1.0,3215.0945427371735,0.4967444753317347,1.3120821353008316,0.9808456595985022,0.2870320177043054,0.6894283827362035
0.0615,1.7610466972959828,1.0,3218.0187656643384,0.49956736070216967,1.3118957532128792,0.9810473589357867,0.2870169612864313,0.6897992319125343
0.062,1.7606882111561217,1.0,3220.906996737328,0.5023744116423178,1.3117096834100288,0.9812446635210164,0.2870019048685571,0.6901692387385829
0.0625,1.7603297250162606,1.0,3223.7603340084866,0.505165715045114,1.3115239162883865,0.9814377026820181,0.28698684845068295,0.6905384234067168
0.063,1.7599712388763995,1.0,3226.579878185369,0.5079413578034931,1.311338442244059,0.9816266009642977,0.28697179203280876,0.6909068060619985
0.0635,1.7596127527365384,1.0,3229.366732568102,0.5107014268103902,1.311153251673153,0.9818114783433454,0.2869567356149346,0.6912744068023708
0.064,1.7592542665966773,1.0,3232.1220029870683,0.5134460089587399,1.310968334971775,0.9819924504260046,0.28694167919706043,0.691641245678833
0.0645,1.7588957804568162,1.0,3234.846797744641,0.5161751911414774,1.310783682536031,0.9821696286415413,0.2869266227791863,0.6920073426956106
0.065,1.758537294316955,1.0,3237.542227556822,0.5188890602515372,1.3105992847620285,0.982343120423012,0.2869115663613121,0.6923727178103201
0.0655,1.758178808177094,1.0,3240.209405498774,0.5215877031818547,1.3104151320458735,0.9825130293794917,0.28689650994343796,0.6927373909341293
0.066,1.7578203220372328,1.0,3242.849446951191,0.5242712068253644,1.3102312147836723,0.9826794554596805,0.28688145352556377,0.6931013819319101
0.0665,1.7574618358973717,1.0,3245.4634695493564,0.5269396580750014,1.3100475233715319,0.9828424951073854,0.2868663971076896,0.6934647106223834
0.067,1.7571033497575106,1.0,3248.052593134063,0.5295931438237007,1.3098640482055586,0.9830022414093282,0.28685134068981544,0.693827396778263
0.0675,1.7567448636176495,1.0,3250.6177786422722,0.5322317470676572,1.3096807810233797,0.9831587840534277,0.2868362842719413,0.69418945747688
0.068,1.7563863774777881,1.0,3253.157198352508,0.5348554894696742,1.3094977367964031,0.9833122069238597,0.2868212278540671,0.6945508638963788
0.0685,1.756027891337927,1.0,3255.6750551267255,0.5374645424308827,1.3093148802842394,0.9834625979784716,0.2868061714361929,0.6949116863352891
0.069,1.755669405198066,1.0,3258.1718056192917,0.540058983110123,1.3091322074700058,0.9836100378343893,0.2867911150183188,0.695271933369647
0.0695,1.7553109190582048,1.0,3260.647907452384,0.5426388886662353,1.3089497143368187,0.9837546044145342,0.2867760586004446,0.6956316135561165
