Time [s],Phi [rad],STIM [ ],Fsee [N],Gamma [ ],Lcerel [ ],q [ ],Lmtc [m],fisomrel [ ]
0.0,1.8,1.0,18.09019757265728,0.0003558587927907951,1.3793259852102664,0.005032810325175621,0.288653,0.5411728218885867
0.0005,1.79999375,1.0,18.51021280968497,0.0059630720152273,1.3792765362609152,0.013928528797235783,0.2886527375,0.5412924395469474
0.001,1.799975,1.0,22.108503288372667,0.011538833204802097,1.3788885239484114,0.03743358598830486,0.28865195,0.5422305051664351
0.0015,1.79994375,1.0,32.119480286102295,0.017083318783558246,1.3779574701633108,0.07308497352611268,0.2886506375,0.54447752151706
0.002,1.7999,1.0,55.74397009989139,0.02259670418167398,1.3762292858290026,0.11764923941532017,0.2886488,0.5486336877697662
0.0025,1.79984375,1.0,100.66811124049099,0.0280791638467599,1.3737656756613397,0.1677577252084055,0.28864643749999996,0.5545255730147394
0.003,1.7997750000000001,1.0,165.52245201557793,0.03353087124893224,1.371044692508783,0.22056011075172394,0.28864354999999997,0.5609879979625725
0.0035,1.79969375,1.0,242.81084873395835,0.038951998882728024,1.368427635885439,0.27387213868999394,0.2886401375,0.5671590469255943
0.004,1.7996,1.0,326.9047063848351,0.04434271827701574,1.3660126662729604,0.3260697054927091,0.2886362,0.5728148218359648
0.0045000000000000005,1.7994937500000001,1.0,414.88740063799725,0.04970320000051483,1.3637913493113738,0.37602704022208433,0.2886317375,0.5779842288463329
0.005,1.799375,1.0,505.13819871610013,0.0550336136530743,1.3617370396906057,0.4230462976061325,0.28862675,0.5827369710327717
0.0055,1.79924375,1.0,596.5597345142138,0.060334127904616466,1.359826390417716,0.4667643836495569,0.2886212375,0.5871331911956553
0.006,1.7991000000000001,1.0,688.2873005361414,0.06560491046188867,1.3580417668658569,0.507060423695912,0.2886152,0.5912184093736461
0.006500000000000001,1.79894375,1.0,779.6102173336182,0.0708461280786687,1.3563696368487097,0.5439770955711806,0.2886086375,0.5950276847331595
0.007,1.798775,1.0,869.9435233088993,0.07605794665787671,1.3547991538918256,0.5776599680111042,0.28860155,0.5985891594312649
0.0075,1.79859375,1.0,958.7981906805215,0.0812405309427167,1.3533214620454654,0.6083136204672682,0.2885939375,0.6019258432973684
0.008,1.7984,1.0,1045.8001888965134,0.0863940451994503,1.3519286322652002,0.6361708821986988,0.2885858,0.605058156224316
0.0085,1.79819375,1.0,1130.6295803502471,0.09151865223567913,1.3506140842907215,0.6614731414519688,0.2885771375,0.6080030736510805
0.009000000000000001,1.797975,1.0,1213.0422403235582,0.09661451409407483,1.3493718495327112,0.684457305010186,0.28856795,0.6107758633740199
0.0095,1.79774375,1.0,1292.8805617032463,0.10168179252691455,1.3481961783082856,0.7053481438781635,0.2885582375,0.6133910121540325
0.01,1.7975,1.0,1370.0068529965456,0.10672064746541379,1.347082235752805,0.7243547054804239,0.288548,0.6158607194669463
0.0105,1.79724375,1.0,1444.3315764122872,0.11173123822501509,1.3460255191201425,0.7416682809449475,0.2885372375,0.6181962376200125
0.011,1.796975,1.0,1515.817782597221,0.11671372344124077,1.345021679108005,0.7574620603259934,0.28852595000000003,0.620408293831291
0.0115,1.79669375,1.0,1584.4578214651583,0.12166826135012214,1.3440667086897433,0.771891839461273,0.2885141375,0.6225066963373957
0.012,1.7964,1.0,1650.2361927713296,0.12659500794803025,1.3431572793710298,0.7850972447360924,0.28850180000000003,0.6244996224957686
0.0125,1.79609375,1.0,1713.1776440970734,0.13149411917937978,1.342290072854275,0.7972027466472408,0.2884889375,0.6263951084994104
0.013000000000000001,1.7957750000000001,1.0,1773.328891229359,0.1363657499392477,1.3414619450918142,0.8083191531976074,0.28847555,0.6282007017031725
0.0135,1.79544375,1.0,1830.7640676993985,0.14121005578180376,1.3406698142908586,0.8185449689604544,0.2884616375,0.6299237169356884
0.014,1.7951000000000001,1.0,1885.5221477550165,0.14602718873209125,1.3399113078153846,0.827967962617828,0.2884472,0.6315698431735806
0.0145,1.79474375,1.0,1937.6654823077113,0.15081730081515335,1.3391840530293677,0.836666109591379,0.2884322375,0.633144700799015
0.015,1.794375,1.0,1987.2765184745099,0.1555805439479976,1.3384856909012626,0.8447087274309224,0.28841675,0.6346538171399712
0.0155,1.79399375,1.0,2034.4387523870296,0.1603170687477469,1.3378140559696663,0.8521575475061147,0.2884007375,0.636102243588403
0.016,1.7936,1.0,2079.251865712549,0.16502702674433103,1.3371669900436818,0.8590675512803502,0.2883842,0.6374949643650631
0.0165,1.7931937500000001,1.0,2121.779938840638,0.1697105655416346,1.336542860241346,0.8654879212615719,0.2883671375,0.6388357883309115
0.017,1.792775,1.0,2162.099079920784,0.17436783274354226,1.3359400336806968,0.8714625694546647,0.28834955,0.6401284877889424
0.0175,1.7923437500000001,1.0,2200.2964196788835,0.17899897595393868,1.3353568774797715,0.877030760237742,0.2883314375,0.6413768007876834
0.018000000000000002,1.7919,1.0,2236.4562732015706,0.1836041414400423,1.3347918882154899,0.8822276904507378,0.2883128,0.6425841568402644
0.0185,1.79144375,1.0,2270.677217858151,0.18818347695257284,1.3342435079927548,0.88708491702148,0.2882936375,0.6437540732292643
0.019,1.790975,1.0,2303.033653639465,0.19273712674884966,1.3337104991373312,0.8916308687887343,0.28827395,0.644889358308397
0.0195,1.79049375,1.0,2333.594771851722,0.1972652337469597,1.3331917398981283,0.8958911531314733,0.2882537375,0.6459925524989094
0.02,1.79,1.0,2362.4354968526413,0.20176794086498992,1.3326861085240551,0.8998888485690903,0.288233,0.6470661772803592
0.0205,1.78949375,1.0,2389.636005199122,0.2062453910210273,1.3321924832640208,0.90364478856207,0.2882117375,0.6481127361699084
0.021,1.788975,1.0,2415.2680037022383,0.21069772523535482,1.3317098705828878,0.9071778373445644,0.28818995000000003,0.6491344443810071
0.021500000000000002,1.78844375,1.0,2439.4182373418935,0.21512508715952622,1.3312371718665164,0.9105050579716228,0.2881676375,0.6501337244064793
0.022,1.7879,1.0,2462.1496305741894,0.21952761611164398,1.3307735543392927,0.9136419799004579,0.2881448,0.6511124226713999
0.0225,1.78734375,1.0,2483.5194979264193,0.2239054500308583,1.3303182683077963,0.9166027259151082,0.28812143749999997,0.6520721990501872
0.023,1.786775,1.0,2503.5878578258657,0.22825872685631932,1.3298705640786066,0.9194001445250045,0.28809755,0.6530147032986668
0.0235,1.78619375,1.0,2522.4172065124485,0.2325875845271772,1.3294296919583026,0.922045942572418,0.28807313749999996,0.6539415754344957
0.024,1.7856,1.0,2540.0691297823705,0.23689216040392047,1.3289949321663108,0.924550807603989,0.2880482,0.6548543833191471
0.0245,1.78499375,1.0,2556.597845842221,0.241172590251767,1.3285656531061558,0.926924520750046,0.2880227375,0.6557545012720832
0.025,1.784375,1.0,2572.078169763112,0.2454290130114319,1.3281410464840873,0.9291760034522792,0.28799675,0.656643665855638
0.025500000000000002,1.78374375,1.0,2586.552785498431,0.24966156132284842,1.3277206207142473,0.9313134814825516,0.2879702375,0.6575229424702438
0.026000000000000002,1.7831000000000001,1.0,2600.065631219389,0.25387036782594974,1.3273038842107778,0.9333445020974926,0.2879432,0.6583933908818168
0.0265,1.78244375,1.0,2612.661794898083,0.258055565160669,1.3268903453878207,0.9352759991613456,0.2879156375,0.6592560653451254
0.027,1.781775,1.0,2624.387415248773,0.26221728596693955,1.3264795126595184,0.9371143512249033,0.28788755,0.6601120147117455
0.0275,1.7810937500000001,1.0,2635.2895880269302,0.2663556628846945,1.3260708944400126,0.9388654333979668,0.2878589375,0.660962282522609
0.028,1.7804,1.0,2645.410217142775,0.27047082488928054,1.325664055100155,0.9405346704863329,0.2878298,0.6618077908664642
0.0285,1.77969375,1.0,2654.7976492146454,0.27456290716113435,1.3252585064761748,0.9421270661289342,0.2878001375,0.6626495662145668
0.029,1.778975,1.0,2663.485377528591,0.2786320375078271,1.3248539036152032,0.9436472628642704,0.28776995,0.6634883332460596
0.029500000000000002,1.7782437500000001,1.0,2671.5063500532638,0.28267834309619594,1.3244499115731643,0.9450995579902481,0.2877392375,0.6643247923474678
0.03,1.7775,1.0,2678.8940036909385,0.28670195109307783,1.3240461954059821,0.9464879326101696,0.287708,0.6651596404429466
0.0305,1.77674375,1.0,2685.6822190633948,0.2907029886653099,1.3236424201695807,0.9478160789108466,0.2876762375,0.6659935710037519
0.031,1.775975,1.0,2691.905277784516,0.2946815829797293,1.3232382509198841,0.9490874247650855,0.28764395,0.666827274050555
0.0315,1.7751937500000001,1.0,2697.5931871740745,0.29863785783595154,1.3228333950920448,0.950305160175458,0.2876111375,0.667661348894591
0.032,1.7744,1.0,2702.773074667721,0.30257193694673745,1.3224275892149644,0.9514722563453198,0.2875778,0.6684963319930682
0.0325,1.77359375,1.0,2707.486618725889,0.306483956720248,1.3220204394165933,0.9525914682319817,0.2875439375,0.6693330248658934
0.033,1.772775,1.0,2711.7540448305385,0.31037403751285947,1.3216117500257145,0.9536653823458354,0.28750955,0.6701718183845577
0.0335,1.7719437500000002,1.0,2715.595761784449,0.3142422996809482,1.3212013253711117,0.9546964117717858,0.2874746375,0.6710131013387794
0.034,1.7711000000000001,1.0,2719.0323443243005,0.31808886358089045,1.3207889697815676,0.9556868098615164,0.2874392,0.6718572604160732
0.0345,1.7702437500000001,1.0,2722.084516582507,0.32191384956906255,1.3203744875858658,0.956638682690803,0.2874032375,0.6727046801788709
0.035,1.7693750000000001,1.0,2724.7731363984312,0.32571737800184086,1.31995768311279,0.9575540004062287,0.28736675,0.6735557430392076
0.035500000000000004,1.76849375,1.0,2727.1191804780574,0.3294995692356016,1.3195383606911226,0.9584346075719307,0.2873297375,0.6744108292309632
0.036000000000000004,1.7676,1.0,2729.1437304026113,0.3332605436267211,1.3191163246496476,0.9592822326148968,0.2872922,0.675270316779658
0.0365,1.76669375,1.0,2730.8679594863343,0.33700042153157567,1.318691379317148,0.9600984964566681,0.2872541375,0.6761345814698141
0.037,1.765775,1.0,2732.313063579746,0.3407193232249819,1.318263329539366,0.9608849204434416,0.28721555,0.6770039957605769
0.0375,1.76484375,1.0,2733.4903030341,0.34441735652076655,1.3178320710231017,0.9616429397660371,0.2871764375,0.6778787456287182
0.038,1.7639,1.0,2734.4257562139283,0.3480946550855069,1.317397365365051,0.9623738960134388,0.28713679999999997,0.6787592871789678
0.0385,1.76294375,1.0,2735.130746384229,0.35175133185670737,1.3169591086190322,0.9630790596056474,0.28709663750000003,0.6796458018604227
0.039,1.761975,1.0,2735.616632868164,0.35538749977187223,1.3165171968388636,0.9637596264653769,0.28705595,0.6805384697234313
0.0395,1.7609937500000001,1.0,2735.894806341103,0.35900327176850577,1.316071526078364,0.9644167231863674,0.2870147375,0.6814374693957082
0.04,1.76,1.0,2735.976684363775,0.36259876078411224,1.3156219923913515,0.9650514117899188,0.286973,0.6823429780577605
0.0405,1.7589937500000001,1.0,2735.873707154937,0.3661740797561961,1.3151684918316449,0.9656646941064828,0.2869307375,0.6832551714176225
0.041,1.757975,1.0,2735.5973336039388,0.36972934162226145,1.3147109204530623,0.9662575158155041,0.28688795,0.6841742236849053
0.0415,1.75694375,1.0,2735.1590375224096,0.37326465931981273,1.3142491743094227,0.9668307701734632,0.2868446375,0.6851003075441521
0.042,1.7559,1.0,2734.5703041359766,0.3767801457863542,1.313783149454544,0.9673853014571718,0.28680079999999997,0.6860335941275106
0.0425,1.75484375,1.0,2733.842626815298,0.3802759139593902,1.313312741942245,0.9679219081467714,0.2867564375,0.6869742529867098
0.043000000000000003,1.753775,1.0,2732.9786218764502,0.3837520600364491,1.312837928510448,0.9684413497718142,0.28671155,0.6879222910883033
0.043500000000000004,1.75269375,1.0,2731.995223222383,0.3872087112198849,1.3123585558941675,0.9689443399919013,0.28666613750000003,0.6888779737235659
0.044,1.7516,1.0,2730.9041293585065,0.39064598452441984,1.3118745183720564,0.9694315571050492,0.2866202,0.6898414693564984
0.0445,1.75049375,1.0,2729.7108312502032,0.3940639847518178,1.311385766622759,0.9699036466891279,0.2865737375,0.6908128327320046
0.045,1.7493750000000001,1.0,2728.4208210923834,0.3974628167038426,1.3108922513249195,0.9703612211159025,0.28652675,0.6917921175577906
0.0455,1.74824375,1.0,2727.039591318479,0.40084258518225796,1.3103939231571824,0.9708048615785254,0.2864792375,0.6927793764894552
0.046,1.7471,1.0,2725.572633663544,0.4042033949888277,1.3098907327981921,0.9712351199763136,0.2864312,0.6937746611154321
0.0465,1.7459437500000001,1.0,2724.0254382810162,0.40754535092531563,1.3093826309265928,0.9716525206681275,0.28638263750000004,0.694778021941772
0.047,1.744775,1.0,2722.403492913257,0.4108685577934855,1.308869568221029,0.9720575621046822,0.28633355,0.6957895083767702
0.0475,1.74359375,1.0,2720.712282116746,0.4141731203951012,1.308351495360145,0.972450718349217,0.28628393750000003,0.6968091687154416
0.048,1.7424,1.0,2718.9572865401205,0.41745914353192637,1.307828363022585,0.9728324404951344,0.2862338,0.6978370501238379
0.0485,1.74119375,1.0,2717.1439822574084,0.4207267320057249,1.3073001218869935,0.9732031579884839,0.2861831375,0.6988731986232108
0.049,1.739975,1.0,2715.2778401537394,0.42397599061826063,1.3067667226320152,0.9735632798625016,0.28613195,0.6999176590740186
0.0495,1.73874375,1.0,2713.3643253664436,0.42720702417129724,1.3062281159362938,0.9739131958908035,0.2860802375,0.7009704751597825
0.05,1.7375,1.0,2711.40873835331,0.4304199362533366,1.3056842539233025,0.9742532776212715,0.286028,0.7020316865540623
0.0505,1.73624375,1.0,2709.413589991336,0.4336148080284524,1.3051351141075065,0.9745838785639593,0.2859752375,0.7031012823297162
0.051000000000000004,1.734975,1.0,2707.3867176199556,0.4367917728705588,1.304580625365912,0.9749053387669203,0.28592195,0.7041793451904017
0.051500000000000004,1.73369375,1.0,2705.330294915347,0.4399509271523067,1.304020768185285,0.975217982033558,0.2858681375,0.7052658562245832
0.052000000000000005,1.7324,1.0,2703.2464928390204,0.4430923672463471,1.3034555230523908,0.9755221176318936,0.2858138,0.7063607956919641
0.0525,1.73109375,1.0,2701.1374795228066,0.44621618952533104,1.302884870453995,0.9758180410708944,0.28575893750000003,0.7074641430167942
0.053,1.729775,1.0,2699.005420161343,0.4493224903619096,1.3023087908768634,0.9761060348288493,0.28570355000000003,0.7085758767811509
0.0535,1.72844375,1.0,2696.8524769137193,0.4524113661287337,1.3017272648077616,0.9763863690371323,0.2856476375,0.7096959747181981
0.054,1.7271,1.0,2694.680808813339,0.45548291319845446,1.3011402727334551,0.9766593021224518,0.2855912,0.7108244137054218
0.0545,1.7257437500000001,1.0,2692.4925716860225,0.45853722794372287,1.3005477951407096,0.9769250814104263,0.2855342375,0.7119611697578381
0.055,1.724375,1.0,2690.289918076721,0.46157440673718997,1.2999498125162907,0.9771839436931288,0.28547675,0.71310621802118
0.0555,1.72299375,1.0,2688.0749971847986,0.4645945459515068,1.299346305346964,0.9774361157630296,0.2854187375,0.7142595327650579
0.056,1.7216,1.0,2685.8499548075006,0.4675977419593243,1.2987372541194953,0.9776818149155884,0.2853602,0.7154210873760973
0.0565,1.72019375,1.0,2683.6169332920854,0.4705840911332935,1.29812263932065,0.97792124942258,0.28530113749999997,0.7165908543510512
0.057,1.718775,1.0,2681.3780714964696,0.47355368984606555,1.2975024414371936,0.9781546189780822,0.28524155,0.717768805289889
0.0575,1.71734375,1.0,2679.1355047576603,0.4765066344702914,1.296876640955892,0.9783821151189136,0.2851814375,0.7189549108888595
0.058,1.7159,1.0,2676.891604751038,0.4794430168856522,1.2962452161617564,0.9786039211064093,0.2851208,0.720149145093349
0.0585,1.71444375,1.0,2674.6484092651453,0.482362930390724,1.2956081483693078,0.978820213135274,0.2850596375,0.7213514751838945
0.059000000000000004,1.7129750000000001,1.0,2672.4064973412674,0.48526646614958613,1.2949654322620758,0.9790311609389805,0.28499795,0.7225618423802511
0.059500000000000004,1.71149375,1.0,2670.1664210467306,0.4881537150943096,1.2943170627625613,0.9792369275417276,0.2849357375,0.7237801867564367
0.06,1.71,1.0,2667.9287315223028,0.4910247681569654,1.2936630347932645,0.9794376695805498,0.284873,0.7250064476913582
0.0605,1.7084937500000001,1.0,2665.693978983529,0.49387971626962457,1.293003343276686,0.9796335376033032,0.2848097375,0.7262405638669784
0.061,1.7069750000000001,1.0,2663.462712722457,0.49671865036435814,1.2923379831353263,0.9798246763505254,0.28474595,0.7274824732664849
0.0615,1.7054437500000001,1.0,2661.236486998033,0.4995416605679217,1.2916669400320189,0.9800112244702001,0.2846816375,0.728732130396552
0.062,1.7039,1.0,2659.0138969752866,0.5023488363697125,1.2909902268568811,0.9801933167192178,0.2846168,0.7299894383730257
0.0625,1.70234375,1.0,2656.797457242918,0.5051402660546587,1.2903078204113836,0.9803710808142028,0.2845514375,0.7312543667346679
0.063,1.7007750000000001,1.0,2654.590119337034,0.5079160377815558,1.2896196934310542,0.9805446394730157,0.28448555,0.732526891507979
0.0635,1.69919375,1.0,2652.3926457908096,0.5106762394840756,1.288925838790699,0.9807141118652867,0.28441913750000003,0.7338069505073055
0.064,1.6976,1.0,2650.206766865788,0.5134209589545743,1.2882262404268,0.9808796123058238,0.2843522,0.7350944972239558
0.0645,1.69599375,1.0,2648.032415330004,0.5161502828658956,1.287520898837835,0.981041251677412,0.2842847375,0.7363894538631487
0.065,1.694375,1.0,2645.8644595466917,0.5188642972010132,1.2868098612790937,0.9811991391227326,0.28421675,0.7376916564829944
0.0655,1.6927458120221883,1.0,2643.7986045741436,0.5215630879429008,1.2860931750058646,0.9813533798658524,0.2841483241049319,0.7390009413745655
0.066,1.6911154918936853,1.0,2642.271886876027,0.5242467405351485,1.285371003851936,0.9815040810734219,0.2840798506595348,0.74031693290988
0.0665,1.689485171765182,1.0,2641.2869040483884,0.5269153403756005,1.2846438307981247,0.9816513617231659,0.2840113772141376,0.7416386785349762
0.067,1.6878548516366787,1.0,2640.8028073838277,0.5295689713629204,1.2839120305283243,0.9817953314038417,0.2839429037687405,0.7429654302336859
0.0675,1.6862245315081754,1.0,2640.779193588475,0.5322077173579607,1.2831759751376857,0.9819360958685444,0.28387443032334336,0.7442964512271073
0.068,1.6845942113796721,1.0,2641.183987559306,0.5348316602561551,1.2824359609531661,0.9820737535806191,0.28380595687794624,0.7456311478331047
0.0685,1.6829638912511689,1.0,2641.9705612924945,0.5374408858528669,1.2816924196774204,0.9822084063927189,0.2837374834325491,0.7469686884447706
0.069,1.6813335711226656,1.0,2643.1028751509584,0.5400354778729409,1.280945685781892,0.9823401481162259,0.28366900998715194,0.7483084235986686
0.0695,1.6797032509941623,1.0,2644.557887446229,0.5426155169506683,1.2801959740945819,0.9824690637129692,0.2836005365417548,0.7496499237920549
0.07,1.678072930865659,1.0,2646.3125928061086,0.54518108372034,1.279443499443492,0.9825952353742541,0.2835320630963577,0.7509927634527267
0.07050000000000001,1.6764426107371557,1.0,2648.3440085032116,0.547732258816247,1.278688476656624,0.9827187426356166,0.2834635896509605,0.7523365209783494
0.07100000000000001,1.6748122906086524,1.0,2650.6291618064497,0.5502691228726801,1.277931120561979,0.9828396624861323,0.2833951162055634,0.7536807787728402
0.07150000000000001,1.6731819704801492,1.0,2653.1450783554023,0.5527917565239306,1.2771716459875586,0.982958069472571,0.2833266427601663,0.7550251232798071
0.07200000000000001,1.6715516503516459,1.0,2655.8687715584115,0.5553002404042894,1.2764102677613645,0.9830740357986754,0.2832581693147691,0.7563691450130446
0.0725,1.6699213302231428,1.0,2658.7868284775886,0.5577946512246306,1.27564711233995,0.98318762720875,0.283189695869372,0.7577125939370122
0.073,1.6682910100946395,1.0,2661.873056230948,0.5602750731467396,1.2748824237363372,0.9832989130917485,0.28312122242397486,0.7590550163291989
0.0735,1.6666606899661363,1.0,2665.1143691244356,0.562741583883922,1.2741163249881284,0.9834079549662523,0.28305274897857774,0.7603961746651874
0.074,1.665030369837633,1.0,2668.4999924281497,0.5651942600433618,1.273348917718193,0.9835148114512638,0.28298427553318056,0.7617358711170045
0.0745,1.6634000497091297,1.0,2672.0191353543114,0.5676331782322432,1.2725803035493999,0.9836195393744219,0.28291580208778344,0.7630739098115977
