Time [s],Phi [rad],STIM [ ],Fsee [N],Gamma [ ],Lcerel [ ],q [ ],Lmtc [m],fisomrel [ ]
0.0,1.8,1.0,19.153790384850804,0.0011120912840395295,1.3792089291328402,0.005317378447868218,0.288653,0.5414559568428718
0.0005,1.79999375,1.0,19.78352241294489,0.006715062640193326,1.3791383284552239,0.016280879912972227,0.2886527375,0.5416266833424068
0.001,1.799975,1.0,23.947137842506717,0.012286605757212332,1.3787065358656436,0.0415800192421493,0.28865195,0.5426701520811352
0.0015,1.79994375,1.0,35.28052029840762,0.017826896922765748,1.377698814539303,0.07862461088823085,0.2886506375,0.5451007828303738
0.002,1.7999,1.0,61.46214030484506,0.023336111435316758,1.3758744612825489,0.12412256325617524,0.2886488,0.5494846599348013
0.0025,1.79984375,1.0,109.36718294266102,0.028814423611164697,1.3733624739846835,0.1747446456815357,0.28864643749999996,0.5554861703445044
0.003,1.7997750000000001,1.0,176.27943678138232,0.03426200678663106,1.370653888069278,0.2277316309383443,0.28864354999999997,0.5619122935558901
0.0035,1.79969375,1.0,254.6608037631989,0.039679033327797056,1.368070802304433,0.28097920524460457,0.2886401375,0.567997080647229
0.004,1.7996,1.0,339.33607928718027,0.04506567463203751,1.3656892031576071,0.33293292424083454,0.2886362,0.5735695366516402
0.0045000000000000005,1.7994937500000001,1.0,427.64115036292696,0.050422101126153286,1.3634962553018766,0.38252931806376744,0.2886317375,0.5786685981553348
0.005,1.799375,1.0,518.0684173482786,0.05574848233511952,1.361465561313657,0.4291210228878043,0.28862675,0.5833630356639121
0.0055,1.79924375,1.0,609.5448573264576,0.061044986754506196,1.3595752814373252,0.4723829265634274,0.2886212375,0.5877092378165446
0.006,1.7991000000000001,1.0,701.221631573417,0.06631178192300648,1.357808732280644,0.5122204262849901,0.2886152,0.5917503542848164
0.006500000000000001,1.79894375,1.0,792.4248546496449,0.07154903458866042,1.356152576154827,0.548692965770283,0.2886086375,0.5955208625582914
0.007,1.798775,1.0,882.5649767859946,0.07675691032522083,1.3545966727897465,0.5819564996117698,0.28860155,0.5990471927501323
0.0075,1.79859375,1.0,971.188216325727,0.08193557414645952,1.3531320534457316,0.6122207425819169,0.2885939375,0.6023525281543398
0.008,1.7984,1.0,1057.8997428842956,0.08708518963811235,1.3517514657523766,0.6397209468151257,0.2885858,0.6054556962406079
0.0085,1.79819375,1.0,1142.4085054255017,0.09220591980320739,1.350448161464469,0.664698343335955,0.2885771375,0.6083739991268287
0.009000000000000001,1.797975,1.0,1224.493165136695,0.09729792696488798,1.3492160849662176,0.6873884914471342,0.28856795,0.6111228507680724
0.0095,1.79774375,1.0,1303.9678114830406,0.10236137179002146,1.3480500602471261,0.708014474130565,0.2885582375,0.6137154195215939
0.01,1.7975,1.0,1380.7112325336154,0.10739641438911594,1.3469451659917464,0.7267829356461929,0.288548,0.616164068223723
0.0105,1.79724375,1.0,1454.6699836859323,0.11240321501017815,1.3458965658147568,0.7438825519513254,0.2885372375,0.6184807581554771
0.011,1.796975,1.0,1525.7852137137095,0.11738193143708664,1.344900302516297,0.7594843079061148,0.28852595000000003,0.6206753231000215
0.0115,1.79669375,1.0,1594.0318211270387,0.12233272079753678,1.3439526611618364,0.773741845006826,0.2885141375,0.6227569096928921
0.012,1.7964,1.0,1659.4245427042183,0.12725573987293415,1.343050016706251,0.7867925327215994,0.28850180000000003,0.6247343304778092
0.0125,1.79609375,1.0,1722.0060695584837,0.1321511451986906,1.342188912345475,0.7987588621587642,0.2884889375,0.6266159064662652
0.013000000000000001,1.7957750000000001,1.0,1781.8127916889127,0.1370190914726856,1.3413663864886611,0.8097499897497223,0.28847555,0.6284087696928382
0.0135,1.79544375,1.0,1838.883317059575,0.14185973202656568,1.3405798010592314,0.8198630370704555,0.2884616375,0.6301192573675205
0.014,1.7951000000000001,1.0,1893.2831613202377,0.14667322019197732,1.3398265179806081,0.8291842793440253,0.2884472,0.6317536277971154
0.0145,1.79474375,1.0,1945.085473138857,0.15145970814412393,1.339104081357539,0.8377904359447204,0.2884322375,0.6333176722151135
0.015,1.794375,1.0,1994.3879952225102,0.1562193487742593,1.338410002381613,0.8457497015563267,0.28841675,0.6348171884186119
0.0155,1.79399375,1.0,2041.2510769963849,0.16095229149745674,1.3377423925878524,0.8531229480592587,0.2884007375,0.6362566206920695
0.016,1.7936,1.0,2085.748579383509,0.16565868560315472,1.3370993835039156,0.8599643989588892,0.2883842,0.6376403241112247
0.0165,1.7931937500000001,1.0,2127.968414963947,0.1703386803807918,1.3364791066574602,0.8663224114993955,0.2883671375,0.6389726109151708
0.017,1.792775,1.0,2167.99338861292,0.17499242349160635,1.3358798765979079,0.872240223177292,0.28834955,0.6402573612773412
0.0175,1.7923437500000001,1.0,2205.9307307762147,0.1796200643123743,1.3352998728871528,0.877756467919659,0.2883314375,0.641498709317153
0.018000000000000002,1.7919,1.0,2241.8477115134156,0.18422174782668288,1.3347377816072845,0.882905885675947,0.2883128,0.6426996733566133
0.0185,1.79144375,1.0,2275.818412982789,0.18879761890622776,1.3341923011330432,0.8877196443462968,0.2882936375,0.643863220227683
0.019,1.790975,1.0,2307.924262474503,0.19334782242270473,1.3336621298391695,0.8922257496407859,0.28827395,0.6449922930841492
0.0195,1.79049375,1.0,2338.2462799529667,0.19787250228793868,1.333146036111647,0.8964494233290256,0.2882537375,0.6460896639767131
0.02,1.79,1.0,2366.8715606483797,0.20237180303402158,1.3326427872270323,0.9004134025458757,0.288233,0.6471580870721662
0.0205,1.78949375,1.0,2393.8777760858966,0.20684586756776388,1.3321512947512448,0.9041382492855093,0.2882117375,0.6481999916934684
0.021,1.788975,1.0,2419.326875513096,0.21129483600316296,1.3316706668243399,0.9076426003236346,0.28818995000000003,0.6492173748989086
0.021500000000000002,1.78844375,1.0,2443.2846367707657,0.21571884845421624,1.3312000115863738,0.9109433361781052,0.2881676375,0.6502122204246998
0.022,1.7879,1.0,2465.820348650089,0.2201180450349211,1.3307384371774018,0.9140557708398831,0.2881448,0.6511864992775824
0.0225,1.78734375,1.0,2487.0022889529973,0.22449256509446253,1.3302850919406504,0.9169938263578921,0.28812143749999997,0.6521420855923347
0.023,1.786775,1.0,2506.8960248851067,0.2288425473688306,1.329839177064852,0.9197701815922024,0.28809755,0.6530807311007052
0.0235,1.78619375,1.0,2525.576231167196,0.2331681319969307,1.3293998315307576,0.9223963805071633,0.28807313749999996,0.6540043079958818
0.024,1.7856,1.0,2543.0919225415178,0.23746945395665137,1.3289664584710057,0.924883004677635,0.2880482,0.6549141237278191
0.0245,1.78499375,1.0,2559.493917645247,0.24174664822588104,1.3285384610182362,0.9272397249225235,0.2880227375,0.6558114784176303
0.025,1.784375,1.0,2574.8346892187083,0.2459998497825083,1.328115242305088,0.9294753921748907,0.28799675,0.6566976650735761
0.025500000000000002,1.78374375,1.0,2589.1682222117993,0.2502291936044216,1.3276962054642,0.9315981181803021,0.2879702375,0.6575739697843265
0.026000000000000002,1.7831000000000001,1.0,2602.5448592754765,0.2544348134917493,1.3272808003625627,0.9336153543232868,0.2879432,0.658441574343241
0.0265,1.78244375,1.0,2615.0132469177984,0.2586168430636995,1.3268685037995185,0.9355339519765181,0.2879156375,0.6593015982903832
0.027,1.781775,1.0,2626.631692684793,0.2627754175503529,1.3264587129567156,0.9373602033690867,0.28788755,0.6601553212201683
0.0275,1.7810937500000001,1.0,2637.436627797727,0.2669106664711077,1.3260510369266527,0.9390999348866818,0.2878589375,0.6610035756347403
0.028,1.7804,1.0,2647.465244530956,0.27102271934536226,1.3256450848018289,0.9407585202882124,0.2878298,0.6618471898737555
0.0285,1.77969375,1.0,2656.755430650318,0.2751117056925146,1.3252404656747436,0.9423409217982109,0.2878001375,0.6626869881622319
0.029,1.778975,1.0,2665.3457072395963,0.27917775503196296,1.3248367886378956,0.9438517269735566,0.28776995,0.6635237906486581
0.029500000000000002,1.7782437500000001,1.0,2673.275169914293,0.28322099688310565,1.324433662783784,0.9452951818250569,0.2877392375,0.664358413433348
0.03,1.7775,1.0,2680.577369765452,0.28724155805629126,1.3240307528219275,0.9466752270762887,0.287708,0.6651915536532365
0.0305,1.77674375,1.0,2687.292230984122,0.2912395691532095,1.323627669080534,0.9479955122011453,0.2876762375,0.6660240172369274
0.031,1.775975,1.0,2693.450016896822,0.2952151563759135,1.3232241141449825,0.9492594362493035,0.28764395,0.6668564159285437
0.0315,1.7751937500000001,1.0,2699.0768587876246,0.2991684438245015,1.322819831421432,0.9504701629914054,0.2876111375,0.6676892743655558
0.032,1.7744,1.0,2704.1991716216185,0.3030995555990718,1.3224145643160417,0.9516306360097192,0.2875778,0.6685231145309217
0.0325,1.77359375,1.0,2708.8436267997026,0.30700861579972266,1.3220080562349708,0.952743596714824,0.2875439375,0.6693584557390815
0.033,1.772775,1.0,2713.037126372637,0.31089574852655233,1.3216000505843788,0.9538116006809959,0.28750955,0.6701958146177456
0.0335,1.7719437500000002,1.0,2716.806252549883,0.3147610772717867,1.3211902955642325,0.954837032855877,0.2874746375,0.6710356952658194
0.034,1.7711000000000001,1.0,2720.1723477871324,0.3186047179247789,1.3207785887419747,0.9558221241404539,0.2874392,0.6718784981017445
0.0345,1.7702437500000001,1.0,2723.170173510778,0.3224268060057959,1.3203646069274084,0.9567689517611534,0.2874032375,0.6727248680747675
0.035,1.7693750000000001,1.0,2725.8164423386033,0.32622745921486174,1.319948192542343,0.9576794724205729,0.28736675,0.6735751087018105
0.035500000000000004,1.76849375,1.0,2728.127971482166,0.33000679525200055,1.319529188008588,0.9585555182837959,0.2873297375,0.6744295217173866
0.036000000000000004,1.7676,1.0,2730.1216717976317,0.33376493181723627,1.3191074357479522,0.9593988063307476,0.2872922,0.6752884070483628
0.0365,1.76669375,1.0,2731.8145373878024,0.33750198661059294,1.3186827781822452,0.9602109469043864,0.2872541375,0.6761520627871361
0.037,1.765775,1.0,2733.2236357544502,0.3412180773320947,1.3182550577332763,0.9609934515321156,0.28721555,0.67702078516323
0.0375,1.76484375,1.0,2734.366098501258,0.34491332168176553,1.3178241168228548,0.9617477400896145,0.2871764375,0.6778948685133046
0.038,1.7639,1.0,2735.2591125871645,0.3485878373596294,1.31738979787279,0.9624751473690265,0.28713679999999997,0.678774605249584
0.0385,1.76294375,1.0,2735.91991213058,0.35224174206571046,1.316951943304891,0.9631769291070266,0.28709663750000003,0.6796602858267
0.039,1.761975,1.0,2736.3600217170365,0.35587514567113204,1.3165104477320546,0.9638542708189415,0.28705595,0.6805520933560406
0.0395,1.7609937500000001,1.0,2736.5943706980584,0.35948816714854803,1.3160651751444294,0.964508288375611,0.2870147375,0.6814502712401822
0.04,1.76,1.0,2736.642084286671,0.36308093147197334,1.3156159516877728,0.9651400314852335,0.286973,0.6823551372456043
0.0405,1.7589937500000001,1.0,2736.512238244618,0.3666535487283139,1.3151626949282245,0.9657504957559091,0.2869307375,0.6832668231045247
0.041,1.757975,1.0,2736.2139253571922,0.3702061290044758,1.3147053224319234,0.966340621084738,0.28688795,0.6841854592889641
0.0415,1.75694375,1.0,2735.756252562602,0.373738782387365,1.3142437517650094,0.9669112953508224,0.2868446375,0.6851111749893213
0.042,1.7559,1.0,2735.1483382320293,0.3772516189638875,1.313777900493622,0.9674633578267116,0.28680079999999997,0.6860440980925211
0.0425,1.75484375,1.0,2734.39930960052,0.3807447488209493,1.3133076861839008,0.9679976023324124,0.2867564375,0.6869843551597268
0.043000000000000003,1.753775,1.0,2733.518300347746,0.3842182820454564,1.312833026401985,0.9685147801538257,0.28671155,0.6879320714036192
0.043500000000000004,1.75269375,1.0,2732.5144483308427,0.3876723287243148,1.3123538387140141,0.969015602745405,0.28666613750000003,0.6888873706652412
0.044,1.7516,1.0,2731.3968934663035,0.39110699894443046,1.311870040686128,0.9695007442349874,0.2866202,0.6898503753904112
0.0445,1.75049375,1.0,2730.1747757639428,0.3945224027927095,1.3113815498844656,0.9699708437471121,0.2865737375,0.6908212066057016
0.045,1.7493750000000001,1.0,2728.857233510544,0.39791865035605783,1.310888283875167,0.9704265075596263,0.28652675,0.6917999838939847
0.0455,1.74824375,1.0,2727.4485703006417,0.40129585019324837,1.3103902041555908,0.9708683142016441,0.2864792375,0.6927867384064116
0.046,1.7471,1.0,2725.9552567012743,0.4046541072976332,1.3098872525166971,0.9712968111031154,0.2864312,0.6937815393101173
0.0465,1.7459437500000001,1.0,2724.385470787056,0.4079935271966621,1.3093793551885635,0.9717125173476139,0.28638263750000004,0.69478448527777
0.047,1.744775,1.0,2722.7457687651918,0.4113142153170107,1.3088664531084846,0.9721159274597325,0.28633355,0.6957956445924244
0.0475,1.74359375,1.0,2721.0403261134,0.41461627684582913,1.3083485088425797,0.9725075133115748,0.28628393750000003,0.6968150417556045
0.048,1.7424,1.0,2719.2771082252843,0.4178998167716087,1.3078254504193858,0.9728877214803328,0.2862338,0.6978427680934383
0.0485,1.74119375,1.0,2717.4604148757903,0.42116493876895555,1.3072972391856332,0.9732569792976627,0.2861831375,0.6988788481788513
0.049,1.739975,1.0,2715.587704602544,0.42441174575331436,1.306763898795157,0.9736156979919467,0.28613195,0.6999231836606972
0.0495,1.738748197963993,1.0,2713.877019111793,0.4276403405696293,1.3062254508866493,0.9739642693004603,0.2860804243144877,0.7009756799402689
0.05,1.7375212430623717,1.0,2712.6963580690094,0.4308508256064512,1.3056821060003925,0.9743030792877864,0.2860288922086196,0.7020358739514185
0.0505,1.7362942881607506,1.0,2712.0065034093013,0.4340433027054799,1.3051342876444587,0.9746325101782677,0.28597736010275154,0.7031028906368263
0.051000000000000004,1.7350673332591295,1.0,2711.7707404576327,0.43721787233074605,1.3045823289225462,0.9749529206131681,0.28592582799688343,0.7041760360590493
0.051500000000000004,1.7338403783575083,1.0,2711.952481275485,0.4403746349462801,1.3040265629383534,0.9752646529668646,0.2858742958910153,0.7052546206246538
0.052000000000000005,1.7326134234558872,1.0,2712.5268386480743,0.4435136873045419,1.3034672169960653,0.9755680270928321,0.28582276378514726,0.7063381639306857
0.0525,1.7313864685542661,1.0,2713.4430224395946,0.4466351351678939,1.3029047552575037,0.9758633645176884,0.2857712316792792,0.7074257310025248
0.053,1.7301595136526449,1.0,2714.675903867867,0.44973907638864913,1.302339408333891,0.9761509572076106,0.2857196995734111,0.7085168436489563
0.0535,1.7289325587510238,1.0,2716.204501019034,0.45282560749352435,1.3017713693738686,0.9764310819646277,0.285668167467543,0.709611098935651
0.054,1.7277056038494027,1.0,2718.0078587090175,0.4558948250092363,1.3012008315260775,0.9767040036493383,0.2856166353616749,0.710708096581631
0.0545,1.7264786489477815,1.0,2720.0650373685226,0.45894682546250154,1.3006279879391593,0.9769699758020356,0.2855651032558068,0.7118074389912394
0.055,1.7252516940461604,1.0,2722.355102756033,0.4619817053800369,1.3000530317617551,0.9772292412265745,0.28551357114993875,0.7129087312837346
0.0555,1.7240247391445394,1.0,2724.857116496539,0.46499956128855907,1.2994761561425066,0.9774820325395057,0.28546203904407064,0.7140115813205008
0.056,1.722797784242918,1.0,2727.550127448778,0.46800048971478475,1.298897554230055,0.9777285726868095,0.2854105069382026,0.7151155997298833
0.0565,1.721570829341297,1.0,2730.421070888115,0.47098458302448337,1.298317347313566,0.9779690708949828,0.28535897483233447,0.7162205366447615
0.057,1.720343874439676,1.0,2733.4478013801568,0.47395194088118686,1.297735739071513,0.9782037332281238,0.28530744272646635,0.7173259874985329
0.0575,1.7191169195380547,1.0,2736.618245831678,0.47690265632088125,1.2971528414276252,0.9784327516211527,0.2852559106205983,0.7184317245902061
0.058,1.7178899646364336,1.0,2739.9223619204863,0.4798368211019694,1.2965687477289576,0.9786563091632475,0.28520437851473024,0.7195375569849424
0.0585,1.7166630097348126,1.0,2743.3500925307553,0.48275452698285415,1.2959835513225655,0.97887458167117,0.2851528464088621,0.7206432951099562
0.059000000000000004,1.7154360548331913,1.0,2746.8913633741804,0.48565586572193825,1.295397345555504,0.9790877380380418,0.285101314302994,0.7217487507613591
0.059500000000000004,1.7142090999315702,1.0,2750.5360808043615,0.48854092907762453,1.2948102237748278,0.9792959405627777,0.28504978219712596,0.7228537371104463
0.06,1.7129821450299492,1.0,2754.2741298239885,0.4914098088083157,1.2942222793275926,0.979499345261392,0.28499825009125784,0.7239580687094263
0.0605,1.7117551901283279,1.0,2758.095372286373,0.4942625966724147,1.293633605560853,0.9796981021613084,0.2849467179853898,0.7250615614965987
0.061,1.7105282352267068,1.0,2761.9973776690886,0.4970993746342182,1.2930442259519022,0.9798923510980727,0.2848951858795217,0.7261641633809008
0.0615,1.7093012803250858,1.0,2765.963862642265,0.49992024574074756,1.2924542890262116,0.9800822348558447,0.2848436537736536,0.7272655893819295
0.062,1.7080743254234645,1.0,2769.9884272248187,0.502725299430592,1.2918638537288103,0.980267885147899,0.2847921216677855,0.7283657234903305
0.0625,1.7068473705218434,1.0,2774.066987178129,0.5055146219542356,1.2912729579701872,0.9804494274697622,0.2847405895619174,0.7294644896533724
0.063,1.7056204156202224,1.0,2778.1954473861038,0.5082882995621629,1.290681639660831,0.9806269826979062,0.28468905745604933,0.7305618123854938
0.0635,1.704393460718601,1.0,2782.3697014840814,0.5110464185048583,1.2900899367112306,0.9808006672951048,0.2846375253501813,0.7316576167693694
0.064,1.70316650581698,1.0,2786.585631519559,0.5137890650328061,1.289497887031875,0.9809705935052064,0.28458599324431316,0.732751828456887
0.0645,1.701939550915359,1.0,2790.839107644989,0.5165163253964904,1.2889055285332527,0.9811368695379452,0.28453446113844505,0.7338443736700316
0.065,1.7007125960137377,1.0,2795.1259878422406,0.5192282858463959,1.288312899125853,0.9812995997443703,0.284482929032577,0.7349351792016764
0.0655,1.6994856411121166,1.0,2799.4421176787296,0.5219250326330066,1.2877200367201644,0.9814588847834297,0.2844313969267089,0.7360241724162858
0.066,1.6982586862104956,1.0,2803.7833300959715,0.5246066520068071,1.287126979226676,0.9816148217802192,0.2843798648208408,0.7371112812505229
0.0665,1.6970317313088743,1.0,2808.145445229275,0.5272732302182817,1.2865337645558765,0.9817675044763672,0.2843283327149727,0.7381964342137677
0.067,1.6958047764072532,1.0,2812.5272970925416,0.529924842273337,1.2859404035146236,0.9819170213201405,0.28427680060910465,0.7392796098147139
0.0675,1.6945778215056322,1.0,2816.9253540556792,0.5325615777524941,1.285346928043949,0.9820634597013803,0.28422526850323654,0.7403607482649281
0.068,1.693350866604011,1.0,2821.334040728437,0.5351835338358312,1.2847533882582944,0.9822069053839754,0.2841737363973684,0.7414397572558069
0.0685,1.6921239117023898,1.0,2825.7521251438725,0.537790790137871,1.2841597953140949,0.9823474382660453,0.28412220429150037,0.7425166158388129
0.069,1.6908969568007688,1.0,2830.178371449958,0.5403834262731368,1.2835661603677844,0.9824851355681589,0.2840706721856323,0.7435913032342858
0.0695,1.6896700018991475,1.0,2834.6115398978777,0.5429615218561517,1.2829724945757979,0.9826200719418732,0.2840191400797642,0.7446637988314734
0.07,1.6884430469975265,1.0,2839.050386833354,0.5455251565014384,1.2823788090945696,0.9827523195731649,0.2839676079738961,0.7457340821885607
0.07050000000000001,1.6872160920959054,1.0,2843.4936646900264,0.5480744098235202,1.2817851150805342,0.9828819482810234,0.28391607586802803,0.7468021330326853
0.07100000000000001,1.6859891371942843,1.0,2847.9401219859983,0.55060936143692,1.2811914236901258,0.9830090256114671,0.28386454376215997,0.7478679312599494
0.07150000000000001,1.684762182292663,1.0,2852.388503323103,0.5531300909561608,1.2805977460797795,0.9831336169272239,0.28381301165629186,0.7489314569354196
0.07200000000000001,1.683535227391042,1.0,2856.8375493892026,0.5556366779957658,1.2800040934059296,0.983255785493299,0.28376147955042375,0.7499926902931233
0.0725,1.682308272489421,1.0,2861.28599696264,0.5581292021702577,1.2794104768250105,0.9833755925586511,0.2837099474445557,0.751051611736034
