Time [s],Phi [rad],STIM [ ],Fsee [N],Gamma [ ],Lcerel [ ],q [ ],Lmtc [m],fisomrel [ ]
0.0,1.8,1.0,17.977132629791615,0.00010042443127447756,1.3793386289014264,0.005002639348635417,0.288653,0.541142234130057
0.0005,1.79999375,1.0,18.31637306928046,0.005709070438452302,1.37929798817112,0.013193455455643606,0.2886527375,0.5412405490093779
0.001,1.799975,1.0,21.725196026442227,0.011286256376015264,1.3789274060304575,0.03608132283343216,0.28865195,0.5421365464254746
0.0015,1.79994375,1.0,31.319843225470954,0.01683215871100878,1.3780248957360115,0.07124782576554474,0.2886506375,0.5443149815171481
0.002,1.7999,1.0,54.11967527780295,0.022346952918707523,1.376333362190389,0.1154824170260791,0.2886488,0.5483839301737163
0.0025,1.79984375,1.0,98.01961332001648,0.02783081349076646,1.373891866010162,0.1654060875700525,0.28864643749999996,0.554224721082395
0.003,1.7997750000000001,1.0,162.12859958825317,0.03328391394212082,1.3711706126992036,0.21813772195788336,0.28864354999999997,0.5606899753459752
0.0035,1.79969375,1.0,239.00493642669355,0.038706426811243595,1.3685440817389751,0.2714653806483407,0.2886401375,0.5668853948187998
0.004,1.7996,1.0,322.8723213469927,0.04409852367073411,1.3661189053489158,0.3237411384317672,0.2886362,0.5725667957465296
0.0045000000000000005,1.7994937500000001,1.0,410.72288447084804,0.04946037513256073,1.3638886869401523,0.373817894023688,0.2886317375,0.5777583658066705
0.005,1.799375,1.0,500.89800899042507,0.05479215083963751,1.361826820150124,0.4209803267749775,0.28862675,0.5825298221302609
0.0055,1.79924375,1.0,592.2876726283251,0.06009401950842968,1.3599096008071894,0.4648521881658807,0.2886212375,0.586942216986
0.006,1.7991000000000001,1.0,684.0166078809458,0.06536614888340268,1.3581191909487325,0.505303472631553,0.2886152,0.5910415978132185
0.006500000000000001,1.79894375,1.0,775.3712230112473,0.07060870578263358,1.356441831165248,0.542370841117629,0.2886086375,0.5948635873583064
0.007,1.798775,1.0,865.7590388236249,0.07582185606585033,1.3548666077819884,0.5761962830650119,0.28860155,0.5984365136521186
0.0075,1.79859375,1.0,954.6947828245927,0.08100576475335271,1.3533844610772885,0.606982372142608,0.2885939375,0.601783873307125
0.008,1.7984,1.0,1041.775258366839,0.08616059570240024,1.3519877938605132,0.6349613792123159,0.2885858,0.6049253602462019
0.0085,1.79819375,1.0,1126.7039864723868,0.09128651226602921,1.3506695736918788,0.6603743844720499,0.2885771375,0.6078789862460332
0.009000000000000001,1.797975,1.0,1209.2322898591808,0.09638367640350885,1.3494238383763841,0.6834587156738849,0.28856795,0.6106600164997276
0.0095,1.79774375,1.0,1289.1832383786104,0.10145224949247009,1.34824504426807,0.7044399213434361,0.2885582375,0.6132824908888073
0.01,1.7975,1.0,1366.4256762624918,0.10649239185176917,1.3471282122468584,0.7235277532133599,0.288548,0.6157589421629466
0.0105,1.79724375,1.0,1440.8807165660767,0.1115042630950453,1.3460686651547753,0.7409142420078623,0.2885372375,0.6181010172129848
0.011,1.796975,1.0,1512.4959513177798,0.11648802168547234,1.345062218719126,0.7567734803553863,0.28852595000000003,0.6203190854994711
0.0115,1.79669375,1.0,1581.2473343084127,0.12144382521254109,1.3441050298047383,0.7712621105190034,0.2885141375,0.6224226035174749
0.012,1.7964,1.0,1647.1481346304913,0.1263718307587021,1.3431933956590096,0.7845203049577741,0.28850180000000003,0.6244205777297145
0.0125,1.79609375,1.0,1710.2193574543548,0.13127219400779513,1.3423240286596805,0.7966732109665094,0.2884889375,0.6263209802366272
0.013000000000000001,1.7957750000000001,1.0,1770.4988302264505,0.13614507005157267,1.3414938723707823,0.8078322700085124,0.28847555,0.6281311707053822
0.0135,1.79544375,1.0,1828.0405518092496,0.14099061324220477,1.3407000529625706,0.8180965947089677,0.2884616375,0.6298580162987935
0.014,1.7951000000000001,1.0,1882.9026508643562,0.14580897665475095,1.3399399654514348,0.8275543315828925,0.2884472,0.6315077164823895
0.0145,1.79474375,1.0,1935.149342857246,0.15060031208043928,1.3392112063995145,0.8362838638450433,0.2884322375,0.6330859612658991
0.015,1.794375,1.0,1984.8876630432337,0.1553647733668862,1.3385111462275374,0.8443547912634565,0.28841675,0.6345988644123686
0.0155,1.79399375,1.0,2032.1742007724702,0.1601025098127383,1.3378379048611044,0.8518292756964699,0.2884007375,0.6360508610939393
0.016,1.7936,1.0,2077.0804103748587,0.1648136706638808,1.3371896103333518,0.8587626741095054,0.2883842,0.6374463223317677
0.0165,1.7931937500000001,1.0,2119.6920434370804,0.16949840516619885,1.336564390677417,0.8652043427922043,0.2883671375,0.638789575663071
0.017,1.792775,1.0,2160.0980179731673,0.17415686167973715,1.3359604750807275,0.8711983773025184,0.28834955,0.6400846912740176
0.0175,1.7923437500000001,1.0,2198.393075530133,0.17878918891936676,1.3353761508673239,0.8767842218384269,0.2883314375,0.6413355785376851
0.018000000000000002,1.7919,1.0,2234.6544687799033,0.18339553295471483,1.3348099850376975,0.8819972720154132,0.2883128,0.6425455163235229
0.0185,1.79144375,1.0,2268.9557270522632,0.18797603859480683,1.3342606671803292,0.8868693036326162,0.2882936375,0.6437174948219426
0.019,1.790975,1.0,2301.377868742627,0.19253085064866832,1.3337268868836984,0.8914288603523086,0.28827395,0.6448544801368468
0.0195,1.79049375,1.0,2332.004149525747,0.19706011327911327,1.333207379142118,0.8957016349923429,0.2882537375,0.645959319149365
0.02,1.79,1.0,2360.9169337299477,0.20156397044833424,1.3327009477092495,0.8997107985765851,0.288233,0.6470346919431353
0.0205,1.78949375,1.0,2388.200309258516,0.2060425662343545,1.3322064324614062,0.9034772753984323,0.2882117375,0.6480831831354118
0.021,1.788975,1.0,2413.915480221711,0.21049604071975614,1.331722941628804,0.9070200400077453,0.28818995000000003,0.6491067920826952
0.021500000000000002,1.78844375,1.0,2438.127537674438,0.21492453398712125,1.3312495834416582,0.9103562739425765,0.2881676375,0.6501075046866324
0.022,1.7879,1.0,2460.9051388433086,0.21932818611903193,1.3307854661301857,0.9135015598748812,0.2881448,0.6510872939956498
0.0225,1.78734375,1.0,2482.320203985912,0.2237071371980703,1.3303296979246018,0.916470052519235,0.28812143749999997,0.6520481207558717
0.023,1.786775,1.0,2502.4320206985158,0.22806152430986779,1.3298815352432989,0.9192746562434002,0.28809755,0.6529916221477174
0.0235,1.78619375,1.0,2521.322759394426,0.23239148945003626,1.329440041492798,0.9219270945135444,0.28807313749999996,0.653919831190126
0.024,1.7856,1.0,2539.0418213003145,0.23669716782341557,1.3290046129251654,0.9244381221259248,0.2880482,0.6548340710266649
0.0245,1.78499375,1.0,2555.638827549126,0.24097869431197405,1.3285746610110745,0.9268175682459179,0.2880227375,0.6557356254510762
0.025,1.784375,1.0,2571.165066891285,0.24523620379768007,1.328149597221199,0.9290744264326665,0.28799675,0.6566257711848371
0.025500000000000002,1.78374375,1.0,2585.6733544108274,0.24946983116250193,1.3277288330262125,0.9312169370879573,0.2879702375,0.657505778071674
0.026000000000000002,1.7831000000000001,1.0,2599.2178979203986,0.253679711288408,1.3273117798967888,0.9332526607646687,0.2879432,0.6583769092499875
0.0265,1.78244375,1.0,2611.84496819964,0.2578659751167725,1.3268979348264567,0.9351885552524981,0.2879156375,0.6592402430044569
0.027,1.781775,1.0,2623.6138667253376,0.26202876066724906,1.3264866838783007,0.9370310067886957,0.28788755,0.6600970830680821
0.0275,1.7810937500000001,1.0,2634.5621164014133,0.2661681977907693,1.3260776245046992,0.9387859259803829,0.2878589375,0.6609482869814169
0.028,1.7804,1.0,2644.7267553607894,0.27028441581178153,1.3256703658817883,0.9404587646230494,0.2878298,0.6617946836301727
0.0285,1.77969375,1.0,2654.145529390388,0.27437754405473436,1.3252645171857043,0.9420545559398754,0.2878001375,0.6626370977677
0.029,1.778975,1.0,2662.8568291043966,0.27844771184407624,1.3248596875925829,0.9435779521679315,0.28776995,0.6634763500550047
0.029500000000000002,1.7782437500000001,1.0,2670.899630503945,0.28249504850425555,1.3244554862785605,0.9450332583178445,0.2877392375,0.6643132570910169
0.03,1.7775,1.0,2678.310962569334,0.2865196819511744,1.3240515451429762,0.9464244650823344,0.287708,0.6651485844720972
0.0305,1.77674375,1.0,2685.1198730976644,0.2905217358807637,1.3236475734809712,0.9477552821144002,0.2876762375,0.6659829342470643
0.031,1.775975,1.0,2691.3766192042963,0.2945013480060411,1.3232430899029304,0.9490291335406801,0.28764395,0.6668172985650704
0.0315,1.7751937500000001,1.0,2697.104631089016,0.29845864109939213,1.32283786226988,0.9502492280217928,0.2876111375,0.6676521514190498
0.032,1.7744,1.0,2702.327611778549,0.30239373793320246,1.3224316584428457,0.9514185503449166,0.2875778,0.6684879643934825
0.0325,1.77359375,1.0,2707.0695124986555,0.30630676127985756,1.3220242462828535,0.9525398797843909,0.2875439375,0.6693252066516585
0.033,1.772775,1.0,2711.35450924066,0.31019783391174305,1.3216153936509292,0.953615806745448,0.28750955,0.6701643449195085
0.0335,1.7719437500000002,1.0,2715.2069805232873,0.3140670786012446,1.3212048684080986,0.9546487478699472,0.2874746375,0.6710058434659951
0.034,1.7711000000000001,1.0,2718.651486349,0.31791461812074767,1.3207924384153877,0.9556409597625799,0.2874392,0.6718501640800691
0.0345,1.7702437500000001,1.0,2721.7127483552495,0.3217405752426379,1.3203778715338224,0.9565945514781262,0.2874032375,0.6726977660441888
0.035,1.7693750000000001,1.0,2724.4156311601955,0.3255450727393009,1.3199609356244286,0.9575114958946356,0.28736675,0.6735491061044013
0.035500000000000004,1.76849375,1.0,2726.77703091612,0.32932822404051804,1.319541472156193,0.9583936456000015,0.2873297375,0.6744044884319288
0.036000000000000004,1.7676,1.0,2728.82560166703,0.33309016098742605,1.319119216592655,0.959242729849418,0.2872922,0.6752644311265629
0.0365,1.76669375,1.0,2730.5769910702247,0.33683100072101024,1.3186940235180302,0.9600603789835764,0.2872541375,0.6761292071871468
0.037,1.765775,1.0,2732.0458146398887,0.3405508590222352,1.3182657575397994,0.9608481237764142,0.28721555,0.6769990675306685
0.0375,1.76484375,1.0,2733.2467495106157,0.3442498516720654,1.3178342832654435,0.9616074019816087,0.2871764375,0.6778742614194574
0.038,1.7639,1.0,2734.1945269188436,0.3479280944514653,1.317399465302443,0.9623395650127001,0.28713679999999997,0.6787550364340666
0.0385,1.76294375,1.0,2734.903925090985,0.3515857031413995,1.316961168258279,0.9630458840729097,0.28709663750000003,0.6796416384449842
0.039,1.761975,1.0,2735.3897625378154,0.3552227935228324,1.3165192567404318,0.9637275557854869,0.28705595,0.680534311583178
0.0395,1.7609937500000001,1.0,2735.6668917556603,0.35883948137672866,1.316073595356383,0.9643857073702404,0.2870147375,0.6814332982094691
0.04,1.76,1.0,2735.7501933337753,0.3624358824840528,1.3156240487136126,0.9650214014073077,0.286973,0.6823388388827395
0.0405,1.7589937500000001,1.0,2735.6479329500607,0.3660121041343417,1.3151705416842623,0.9656356440007886,0.2869307375,0.6832510511940328
0.041,1.757975,1.0,2735.3705185877893,0.3695682604848479,1.3147129798596515,0.9662293843981055,0.28688795,0.6841700902674062
0.0415,1.75694375,1.0,2734.9408983837234,0.373104481073594,1.3142511550989886,0.9668035121195655,0.2868446375,0.6850963377517584
0.042,1.7559,1.0,2734.3663828366944,0.3766208737746466,1.313785001337428,0.9673588761331307,0.28680079999999997,0.6860298881877244
0.0425,1.75484375,1.0,2733.6542913064022,0.3801175464620722,1.3133144525101232,0.9678962793472803,0.2867564375,0.6869708349753882
0.043000000000000003,1.753775,1.0,2732.811950133321,0.38359460700993736,1.3128394425522283,0.9684164815736713,0.28671155,0.6879192703559026
0.043500000000000004,1.75269375,1.0,2731.8466908568466,0.38705216329230857,1.3123599053988968,0.9689202022704274,0.28666613750000003,0.6888752853928324
0.044,1.7516,1.0,2730.765848528449,0.3904903231832524,1.311875774985283,0.9694081230843388,0.2866202,0.689838969953218
0.0445,1.75049375,1.0,2729.576760123326,0.3939091945568355,1.3113869852465403,0.9698808902085633,0.2865737375,0.6908104126883639
0.045,1.7493750000000001,1.0,2728.28676304745,0.3973088852871242,1.310893470117823,0.9703391165709109,0.28652675,0.6917897010143441
0.0455,1.74824375,1.0,2726.9031937421405,0.40068950324818525,1.3103951635342848,0.9707833838664243,0.2864792375,0.6927769210922341
0.046,1.7471,1.0,2725.4333863854013,0.404051156314085,1.3098919994310791,0.9712142444467357,0.2864312,0.6937721578080613
0.0465,1.7459437500000001,1.0,2723.884671689407,0.40739395235889014,1.3093839117433606,0.9716322230775797,0.28638263750000004,0.694775494752476
0.047,1.744775,1.0,2722.264375795414,0.4107179992566672,1.3088708344062825,0.9720378185748295,0.28633355,0.6957870142001493
0.0475,1.74359375,1.0,2720.5760723993067,0.41402339616505796,1.3083527354683964,0.9724315066432381,0.28628393750000003,0.69680673000369
0.048,1.7424,1.0,2718.825025125267,0.4173102499040287,1.3078295675720288,0.9728137398300506,0.2862338,0.6978346853584749
0.0485,1.74119375,1.0,2717.0210218554457,0.4205786768444477,1.3073012421016215,0.9731849472529833,0.2861831375,0.6988710031977061
0.049,1.739975,1.0,2715.167310289425,0.42382877681951836,1.306767729944686,0.973545539672353,0.28613195,0.6999156883436995
0.0495,1.73874375,1.0,2713.2671352249595,0.4270606496624441,1.3062290019887344,0.9738959085166582,0.2860802375,0.7009687447097696
0.05,1.7375,1.0,2711.3237382714706,0.43027439520642824,1.3056850291212778,0.9742364269643747,0.286028,0.7020301752905724
0.0505,1.73624375,1.0,2709.3403575821753,0.4334701132846742,1.3051357822298284,0.9745674509558059,0.2859752375,0.703099982152394
0.051000000000000004,1.734975,1.0,2707.3202276052616,0.43664790373038537,1.3045812322018975,0.9748893201400934,0.28592195,0.7041781664233859
0.051500000000000004,1.73369375,1.0,2705.2665788536297,0.43980786637676517,1.304021349924997,0.975202358762086,0.2858681375,0.7052647282837452
0.052000000000000005,1.7324,1.0,2703.1826376934237,0.4429501010570169,1.3034561062866388,0.9755068764933764,0.2858138,0.7063596669558425
0.0525,1.73109375,1.0,2701.071626151845,0.4460747076043439,1.3028854721743341,0.9758031692114841,0.28575893750000003,0.7074629806942943
0.053,1.729775,1.0,2698.9367617428397,0.4491817858519498,1.302309418475595,0.9760915197308371,0.28570355000000003,0.7085746667759809
0.0535,1.72844375,1.0,2696.7812573124966,0.45227143563303773,1.3017279160779331,0.9763721984889244,0.2856476375,0.7096947214900119
0.054,1.7271,1.0,2694.6083209028047,0.45534375678081124,1.30114093586886,0.9766454641907305,0.2855912,0.7108231401276377
0.0545,1.7257437500000001,1.0,2692.4168377685687,0.45839882642895047,1.3005484882529956,0.9769115645787909,0.2855342375,0.711959841227165
0.055,1.724375,1.0,2690.213637708183,0.4614367662219562,1.2999505109154328,0.9771707368285861,0.28547675,0.7131048820203152
0.0555,1.72299375,1.0,2688.0017143932755,0.46445767761847384,1.2993469765774168,0.977423208192091,0.2854187375,0.7142582513200239
0.056,1.7216,1.0,2685.782243262872,0.4674616523381855,1.2987378745768867,0.9776691964566371,0.2853602,0.7154199052719525
0.0565,1.72019375,1.0,2683.5563978771434,0.47044878210077307,1.298123194251781,0.9779089103745852,0.28530113749999997,0.7165897992637591
0.057,1.718775,1.0,2681.3253499006755,0.4734191586259186,1.2975029249400383,0.9781425501095262,0.28524155,0.7177678879213073
0.0575,1.71734375,1.0,2679.0902690871767,0.47637287363330416,1.2968770559795972,0.9783703076569513,0.2851814375,0.7189541251048696
0.058,1.7159,1.0,2676.8523232681137,0.4793100188426116,1.2962455767083967,0.9785923672410431,0.2851208,0.7201484639053235
0.0585,1.71444375,1.0,2674.612678343144,0.482230685973523,1.2956084764643752,0.9788089056891236,0.2850596375,0.721350856640341
0.059000000000000004,1.7129750000000001,1.0,2672.3724982728486,0.4851349667457203,1.2949657445854714,0.9790200927851848,0.28499795,0.7225612548505691
0.059500000000000004,1.71149375,1.0,2670.1329450744984,0.4880229528788856,1.294317370409624,0.9792260916038223,0.2849357375,0.7237796092958042
0.06,1.71,1.0,2667.895178820054,0.49089473609270073,1.2936633432747717,0.9794270588258062,0.284873,0.7250058699511595
0.0605,1.7084937500000001,1.0,2665.660357636715,0.4937504081068478,1.2930036525188533,0.9796231450364318,0.2848097375,0.726239986003224
0.061,1.7069750000000001,1.0,2663.429637710156,0.4965900606410088,1.292338287479807,0.9798144950077141,0.28474595,0.7274819058462172
0.0615,1.7054437500000001,1.0,2661.2041732897897,0.4994137854148657,1.291667237495572,0.9800012479654173,0.2846816375,0.7287315770781302
0.062,1.7039,1.0,2658.9851166975627,0.5022216741481005,1.2909904919040869,0.9801835378418475,0.2846168,0.7299889464968672
0.0625,1.70234375,1.0,2656.77474945166,0.5050138141040431,1.2903080296221237,0.980361492635427,0.2845514375,0.7312539793906894
0.063,1.7007750000000001,1.0,2654.571143913158,0.5077902947316061,1.2896198683274676,0.9805352377151276,0.28448555,0.7325265684629476
0.0635,1.69919375,1.0,2652.3742396335674,0.5105512034742559,1.2889260085104366,0.9807048927719514,0.28441913750000003,0.7338066377749589
0.064,1.6976,1.0,2650.184817935456,0.5132966262048354,1.288226442897301,0.9808705725796802,0.2843522,0.7350941250470948
0.0645,1.69599375,1.0,2648.003658861664,0.5160266487961879,1.2875211642143318,0.9810323877147807,0.2842847375,0.7363889672475613
0.065,1.694375,1.0,2645.831541185312,0.5187413571211562,1.2868101651877994,0.9811904447387549,0.28421675,0.7376911005897551
0.0655,1.69274375,1.0,2643.6692424214366,0.5214408370525835,1.2860934385439746,0.9813448463712823,0.2841482375,0.7390004605296079
0.066,1.6911,1.0,2641.5175388398634,0.5241251744633127,1.285370977009128,0.9814956916546783,0.2840792,0.7403169817629329
0.0665,1.6894437500000001,1.0,2639.377205478929,0.526794455226187,1.28464277330953,0.9816430761101609,0.2840096375,0.7416405982227663
0.067,1.687775,1.0,2637.252778437758,0.5294487641563085,1.283908785380808,0.9817870901294975,0.28393955,0.742971306070135
0.0675,1.68609375,1.0,2635.1368447353493,0.5320881845643478,1.2831690816318735,0.9819278261395025,0.2838689375,0.7443089005349534
0.068,1.6844000000000001,1.0,2633.0319248751102,0.5347127998348575,1.2824236386512595,0.9820653689931048,0.2837978,0.7456533428921646
0.0685,1.68269375,1.0,2630.9412666075154,0.5373226931464417,1.2816724262574426,0.9821998002702721,0.2837261375,0.7470046055046096
0.069,1.680975,1.0,2628.8622471870135,0.5399179470220616,1.2809154685940807,0.982331201259808,0.28365395,0.7483625621956891
0.0695,1.67924375,1.0,2626.7920781644825,0.5424986435075313,1.2801527913791007,0.9824596505323833,0.28358123749999997,0.7497270838089863
0.07,1.6775,1.0,2624.7369896654777,0.5450648644158056,1.2793843367759352,0.9825852201084585,0.283508,0.7510981899370881
0.07050000000000001,1.6757496258204767,1.0,2622.967110344067,0.5476166908151282,1.2786102534271164,0.9827079890602295,0.28343448428446,0.7524755315219323
0.07100000000000001,1.6739992458663477,1.0,2621.768176675113,0.5501542034409725,1.2778308774867044,0.9828280424630558,0.2833609683263866,0.7538584295757903
0.07150000000000001,1.6722488659122188,1.0,2621.0940396809706,0.5526774827195332,1.2770466359954835,0.9829454668271048,0.2832874523683132,0.7552460506491903
0.07200000000000001,1.67049848595809,1.0,2620.9017347184513,0.5551866083349942,1.2762579256159754,0.9830603445592394,0.2832139364102398,0.7566376228774178
0.0725,1.668748106003961,1.0,2621.1603551656044,0.5576816576538237,1.275465032532043,0.9831727504161399,0.28314042045216636,0.7580325760590578
0.073,1.666997726049832,1.0,2621.814571997623,0.5601627134765393,1.274668470504129,0.9832827673655883,0.28306690449409294,0.7594299467822783
0.0735,1.6652473460957031,1.0,2622.832069277212,0.5626298541447495,1.2738685405575596,0.9833904661793283,0.2829933885360195,0.7608291533573736
0.074,1.6634969661415744,1.0,2624.18797743398,0.5650831564560256,1.2730654751975994,0.9834959123757014,0.28291987257794615,0.7622297393338943
0.0745,1.6617465861874454,1.0,2625.857469717168,0.5675226972079386,1.2722595069295126,0.9835991695008949,0.2828463566198727,0.7636312528268453
