Time [s],Phi [rad],STIM [ ],Fsee [N],Gamma [ ],Lcerel [ ],q [ ],Lmtc [m],fisomrel [ ]
0.0,1.8,1.0,18.44331409148328,0.0007029262880639894,1.3792867496577803,0.005127308448956282,0.288653,0.5412677344835342
0.0005,1.79999375,1.0,18.964771871702702,0.006308192736314397,1.3792266673422007,0.014975631230144774,0.2886527375,0.5414130573231118
0.001,1.799975,1.0,22.820974119230847,0.011882018071556779,1.3788171372275262,0.03931031559579174,0.28865195,0.5424029864245586
0.0015,1.79994375,1.0,33.42002616117675,0.017424578654374072,1.3778495760256257,0.07560900304616036,0.2886506375,0.5447375570703281
0.002,1.7999,1.0,58.199249158371295,0.02293604985447637,1.3760748015806687,0.12060955379709076,0.2886488,0.5490042844899894
0.0025,1.79984375,1.0,104.50775226976943,0.02841660605835911,1.37358564400422,0.1709598196114854,0.28864643749999996,0.554954612863368
0.003,1.7997750000000001,1.0,170.33305461265073,0.033866420676373916,1.3708683988224588,0.2238515177567498,0.28864354999999997,0.5614050725601584
0.0035,1.79969375,1.0,248.14366903757798,0.039285666143651865,1.3682659972778222,0.2771373450444653,0.2886401375,0.5675387603602394
0.004,1.7996,1.0,332.52095535065786,0.04467451392874593,1.3658657838785682,0.3292252567024469,0.2886362,0.5731576153919671
0.0045000000000000005,1.7994937500000001,1.0,420.66019719289227,0.05003313452317086,1.3636572255815502,0.37901834115902366,0.2886317375,0.5782953516655915
0.005,1.799375,1.0,511.004522315184,0.0553616975331169,1.3616134469832066,0.42584198596470163,0.28862675,0.5830220502580472
0.0055,1.79924375,1.0,602.450618630369,0.06066037146305208,1.3597121360794686,0.4693509653460175,0.2886212375,0.5873953417000826
0.006,1.7991000000000001,1.0,694.1681291760812,0.06592932408611787,1.3579355444159449,0.509436295656753,0.2886152,0.5914609248841236
0.006500000000000001,1.79894375,1.0,785.4354452013234,0.07116872196317002,1.3562707468116033,0.5461488137830711,0.2886086375,0.5952524074180563
0.007,1.798775,1.0,875.6925571690514,0.07637873107535403,1.3547067434649602,0.5796386496391676,0.28860155,0.5987982338663358
0.0075,1.79859375,1.0,964.4461772818918,0.08155951607482462,1.3532349693827646,0.6101130233585353,0.2885939375,0.6021207155776702
0.008,1.7984,1.0,1051.317993731299,0.08671124094028769,1.3518477119372414,0.63780585962038,0.2885858,0.6052397563919898
0.0085,1.79819375,1.0,1136.0057956627024,0.09183406884877715,1.350538246005699,0.6629584626745332,0.2885771375,0.608172634206786
0.009000000000000001,1.797975,1.0,1218.2658928520425,0.09692816158959197,1.3493007024813957,0.6858072149835044,0.28856795,0.6109343725956744
0.0095,1.79774375,1.0,1297.931551655281,0.1019936802367573,1.348129534297295,0.706576082288207,0.2885582375,0.6135389902740706
0.01,1.7975,1.0,1374.8997042274354,0.10703078604079874,1.3470195165142549,0.7254728337290369,0.288548,0.6159995381320561
0.0105,1.79724375,1.0,1449.0628343863955,0.11203963743784562,1.34596644798307,0.7426877996871054,0.2885372375,0.6183265844068169
0.011,1.796975,1.0,1520.3730341987387,0.11702039276738858,1.3449661589956414,0.7583931483225647,0.28852595000000003,0.6205304500886284
0.0115,1.79669375,1.0,1588.8188293371384,0.12197320971506659,1.3440147168265795,0.7727436484968601,0.2885141375,0.622620773618394
0.012,1.7964,1.0,1654.431433116111,0.12689824607361622,1.3431082681618904,0.7858777165397274,0.28850180000000003,0.6246068760170544
0.0125,1.79609375,1.0,1717.2212931504444,0.13179565697185402,1.342243706431262,0.7979190401500611,0.2884889375,0.6264963182659189
0.013000000000000001,1.7957750000000001,1.0,1777.2149642969623,0.13666559679709922,1.3414181459135694,0.8089777367301646,0.28847555,0.6282960766611627
0.0135,1.79544375,1.0,1834.4702934602024,0.141508219936671,1.3406287008876876,0.8191516626522214,0.2884616375,0.630013036133821
0.014,1.7951000000000001,1.0,1889.059759731505,0.14632367960778378,1.3398726374574301,0.8285278042472409,0.2884472,0.6316536680731195
0.0145,1.79474375,1.0,1941.0605161887936,0.15111212924855014,1.339147442839636,0.837183528693773,0.2884322375,0.6332238903550251
0.015,1.794375,1.0,1990.532393868674,0.15587371926586868,1.3384510213492695,0.845187750974986,0.28841675,0.6347286548075137
0.0155,1.79399375,1.0,2037.5532229830633,0.1606086000608676,1.3377812779141893,0.8526017829401816,0.2884007375,0.6361728580696977
0.016,1.7936,1.0,2082.2073871069256,0.1653169211797958,1.3371362210220268,0.8594802632531974,0.2883842,0.6375611239636069
0.0165,1.7931937500000001,1.0,2124.591098618738,0.16999883287549372,1.336513888209061,0.865871926056476,0.2883671375,0.6388979688852665
0.017,1.792775,1.0,2164.795136255988,0.17465448418423363,1.335912507673389,0.8718203447731897,0.28834955,0.6401874591472427
0.0175,1.7923437500000001,1.0,2202.885542096307,0.1792840208770589,1.335330673234057,0.8773645852279589,0.2883314375,0.6414328430752361
0.018000000000000002,1.7919,1.0,2238.9375678639167,0.18388758872501298,1.3347669787101109,0.8825396338872715,0.2883128,0.6426373404505874
0.0185,1.79144375,1.0,2273.0349114582305,0.18846533349913933,1.3342200179205965,0.8873768738649216,0.2882936375,0.6438041442001152
0.019,1.790975,1.0,2305.2654925305083,0.1930174005097976,1.3336884193493883,0.8919045101210055,0.28827395,0.644936348189116
0.0195,1.79049375,1.0,2335.712853234483,0.19754393409377077,1.3331709228672513,0.8961479514528256,0.2882537375,0.6460367862110463
0.02,1.79,1.0,2364.4641589095204,0.20204507901045887,1.3326662921632604,0.9001301067737427,0.288233,0.6471082208493248
0.0205,1.78949375,1.0,2391.5819350662273,0.20652097611218873,1.3321735833295427,0.9038717226702496,0.2882117375,0.6481527759502913
0.021,1.788975,1.0,2417.13304601136,0.2109717662512872,1.3316918524582253,0.9073915586714634,0.28818995000000003,0.6491725606276496
0.021500000000000002,1.78844375,1.0,2441.188337084004,0.2153975902800811,1.3312201556414351,0.9107066048292185,0.2881676375,0.6501696699517331
0.022,1.7879,1.0,2463.819912566865,0.21979858865871416,1.3307575717801576,0.913832277482325,0.2881448,0.6511461374684115
0.0225,1.78734375,1.0,2485.0915470022983,0.22417490016392363,1.3303032904059326,0.9167826037772908,0.28812143749999997,0.6521037511065502
0.023,1.786775,1.0,2505.086613834437,0.2285266664680298,1.3298563417105083,0.9195703176219737,0.28809755,0.6530446231931135
0.0235,1.78619375,1.0,2523.8555420166986,0.23285402333649569,1.3294160938899147,0.9222070836782735,0.28807313749999996,0.6539701437701242
0.024,1.7856,1.0,2541.450805781411,0.2371571065347844,1.3289819151401816,0.9247035462894824,0.2880482,0.6548816948682983
0.0245,1.78499375,1.0,2557.9267561210613,0.24143605182835895,1.328553173657339,0.9270694327695097,0.2880227375,0.6557806507643189
0.025,1.784375,1.0,2573.3394611197255,0.2456909949826825,1.3281292376374172,0.9293136449847861,0.28799675,0.6566683782126512
0.025500000000000002,1.78374375,1.0,2587.741586700196,0.24992207067517078,1.3277095216581127,0.9314443479179904,0.2879702375,0.6575461397149585
0.026000000000000002,1.7831000000000001,1.0,2601.184911605856,0.2541294133656633,1.3272934613392455,0.9334690373268711,0.2879432,0.6584151472084687
0.0265,1.78244375,1.0,2613.729646418944,0.2583131587656006,1.326880425373898,0.9353945904741344,0.2879156375,0.6592767458781236
0.027,1.781775,1.0,2625.4138380823974,0.26247343727308925,1.3264699987886694,0.9372273659252487,0.28788755,0.6601318236317799
0.0275,1.7810937500000001,1.0,2636.2764012991047,0.2666103792862354,1.3260617666101597,0.938973220626037,0.2878589375,0.6609812638873143
0.028,1.7804,1.0,2646.3570444944426,0.27072411520314543,1.3256553138649683,0.9406375561010306,0.2878298,0.6618259456361895
0.0285,1.77969375,1.0,2655.6961995966853,0.2748147754219256,1.3252502255796943,0.942225359838123,0.2878001375,0.6626667434960395
0.029,1.778975,1.0,2664.334955635252,0.27888249034068235,1.3248460867809375,0.9437412424134249,0.28776995,0.6635045277522692
0.029500000000000002,1.7782437500000001,1.0,2672.3104327673313,0.2829273871305786,1.3244425244162665,0.9451894753941326,0.2877392375,0.6643400776479602
0.03,1.7775,1.0,2679.6629362003364,0.2869495979353561,1.324039140898885,0.9465740148931024,0.287708,0.6651742192777825
0.0305,1.77674375,1.0,2686.4220388136728,0.29094924854290904,1.3236356413186812,0.9478985414344989,0.2876762375,0.666007562717621
0.031,1.775975,1.0,2692.6167242205156,0.2949264640468942,1.3232317395703832,0.9491664731111051,0.28764395,0.6668406968568367
0.0315,1.7751937500000001,1.0,2698.2763096385743,0.29888136954096844,1.3228271495487192,0.9503809867416065,0.2876111375,0.6676742076347224
0.032,1.7744,1.0,2703.4304135389093,0.3028140901187887,1.3224215851484173,0.951545037880921,0.2875778,0.6685086780305545
0.0325,1.77359375,1.0,2708.1089251104754,0.3067247508740118,1.3220147602642058,0.952661378939081,0.2875439375,0.6693446880484248
0.033,1.772775,1.0,2712.3312860404344,0.3106134693250391,1.3216064862612453,0.953732584833634,0.28750955,0.6701826147790033
0.0335,1.7719437500000002,1.0,2716.1302269559214,0.31448037559100983,1.32119645510312,0.954761047818818,0.2874746375,0.6710230778992012
0.034,1.7711000000000001,1.0,2719.5381046009147,0.31832559937006744,1.3207843639854102,0.955749002423294,0.2874392,0.6718666831073847
0.0345,1.7702437500000001,1.0,2722.572235597327,0.3221492588759349,1.320370048568834,0.9566985495066435,0.2874032375,0.6727137499362337
0.035,1.7693750000000001,1.0,2725.250057214827,0.32595147232233507,1.3199533445141098,0.957611654423038,0.28736675,0.6735645960913117
0.035500000000000004,1.76849375,1.0,2727.5891152059444,0.32973235792299105,1.319534087481956,0.9584901573285526,0.2873297375,0.6744195374268929
0.036000000000000004,1.7676,1.0,2729.607052239772,0.33349203389162574,1.3191121131330905,0.9593357825912767,0.2872922,0.6752788879200691
0.0365,1.76669375,1.0,2731.3215969344633,0.3372306184419621,1.3186872571282318,0.9601501473915807,0.2872541375,0.676142959643126
0.037,1.765775,1.0,2732.7505534886523,0.3409482297877232,1.3182593551280979,0.9609347695905361,0.28721555,0.6770120627342069
0.0375,1.76484375,1.0,2733.911791911739,0.34464498614263195,1.3178282427934072,0.961691074936234,0.2871764375,0.677886505366247
0.038,1.7639,1.0,2734.823238852539,0.34832100572041136,1.3173937557848776,0.962420403670413,0.28713679999999997,0.6787665937141885
0.0385,1.76294375,1.0,2735.502869027356,0.35197640673478436,1.316955729763228,0.9631240165913507,0.28709663750000003,0.6796526319204708
0.039,1.761975,1.0,2735.9628956125553,0.35561130607123276,1.316514053061483,0.9638031052376329,0.28705595,0.6805448157353086
0.0395,1.7609937500000001,1.0,2736.2194909475497,0.3592258173633794,1.3160685783565529,0.9644587882276764,0.2870147375,0.6814434112744503
0.04,1.76,1.0,2736.284521244078,0.36282005417317104,1.3156191976629044,0.9650921236473955,0.286973,0.6823486035287771
0.0405,1.7589937500000001,1.0,2736.1658939789804,0.3663941298116094,1.3151658391301138,0.9657041127851669,0.2869307375,0.6832605033335819
0.041,1.7579761143075654,1.0,2735.926990340828,0.3699481575827542,1.3147084306649774,0.9662957007942571,0.28688799680091776,0.6841792208813364
0.0415,1.7569563923459446,1.0,2736.025437800654,0.3734822499680592,1.3142470172789074,0.9668677902670149,0.2868451684785297,0.6851046305207593
0.042,1.7559366703843238,1.0,2736.52664587707,0.37699651950291196,1.3137819475357322,0.9674212596656082,0.2868023401561416,0.6860359993644229
0.0425,1.754916948422703,1.0,2737.3998008258372,0.38049107659911624,1.3133135021199192,0.9679569335924381,0.28675951183375353,0.6869727340221665
0.043000000000000003,1.7538972264610821,1.0,2738.6141493434498,0.3839660316684757,1.3128419617159353,0.9684755922182104,0.2867166835113655,0.6879142442274404
0.043500000000000004,1.7528775044994613,1.0,2740.139963958874,0.38742149480051685,1.312367598067601,0.9689779733658674,0.28667385518897737,0.6888599607062424
0.044,1.7518577825378405,1.0,2741.9488802513065,0.3908575759504468,1.3118906707678506,0.9694647749840795,0.2866310268665893,0.6898093414795288
0.0445,1.7508380605762197,1.0,2744.0172065530214,0.39427438363028766,1.3114113971305086,0.969936655131691,0.28658819854420126,0.6907619315600277
0.045,1.749818338614599,1.0,2746.323882074779,0.39767202542682456,1.3109299706547952,0.9703942359883065,0.28654537022181314,0.6917173257289801
0.0455,1.7487986166529779,1.0,2748.8478429077095,0.4010506089268427,1.3104465848399307,0.9708381080096865,0.28650254189942503,0.6926751210498205
0.046,1.747778894691357,1.0,2751.577467690203,0.40441023604622633,1.3099613475927965,0.9712688247143407,0.286459713577037,0.6936350860920204
0.0465,1.7467591727297362,1.0,2754.4799058542817,0.407751022360242,1.3094745589089047,0.9716869279591387,0.2864168852546489,0.6945966115693203
0.047,1.7457394507681154,1.0,2757.5403923572,0.4110730730506119,1.3089863547640705,0.9720929195046943,0.2863740569322608,0.6955594150816707
0.0475,1.7447197288064946,1.0,2760.7479091294786,0.4143764910321844,1.3084968370956171,0.9724872738713571,0.28633122860987276,0.6965232828507661
0.048,1.7437000068448738,1.0,2764.0914239785325,0.4176613792198079,1.3080061078408687,0.9728704426436275,0.2862884002874847,0.6974880023364769
0.0485,1.742680284883253,1.0,2767.5598877358934,0.4209278405283308,1.3075142689371486,0.9732428557940708,0.2862455719650966,0.6984533622450607
0.049,1.7416605629216322,1.0,2771.1422316338603,0.4241759778726017,1.3070214223217809,0.9736049229191157,0.28620274364270853,0.6994191525367051
0.0495,1.7406408409600114,1.0,2774.827364912608,0.4274058941674688,1.3065276699320887,0.9739570343933506,0.2861599153203205,0.7003851644324124
0.05,1.7396211189983906,1.0,2778.6041726580106,0.43061769232778074,1.3060331137053962,0.9742995624483836,0.28611708699793237,0.701351190420217
0.0505,1.7386013970367697,1.0,2782.461513869728,0.4338114752683858,1.3055378555790271,0.9746328621818298,0.2860742586755443,0.7023170242607448
0.051000000000000004,1.737581675075149,1.0,2786.3930600470894,0.4369873404343482,1.3050419539453801,0.9749572690512979,0.28603143035315626,0.703282545705308
0.051500000000000004,1.7365619531135281,1.0,2790.3875419408328,0.44014539453043067,1.304545511475303,0.9752731072573373,0.28598860203076815,0.7042475492354785
0.052000000000000005,1.7355422311519073,1.0,2794.437913036356,0.4432857380383771,1.3040485926312255,0.9755806833814142,0.2859457737083801,0.7052119047161067
0.0525,1.7345225091902865,1.0,2798.539546586966,0.44640846818630386,1.3035512399818479,0.9758802887094452,0.28590294538599204,0.7061755252088093
0.053,1.7335027872286657,1.0,2802.6878032782647,0.44951368220232724,1.3030534960958704,0.976172201761259,0.2858601170636039,0.7071383243114486
0.0535,1.7324830652670449,1.0,2806.8780308388996,0.4526014773145634,1.3025554035419933,0.9764566889607794,0.28581728874121587,0.7081002161592526
0.054,1.731463343305424,1.0,2811.105563691104,0.4556719507511287,1.3020570048889168,0.9767340052655266,0.2857744604188278,0.7090611154258191
0.0545,1.7304436213438033,1.0,2815.365722641673,0.45872519974013937,1.3015583427053414,0.9770043947582258,0.2857316320964397,0.7100209373240046
0.055,1.7294238993821824,1.0,2819.6538146137195,0.4617613215097116,1.3010594595599674,0.9772680912031121,0.28568880377405165,0.7109795976066977
0.0555,1.7284041774205616,1.0,2823.965132417303,0.4647804132879618,1.3005603980214946,0.9775253185693055,0.2856459754516636,0.7119370125674769
0.056,1.7273844554589408,1.0,2828.2991250773944,0.4677825586921103,1.300061163418196,0.9777762880941958,0.2856031471292755,0.7128931703065009
0.0565,1.72636473349732,1.0,2832.6491299427394,0.4707678658683394,1.299561815595794,0.9780212077275666,0.2855603188068874,0.7138479548372179
0.057,1.7253450115356992,1.0,2837.0100145993883,0.4737364379299925,1.2990624005741878,0.9782602756640292,0.28551749048449937,0.71480127730486
0.0575,1.7243252895740784,1.0,2841.380316861092,0.4766883653199718,1.298562931534687,0.97849367909488,0.28547466216211126,0.7157531119687941
0.058,1.7233055676124576,1.0,2845.758570011506,0.47962373848117973,1.2980634216586013,0.9787215977166188,0.2854318338397232,0.7167034332562718
0.0585,1.7222858456508368,1.0,2850.1433027899907,0.48254264785651857,1.2975638841272412,0.9789442040911939,0.28538900551733515,0.7176522157624674
0.059000000000000004,1.721266123689216,1.0,2854.5330393818404,0.48544518388889063,1.2970643321219162,0.9791616639861817,0.28534617719494704,0.7185994342505098
0.059500000000000004,1.7202464017275951,1.0,2858.9262994122264,0.4883314370211983,1.296564778823936,0.9793741366961654,0.285303348872559,0.7195450636514984
0.06,1.7192266797659743,1.0,2863.3215979436263,0.4912014976963438,1.2960652374146109,0.9795817753464957,0.2852605205501709,0.7204890790645093
0.0605,1.7182069578043535,1.0,2867.7174454775045,0.4940554563572295,1.2955657210752505,0.979784727180523,0.2852176922277828,0.721431455756592
0.061,1.7171872358427327,1.0,2872.1123479599155,0.49689340344675775,1.2950662429871647,0.9799831338313262,0.28517486390539476,0.7223721691627536
0.0615,1.7161675138811119,1.0,2876.504806790219,0.49971542940783087,1.2945668163316635,0.9801771315788828,0.2851320355830067,0.7233111948859312
0.062,1.715147791919491,1.0,2880.893318834789,0.5025216246833512,1.2940674542900563,0.9803668515935698,0.2850892072606186,0.7242485086969568
0.0625,1.7141280699578703,1.0,2885.2763764436386,0.5053120797162209,1.2935681700436537,0.9805524201668169,0.28504637893823054,0.7251840865345041
0.063,1.7131083479962494,1.0,2889.6524674712223,0.5080868849493426,1.293068976773765,0.9807339589296795,0.2850035506158425,0.726117904505033
0.0635,1.7120886260346286,1.0,2894.0233592919644,0.5108460917751918,1.2925698586723549,0.9809115807463826,0.28496072229345437,0.7270499929733365
0.064,1.7110689040730076,1.0,2898.3853544690555,0.5135898343172792,1.292070848183636,0.9810854028048845,0.2849178939710663,0.7279802922235059
0.0645,1.710049182111387,1.0,2902.737639029792,0.5163182028290318,1.2915719522392954,0.9812555336273281,0.28487506564867826,0.7289087903933866
0.065,1.709029460149766,1.0,2907.079997482626,0.5190312793611732,1.2910731724797802,0.981422077020009,0.28483223732629015,0.7298354855311102
0.0655,1.7080097381881452,1.0,2911.4122138684315,0.5217291459644272,1.2905745105455377,0.9815851331151652,0.2847894090039021,0.7307603757054246
0.066,1.7069900162265244,1.0,2915.7340717646593,0.5244118846895174,1.2900759680770155,0.9817447985276145,0.28474658068151404,0.7316834590056833
0.0665,1.7059702942649035,1.0,2920.045354289517,0.5270795775871676,1.2895775467146608,0.9819011665036393,0.28470375235912593,0.7326047335418318
0.067,1.7049505723032827,1.0,2924.345844106682,0.5297323067081017,1.2890792480989213,0.9820543270625491,0.2846609240367379,0.7335241974443951
0.0675,1.703930850341662,1.0,2928.635323429398,0.5323701541030431,1.2885810738702441,0.9822043671313357,0.2846180957143498,0.7344418488644666
0.068,1.702911128380041,1.0,2932.913574025002,0.5349932018227158,1.2880830256690767,0.9823513706727998,0.2845752673919617,0.7353576859736929
0.0685,1.7018914064184203,1.0,2937.180377219922,0.5376015319178435,1.2875851051358664,0.9824954188075107,0.28453243906957365,0.7362717069642624
0.069,1.7008716844567995,1.0,2941.435513903606,0.5401952264391499,1.2870873139110608,0.9826365899299372,0.2844896107471856,0.7371839100488904
0.0695,1.6998519624951787,1.0,2945.6787645336112,0.5427743674373585,1.2865896536351071,0.9827749598190648,0.2844467824247975,0.7380942934608078
0.07,1.6988322405335579,1.0,2949.909909140464,0.5453390369631934,1.286092125948453,0.9829106017437973,0.28440395410240943,0.7390028554537453
0.07050000000000001,1.697812518571937,1.0,2954.128727332121,0.5478893170673781,1.2855947324915453,0.9830435865634221,0.2843611257800214,0.7399095943019218
0.07100000000000001,1.6967927966103162,1.0,2958.3349982987447,0.5504252898006364,1.285097474904832,0.983173982823405,0.28431829745763326,0.7408145083000276
0.07150000000000001,1.6957730746486954,1.0,2962.5285008182364,0.5529470372136921,1.2846003548287601,0.9833018568467551,0.2842754691352452,0.7417175957632138
