Time [s],Phi [rad],STIM [ ],Fsee [N],Gamma [ ],Lcerel [ ],q [ ],Lmtc [m],fisomrel [ ]
0.0,1.8,1.0,18.10804421903895,0.00038079992956607,1.3793239930913046,0.005037550215118933,0.288653,0.5411776411520023
0.0005,1.79999375,1.0,18.535650798353497,0.005987873251949747,1.3792737294360882,0.014001924001442002,0.2886527375,0.5412992288253858
0.001,1.799975,1.0,22.15243189702099,0.011563495326198032,1.3788840895002283,0.0375669468672673,0.28865195,0.5422412204195886
0.0015,1.79994375,1.0,32.20486416420316,0.017107842569956032,1.3779503204164865,0.07326529300440035,0.2886506375,0.544494755411592
0.002,1.7999,1.0,55.91097815831555,0.02262109040900964,1.3762186712948894,0.11786135825991866,0.2886488,0.5486591561514923
0.0025,1.79984375,1.0,100.93481399086005,0.028103413286650367,1.373753060827031,0.16798757732280445,0.28864643749999996,0.5545556426097759
0.003,1.7997750000000001,1.0,165.86055267895117,0.03355498466863461,1.3710322191521533,0.22079664165918303,0.28864354999999997,0.5610175138744531
0.0035,1.79969375,1.0,243.18797080900183,0.03897597704520864,1.3684161472947671,0.2741069756116873,0.2886401375,0.5671860408561239
0.004,1.7996,1.0,327.3031037387449,0.04436656194096257,1.3660022055673782,0.32629679295246744,0.2886362,0.5728392395402253
0.0045000000000000005,1.7994937500000001,1.0,415.29809951075987,0.04972690992038358,1.3637817765258637,0.37624239759055544,0.2886317375,0.5780064383535923
0.005,1.799375,1.0,505.55565450737726,0.05505719057889005,1.3617282210211763,0.423247642892594,0.28862675,0.582757315423645
0.0055,1.79924375,1.0,596.9801072368673,0.06035757258261871,1.3598182186041534,0.46695070262088734,0.2886212375,0.5871519437517018
0.006,1.7991000000000001,1.0,688.7069172876318,0.06562822363363652,1.3580341725415377,0.507231595893695,0.2886152,0.5912357502949503
0.006500000000000001,1.79894375,1.0,780.0266347787492,0.0708693104845124,1.356362555441793,0.5441335700767403,0.2886086375,0.5950437789508768
0.007,1.798775,1.0,870.3536183544811,0.07608099902424395,1.3547925518967203,0.5778025538819214,0.28860155,0.598604097954761
0.0075,1.79859375,1.0,959.2010618721695,0.08126345401075376,1.3533152840956713,0.6084432932162651,0.2885939375,0.6019397641084028
0.008,1.7984,1.0,1046.1939319793457,0.08641683968604429,1.351922850837682,0.6362887065275088,0.2885858,0.6050711322011437
0.0085,1.79819375,1.0,1131.012882470485,0.09154131884964951,1.350608671370525,0.6615801833451709,0.2885771375,0.6080151771677144
0.009000000000000001,1.797975,1.0,1213.4140403778724,0.0966370535871175,1.3493667804942004,0.6845545915211393,0.28856795,0.6107871578033073
0.0095,1.79774375,1.0,1293.2415830991215,0.10170420560538809,1.3481914105876343,0.7054366269741325,0.2885582375,0.6134015994674538
0.01,1.7975,1.0,1370.3560958661221,0.10674293477655238,1.3470777552589992,0.7244352759222603,0.288548,0.6158706371312955
0.0105,1.79724375,1.0,1444.6696088741958,0.11175340042934888,1.3460212954798425,0.7417417403197158,0.2885372375,0.6182055582731235
0.011,1.796975,1.0,1516.1488027654032,0.11673576153254624,1.3450176417744972,0.7575291131716432,0.28852595000000003,0.620417177501163
0.0115,1.79669375,1.0,1584.7733838513093,0.12169017576700886,1.3440629441607523,0.7719531878288681,0.2885141375,0.6225149568094229
0.012,1.7964,1.0,1650.5362148154609,0.12661679935011655,1.343153772274239,0.7851534706342724,0.28850180000000003,0.6245072977485959
0.0125,1.79609375,1.0,1713.4637469914576,0.1315157880302568,1.3422867904633788,0.7972543604382246,0.2884889375,0.6264022738337978
0.013000000000000001,1.7957750000000001,1.0,1773.6142825402972,0.1363872978037622,1.341458726869755,0.8083665596185945,0.28847555,0.6282077099632845
0.0135,1.79544375,1.0,1831.0375702267067,0.14123148279657607,1.3406667788881823,0.8185886331337847,0.2884616375,0.629930311740913
0.014,1.7951000000000001,1.0,1885.7796191280022,0.1460484953457011,1.3399084921199103,0.828008267741157,0.2884472,0.631575947017758
0.0145,1.79474375,1.0,1937.910282435991,0.1508384877881399,1.3391814121661882,0.8367033674643244,0.2884322375,0.6331504133958876
0.015,1.794375,1.0,1987.51150978235,0.15560161172742984,1.3384831876918228,0.8447432174651568,0.28841675,0.6346592208226475
0.0155,1.79399375,1.0,2034.6746456913502,0.1603380191343976,1.337811572447197,0.852189494019702,0.2884007375,0.6361075941350515
0.016,1.7936,1.0,2079.475416166146,0.1650478596566435,1.3371646619646955,0.8590972318215716,0.2883842,0.6374999704152826
0.0165,1.7931937500000001,1.0,2121.9847430812906,0.16973128129094503,1.3365407488648933,0.8655155612269589,0.2883671375,0.6388403200046455
0.017,1.792775,1.0,2162.285897703754,0.17438843203407964,1.3359381257683658,0.8714883488089508,0.28834955,0.6401325754312426
0.0175,1.7923437500000001,1.0,2200.469842505048,0.17901945948976147,1.33535512180332,0.8770548292484257,0.2883314375,0.6413805557406902
0.018000000000000002,1.7919,1.0,2236.623974924846,0.18362451046560815,1.334790204236935,0.8822501764392967,0.2883128,0.6425877523819876
0.0185,1.79144375,1.0,2270.8425473207803,0.18820373231475518,1.3342418603918347,0.8871059457521141,0.2882936375,0.6437575853373894
0.019,1.790975,1.0,2303.1914404703753,0.19275726837390397,1.333708937786312,0.8916505740246796,0.28827395,0.644892681254883
0.0195,1.79049375,1.0,2333.742880875479,0.19728526197975585,1.3331902839386602,0.8959096482401195,0.2882537375,0.6459956463293207
0.02,1.79,1.0,2362.574917192913,0.2017878564690122,1.332684746367172,0.8999062289243329,0.288233,0.6470690673935281
0.0205,1.78949375,1.0,2389.7674286959436,0.2062651945388174,1.332191206564931,0.9036611408810473,0.2882117375,0.64811544094686
0.021,1.788975,1.0,2415.3970373874663,0.21071741828975604,1.3317086237678986,0.9071932305256258,0.28818995000000003,0.64913708200895
0.021500000000000002,1.78844375,1.0,2439.5424407107325,0.2151446704906095,1.3312359776801943,0.9105195705297671,0.2881676375,0.6501362470989982
0.022,1.7879,1.0,2462.262199066399,0.21954708950745574,1.3307724770259417,0.9136556910221305,0.2881448,0.6511146952873816
0.0225,1.78734375,1.0,2483.617910592664,0.22392481370637285,1.3303173305292637,0.9166156995474651,0.28812143749999997,0.6520741745919042
0.023,1.786775,1.0,2503.673958622783,0.2282779814534387,1.329869746914284,0.9194124310684656,0.28809755,0.653016422419344
0.0235,1.78619375,1.0,2522.497273025425,0.23260673111473132,1.3294289349051256,0.9220575803787321,0.28807313749999996,0.6539431659670745
0.024,1.7856,1.0,2540.14456268898,0.2369111981517977,1.3289942214075396,0.9245618391298038,0.2880482,0.6548558746187716
0.0245,1.78499375,1.0,2556.6845780889453,0.24119152296990432,1.3285648385273954,0.9269349631776781,0.2880227375,0.6557562081743196
0.025,1.784375,1.0,2572.1674722053694,0.2454478402980056,1.3281402102942925,0.9291859104155896,0.28799675,0.656645415778117
0.025500000000000002,1.78374375,1.0,2586.6384595029535,0.24968028307190265,1.327719820747056,0.9313228982611084,0.2879702375,0.6575246144436145
0.026000000000000002,1.7831000000000001,1.0,2600.144046587426,0.2538889842273966,1.3273031539245115,0.9333534664491098,0.2879432,0.6583949152776389
0.0265,1.78244375,1.0,2612.7319220890195,0.25807407670028837,1.3268896938654844,0.9352845420662002,0.2879156375,0.6592574236113836
0.027,1.781775,1.0,2624.450852448579,0.26223569342637915,1.3264789246088,0.9371224975510288,0.28788755,0.660113239114418
0.0275,1.7810937500000001,1.0,2635.347277975115,0.2663739662039569,1.3260703607722402,0.9388732066335403,0.2878589375,0.6609633923018532
0.028,1.7804,1.0,2645.4609698933505,0.2704890251817797,1.325663586504383,0.9405420957137337,0.2878298,0.6618087641106575
0.0285,1.77969375,1.0,2654.846412559073,0.27458100591786844,1.3252580570450396,0.9421341585279072,0.2878001375,0.6626504984926205
0.029,1.778975,1.0,2663.5348527468077,0.2786500354298897,1.3248534483673349,0.9436540390805976,0.28776995,0.6634892764153422
0.029500000000000002,1.7782437500000001,1.0,2671.5580635801857,0.2826962407355101,1.3244494364443937,0.9451060348705425,0.2877392375,0.6643257754812351
0.03,1.7775,1.0,2678.94829852519,0.28671974885239604,1.3240456972493413,0.9464941271778529,0.287708,0.6651606699432023
0.0305,1.77674375,1.0,2685.7382477112287,0.2907206867982143,1.3236419067553022,0.9478220083442825,0.2876762375,0.6659946307136233
0.031,1.775975,1.0,2691.960996579785,0.29469918159063124,1.3232377409354021,0.9490931063777772,0.28764395,0.6668283253666385
0.0315,1.7751937500000001,1.0,2697.6499868613446,0.29865536024731365,1.3228328757627654,0.9503106071727596,0.2876111375,0.6676624181337465
0.032,1.7744,1.0,2702.8308315393156,0.3025893487654285,1.3224270616403047,0.9514774833711344,0.2875778,0.6684974168431097
0.0325,1.77359375,1.0,2707.540592820921,0.306501271336545,1.3220199468245148,0.9525964903239393,0.2875439375,0.669334036502349
0.033,1.772775,1.0,2711.7988717254034,0.3103912510529008,1.3216113412368173,0.9536702150499137,0.28750955,0.6701726568490288
0.0335,1.7719452532896296,1.0,2715.6946409356383,0.3142594107466461,1.3212011032122,0.9547010765163729,0.28747470063816444,0.6710135564262298
0.034,1.7711138837252374,1.0,2719.7051915601855,0.3181058729483286,1.3207891125417963,0.9556913357558467,0.28743978311645996,0.6718569683502766
0.0345,1.7702825141608451,1.0,2723.888785396375,0.3219307599713255,1.3203755742564176,0.9566431415004035,0.2874048655947555,0.6727024598847917
0.035,1.769451144596453,1.0,2728.2225035909005,0.3257341925194541,1.3199607002920815,0.9575585034673707,0.28736994807305105,0.6735495863156914
0.035500000000000004,1.7686197750320607,1.0,2732.6887674450554,0.32951629051275017,1.3195446535202002,0.9584392973038047,0.28733503055134657,0.6743980051232628
0.036000000000000004,1.7677884054676685,1.0,2737.2712721172616,0.3332771730189268,1.319127584808858,0.9592872786560853,0.2873001130296421,0.6752473999172997
0.0365,1.7669570359032762,1.0,2741.9547914852055,0.33701695871030185,1.3187096348080156,0.9601040924506031,0.2872651955079376,0.6760974766598894
0.037,1.766125666338884,1.0,2746.7190438380853,0.34073577028800767,1.318290989548649,0.960891287593263,0.28723027798623313,0.6769478506764727
0.0375,1.7652942967744918,1.0,2751.554893381702,0.34443372335531075,1.317871733546238,0.9616503070893471,0.28719536046452865,0.6777983450647624
0.038,1.7644629272100996,1.0,2756.453174218996,0.3481109335154777,1.3174519513162624,0.962382507184193,0.28716044294282417,0.6786487838185504
0.0385,1.7636315576457073,1.0,2761.404689284768,0.35176751637177517,1.3170317273742016,0.9630891635363786,0.2871255254211197,0.6794989918307714
0.039,1.7628001880813151,1.0,2766.4002094387656,0.3554035875274697,1.3166111462355354,0.9637714768873896,0.2870906078994152,0.680348794896111
0.0395,1.7619688185169229,1.0,2771.430472717107,0.3590192625858279,1.3161902924157438,0.9644305782738288,0.2870556903777107,0.6811980197131583
0.04,1.7611374489525307,1.0,2776.4875529314227,0.3626146550220083,1.3157692380906512,0.9650675323255452,0.2870207728560063,0.6820465187361278
0.0405,1.7603060793881384,1.0,2781.567887678265,0.36618987325645624,1.3153480158841964,0.9656833389064251,0.2869858553343018,0.6828942247382036
0.041,1.7594747098237462,1.0,2786.656417899159,0.3697450456042159,1.3149267617260312,0.9662789543213177,0.28695093781259734,0.6837408633570012
0.0415,1.758643340259354,1.0,2791.7501953568517,0.3732802811847907,1.3145055022015297,0.9668552690770305,0.28691602029089286,0.6845863810107258
0.042,1.7578119706949618,1.0,2796.846261017503,0.3767956891176842,1.314084263896067,0.9674131249176472,0.2868811027691884,0.6854307244032709
0.0425,1.7569806011305695,1.0,2801.9416450552917,0.3802913785223999,1.3136630733950172,0.9679533179960887,0.2868461852474839,0.6862738405242094
0.043000000000000003,1.7561492315661773,1.0,2807.033366872724,0.38376745851844146,1.3132419572837553,0.9684766018083751,0.2868112677257795,0.6871156766487311
0.043500000000000004,1.755317862001785,1.0,2812.1184351365823,0.3872240382253124,1.3128209421476553,0.9689836899105602,0.286776350204075,0.6879561803375424
0.044,1.7544864924373929,1.0,2817.1938478298707,0.39066122676251613,1.3124000545720924,0.9694752584364575,0.2867414326823705,0.6887952994367146
0.0445,1.7536551228730006,1.0,2822.2565923189404,0.3940791332495564,1.3119793211424409,0.9699519484326065,0.28670651516066603,0.6896329820774929
0.045,1.7528237533086084,1.0,2827.3036454365442,0.39747786680593666,1.3115587684440753,0.970414368025415,0.28667159763896155,0.6904691766760558
0.0455,1.7519923837442162,1.0,2832.3319735807318,0.40085753655116046,1.31113842306237,0.9708630944340737,0.28663668011725707,0.6913038319332325
0.046,1.751161014179824,1.0,2837.3402730749617,0.40421824269979606,1.310718296068034,0.9712986734667167,0.2866017625955526,0.6921369275783725
0.0465,1.7503296446154317,1.0,2842.3271868496886,0.4075600934823209,1.3102983989710368,0.9717216249185917,0.2865668450738481,0.6929684425893217
0.047,1.7494982750510395,1.0,2847.28896507579,0.41088321008033013,1.3098787645386567,0.9721324462075184,0.28653192755214363,0.6937983140561089
0.0475,1.7486669054866473,1.0,2852.2252832952126,0.41418769383047305,1.3094593949696525,0.972531605686,0.2864970100304392,0.6946265397481398
0.048,1.747835535922255,1.0,2857.135816657392,0.41747364606939896,1.3090402924627826,0.9729195491244328,0.2864620925087347,0.6954531174570082
0.0485,1.7470041663578628,1.0,2862.0202399327563,0.4207411681337571,1.308621459216806,0.9732967010098045,0.28642717498703024,0.6962780449964585
0.049,1.7461727967934706,1.0,2866.8782275254293,0.42399036136019685,1.3082028974304811,0.9736634657581521,0.28639225746532576,0.6971013202023479
0.0495,1.7453414272290784,1.0,2871.709453486544,0.42722132708536753,1.307784609302567,0.9740202288472462,0.2863573399436213,0.6979229409326092
0.05,1.7445100576646861,1.0,2876.513591527431,0.4304341666459183,1.307366597031822,0.9743673578754319,0.2863224224219168,0.6987429050672116
0.0505,1.743678688100294,1.0,2881.2903150332795,0.4336289813784986,1.306948862817005,0.9747052035520622,0.2862875049002124,0.6995612105081234
0.051000000000000004,1.7428473185359015,1.0,2886.0392970759667,0.4368058726197577,1.306531408856875,0.9750341006245217,0.28625258737850784,0.700377855179271
0.051500000000000004,1.7420159489715092,1.0,2890.7602104287794,0.4399649417063448,1.3061142373501902,0.9753543687464264,0.2862176698568034,0.7011928370265033
0.052000000000000005,1.741184579407117,1.0,2895.452727578947,0.44310628997490925,1.3056973504957095,0.9756663132912221,0.28618275233509893,0.7020061540175491
0.0525,1.7403532098427248,1.0,2900.1165207422787,0.4462300187621004,1.305280750492192,0.975970226115062,0.28614783481339445,0.7028178041419773
0.053,1.7395218402783326,1.0,2904.7516389620737,0.4493362114450815,1.3048644362158384,0.9762663842221099,0.28611291729168997,0.7036277918711704
0.0535,1.7386904707139403,1.0,2909.358707500985,0.4524249518884308,1.3044484014780913,0.9765550523728542,0.2860779997699855,0.7044361314969227
0.054,1.7378591011495481,1.0,2913.937055871904,0.4554963908083885,1.3040326515136693,0.97683649128153,0.286043082248281,0.7052428150942849
0.0545,1.7370277315851559,1.0,2918.4870301175533,0.4585506199456012,1.303617182609829,0.977110944115839,0.28600816472657653,0.7060478521175693
0.055,1.7361963620207637,1.0,2923.00897812834,0.4615877310407156,1.3032019910538268,0.9773786437824854,0.28597324720487205,0.706851251980214
0.0555,1.7353649924563714,1.0,2927.5032496192007,0.46460781583437843,1.3027870731329187,0.977639813445576,0.28593832968316757,0.7076530240548486
0.056,1.7345336228919792,1.0,2931.9701961070296,0.46761096606723634,1.3023724251343614,0.9778946670146872,0.28590341216146314,0.7084531776733579
0.0565,1.733702253327587,1.0,2936.4101708880644,0.470597273479936,1.3019580433454108,0.978143409604612,0.28586849463975866,0.7092517221269485
0.057,1.7328708837631948,1.0,2940.8235290161283,0.47356682981312415,1.3015439240533233,0.9783862379686472,0.2858335771180542,0.7100486666662105
0.0575,1.7320395141988025,1.0,2945.2106272806986,0.4765197268074474,1.3011300635453553,0.9786233409071449,0.2857986595963497,0.7108440205011808
0.058,1.7312081446344103,1.0,2949.571824185487,0.47945605620355247,1.3007164581087631,0.9788548996529328,0.2857637420746452,0.7116377928014047
0.0585,1.730376775070018,1.0,2953.9074799273535,0.48237590974208605,1.3003031040308028,0.9790810882350817,0.28572882455294074,0.7124299926959975
0.059000000000000004,1.7295454055056259,1.0,2958.2179563753316,0.4852793791636948,1.299889997598731,0.9793020738224031,0.2856939070312363,0.7132206292737024
0.059500000000000004,1.7287140359412336,1.0,2962.5036170500193,0.48816655620902544,1.299477135099804,0.979518017047957,0.28565898950953184,0.714009711582952
0.06,1.7278826663768414,1.0,2966.764827103722,0.49103753261872457,1.2990645128212779,0.9797290723157588,0.28562407198782735,0.7147972486319252
0.0605,1.7270512968124492,1.0,2971.001953300217,0.49389240013343894,1.298652127050409,0.9799353880907926,0.2855891544661229,0.7155832493886045
0.061,1.726219927248057,1.0,2975.215363995066,0.4967312504938153,1.298239974074454,0.980137107173366,0.2855542369444184,0.7163677227808325
0.0615,1.7253885576836647,1.0,2979.4054291166744,0.4995541754405002,1.2978280501806685,0.9803343669587569,0.2855193194227139,0.7171506776963688
0.062,1.7245571881192725,1.0,2983.572520146801,0.5023612667141404,1.2974163516563093,0.9805272996830551,0.28548440190100943,0.7179321229829418
0.0625,1.7237258185548803,1.0,2987.717010102231,0.5051526160553825,1.2970048747886327,0.980716032656029,0.28544948437930495,0.7187120674483056
0.063,1.722894448990488,1.0,2991.8391423030284,0.5079283050018852,1.2965936170040842,0.9809006877895338,0.28541456685760047,0.7194905177054676
0.0635,1.7220630794260958,1.0,2995.938830265231,0.5106883782236917,1.2961825786003776,0.9810813800149981,0.285379649335896,0.7202674749159157
0.064,1.7212317098617036,1.0,3000.017476462872,0.5134329958084906,1.29577174696773,0.9812582277507057,0.28534473181419157,0.7210429645907435
0.0645,1.7204003402973114,1.0,3004.075378500219,0.5161622392139312,1.295361119106087,0.9814313399739129,0.2853098142924871,0.7218169940063772
0.065,1.7195689707329191,1.0,3008.112835196493,0.5188761898976634,1.2949506920153944,0.9816008217721567,0.2852748967707826,0.7225895704070153
0.0655,1.718737601168527,1.0,3012.130146572035,0.5215749293173364,1.2945404626955979,0.9817667745102822,0.2852399792490781,0.7233607010046657
0.066,1.7179062316041347,1.0,3016.127613835186,0.5242585389305999,1.2941304281466435,0.9819292959891395,0.28520506172737364,0.7241303929791844
0.0665,1.7170748620397425,1.0,3020.105539369098,0.5269271001951036,1.2937205853684763,0.9820884805964246,0.28517014420566916,0.7248986534783151
0.067,1.7162434924753502,1.0,3024.064226719188,0.5295806945684968,1.293310931361043,0.9822444194501045,0.28513522668396474,0.7256654896177219
0.0675,1.715412122910958,1.0,3028.003980579995,0.5322194035084292,1.2929014631242883,0.9823972005348404,0.28510030916226026,0.7264309084810305
0.068,1.7145807533465658,1.0,3031.925106783215,0.5348433084725503,1.2924921776581588,0.9825469088318003,0.2850653916405558,0.72719491711986
0.0685,1.7137493837821736,1.0,3035.827912285158,0.5374524909185098,1.2920830719625997,0.9826936264422214,0.2850304741188513,0.7279575225538609
0.069,1.7129180142177813,1.0,3039.712705154768,0.5400470323039571,1.291674143037557,0.9828374327050656,0.2849955565971468,0.7287187317707488
0.0695,1.7120866446533891,1.0,3043.5797945617596,0.5426270140865418,1.2912653878829763,0.9829784043090918,0.28496063907544233,0.7294785517263374
0.07,1.7112552750889969,1.0,3047.4294907650324,0.5451925177239133,1.2908568034988033,0.98311661539964,0.28492572155373785,0.7302369893445745
0.07050000000000001,1.7104239055246047,1.0,3051.2621051009683,0.5477436246737215,1.2904483868849839,0.9832521376804187,0.2848908040320334,0.7309940515175726
0.07100000000000001,1.7095925359602124,1.0,3055.077949972553,0.5502804163936156,1.2900401350414639,0.9833850405105544,0.2848558865103289,0.7317497451056423
