Time [s],Phi [rad],STIM [ ],Fsee [N],Gamma [ ],Lcerel [ ],q [ ],Lmtc [m],fisomrel [ ]
0.0,1.8,1.0,17.972141234416096,6.777462309525693e-05,1.37933918798829,0.0050012058715920805,0.288653,0.5411408815573497
0.0005,1.79999375,1.0,18.30062415422656,0.005676603769869361,1.3792997360513208,0.013101684356275747,0.2886527375,0.5412363208909385
0.001,1.799975,1.0,21.68517232550701,0.011253971819770397,1.3789314856806965,0.03591026343315854,0.28865195,0.5421266873718755
0.0015,1.79994375,1.0,31.227659191901573,0.016800055245586126,1.378032723779227,0.07101426773051978,0.2886506375,0.5442961089032485
0.002,1.7999,1.0,53.92358544601116,0.022315029528368155,1.3763460316703042,0.11520619158505532,0.2886488,0.548353521830403
0.0025,1.79984375,1.0,97.69223359775218,0.027799069165385243,1.3739075821449933,0.1651058159488345,0.28864643749999996,0.554187244944149
0.003,1.7997750000000001,1.0,161.7041031705414,0.03325234767731074,1.3711864549230888,0.21782809654499471,0.28864354999999997,0.5606524734745848
0.0035,1.79969375,1.0,238.526124369865,0.03867503760823897,1.3685587969568107,0.27115752640406204,0.2886401375,0.566850807352514
0.004,1.7996,1.0,322.363397112577,0.04406731053634967,1.3661323607405,0.32344312369394973,0.2886362,0.5725353776102944
0.0045000000000000005,1.7994937500000001,1.0,410.19621231743514,0.04942933707912715,1.3639010319822586,0.3735350499734792,0.2886317375,0.5777297159510433
0.005,1.799375,1.0,500.3608512874459,0.0547612868847506,1.361838220836885,0.42071573914007887,0.28862675,0.58250351384438
0.0055,1.79924375,1.0,591.7460993327503,0.060063328676406486,1.3599201708703865,0.464607241507923,0.2886212375,0.5869179547214024
0.006,1.7991000000000001,1.0,683.4749102731524,0.06533563020303974,1.3581290287259042,0.50507837855392,0.2886152,0.5910191287750015
0.006500000000000001,1.79894375,1.0,774.8338923809363,0.07057835829198458,1.3564509965224971,0.5421650268668651,0.2886086375,0.5948427521623685
0.007,1.798775,1.0,865.2187183290836,0.07579167864749234,1.3548753296212444,0.5760088227648127,0.28860155,0.5984167743182818
0.0075,1.79859375,1.0,954.1659674073142,0.08097575662215901,1.3533925897448815,0.6068118572023773,0.2885939375,0.6017655532952992
0.008,1.7984,1.0,1041.2769471879972,0.08613075623260437,1.3519951263750356,0.6348062780210445,0.2885858,0.6049088998986694
0.0085,1.79819375,1.0,1126.2122451495115,0.09125684003371728,1.3506765314056992,0.6602335311984844,0.2885771375,0.6078634257693485
0.009000000000000001,1.797975,1.0,1208.7453970435492,0.09635417043208368,1.3494304881919466,0.6833307781330291,0.28856795,0.6106451974551592
0.0095,1.79774375,1.0,1288.712843351309,0.10142290913826452,1.3482512663023074,0.7043235496356884,0.2885582375,0.6132686719350746
0.01,1.7975,1.0,1365.973886255179,0.1064632161903177,1.3471340167746484,0.7234217730222402,0.288548,0.6157460918300324
0.0105,1.79724375,1.0,1440.4367806816474,0.11147525088632035,1.3460742194258357,0.7408176628475343,0.2885372375,0.6180887584464239
0.011,1.796975,1.0,1512.06534356916,0.11645917206813158,1.345067477111899,0.7566853071391092,0.28852595000000003,0.6203075135192255
0.0115,1.79669375,1.0,1580.8461183788247,0.12141513782838613,1.3441098215441725,0.7711813956425515,0.2885141375,0.6224120877450184
0.012,1.7964,1.0,1646.7633666574116,0.12634330423364554,1.3431978980720005,0.7844463540208655,0.28850180000000003,0.6244107230834208
0.0125,1.79609375,1.0,1709.8421504112305,0.1312438272989089,1.342328360427907,0.7966053811915345,0.2884889375,0.6263115231082301
0.013000000000000001,1.7957750000000001,1.0,1770.1305945162853,0.13611686206156354,1.3414980284904316,0.8077699392288962,0.28847555,0.6281221190597843
0.0135,1.79544375,1.0,1827.6971586211016,0.14096256394775025,1.3407038671895861,0.8180391498110086,0.2884616375,0.6298497285780003
0.014,1.7951000000000001,1.0,1882.5823490036944,0.14578108508181678,1.3399434709627789,0.8275013007270501,0.2884472,0.631500116549038
0.0145,1.79474375,1.0,1934.850346324991,0.15057257758811082,1.3392144342474182,0.8362348276744418,0.2884322375,0.6330789783105997
0.015,1.794375,1.0,1984.5830250311103,0.155337193268677,1.3385143935107646,0.8443094647453585,0.28841675,0.6345918539095639
0.0155,1.79399375,1.0,2031.8671978776417,0.16007508325441056,1.337841139053005,0.8517872989045989,0.2884007375,0.6360438927403322
0.016,1.7936,1.0,2076.796051670536,0.16478639867035352,1.3371925734047383,0.8587236574625308,0.2883842,0.6374399503848539
0.0165,1.7931937500000001,1.0,2119.434274731931,0.16947128720230434,1.3365670495307838,0.8651680053513651,0.2883671375,0.6387838685272416
0.017,1.792775,1.0,2159.8587017307664,0.17412989653606145,1.3359629203959609,0.8711645036535121,0.28834955,0.6400794519101316
0.0175,1.7923437500000001,1.0,2198.1572961873853,0.17876237435742326,1.335378538965089,0.8767526365523234,0.2883314375,0.6413304706685024
0.018000000000000002,1.7919,1.0,2234.414956941876,0.1833688670038904,1.334812391177232,0.881967796040045,0.2883128,0.6425403785528832
0.0185,1.79144375,1.0,2268.7297585704823,0.18794952224220843,1.3342629200343339,0.8868417145266678,0.2882936375,0.6437126922516598
0.019,1.790975,1.0,2301.175740210902,0.1925044843239821,1.3337288878075877,0.891402975986783,0.28827395,0.6448502214372147
0.0195,1.79049375,1.0,2331.8224142665167,0.1970338962327907,1.3332091663306742,0.8956773237906533,0.2882537375,0.6459555212793913
0.02,1.79,1.0,2360.7450700764475,0.2015379009522135,1.3327026274372746,0.8996879571238081,0.288233,0.647031127858208
0.0205,1.78949375,1.0,2388.024288864979,0.20601664146582982,1.3322081429610697,0.9034558166735664,0.2882117375,0.6480795591529256
0.021,1.788975,1.0,2413.731363073635,0.2104702587677276,1.3317247212553232,0.9069998639138861,0.28818995000000003,0.6491030271303513
0.021500000000000002,1.78844375,1.0,2437.953987703254,0.21489889668199127,1.331251252576577,0.9103372458730197,0.2881676375,0.650103978528217
0.022,1.7879,1.0,2460.7541489442574,0.21930269438964817,1.3307869115516444,0.9134835706935325,0.2881448,0.6510842447261626
0.0225,1.78734375,1.0,2482.1895183482266,0.22368178990540447,1.3303309435631927,0.9164530291655084,0.28812143749999997,0.6520454965709528
0.023,1.786775,1.0,2502.3204930378156,0.22803632124396622,1.3298825939938894,0.9192585306891582,0.28809755,0.6529893947061949
0.0235,1.78619375,1.0,2521.2099674813107,0.23236642642003955,1.3294411082264013,0.9219118367128469,0.28807313749999996,0.6539175899571447
0.024,1.7856,1.0,2538.918919757829,0.2366722426725434,1.3290057712091197,0.9244236854954999,0.2880482,0.6548316406603711
0.0245,1.78499375,1.0,2555.504267172094,0.2409539062852854,1.3285759250503004,0.9268038986151935,0.2880227375,0.6557329766496791
0.025,1.784375,1.0,2571.0378266067733,0.24521155576374246,1.3281507888813129,0.9290614427493401,0.28799675,0.6566232772849874
0.025500000000000002,1.78374375,1.0,2585.5624953860547,0.24944532382722445,1.327729868350154,0.9312045796815384,0.2879702375,0.6575036141300726
0.026000000000000002,1.7831000000000001,1.0,2599.1224352990794,0.2536553431950413,1.3273126691048207,0.9332408892005821,0.2879432,0.6583750530723156
0.0265,1.78244375,1.0,2611.762967229604,0.25784174658650283,1.3268986967933099,0.9351773346024986,0.2879156375,0.6592386544478179
0.027,1.781775,1.0,2623.5304712039583,0.262004666720919,1.3264874570636185,0.9370203211032403,0.28788755,0.6600954731509308
0.0275,1.7810937500000001,1.0,2634.4722918572966,0.2661442363175997,1.3260784555637435,0.9387757480053194,0.2878589375,0.6609465587282009
0.028,1.7804,1.0,2644.6311115690205,0.2702605841760802,1.3256712490789921,0.9404490612855172,0.2878298,0.6617928492453096
0.0285,1.77969375,1.0,2654.054872126741,0.2743538458687146,1.3252653528489995,0.9420452856589935,0.2878001375,0.6626353642730098
0.029,1.778975,1.0,2662.776738729472,0.2784241489309276,1.3248604246427718,0.9435690825195308,0.28776995,0.6634748230258866
0.029500000000000002,1.7782437500000001,1.0,2670.8299684215945,0.2824716205964004,1.3244561263933747,0.9450247656894558,0.2877392375,0.6643119325440257
0.03,1.7775,1.0,2678.248311856873,0.2864963880988143,1.324052120033874,0.9464163313629327,0.287708,0.6651473963697441
0.0305,1.77674375,1.0,2685.065967530904,0.29049857867185047,1.3236480674973352,0.9477474855256605,0.2876762375,0.6659819145575266
0.031,1.775975,1.0,2691.317538547271,0.2944783195491902,1.323243630716824,0.9490216686833827,0.28764395,0.6668161836766757
0.0315,1.7751937500000001,1.0,2697.031763385156,0.2984357338312308,1.322838528580137,0.9502420840007879,0.2876111375,0.6676507795414927
0.032,1.7744,1.0,2702.236136164608,0.30237094606404136,1.3224324940985597,0.9514117134053863,0.2875778,0.6684862460120609
0.0325,1.77359375,1.0,2706.9745077916805,0.30628409309109106,1.3220251134176368,0.9525333195969602,0.2875439375,0.6693234257919584
0.033,1.772775,1.0,2711.2668706761015,0.3101752951880363,1.3216161929199686,0.953609498659094,0.28750955,0.6701627055218928
0.0335,1.7719437500000002,1.0,2715.1334001844075,0.3140446726305338,1.3212055389881554,0.9546426724902992,0.2874746375,0.6710044697810222
0.034,1.7711000000000001,1.0,2718.594437432208,0.3178923456942401,1.3207929580047972,0.9556351025650536,0.2874392,0.6718491010667487
0.0345,1.7702437500000001,1.0,2721.670472907442,0.32171843465481165,1.3203782563524948,0.9565889024529499,0.2874032375,0.6726969797721145
0.035,1.7693750000000001,1.0,2724.382130925026,0.3255230597879052,1.3199612404138483,0.9575060492210802,0.28736675,0.6735484841608149
0.035500000000000004,1.76849375,1.0,2726.7501549124627,0.32930634136917714,1.319541716571458,0.9583883938309538,0.2873297375,0.674403990339815
0.036000000000000004,1.7676,1.0,2728.795393526574,0.33306839967428414,1.3191194912079243,0.9592376706290664,0.2872922,0.6752638722295776
0.0365,1.76669375,1.0,2730.5387876017912,0.33680935497888276,1.3186943707058472,0.9600555060195025,0.2872541375,0.6761285015319007
0.037,1.765775,1.0,2732.0013579288766,0.3405293275586296,1.3182661614478273,0.9608434263974738,0.28721555,0.6769982476953621
0.0375,1.76484375,1.0,2733.190203383248,0.3442284288298253,1.317834796898624,0.96160287595638,0.2871764375,0.6778732202819212
0.038,1.7639,1.0,2734.1324498722297,0.34790678535597946,1.317400029077925,0.9623351978347309,0.28713679999999997,0.6787538952210852
0.0385,1.76294375,1.0,2734.8458097483476,0.3515645147847721,1.3169616959854444,0.9630416617689412,0.28709663750000003,0.6796405716773939
0.039,1.761975,1.0,2735.3413232731355,0.3552017299753885,1.3165196965627202,0.9637234677176618,0.28705595,0.6805334237495011
0.0395,1.7609937500000001,1.0,2735.630061696062,0.35881854378701433,1.31607392975129,0.9643817460334408,0.2870147375,0.681432624144058
0.04,1.76,1.0,2735.7231229333197,0.3624150690788349,1.3156242944926924,0.9650175622411584,0.286973,0.6823383441517545
0.0405,1.7589937500000001,1.0,2735.631627474029,0.3659914187100357,1.3151706897284652,0.9656319214395848,0.2869307375,0.6832507536227154
0.041,1.757975,1.0,2735.36671451242,0.36954770553980215,1.3147130144001469,0.966225772359443,0.28688795,0.6841700209412402
0.0415,1.75694375,1.0,2734.939538306443,0.37308404242731974,1.3142511674492752,0.9668000111080989,0.2868446375,0.6850963129998968
0.042,1.7559,1.0,2734.361264763145,0.37660054223177386,1.3137850478173885,0.9673554846280721,0.28680079999999997,0.6860297951729568
0.0425,1.75484375,1.0,2733.643068250117,0.38009731781235007,1.313314554446025,0.9678929938939659,0.2867564375,0.6869706312891865
0.043000000000000003,1.753775,1.0,2732.790433884486,0.3835744753625072,1.312839638008638,0.9684133000188234,0.28671155,0.6879188803910214
0.043500000000000004,1.75269375,1.0,2731.816049268558,0.38703213084564136,1.3123601838004844,0.9689171199691057,0.28666613750000003,0.6888747307912233
0.044,1.7516,1.0,2730.7315485677273,0.390470397299066,1.3118760866876735,0.9694051333143456,0.2866202,0.6898383499757104
0.0445,1.75049375,1.0,2729.5429994141564,0.39388938072168594,1.311387292115263,0.9698779871573469,0.2865737375,0.6908098032816451
0.045,1.7493750000000001,1.0,2728.2564704231436,0.3972891871124058,1.3108937455283103,0.9703362952932695,0.28652675,0.691789154946997
0.0455,1.74824375,1.0,2726.8780300802036,0.4006699224701301,1.3103953923718727,0.970780640244665,0.2864792375,0.6927764680941044
0.046,1.7471,1.0,2725.413745693544,0.4040316927937636,1.3098921780910078,0.971211575153155,0.2864312,0.6937718047130457
0.0465,1.7459437500000001,1.0,2723.8696824128606,0.4073746040822109,1.309384048130773,0.9716296255391391,0.28638263750000004,0.6947752256448199
0.047,1.744775,1.0,2722.251902313658,0.4106987623343766,1.308870947936226,0.9720352909399068,0.28633355,0.6957867905643407
0.0475,1.74359375,1.0,2720.5664635486746,0.41400427354916536,1.308352822952424,0.9724290464356324,0.28628393750000003,0.696806557963237
0.048,1.7424,1.0,2718.8194195633278,0.4172912437254819,1.3078296186244245,0.9728113440719052,0.2862338,0.6978345851324661
0.0485,1.74119375,1.0,2717.014306785401,0.42055977092619223,1.3073013032791172,0.9731826147994465,0.2861831375,0.6988708833002424
0.049,1.739975,1.0,2715.1565515748644,0.4238099620550064,1.306767827995205,0.9735432689840977,0.28613195,0.699915496515001
0.0495,1.73874375,1.0,2713.2537604396675,0.4270419312974299,1.3062291239237547,0.9738936971611205,0.2860802375,0.7009685065717146
0.05,1.7375,1.0,2711.308906503824,0.43025577749097327,1.3056851643877607,0.9742342726503348,0.286028,0.7020299115855475
0.0505,1.73624375,1.0,2709.324959753225,0.43345159947314693,1.305135922710218,0.9745653515299948,0.2859752375,0.7030997087748212
0.051000000000000004,1.734975,1.0,2707.304886813492,0.43662949608146134,1.3045813722141215,0.9748872735838361,0.28592195,0.7041778944520496
0.051500000000000004,1.73369375,1.0,2705.251650742892,0.4397895661534269,1.304021486222466,0.9752003631879886,0.2858681375,0.7052644640149329
0.052000000000000005,1.7324,1.0,2703.1682108412856,0.44293190852655406,1.303456238058246,0.9755049301420731,0.2858138,0.7063594119372997
0.0525,1.73109375,1.0,2701.057522475028,0.44605662203835317,1.3028856010444567,0.9758012704484454,0.28575893750000003,0.7074627317600071
0.053,1.729775,1.0,2698.9225369172764,0.4491638055263348,1.3023095485040928,0.9760896670432517,0.28570355000000003,0.7085744160817972
0.0535,1.72844375,1.0,2696.766201204449,0.45225355782800924,1.3017280537601488,0.976370390482658,0.2856476375,0.7096944565501045
0.054,1.7271,1.0,2694.591458008254,0.455325977780887,1.30114109013562,0.9766436995873639,0.2855912,0.7108228438518189
0.0545,1.7257437500000001,1.0,2692.401245523474,0.45838116422247854,1.3005486309535008,0.976909842048271,0.2855342375,0.7119595677040063
0.055,1.724375,1.0,2690.198773195762,0.46141921591492147,1.2999506470114013,0.9771690548376073,0.28547675,0.7131046216755158
0.0555,1.72299375,1.0,2687.9893468188666,0.46444022818292313,1.2993470898585642,0.9774215634448772,0.2854187375,0.7142580350548747
0.056,1.7216,1.0,2685.7713325658488,0.4674442952591001,1.2987379745549952,0.977667587534276,0.2853602,0.715419714792025
0.0565,1.72019375,1.0,2683.545085213868,0.47043151170618125,1.2981232979562172,0.9779073366254014,0.28530113749999997,0.7165896020909075
0.057,1.718775,1.0,2681.310959019114,0.4734019720868955,1.2975030569177526,0.9781410116106484,0.28524155,0.7177676375146445
0.0575,1.71734375,1.0,2679.0676969160277,0.4763557704849333,1.2968772630738057,0.9783688059765024,0.2851814375,0.7189537330032092
0.058,1.7159,1.0,2676.8375367882777,0.4792930007827033,1.2962457124273705,0.978590893213656,0.2851208,0.7201482074885195
0.0585,1.71444827636198,1.0,2674.813017426891,0.48221375540538514,1.2956086810656395,0.9788074664749283,0.28505982760720316,0.7213504709140084
0.059000000000000004,1.7129964139862213,1.0,2673.3469716322156,0.4851181267167734,1.294966464465175,0.9790187123217052,0.28499884938742126,0.7225599006406717
0.059500000000000004,1.7115445516104626,1.0,2672.411402310051,0.48800620672611805,1.2943193782539355,0.9792248110641235,0.2849378711676394,0.7237758405108956
0.06,1.710092689234704,1.0,2671.9584963039038,0.49087808726249965,1.2936678591310866,0.979425942556727,0.28487689294785756,0.7249974123512891
0.0605,1.7086408268589452,1.0,2671.9512107487653,0.4937338587513827,1.293012246280743,0.9796222743896492,0.2848159147280757,0.7262239270711519
0.061,1.7071889644831866,1.0,2672.354152446805,0.4965736114087608,1.2923528648174305,0.9798139670013591,0.28475493650829387,0.7274547271461773
0.0615,1.705737102107428,1.0,2673.1403849631856,0.4993974329658447,1.291689963002419,0.9800011705187294,0.28469395828851196,0.7286893032004064
0.062,1.7042852397316692,1.0,2674.266701546536,0.5022054163925858,1.291023939155002,0.980184037711021,0.2846329800687301,0.7299268712968932
0.0625,1.7028333773559106,1.0,2675.701600471696,0.504997651710676,1.2903550844494034,0.9803627099070672,0.28457200184894826,0.7311668524693234
0.063,1.7013815149801519,1.0,2677.424862744518,0.507774225627824,1.2896835867236647,0.9805373176730288,0.28451102362916636,0.7324088634659217
0.0635,1.6999296526043932,1.0,2679.41629176455,0.5105352248517382,1.2890096338158268,0.9807079868092515,0.2844500454093845,0.7336525241123779
0.064,1.6984777902286345,1.0,2681.6557027082017,0.5132807360901269,1.2883334135639313,0.9808748385643805,0.28438906718960266,0.734897457342382
0.0645,1.6970259278528759,1.0,2684.122912695165,0.5160108460506985,1.2876551138060197,0.981037989838393,0.28432808896982076,0.7361432892259115
0.065,1.6955740654771172,1.0,2686.7977317371424,0.5187256414411614,1.2869749223801332,0.9811975533751984,0.2842671107500389,0.7373896489952695
0.0655,1.6941222031013585,1.0,2689.6599544681153,0.5214252089692241,1.2862930271243131,0.9813536379454119,0.28420613253025706,0.738636169068869
0.066,1.6926703407255996,1.0,2692.69457357107,0.5241096326488126,1.2856095680972168,0.9815063459865035,0.28414515431047516,0.7398825721024276
0.0665,1.691218478349841,1.0,2695.8829925215127,0.5267790002917239,1.2849247180272683,0.9816557782326186,0.2840841760906933,0.7411285237789594
0.067,1.6897666159740823,1.0,2699.210761765955,0.5294333971970961,1.2842386114571172,0.9818020299374571,0.28402319787091146,0.7423737619800064
0.0675,1.6883147535983236,1.0,2702.6682496837684,0.5320729058008771,1.2835513386908572,0.9819451907861045,0.28396221965112955,0.7436181069088736
0.068,1.686862891222565,1.0,2706.2458088838407,0.5346976085390143,1.2828629900325819,0.9820853474186906,0.2839012414313477,0.7448613803247051
0.0685,1.6854110288468063,1.0,2709.9337739594885,0.5373075878474555,1.2821736557863843,0.982222583557253,0.28384026321156586,0.7461034055489385
0.069,1.6839591664710476,1.0,2713.7224594251898,0.5399029261621482,1.2814834262563577,0.9823569801264963,0.283779284991784,0.7473440074712425
0.0695,1.682507304095289,1.0,2717.602157833274,0.5424837059190402,1.2807923917465958,0.9824886153687759,0.28371830677200216,0.7485830125549309
0.07,1.6810554417195303,1.0,2721.5631380720647,0.5450500095540789,1.2801006425611918,0.982617564953627,0.28365732855222026,0.7498202488418605
0.07050000000000001,1.6796035793437716,1.0,2725.6012662656008,0.5476019126000095,1.279408217861993,0.9827438992992967,0.2835963503324384,0.7510556370892381
0.07100000000000001,1.678151716968013,1.0,2729.7042467190045,0.5501395031796786,1.2787152309085517,0.9828676906971149,0.28353537211265656,0.7522889670267625
0.07150000000000001,1.6766998545922542,1.0,2733.8630528172316,0.5526628654390369,1.2780217649510062,0.9829890075137253,0.28347439389287465,0.7535200835890545
0.07200000000000001,1.6752479922164956,1.0,2738.0737857669856,0.5551720768447381,1.2773278564649544,0.9831079134227447,0.2834134156730928,0.7547489159073777
0.0725,1.673796129840737,1.0,2742.332535785283,0.557667214863436,1.2766335419259947,0.9832244700742514,0.28335243745331096,0.7559753937547161
0.073,1.6723442674649782,1.0,2746.6353817566537,0.5601483569617844,1.275938857809725,0.9833387371733843,0.28329145923352905,0.7571994475467614
0.0735,1.6708924050892195,1.0,2750.978390919602,0.5626155806064371,1.2752438405917437,0.9834507725554068,0.2832304810137472,0.7584210083428151
