Time [s],Phi [rad],STIM [ ],Fsee [N],Gamma [ ],Lcerel [ ],q [ ],Lmtc [m],fisomrel [ ]
0.0,1.8,1.0,18.042918572242396,0.0002807411385917478,1.3793312674492533,0.005020459312780525,0.288653,0.5411600431611706
0.0005,1.79999375,1.0,18.439831247081354,0.005888375711660929,1.3792843122205471,0.01370921854892725,0.2886527375,0.5412736304317173
0.001,1.799975,1.0,21.982478241646017,0.011464555888431836,1.3789012702679915,0.03703335325719219,0.28865195,0.5421997046852758
0.0015,1.79994375,1.0,31.869478530951376,0.017009458104189766,1.3779784592596223,0.07254289904523542,0.2886506375,0.5444269270909505
0.002,1.7999,1.0,55.24929825151674,0.022523257802355617,1.3762608193400825,0.11701097468308352,0.2886488,0.5485580224155926
0.0025,1.79984375,1.0,99.87284125599507,0.02800612944352389,1.3738033908499856,0.1670657167261638,0.28864643749999996,0.5544356664191739
0.003,1.7997750000000001,1.0,164.5107027266012,0.03345824651096568,1.3710820946967568,0.2198477401517986,0.28864354999999997,0.5608994865926888
0.0035,1.79969375,1.0,241.68033537109187,0.038879781512136606,1.3684621292399644,0.2731646889913157,0.2886401375,0.5670779952677035
0.004,1.7996,1.0,325.7092880162405,0.044270905988780994,1.3660440926481923,0.325385471416749,0.2886362,0.5727414612160767
0.0045000000000000005,1.7994937500000001,1.0,413.6543615897092,0.04963179052235446,1.3638201181363758,0.37537805906756927,0.2886317375,0.5779174797169437
0.005,1.799375,1.0,503.8841629431209,0.054962604725766966,1.361763552880948,0.422439483014818,0.28862675,0.5826758029558469
0.0055,1.79924375,1.0,595.2968222200085,0.06026351728120132,1.3598509580686513,0.4662028114929843,0.2886212375,0.5870768111513833
0.006,1.7991000000000001,1.0,687.0257590063645,0.06553469590834395,1.3580646124985543,0.5065444856948523,0.2886152,0.5911662413146053
0.006500000000000001,1.79894375,1.0,778.3579736207695,0.07077630736997187,1.3563909433420007,0.543505444050483,0.2886086375,0.5949792586218076
0.007,1.798775,1.0,868.708053759273,0.07598851759427704,1.3548190527506014,0.5772301923553214,0.28860155,0.598544132031779
0.0075,1.79859375,1.0,957.5844466489344,0.08117149131734656,1.353340082419102,0.6079227621285214,0.2885939375,0.6018838844262189
0.008,1.7984,1.0,1044.612889330524,0.08632539282423071,1.3519460722718246,0.6358157444621615,0.2885858,0.6050190121570014
0.0085,1.79819375,1.0,1129.4725307397487,0.09145038496587554,1.350630429494528,0.6611505134280201,0.2885771375,0.6079665239556213
0.009000000000000001,1.797975,1.0,1211.919295258747,0.09654662973701507,1.3493871642319142,0.6841640862554695,0.28856795,0.6107417393813184
0.0095,1.79774375,1.0,1291.7905633806936,0.10161428890677689,1.3482105770840898,0.7050814576534711,0.2885582375,0.6133590370113686
0.01,1.7975,1.0,1368.9503972731543,0.10665352255246416,1.3470957926735558,0.7241118833988168,0.288548,0.6158307101668239
0.0105,1.79724375,1.0,1443.3102686163634,0.11166448982317116,1.3460382831369209,0.7414468839689018,0.2885372375,0.6181680695269522
0.011,1.796975,1.0,1514.8250638871407,0.11664734924057299,1.3450337895838982,0.7572599327594501,0.28852595000000003,0.6203816455528517
0.0115,1.79669375,1.0,1583.4981830895404,0.1216022595123272,1.344078159083382,0.7717069831828685,0.2885141375,0.6224815702863231
0.012,1.7964,1.0,1649.3162500033359,0.12652937658913116,1.3431680349965274,0.7849278637606156,0.28850180000000003,0.6244760834075962
0.0125,1.79609375,1.0,1712.2958009398224,0.13142885599605733,1.3423001917571227,0.7970472802092773,0.2884889375,0.6263730188872355
0.013000000000000001,1.7957750000000001,1.0,1772.4840801079988,0.1363008529039682,1.341471473143167,0.808176209405203,0.28847555,0.6281799522622303
0.0135,1.79544375,1.0,1829.9467097428428,0.14114552222836158,1.3406788868950474,0.8184133445027847,0.2884616375,0.6299040051784168
0.014,1.7951000000000001,1.0,1884.7424107493978,0.14596301723812338,1.3399198361574516,0.8278465074209631,0.2884472,0.6315513551871533
0.0145,1.79474375,1.0,1936.9263142694153,0.1507534895310675,1.3391920280640468,0.836553829548977,0.2884322375,0.6331274492914506
0.015,1.794375,1.0,1986.5745169157997,0.15551709070500797,1.338493169748501,0.8446047607952782,0.28841675,0.6346376723010603
0.0155,1.79399375,1.0,2033.766137202156,0.16025397131739486,1.337821138160686,0.852061141139583,0.2884007375,0.6360869853693201
0.016,1.7936,1.0,2078.6038636079174,0.16496428294147455,1.33717373911606,0.8589780225957762,0.2883842,0.6374804516916297
0.0165,1.7931937500000001,1.0,2121.160208457343,0.1696481737733382,1.3365492498125324,0.8654046345779862,0.2883671375,0.6388220741410129
0.017,1.792775,1.0,2161.5083120745962,0.17430579115824868,1.3359460675528139,0.8713849653039337,0.28834955,0.640115560254465
0.0175,1.7923437500000001,1.0,2199.732229233364,0.17893728244146873,1.3353625896396155,0.8769583461930358,0.2883314375,0.641364583769805
0.018000000000000002,1.7919,1.0,2235.9198378395376,0.1835427942676028,1.334797275260648,0.8821600154188014,0.2883128,0.6425726545856054
0.0185,1.79144375,1.0,2270.162600235164,0.18812247342089675,1.334248636830264,0.8870215934924783,0.2882936375,0.6437431402331324
0.019,1.790975,1.0,2302.5432129185992,0.19267646526211454,1.3337153525462189,0.8915715281550496,0.28827395,0.6448790289379874
0.0195,1.79049375,1.0,2333.129389349789,0.1972049125837811,1.33319631505891,0.8958354668465248,0.2882537375,0.6459828304565167
0.02,1.79,1.0,2361.994538173078,0.20170795817842133,1.3326904170187337,0.8998365235731659,0.288233,0.6470570357905009
0.0205,1.78949375,1.0,2389.2172884311026,0.20618574483856017,1.3321965510760874,0.9035955632685609,0.2882117375,0.6481041181541852
0.021,1.788975,1.0,2414.8696399196956,0.21063841364015756,1.3317137200664564,0.907131474284321,0.28818995000000003,0.6491263007642621
0.021500000000000002,1.78844375,1.0,2439.0378242981587,0.21506610805699639,1.3312408296380611,0.9104613426787609,0.2881676375,0.6501259973874011
0.022,1.7879,1.0,2461.7872917475643,0.21946896783928488,1.330777022194925,0.9136007128628513,0.2881448,0.6511051071041392
0.0225,1.78734375,1.0,2483.174744558045,0.22384713084044222,1.330321553624046,0.9165637268062878,0.28812143749999997,0.6520652780975653
0.023,1.786775,1.0,2503.2595810565376,0.22820073491388754,1.329873679812421,0.9193632501836875,0.28809755,0.6530081484917484
0.0235,1.78619375,1.0,2522.1036710344174,0.23252991791303998,1.3294326566470478,0.9220110052170714,0.28807313749999996,0.6539353467298097
0.024,1.7856,1.0,2539.7711434525554,0.23683481769131867,1.328997740014924,0.924517688104604,0.2880482,0.6548484919166853
0.0245,1.78499375,1.0,2556.315697548643,0.2411155686191599,1.3285683031043594,0.9268930919352361,0.2880227375,0.6557489483262814
0.025,1.784375,1.0,2571.809938383935,0.24537231096187942,1.3281435581750454,0.92914615315148,0.28799675,0.6566384095287647
0.025500000000000002,1.78374375,1.0,2586.297219600352,0.24960517733666238,1.3277230070982866,0.9312851057208199,0.2879702375,0.657517954778241
0.026000000000000002,1.7831000000000001,1.0,2599.8218231509272,0.2538143002700594,1.3273061548779326,0.9333175047861689,0.2879432,0.6583886510810677
0.0265,1.78244375,1.0,2612.4291864697275,0.2579998122886211,1.3268925065178327,0.9352502913569223,0.2879156375,0.6592515598931399
0.027,1.781775,1.0,2624.165802639522,0.26216184591889824,1.3264815670218368,0.9370898504670786,0.28788755,0.6601077372288453
0.0275,1.7810937500000001,1.0,2635.0791259918146,0.2663005336874414,1.3260728413937937,0.9388420631175065,0.2878589375,0.6609582337543938
0.028,1.7804,1.0,2645.2072118557326,0.2704160041062684,1.3256659294754245,0.9405123650667667,0.2878298,0.6618038978919256
0.0285,1.77969375,1.0,2654.6029720744436,0.2745083929566765,1.3252603007742267,0.9421057591137356,0.2878001375,0.6626458441972563
0.029,1.778975,1.0,2663.302732636197,0.27857782930768427,1.3248555842648826,0.9436268896030959,0.28776995,0.6634848513135261
0.029500000000000002,1.7782437500000001,1.0,2671.337659293081,0.2826244398651582,1.324451461486532,0.9450800606768601,0.2877392375,0.6643215852654767
0.03,1.7775,1.0,2678.739394393658,0.2866483513349647,1.3240476139783157,0.9464692596851572,0.287708,0.6651567087849506
0.0305,1.77674375,1.0,2685.5400139563726,0.2906496904229702,1.3236437232793739,0.9477981845223392,0.2876762375,0.6659908813197197
0.031,1.775975,1.0,2691.7719869908087,0.29462858383504115,1.3232394709288473,0.9490702682813918,0.28764395,0.6668247590358383
0.0315,1.7751937500000001,1.0,2697.468137067824,0.298585158277044,1.3228345384658762,0.9502887015187933,0.2876111375,0.6676589948135354
0.032,1.7744,1.0,2702.6570289178017,0.30251953770889956,1.3224286492408905,0.9514564566541628,0.2875778,0.6684941522598686
0.0325,1.77359375,1.0,2707.3658703639762,0.3064318461248912,1.322021541438705,0.9525763033852871,0.2875439375,0.669330761637246
0.033,1.772775,1.0,2711.6337617922522,0.3103222156549594,1.3216128469368247,0.9536508131932655,0.28750955,0.6701695685114496
0.0335,1.7719437500000002,1.0,2715.480072030503,0.3141907663829358,1.3212023796471597,0.9546824027446262,0.2874746375,0.6710109416741132
0.034,1.7711000000000001,1.0,2718.9243307865386,0.31803761839265243,1.320789953481621,0.9556733286942803,0.2874392,0.6718552479121793
0.0345,1.7702437500000001,1.0,2721.986213055602,0.32186289176794114,1.3203753823521194,0.9566257001673356,0.2874032375,0.6727028519857567
0.035,1.7693750000000001,1.0,2724.6855242948536,0.32566670659263375,1.319958480170565,0.9575414901279679,0.28736675,0.6735541166037695
0.035500000000000004,1.76849375,1.0,2727.0421863661863,0.3294491829505621,1.3195390608488693,0.9584225457462192,0.2873297375,0.6744094023973936
0.036000000000000004,1.7676,1.0,2729.0762242464143,0.3332104409255581,1.3191169382989425,0.9592705978614633,0.2872922,0.6752690678912912
0.0365,1.76669375,1.0,2730.8077535055377,0.3369506006014536,1.3186919264326955,0.960087269630581,0.2872541375,0.676133469472632
0.037,1.765775,1.0,2732.2569685524413,0.3406697820620805,1.318263839162039,0.960874084439469,0.28721555,0.6770029613579076
0.0375,1.76484375,1.0,2733.439856634233,0.3443680962736885,1.317832529229122,0.9616324749991843,0.2871764375,0.6778778168489137
0.038,1.7639,1.0,2734.3788878861947,0.3480456721559476,1.3173977909983812,0.9623637862021249,0.28713679999999997,0.6787584256037882
0.0385,1.76294375,1.0,2735.0859416185854,0.35170262336422004,1.316959515459665,0.9630692891145965,0.28709663750000003,0.6796449794629287
0.039,1.761975,1.0,2735.5727651947523,0.3553390632413417,1.3165175951350085,0.9637501803344831,0.28705595,0.6805376657205064
0.0395,1.7609937500000001,1.0,2735.851137786501,0.35895510513014844,1.3160719225464472,0.9644075870803097,0.2870147375,0.681436670209798
0.04,1.76,1.0,2735.932865734805,0.36255086237347633,1.3156223902160165,0.9650425719519873,0.286973,0.6823421772778338
0.0405,1.7589937500000001,1.0,2735.829778167641,0.3661264483141612,1.315168890665751,0.9656561373162119,0.2869307375,0.6832543697593109
0.041,1.757975,1.0,2735.5537228731273,0.36968197629503907,1.3147113164176865,0.9662492293497521,0.28688795,0.6841734289497667
0.0415,1.75694375,1.0,2735.116562429227,0.37321755965894576,1.3142495599938577,0.9668227417706139,0.2868446375,0.6850995345780192
0.042,1.7559,1.0,2734.530170589506,0.3767333117487174,1.3137835139163,0.9673775192841632,0.28680079999999997,0.6860328647778671
0.0425,1.75484375,1.0,2733.7949312441224,0.3802293242668998,1.3133131751343876,0.967914365868626,0.2867564375,0.6869733873954355
0.043000000000000003,1.753775,1.0,2732.932867537442,0.3837057328026566,1.3128383441370763,0.9684340334343952,0.28671155,0.6879214618545032
0.043500000000000004,1.75269375,1.0,2731.9557987114736,0.38716265418597123,1.3123589140856804,0.9689372383693848,0.28666613750000003,0.6888772601760668
0.044,1.7516,1.0,2730.8694476408937,0.3906001935500534,1.3118748335357107,0.9694246619885679,0.2866202,0.6898408424970432
0.0445,1.75049375,1.0,2729.6795395106024,0.3940184560281128,1.3113860510426782,0.9698969501937734,0.2865737375,0.6908122679083119
0.045,1.7493750000000001,1.0,2728.3918007098578,0.39741754675335933,1.3108925151620945,0.9703547156581931,0.28652675,0.6917915944393713
0.0455,1.74824375,1.0,2727.0119577860755,0.40079757085900264,1.3103941744494707,0.9707985398555772,0.2864792375,0.6927788790428302
0.046,1.7471,1.0,2725.545736457172,0.4041586334782524,1.3098909774603178,0.9712289749465691,0.2864312,0.6937741775787272
0.0465,1.7459437500000001,1.0,2723.998860682128,0.4075008397443185,1.3093828727501473,0.9716465455335077,0.28638263750000004,0.6947775447986804
0.047,1.744775,1.0,2722.377051790619,0.41082429479041055,1.3088698088744701,0.9720517502940395,0.28633355,0.6957890343298734
0.0475,1.74359375,1.0,2720.6860276715283,0.4141291037497384,1.3083517343887976,0.9724450635029789,0.28628393750000003,0.6968086986588662
0.048,1.7424,1.0,2718.9315020191134,0.41741537175551163,1.3078285978486408,0.9728269364510392,0.2862338,0.6978365891152416
0.0485,1.74119375,1.0,2717.119183639556,0.42068320394094016,1.307300347809511,0.973197798768317,0.2861831375,0.6988727558550814
0.049,1.739975,1.0,2715.254775814263,0.4239327054392336,1.3067669328269198,0.9735580596597491,0.28613195,0.6999172478442732
0.0495,1.73874375,1.0,2713.343975723408,0.4271639813836018,1.3062283014563778,0.9739081090591493,0.2860802375,0.7009701128416512
0.05,1.7375,1.0,2711.3896119034607,0.43037712993227667,1.305684428354842,0.9742483196474362,0.286028,0.7020313464967265
0.0505,1.73624375,1.0,2709.39151816214,0.43357224488233703,1.3051353154748015,0.9745790482118871,0.2859752375,0.7031008904658589
0.051000000000000004,1.734975,1.0,2707.3625295066768,0.4367494506863764,1.3045808461232737,0.9749006308915924,0.28592195,0.7041789163738222
0.051500000000000004,1.73369375,1.0,2705.304740192827,0.4399088438346306,1.304021001503919,0.9752133917761328,0.2858681375,0.7052654038410524
0.052000000000000005,1.7324,1.0,2703.220241852692,0.4430505208173355,1.3034557628203982,0.9755176404043553,0.2858138,0.7063603316680174
0.0525,1.73109375,1.0,2701.1111233864535,0.446174578124727,1.3028851112763722,0.9758136725416817,0.28575893750000003,0.7074636778287616
0.053,1.729775,1.0,2698.9794708612876,0.4492811122470409,1.3023090280755014,0.9761017709093914,0.28570355000000003,0.7085754194644314
0.0535,1.72844375,1.0,2696.827367418896,0.45237021967451324,1.3017274944214468,0.9763822058692303,0.2856476375,0.7096955328767725
0.054,1.7271,1.0,2694.656893190151,0.4554419968973797,1.3011404915178688,0.9766552360664452,0.2855912,0.7108239935216083
0.0545,1.7257437500000001,1.0,2692.470125217873,0.4584965404058762,1.3005480005684282,0.9769211090340937,0.2855342375,0.7119607760022961
0.055,1.724375,1.0,2690.2691373874654,0.46153394669023856,1.2999500027767859,0.9771800617612706,0.28547675,0.7131058540631574
0.0555,1.72299375,1.0,2688.056000365518,0.4645543122407027,1.2993464793466023,0.9774323212276869,0.2854187375,0.7142592005828896
0.056,1.7216,1.0,2685.8327815458556,0.4675577335475045,1.2987374114815382,0.9776781049068566,0.2853602,0.7154207875679532
0.0565,1.72019375,1.0,2683.601545003736,0.47054430710087974,1.2981227803852542,0.9779176212399768,0.28530113749999997,0.716590586145936
0.057,1.718775,1.0,2681.36435145796,0.47351412939106435,1.297502567261411,0.9781510700824331,0.28524155,0.7177685665588953
0.0575,1.71734375,1.0,2679.123092939453,0.4764672922909433,1.2968767548302516,0.9783786428025926,0.2851814375,0.7189546952852637
0.058,1.7159,1.0,2676.8798191087435,0.47940387219048336,1.2962453243364611,0.9786005215936643,0.2851208,0.7201489407167888
0.0585,1.71444375,1.0,2674.6374088597163,0.4823239949026293,1.2956082493790275,0.9788168851712811,0.2850596375,0.7213512847546769
0.059000000000000004,1.7129750000000001,1.0,2672.3965312374517,0.48522774869165924,1.2949655238128308,0.979027903018151,0.28499795,0.7225616701588723
0.059500000000000004,1.71149375,1.0,2670.157854165759,0.4881152218218515,1.2943171414927503,0.9792337379293639,0.2849357375,0.7237800389781135
0.06,1.71,1.0,2667.922044447821,0.4909865025574843,1.2936630962736664,0.9794345463264953,0.284873,0.7250063325477147
0.0605,1.7084937500000001,1.0,2665.6897677687384,0.4938416791628359,1.2930033820104583,0.9796304785545998,0.2848097375,0.7262404914873516
0.061,1.7069750000000001,1.0,2663.461688698046,0.49668083990218453,1.292337992558006,0.9798216791631472,0.28474595,0.7274824556988366
0.0615,1.7054437500000001,1.0,2661.2384706932203,0.4995040730398085,1.2916669217711894,0.9800082871718875,0.2846816375,0.7287321643638995
0.062,1.7039,1.0,2659.0207761048705,0.502311466839986,1.2909901635048877,0.9801904363225594,0.2846168,0.7299895559419602
0.0625,1.70234375,1.0,2656.809266181244,0.5051031095669951,1.2903077116139812,0.9803682553172993,0.2845514375,0.7312545681679004
0.063,1.7007750000000001,1.0,2654.6046010748614,0.5078790894851144,1.2896195599533493,0.9805418680445446,0.28448555,0.7325271380498352
0.0635,1.69919375,1.0,2652.407439849737,0.5106394948586218,1.2889257023778722,0.9807113937931766,0.28441913750000003,0.7338072018668789
0.064,1.6976,1.0,2650.2184404885224,0.5133844139517958,1.2882261327424291,0.9808769474555975,0.2843522,0.7350946951669121
0.0645,1.69599375,1.0,2648.038259902108,0.5161139350289145,1.2875208449019,0.9810386397203888,0.2842847375,0.7363895527643418
0.065,1.694375,1.0,2645.86755393848,0.5188281463542561,1.2868098327111648,0.9811965772551591,0.28421675,0.7376917087378625
0.0655,1.69274375,1.0,2643.706977393281,0.521527136192099,1.286093090025103,0.9813508628801447,0.2841482375,0.7390010964282152
0.066,1.6911,1.0,2641.5559639671387,0.5242109392058629,1.2853706219715157,0.9815015925892261,0.2840792,0.7403176279196118
0.0665,1.6894437500000001,1.0,2639.4167326827805,0.52687969854136,1.2846424079410195,0.9816488651565333,0.2840096375,0.741641261484497
0.067,1.687775,1.0,2637.2896821748627,0.5295335103550013,1.2839084441247834,0.9817927734576323,0.28393955,0.7429719239625151
0.0675,1.68609375,1.0,2635.1747476911146,0.532172453692053,1.2831687309952235,0.9819334061728902,0.2838689375,0.7443095337581465
0.068,1.6844000000000001,1.0,2633.071864633594,0.5347966075977816,1.2824232690247566,0.9820708489046527,0.2837978,0.7456540086523278
0.0685,1.68269375,1.0,2630.9809685574965,0.5374060511174531,1.2816720586857981,0.9822051843039448,0.2837261375,0.7470052658026285
0.069,1.680975,1.0,2628.9019951702376,0.5400008632963338,1.280915100450765,0.9823364921911035,0.28365395,0.7483632217434202
0.0695,1.67924375,1.0,2626.834880330179,0.54258112317969,1.2801523947920732,0.9824648496706703,0.28358123749999997,0.7497277923860535
0.07,1.6775,1.0,2624.7795600459417,0.5451469098127878,1.279383942182139,0.982590331240853,0.283508,0.7510988930190283
0.07050000000000001,1.67574375,1.0,2622.7359704748533,0.5476983022408936,1.2786097430933785,0.9827130088978503,0.2834342375,0.7524764383081686
0.07100000000000001,1.673975,1.0,2620.7040479221127,0.5502353795092734,1.2778297979982083,0.9828329522353111,0.28335995,0.7538603422967947
0.07150000000000001,1.67219375,1.0,2618.683728839856,0.5527582206631937,1.2770441073690444,0.9829502285391868,0.2832851375,0.7552505184058974
0.07200000000000001,1.6704,1.0,2616.6749498259787,0.5552669047479206,1.276252671678303,0.9830649028782186,0.2832098,0.7566468794343105
0.0725,1.66859375,1.0,2614.6776476229206,0.5577615108087203,1.2754554913984006,0.9831770381902907,0.2831339375,0.7580493375588828
0.073,1.6667750000000001,1.0,2612.6917591169486,0.5602421178908591,1.2746525670017532,0.9832866953648571,0.28305755,0.7594578043346539
0.0735,1.66494375,1.0,2610.7172213369527,0.5627088050396032,1.2738438989607772,0.983393933321653,0.2829806375,0.7608721906950244
0.074,1.6631,1.0,2608.753971453223,0.5651616513002189,1.273029487747889,0.9834988090858757,0.2829032,0.7622924069519303
0.0745,1.6612437500000001,1.0,2606.8019467768045,0.5676007357179724,1.2722093338355045,0.9836013778600157,0.2828252375,0.7637183627960168
0.075,1.659375,1.0,2604.8610847582463,0.5700261373381299,1.27138343769604,0.9837016930925093,0.28274675,0.7651499672968098
0.0755,1.65749375,1.0,2602.9313229866175,0.5724379352059578,1.270551799801912,0.9837998065433716,0.2826677375,0.7665871289028894
