Time [s],Phi [rad],STIM [ ],Fsee [N],Gamma [ ],Lcerel [ ],q [ ],Lmtc [m],fisomrel [ ]
0.0,1.8,1.0,17.967674329600285,1.854000481410131e-05,1.379339688392728,0.005000091165387274,0.288653,0.5411396709505996
0.0005,1.79999375,1.0,18.279838075163862,0.005627645318846469,1.379302044128749,0.01296423942405105,0.2886527375,0.5412307376267622
0.001,1.799975,1.0,21.627796225458813,0.011205287986946965,1.3789373406486356,0.03565309027986122,0.28865195,0.5421125378257012
0.0015,1.79994375,1.0,31.092070971939147,0.016751644490552182,1.3780442586254738,0.07066263128797196,0.2886506375,0.5442682988530483
0.002,1.7999,1.0,53.63194615622316,0.022266890319433068,1.3763649173418118,0.11478998983890462,0.2886488,0.5483081919460817
0.0025,1.79984375,1.0,97.20249657801517,0.027751199979318988,1.3739311416197872,0.16465317090978904,0.28864643749999996,0.5541310629047278
0.003,1.7997750000000001,1.0,161.0672033057125,0.03320474699953585,1.3712102631078356,0.21736121096820077,0.28864354999999997,0.5605961114904703
0.0035,1.79969375,1.0,237.80669696206076,0.038627703932659165,1.3685809347448579,0.2706932120270402,0.2886401375,0.5667987708629045
0.004,1.7996,1.0,321.5981348597753,0.04402024236528054,1.3661526134336175,0.32299357837906756,0.2886362,0.5724880857006756
0.0045000000000000005,1.7994937500000001,1.0,409.40387728637376,0.0493825329231967,1.3639196190244856,0.37310833952122824,0.2886317375,0.5776865780901572
0.005,1.799375,1.0,499.55245816137796,0.054714745262513964,1.3618553897913488,0.4203165374978657,0.28862675,0.5824638931089
0.0055,1.79924375,1.0,590.9306815209196,0.060017048116794536,1.359936094774739,0.46423765351067803,0.2886212375,0.5868814020354277
0.006,1.7991000000000001,1.0,682.6586024110387,0.06528960924103774,1.358143861070339,0.5047387373788268,0.2886152,0.5909852512041767
0.006500000000000001,1.79894375,1.0,774.0230810586694,0.07053259546453816,1.3564648327131505,0.5418544786646714,0.2886086375,0.5948112979553112
0.007,1.798775,1.0,864.4286297354714,0.07574617268784439,1.35488808811474,0.5757257090744468,0.28860155,0.5983878983235476
0.0075,1.79859375,1.0,953.3850249826019,0.08093050585572006,1.3534045980944902,0.6065544041072463,0.2885939375,0.6017384886660455
0.008,1.7984,1.0,1040.4985385493646,0.08608575901776289,1.3520065839599726,0.6345724719691467,0.2885858,0.6048831787271388
0.0085,1.79819375,1.0,1125.4573781582956,0.09121209529089602,1.3506872150761315,0.6600210980207718,0.2885771375,0.6078395318308261
0.009000000000000001,1.797975,1.0,1208.0177285700686,0.09630967683670501,1.3494404289361175,0.6831376773102351,0.28856795,0.6106230440846372
0.0095,1.79774375,1.0,1288.0056386223382,0.10137866503748116,1.3482606228158345,0.7041479360326138,0.2885582375,0.6132478909308899
0.01,1.7975,1.0,1365.2890667897705,0.1064192202154987,1.3471428170592732,0.7232618789944184,0.288548,0.6157266089418112
0.0105,1.79724375,1.0,1439.7759066432616,0.1114315017330938,1.3460824894883163,0.7406718799871991,0.2885372375,0.6180705053238822
0.011,1.796975,1.0,1511.4300828411558,0.11641566854215372,1.3450752360042832,0.7565521821322633,0.28852595000000003,0.6202904384457533
0.0115,1.79669375,1.0,1580.2256678628355,0.12137187800798187,1.3441172328092823,0.771059690016484,0.2885141375,0.6223958229709254
0.012,1.7964,1.0,1646.1649553780153,0.1263002870088269,1.343204901505511,0.7843348650208508,0.28850180000000003,0.6243953940771445
0.0125,1.79609375,1.0,1709.2725516516814,0.13120105153993167,1.3423349024887221,0.796503040758262,0.2884889375,0.6262972402360878
0.013000000000000001,1.7957750000000001,1.0,1769.5908506366454,0.13607432674069136,1.3415041211310297,0.807675824759581,0.28847555,0.6281088496509024
0.0135,1.79544375,1.0,1827.1702888389602,0.14092026665269958,1.3407097200727205,0.8179525155017623,0.2884616375,0.6298370109947974
0.014,1.7951000000000001,1.0,1882.0681929227007,0.14573902437391845,1.3399490987156637,0.8274214129393304,0.2884472,0.631487915441352
0.0145,1.79474375,1.0,1934.3674311228274,0.15053075335481614,1.3392196481350447,0.8361609640567614,0.2884322375,0.6330676987217363
0.015,1.794375,1.0,1984.1302706045037,0.15529560435242734,1.338519220098652,0.8442410554222688,0.28841675,0.6345814337493636
0.0155,1.79399375,1.0,2031.4347294413074,0.16003372793153342,1.337845695404768,0.8517238656831418,0.2884007375,0.6360340755627193
0.016,1.7936,1.0,2076.3630294403024,0.16474527366340674,1.337197085967817,0.8586648065748478,0.2883842,0.6374302462207034
0.0165,1.7931937500000001,1.0,2119.0147638628437,0.16943039243210792,1.3365713770809495,0.8651132774779827,0.2883671375,0.6387745794956419
0.017,1.792775,1.0,2159.467420833058,0.1740892320922424,1.3359669187663692,0.8711134877467338,0.28834955,0.6400708848680864
0.0175,1.7923437500000001,1.0,2197.792275821467,0.17872193892905242,1.335382236336863,0.8767050119586147,0.2883314375,0.6413225623395553
0.018000000000000002,1.7919,1.0,2234.07017331265,0.18332865922778022,1.3348158551052174,0.881923286116691,0.2883128,0.6425329820477107
0.0185,1.79144375,1.0,2268.3907197454896,0.18790953927366802,1.3342663003842195,0.8868000910065953,0.2882936375,0.6437054860569094
0.019,1.790975,1.0,2300.832747594324,0.19246472341445914,1.3337322833834668,0.8913640207796576,0.28827395,0.6448429943483973
0.0195,1.79049375,1.0,2331.4936951360196,0.19699435840538762,1.3332123991387905,0.8956407762140614,0.2882537375,0.6459486513398321
0.02,1.79,1.0,2360.439818511259,0.2014985861713797,1.332705610997243,0.8996536027108291,0.288233,0.6470247972287985
0.0205,1.78949375,1.0,2387.7389715576924,0.20597754820925537,1.3322109157007502,0.9034234890092905,0.2882117375,0.6480736845958834
0.021,1.788975,1.0,2413.4635493730825,0.21043138601583466,1.3317273099912383,0.9069694102779919,0.28818995000000003,0.649097550401712
0.021500000000000002,1.78844375,1.0,2437.690104913231,0.21486024108793764,1.3312537906106332,0.9103085489167779,0.2881676375,0.6500986167285931
0.022,1.7879,1.0,2460.4838860880586,0.21926425260072113,1.3307894988800246,0.9134565170408694,0.2881448,0.6510787864499432
0.0225,1.78734375,1.0,2481.92837128435,0.22364356324555285,1.3303334328015244,0.9164274691966662,0.28812143749999997,0.6520402524667117
0.023,1.786775,1.0,2502.079972057308,0.22799831039731333,1.3298848773797833,0.9192343354034048,0.28809755,0.6529845908039711
0.0235,1.78619375,1.0,2520.9920922361493,0.23232863048940147,1.329443168856989,0.921888904665936,0.28807313749999996,0.653913260502122
0.024,1.7856,1.0,2538.720266294206,0.2366346599552162,1.3290076434753284,0.9244019330231639,0.2880482,0.6548277121645765
0.0245,1.78499375,1.0,2555.321980393529,0.24091653522815637,1.3285776374769886,0.9267832482855198,0.2880227375,0.655729388233548
0.025,1.784375,1.0,2570.855838843225,0.2451743925432452,1.3281524933264175,0.9290418438568449,0.28799675,0.6566197102157383
0.025500000000000002,1.78374375,1.0,2585.3718383725204,0.24940836501371208,1.3277316489677078,0.9311859745987574,0.2879702375,0.6574998924263622
0.026000000000000002,1.7831000000000001,1.0,2598.9366527207007,0.2536185914194086,1.327314399665198,0.9332231935105568,0.2879432,0.6583714405988874
0.0265,1.78244375,1.0,2611.590204700407,0.25780520279892866,1.3269003021710386,0.9351604779499721,0.2879156375,0.6592353075270525
0.027,1.781775,1.0,2623.373412366004,0.26196833019086607,1.3264889132373807,0.9370042458601141,0.28788755,0.6600924411131189
0.0275,1.7810937500000001,1.0,2634.3281047394053,0.2661081046338147,1.3260797896163752,0.9387604080713075,0.2878589375,0.6609437844507031
0.028,1.7804,1.0,2644.4969418919345,0.27022465716636845,1.3256724880601725,0.9404344150780296,0.2878298,0.6617902758950792
0.0285,1.77969375,1.0,2653.9233393825807,0.2743181188271211,1.3252665653209237,0.9420312989344417,0.2878001375,0.662632849120948
0.029,1.778975,1.0,2662.637964456682,0.27838861617256677,1.3248617017713396,0.9435557264882014,0.28776995,0.6634721770479248
0.029500000000000002,1.7782437500000001,1.0,2670.691216646945,0.28243628360736983,1.3244574013882668,0.9450119947587045,0.2877392375,0.6643092942741489
0.03,1.7775,1.0,2678.122722533039,0.28646125069125583,1.324053272477716,0.9464040968417069,0.287708,0.6651450146571527
0.0305,1.77674375,1.0,2684.9596403417013,0.290463642297707,1.3236490419450262,0.9477357498123575,0.2876762375,0.6659799032144984
0.031,1.775975,1.0,2691.2294914360305,0.2944435833002052,1.3232444366955358,0.9490104043300005,0.28764395,0.6668145221472759
0.0315,1.7751937500000001,1.0,2696.960127576451,0.2984011985722327,1.322839183634584,0.9502312670551974,0.2876111375,0.6676494308359544
0.032,1.7744,1.0,2702.179699835504,0.3023366129872714,1.3224330096675099,0.9514013209191248,0.2875778,0.668485185831478
0.0325,1.77359375,1.0,2706.9166291661686,0.3062499514188035,1.322025641699652,0.9525233434742232,0.2875439375,0.6693223408416049
0.033,1.772775,1.0,2711.199578623429,0.310141338740311,1.3216168066363494,0.95359992352833,0.28750955,0.6701614467124906
0.0335,1.7719437500000002,1.0,2715.053482162098,0.31401089763220463,1.32120626733747,0.9546334797559619,0.2874746375,0.671002977752327
0.034,1.7711000000000001,1.0,2718.5019118390164,0.31785875061008295,1.3207938007198265,0.9556262721733906,0.2874392,0.6718473769761741
0.0345,1.7702437500000001,1.0,2721.576719330165,0.32168502469404836,1.3203791097693087,0.9565804060191778,0.2874032375,0.6726952360440857
0.035,1.7693750000000001,1.0,2724.2951257777313,0.32548983838861695,1.3199620320065484,0.9574978629839733,0.28736675,0.6735468688591852
0.035500000000000004,1.76849375,1.0,2726.674460995627,0.32927331019830475,1.319542404952177,0.9583804983214478,0.2873297375,0.6744025874916422
0.036000000000000004,1.7676,1.0,2728.7321520240644,0.3330355586276278,1.319120066126826,0.959230050365883,0.2872922,0.6752627021530937
0.0365,1.76669375,1.0,2730.485712269715,0.33677670218110217,1.3186948530511278,0.9600481492294987,0.2872541375,0.676127521169388
0.037,1.765775,1.0,2731.9527312310497,0.340496859363244,1.3182666032457133,0.9608363247586236,0.28721555,0.6769973509516445
0.0375,1.76484375,1.0,2733.1508648090694,0.3441961486785693,1.3178351542312146,0.9615960138194366,0.2871764375,0.6778724959656253
0.038,1.7639,1.0,2734.097826203183,0.34787468863159404,1.317400343528263,0.962328566976567,0.28713679999999997,0.6787532586994279
0.0385,1.76294375,1.0,2734.812412675884,0.3515325956178012,1.3169619992563022,0.9630352533084732,0.28709663750000003,0.6796399586334436
0.039,1.761975,1.0,2735.306142757991,0.35516998540882455,1.3165200159997106,0.9637172735000994,0.28705595,0.6805327789271141
0.0395,1.7609937500000001,1.0,2735.5912249788976,0.3587869722073228,1.3160742823678855,0.9643757577112642,0.2870147375,0.6814319133470224
0.04,1.76,1.0,2735.6799648019355,0.3623836701719563,1.3156246863389045,0.9650117712110294,0.286973,0.6823375554000898
0.0405,1.7589939313484577,1.0,2735.598648532346,0.3659601917500656,1.3151710710586535,0.9656263145894468,0.2869307451166352,0.6832499871420319
0.041,1.7579835605998384,1.0,2735.760201111723,0.3695166445124667,1.3147133077990625,0.9662203339463067,0.2868883095451932,0.6841694320604992
0.0415,1.756973189851219,1.0,2736.3015183025896,0.3730531563837031,1.3142520968391542,0.9667947971477197,0.28684587397375116,0.6850944503577642
0.042,1.7559628191025995,1.0,2737.1998971615453,0.37656983596094246,1.3137876452721762,0.9673505736217434,0.28680343840230915,0.6860245971764762
0.0425,1.7549524483539802,1.0,2738.432692688876,0.3800667918413522,1.3133201601913758,0.9678884854518306,0.28676100283086714,0.6869594299032227
0.043000000000000003,1.753942077605361,1.0,2739.9773034243285,0.3835441326221,1.3128498486900004,0.968409310440859,0.28671856725942513,0.6878985082099612
0.043500000000000004,1.7529317068567416,1.0,2741.811157994089,0.3870019669003534,1.3123769178612976,0.9689137849474309,0.2866761316879831,0.6888413940927172
0.044,1.751921336108122,1.0,2743.911702608291,0.3904404032732797,1.311901574798515,0.9694026065134624,0.2866336961165411,0.6897876519075459
0.0445,1.7509109653595027,1.0,2746.2563895099915,0.39385955033804676,1.3114240265948995,0.9698764363003246,0.2865912605450991,0.6907368484037606
0.045,1.7499005946108834,1.0,2748.8226663743762,0.397259516691822,1.3109444803436991,0.9703359013492173,0.2865488249736571,0.6916885527544225
0.0455,1.7488902238622641,1.0,2751.587966659211,0.40064041093177294,1.3104631431381613,0.9707815966800437,0.28650638940221507,0.6926423365840995
0.046,1.7478798531136448,1.0,2754.529700906237,0.4040023416550672,1.309980222071533,0.9712140872417568,0.28646395383077305,0.6935977739938872
0.0465,1.7468694823650253,1.0,2757.627323167528,0.40734541672177926,1.3094959054799946,0.9716339082490438,0.28642151825933104,0.6945544786068821
0.047,1.745859111616406,1.0,2760.871121868036,0.41066974045622157,1.3090102834857107,0.9720415608498234,0.28637908268788903,0.6955122598854615
0.0475,1.7448487408677866,1.0,2764.249250867466,0.41397541731418747,1.3085234653864413,0.9724375230823971,0.286336647116447,0.6964708906439459
0.048,1.7438383701191673,1.0,2767.749267704907,0.4172625517760406,1.3080355656870075,0.972822250213355,0.286294211545005,0.6974301347955525
0.0485,1.7428279993705478,1.0,2771.3669027962137,0.4205312400914321,1.3075466249529917,0.973196169522625,0.286251775973563,0.6983899026786475
0.049,1.7418176286219285,1.0,2775.0779452091565,0.42378159909826635,1.3070568634751403,0.9735597029055724,0.286209340402121,0.6993497531658452
0.0495,1.7408072578733091,1.0,2778.8736810682076,0.427013731006819,1.306566361398192,0.9739132411052964,0.28616690483067897,0.7003095218720445
0.05,1.7397968871246898,1.0,2782.7478900621686,0.4302277355441055,1.3060751762356968,0.974257154891449,0.28612446925923696,0.7012690895799973
0.0505,1.7387865163760703,1.0,2786.694337369362,0.43342371243714134,1.3055833655012057,0.9745917979728075,0.28608203368779495,0.7022283377836624
0.051000000000000004,1.737776145627451,1.0,2790.7067728235834,0.43660176141294205,1.3050909867082687,0.9749175079360837,0.28603959811635293,0.703187148690609
0.051500000000000004,1.7367657748788317,1.0,2794.778930152637,0.43976198219852314,1.304598097370437,0.9752346071250675,0.2859971625449109,0.7041454052242022
0.052000000000000005,1.7357554041302123,1.0,2798.9045262910367,0.44290447452090015,1.3041047550012608,0.9755434034643903,0.2859547269734689,0.705102991025584
0.0525,1.7347450333815928,1.0,2803.0772607654476,0.44602933810708845,1.3036110171142905,0.9758441912318492,0.2859122914020269,0.70605979045544
0.053,1.7337346626329735,1.0,2807.290815153701,0.44913667268410373,1.3031169412230765,0.9761372517829252,0.2858698558305849,0.7070156885955547
0.0535,1.7327242918843542,1.0,2811.5388526170136,0.4522265779789614,1.3026225848411699,0.9764228542308411,0.2858274202591429,0.707970571250156
0.054,1.7317139211357349,1.0,2815.818793220604,0.455299144306458,1.30212797169242,0.9767012530892236,0.28578498468770086,0.7089243900542868
0.0545,1.7307035503871155,1.0,2820.124993878453,0.4583544748181472,1.3016331528246197,0.9769726949282368,0.28574254911625885,0.7098770443784428
0.055,1.729693179638496,1.0,2824.450257276916,0.46139267651868604,1.301138193020557,0.9772374170544235,0.28570011354481684,0.7108284078581434
0.0555,1.7286828088898767,1.0,2828.7925945026122,0.4644138421972143,1.300643110362195,0.9774956426979284,0.2856576779733748,0.711778444488983
0.056,1.7276724381412574,1.0,2833.1500105332416,0.46741806464287167,1.300147922931497,0.9777475858217526,0.2856152424019328,0.7127271184946051
0.0565,1.726662067392638,1.0,2837.5205041920512,0.4704054366447976,1.2996526488104263,0.97799345158311,0.2855728068304908,0.7136743943268347
0.057,1.7256516966440185,1.0,2841.9020681093275,0.4733760509921319,1.2991573060809465,0.9782334367681887,0.2855303712590488,0.7146202366657873
0.0575,1.7246413258953992,1.0,2846.2926886914643,0.4763300004740141,1.2986619128250207,0.9784677302020492,0.2854879356876068,0.7155646104199609
0.058,1.7236309551467799,1.0,2850.6903460969816,0.47926737787958384,1.2981664871246121,0.9786965131352747,0.28544550011616476,0.7165074807263027
0.0585,1.7226205843981606,1.0,2855.093014219795,0.4821882759979808,1.2976710470616846,0.978919959608865,0.28540306454472275,0.7174488129502563
0.059000000000000004,1.721610213649541,1.0,2859.4986606800658,0.4850927876183446,1.2971756107182009,0.9791382367987634,0.28536062897328074,0.7183885726857919
0.059500000000000004,1.7205998429009217,1.0,2863.905246821835,0.4879810055298148,1.2966801961761245,0.9793515053413019,0.2853181934018387,0.719326725755409
0.06,1.7195894721523024,1.0,2868.3107277183044,0.4908530225215311,1.2961848215174188,0.9795599196407679,0.2852757578303967,0.7202632382101237
0.0605,1.718579101403683,1.0,2872.713052184069,0.49370893138263316,1.295689504824047,0.9797636281602007,0.2852333222589547,0.7211980763294319
0.061,1.7175687306550638,1.0,2877.112802299213,0.4965488034197463,1.2951942408094415,0.9799627707699914,0.2851908866875127,0.7221312506152344
0.0615,1.7165583599064442,1.0,2881.50713106043,0.49937274940117693,1.294699054539171,0.9801574867322101,0.2851484511160707,0.7230627144570112
0.062,1.715547989157825,1.0,2885.894175889817,0.5021808679953685,1.294203962300454,0.9803479086673635,0.28510601554462867,0.7239924380316105
0.0625,1.7145376184092056,1.0,2890.273535958711,0.5049732442327035,1.293708967419555,0.9805341625522769,0.28506357997318665,0.7249204159991671
0.063,1.7135272476605863,1.0,2894.6448093584017,0.5077499631435641,1.2932140732227386,0.9807163697193494,0.28502114440174464,0.7258466430616406
0.0635,1.7125168769119667,1.0,2899.007593107406,0.5105111097583327,1.2927192830362702,0.9808946470625639,0.28497870883030263,0.7267711139627933
0.064,1.7115065061633474,1.0,2903.361483159352,0.5132567691073914,1.292224600186414,0.9810691072328874,0.2849362732588606,0.7276938234881714
0.0645,1.7104961354147281,1.0,2907.7060744103633,0.5159870262211226,1.2917300279994353,0.9812398588236887,0.2848938376874186,0.7286147664650788
0.065,1.7094857646661088,1.0,2912.040960707578,0.5187019661299086,1.2912355698015985,0.9814070065467512,0.2848514021159766,0.7295339377625583
0.0655,1.7084753939174893,1.0,2916.36573485675,0.5214016738641317,1.2907412289191689,0.9815706513994177,0.2848089665445345,0.730451332291363
0.066,1.70746502316887,1.0,2920.6799886317267,0.5240862344541742,1.290247008678411,0.9817308908233819,0.28476653097309257,0.7313669450039362
0.0665,1.7064546524202506,1.0,2924.983312782211,0.5267557329304186,1.2897529124055898,0.9818878188555963,0.28472409540165056,0.7322807708943834
0.067,1.7054442816716313,1.0,2929.2752970434217,0.5294102543232467,1.28925894342697,0.9820415262717406,0.28468165983020854,0.7331928049984472
0.0675,1.704433910923012,1.0,2933.5555301452564,0.5320498836630413,1.2887651050688163,0.9821921007226724,0.28463922425876653,0.7341030423934807
0.068,1.7034235401743925,1.0,2937.823599821601,0.5346747059801844,1.2882714006573937,0.9823396268642429,0.28459678868732446,0.7350114781984198
0.0685,1.7024131694257731,1.0,2942.079092820355,0.5372848063050584,1.2877778335189671,0.9824841864808515,0.28455435311588245,0.7359181075737553
0.069,1.7014027986771538,1.0,2946.3215949132973,0.5398802696680455,1.287284406979801,0.9826258586030776,0.28451191754444044,0.7368229257215052
0.0695,1.7003924279285345,1.0,2950.552181243186,0.5424611135608245,1.286791111336885,0.9827647148220499,0.28446948197299843,0.7377259517160536
0.07,1.699382057179915,1.0,2954.7694121177683,0.5450275049319643,1.2862979588863204,0.9829008346011702,0.2844270464015564,0.7386271643416034
0.07050000000000001,1.6983716864312957,1.0,2958.9732674817965,0.5475795228937583,1.2858049494967396,0.9830342888133206,0.2843846108301144,0.7395265651886676
0.07100000000000001,1.6973613156826763,1.0,2963.16378593852,0.5501172433583091,1.2853120825266067,0.9831651458039021,0.2843421752586724,0.740424156774014
0.07150000000000001,1.696350944934057,1.0,2967.3410064346463,0.5526407422377195,1.2848193573343845,0.9832934717065602,0.2842997396872304,0.7413199416059573
