Time [s],Phi [rad],STIM [ ],Fsee [N],Gamma [ ],Lcerel [ ],q [ ],Lmtc [m],fisomrel [ ]
0.0,1.8,1.0,18.08236986756662,0.00034565712010053474,1.3793268592821817,0.005030963325737425,0.288653,0.5411707073568748
0.0005,1.79999375,1.0,18.49934270622557,0.005952927565853045,1.3792777362550506,0.013898592851195424,0.2886527375,0.5412895369299882
0.001,1.799975,1.0,22.090115975391704,0.011528745657767122,1.378890381394864,0.037379110987844126,0.28865195,0.5422260168573165
0.0015,1.79994375,1.0,32.08418346475908,0.017073287819685055,1.3779604285714133,0.07301127525991072,0.2886506375,0.544470390414903
0.002,1.7999,1.0,55.67532817334083,0.02258672948358106,1.3762336531151818,0.11756251650781452,0.2886488,0.5486232087487408
0.0025,1.79984375,1.0,100.55868832183629,0.02806924509883314,1.373770856114801,0.16766373287948946,0.28864643749999996,0.5545132242321708
0.003,1.7997750000000001,1.0,165.38381260837835,0.03352100813734025,1.3710498109366067,0.2204633735705131,0.28864354999999997,0.5609758858542998
0.0035,1.79969375,1.0,242.65626053944902,0.0389421910953947,1.36843234781512,0.2737760842763143,0.2886401375,0.5671479753936177
0.004,1.7996,1.0,326.74144192865344,0.04433296550361505,1.3660169549433778,0.32597681357938296,0.2886362,0.5728048108864074
0.0045000000000000005,1.7994937500000001,1.0,414.719132423747,0.04969350193245198,1.3637952727637213,0.37593894152103025,0.2886317375,0.5779751260037298
0.005,1.799375,1.0,504.9671950458509,0.05502396998357058,1.3617406531606944,0.42296392746978617,0.28862675,0.5827286347285531
0.0055,1.79924375,1.0,596.3875508039017,0.06032453832843622,1.359829738405097,0.466688158538642,0.2886212375,0.5871255081610951
0.006,1.7991000000000001,1.0,688.1154510685959,0.06559537467571075,1.358044877706766,0.5069903936963583,0.2886152,0.5912113059564637
0.006500000000000001,1.79894375,1.0,779.4396354008703,0.07083664577901737,1.356372538234008,0.5439130783436499,0.2886086375,0.5950210905377888
0.007,1.798775,1.0,869.7754831802146,0.07604851754957577,1.3548018595680646,0.5776016329614626,0.28860155,0.5985830371398067
0.0075,1.79859375,1.0,958.6331095435972,0.08123115472143771,1.3533239939068278,0.608260568239593,0.2885939375,0.6019201381687753
0.008,1.7984,1.0,1045.6388321274947,0.08638472156849832,1.3519310018211188,0.636122677474773,0.2885858,0.6050528378736725
0.0085,1.79819375,1.0,1130.472579155641,0.09150938091334758,1.3506163016968356,0.6614293474726435,0.2885771375,0.6079981153840357
0.009000000000000001,1.797975,1.0,1212.8907446229148,0.09660529476739514,1.349373915213851,0.6844174962420726,0.28856795,0.6107712607402577
0.0095,1.79774375,1.0,1292.7329906008056,0.10167262489503162,1.3481981273533923,0.7053119407814729,0.2885582375,0.6133866840165523
0.01,1.7975,1.0,1369.8632004444758,0.10671153129144884,1.347084078860614,0.7243217460069327,0.288548,0.6158566396730838
0.0105,1.79724375,1.0,1444.192742905377,0.11172217317766074,1.3460272539570617,0.7416382290893373,0.2885372375,0.618192409180278
0.011,1.796975,1.0,1515.6803713984896,0.11670470913971169,1.3450233551922748,0.7574346379234955,0.28852595000000003,0.620404605777632
0.0115,1.79669375,1.0,1584.3228929688673,0.12165929765801693,1.344068318445413,0.7718667714471416,0.2885141375,0.622503164037455
0.012,1.7964,1.0,1650.106380115762,0.1265860946597033,1.343158796910164,0.7850742773112446,0.28850180000000003,0.6244963013493905
0.0125,1.79609375,1.0,1713.0538679491553,0.1314852558845528,1.3422914929937064,0.7971816621689485,0.2884889375,0.6263920083677916
0.013000000000000001,1.7957750000000001,1.0,1773.2068246455942,0.13635693630739804,1.3414633216576832,0.8082997822800496,0.28847555,0.6281977039620585
0.0135,1.79544375,1.0,1830.6422162470576,0.14120129137203274,1.3406711667031979,0.8185271473765409,0.2884616375,0.6299207786258991
0.014,1.7951000000000001,1.0,1885.4086223268616,0.1460184735825251,1.339912549385483,0.8279515059174417,0.2884472,0.631567151690885
0.0145,1.79474375,1.0,1937.5627852790572,0.1508086347076465,1.3391851609575498,0.8366508763839059,0.2884322375,0.6331423041651819
0.015,1.794375,1.0,1987.1824800913403,0.15557192651616847,1.3384866926724093,0.8446946090833546,0.28841675,0.6346516546036161
0.0155,1.79399375,1.0,2034.345551777742,0.1603084997187935,1.337815037240281,0.8521444666473014,0.2884007375,0.6361001295100368
0.016,1.7936,1.0,2079.157421870717,0.16501850555370973,1.3371679736298323,0.8590554184955612,0.2883842,0.637492849356992
0.0165,1.7931937500000001,1.0,2121.6877021253204,0.1697020920333372,1.336543811165234,0.8654766397010749,0.2883671375,0.638833747341771
0.017,1.792775,1.0,2162.0111514312784,0.17435940676017628,1.3359409316957367,0.8714520569143718,0.28834955,0.6401265638118634
0.0175,1.7923437500000001,1.0,2200.213488696981,0.17899059733672734,1.3353577170705921,0.8770209473286351,0.2883314375,0.6413750051058695
0.018000000000000002,1.7919,1.0,2236.375431486505,0.18359581011822315,1.334792700010945,0.8822185249246688,0.2883128,0.6425824235311908
0.0185,1.79144375,1.0,2270.599366481711,0.18817519257799978,1.3342442838462034,0.8870763414611531,0.2882936375,0.643752419375442
0.019,1.790975,1.0,2302.956521274825,0.19272888854751455,1.3337112624061447,0.891622839138458,0.28827395,0.6448877338753101
0.0195,1.79049375,1.0,2333.5185440224636,0.1972570413296812,1.3331924892602824,0.8958836240606672,0.2882537375,0.6459909601420172
0.02,1.79,1.0,2362.362883991102,0.20175979422741355,1.33268681797813,0.8998817737010212,0.288233,0.6470646720139881
0.0205,1.78949375,1.0,2389.5625380555907,0.2062372896381783,1.3321931969677956,0.9036381415868634,0.2882117375,0.6481112241336587
0.021,1.7889751867435073,1.0,2415.2137822396485,0.2106896705551791,1.3317104788548333,0.9071715620103408,0.2881899578432273,0.6491331575825804
0.021500000000000002,1.7884523474349894,1.0,2439.7474563915157,0.21511707839374328,1.3312378892814833,0.9104991709525647,0.28816799859226955,0.6501322088786601
0.022,1.7879295081264714,1.0,2463.3903819294896,0.21951965182939323,1.330775007596953,0.9136365812464013,0.2881460393413118,0.6511093569809809
0.0225,1.7874066688179535,1.0,2486.1720835703045,0.2238975295376515,1.3303214131504497,0.9165979729809564,0.28812408009035406,0.6520655740251591
0.023,1.7868838295094356,1.0,2508.123488755779,0.2282508501940404,1.329876685291181,0.9193962447365128,0.2881021208393963,0.6530018255781351
0.0235,1.7863609902009177,1.0,2529.2755987111614,0.23257975181311638,1.3294404151175916,0.9220431488956576,0.2880801615884385,0.6539190461962657
0.024,1.7858381508923997,1.0,2549.6590057644394,0.23688437206288407,1.3290122090222494,0.9245494102542811,0.2880582023374808,0.6548181323797821
0.0245,1.7853153115838818,1.0,2569.304356576442,0.24116484826684914,1.328591683358021,0.9269248291935718,0.28803624308652304,0.6556999541707338
0.025,1.7847924722753639,1.0,2588.2372435671605,0.24542131438360645,1.3281785112999862,0.9291783806261815,0.28801428383556527,0.6565652574009083
0.025500000000000002,1.784269632966846,1.0,2606.4841429104667,0.24965390437175083,1.3277723660232257,0.9313182874555369,0.28799232458460755,0.6574147833913795
0.026000000000000002,1.783746793658328,1.0,2624.072362432327,0.25386275218987714,1.3273729207028189,0.9333520937990109,0.2879703653336498,0.6582492691023785
0.0265,1.7832239543498103,1.0,2641.028457404894,0.25804799078069374,1.3269798626933167,0.9352867319760972,0.287948406082692,0.659069417707461
0.027,1.7827011150412924,1.0,2657.369530633109,0.26220974646077394,1.3265929730188417,0.9371285902839491,0.2879264468317343,0.6598757333377364
0.0275,1.7821782757327744,1.0,2673.1426936072276,0.2663481657841621,1.326211762144589,0.9388835201248056,0.2879044875807765,0.6606692800973281
0.028,1.7816554364242565,1.0,2688.366305704234,0.2704633761896643,1.3258360117242534,0.9405569496204194,0.28788252832981875,0.6614505531365824
0.0285,1.7811325971157386,1.0,2703.0592003991515,0.27455550511608684,1.3254655034115306,0.9421538902343027,0.28786056907886104,0.66222004492691
0.029,1.7806097578072206,1.0,2717.240659359227,0.27862468000223584,1.3251000188601156,0.9436789741856108,0.28783860982790327,0.6629782453353076
0.029500000000000002,1.7800869184987027,1.0,2730.930387595215,0.2826710282869175,1.3247393397237042,0.9451364880550852,0.2878166505769455,0.6637256416958313
0.03,1.7795640791901848,1.0,2744.1484896694988,0.2866946774089379,1.3243832476559914,0.9465304030121009,0.2877946913259878,0.664462718878035
0.0305,1.7790412398816668,1.0,2756.915446960966,0.29069575480710336,1.3240315243106726,0.9478644020393658,0.28777273207503,0.665189959352366
0.031,1.778518400573149,1.0,2769.25209598765,0.2946743879202201,1.3236839513414433,0.9491419044861568,0.28775077282407224,0.6659078432525196
0.0315,1.777995561264631,1.0,2781.1796077857343,0.2986307041870942,1.323340310401999,0.9503660882412677,0.28772881357311453,0.6666168484347543
0.032,1.777472721956113,1.0,2792.714154070562,0.3025648259963744,1.3230004309009376,0.9515399140647441,0.28770685432215676,0.6673173521613798
0.0325,1.7769498826475951,1.0,2803.87448706401,0.3064768802118479,1.322664121382094,0.9526661379867182,0.287684895071199,0.6680097728721981
0.033,1.7764270433390772,1.0,2814.6831929003747,0.31036699745115687,1.322331158381208,0.9537473263242401,0.2876629358202413,0.6686945929101676
0.0335,1.7759042040305593,1.0,2825.152434804019,0.31423529764217456,1.322001413967468,0.9547858814530666,0.2876409765692835,0.6693720963104314
0.034,1.7753813647220413,1.0,2835.2945529882445,0.31808190071277426,1.321674760210062,0.9557840468888862,0.28761901731832573,0.670042565828441
0.0345,1.7748585254135236,1.0,2845.122055707001,0.32190692659082903,1.3213510691781787,0.9567439196756166,0.287597058067368,0.6707062829656933
0.035,1.7743356861050057,1.0,2854.6476106701175,0.3257104952042121,1.321030212941006,0.9576674616693239,0.28757509881641025,0.671363527994427
0.035500000000000004,1.7738128467964878,1.0,2863.884036821339,0.3294927264807967,1.320712063567733,0.9585565098277876,0.2875531395654525,0.6720145799812705
0.036000000000000004,1.7732900074879698,1.0,2872.8442964789288,0.333253740348456,1.3203964931275471,0.9594127856036941,0.28753118031449476,0.6726597168098523
0.0365,1.772767168179452,1.0,2881.5414878391284,0.33699365673506315,1.3200833736896376,0.9602379035288366,0.287509221063537,0.6732992152023591
0.037,1.772244328870934,1.0,2889.988837843195,0.3407125955684914,1.319772577323192,0.9610333790673218,0.2874872618125792,0.6739333507400611
0.0375,1.771721489562416,1.0,2898.194160812307,0.34441066813956595,1.3194640249186829,0.9618006387207583,0.2874653025616215,0.674562298414398
0.038,1.771198650253898,1.0,2906.1717075461634,0.34808799858500217,1.3191575814173353,0.9625410208798494,0.28744334331066373,0.6751863463770312
0.0385,1.7706758109453802,1.0,2913.9352015936984,0.35174471003200786,1.3188531174114488,0.9632557849838033,0.28742138405970596,0.6758057701434975
0.039,1.7701529716368622,1.0,2921.491874463446,0.35538091478195155,1.3185505614599613,0.9639461199695423,0.2873994248087482,0.6764207263824726
0.0395,1.7696301323283443,1.0,2928.8490245873963,0.35899672513620173,1.3182498421218105,0.9646131460177327,0.2873774655577905,0.6770313711398046
0.04,1.7691072930198264,1.0,2936.01401435527,0.36259225339612694,1.317950887955934,0.9652579192663876,0.2873555063068327,0.6776378598470443
0.0405,1.7685844537113085,1.0,2942.9942672623865,0.36616761186309577,1.3176536275212702,0.9658814361531487,0.28733354705587494,0.6782403473296497
0.041,1.7680616144027905,1.0,2949.7972651698155,0.3697229128384767,1.3173579893767566,0.9664846374191186,0.28731158780491717,0.6788389878148675
0.0415,1.7675387750942726,1.0,2956.430545678569,0.3732582686236383,1.3170639020813308,0.9670684118038927,0.28728962855395945,0.6794339349392866
0.042,1.7670159357857547,1.0,2962.901699615998,0.37677379151994905,1.3167712941939311,0.9676335994585741,0.2872676693030017,0.6800253417560649
0.0425,1.766493096477237,1.0,2969.218368636646,0.38026959382877756,1.316480094273495,0.9681809951009817,0.28724571005204397,0.6806133607418356
0.043000000000000003,1.765970257168719,1.0,2975.3882429346922,0.3837457878514924,1.3161902308789606,0.9687113509349664,0.2872237508010862,0.6811981438032833
0.043500000000000004,1.765447417860201,1.0,2981.416509483455,0.38720247853804735,1.3159016547433608,0.9692253799807921,0.2872017915501284,0.6817797976097144
0.044,1.7649245785516832,1.0,2987.307931766283,0.3906397725658865,1.315614320576629,0.9697237585228128,0.28717983229917066,0.6823584204303342
0.0445,1.7644017392431652,1.0,2993.074282040105,0.39405779781824224,1.3153281225210764,0.9702071262690826,0.28715787304821294,0.6829342319749139
0.045,1.7638788999346473,1.0,2998.71946008383,0.39745665845666733,1.3150430234761152,0.9706760918581413,0.28713591379725517,0.6835073130071043
0.0455,1.7633560606261294,1.0,3004.2473900092805,0.40083645864271455,1.3147589863411584,0.9711312330657149,0.2871139545462974,0.684077743997087
0.046,1.7628332213176114,1.0,3009.662019372536,0.40419730253793673,1.3144759740156182,0.9715730986676531,0.2870919952953397,0.6846456051241334
0.0465,1.7623103820090935,1.0,3014.967318315348,0.40753929430388675,1.3141939493989074,0.9720022101731625,0.2870700360443819,0.6852109762790715
0.047,1.7617875427005756,1.0,3020.1672787379284,0.41086253810211737,1.3139128753904386,0.9724190634385209,0.28704807679342415,0.6857739370666678
0.0475,1.7612647033920577,1.0,3025.2659135014023,0.4141671380941815,1.3136327148896243,0.9728241301705689,0.28702611754246643,0.6863345668079198
0.048,1.7607418640835397,1.0,3030.2672556610123,0.4174531984416319,1.313353430795877,0.9732178593284789,0.28700415829150866,0.6868929445422627
0.0485,1.7602190247750218,1.0,3035.175357730295,0.4207208233060214,1.3130749860086093,0.9736006784315666,0.2869821990405509,0.6874491490296847
0.049,1.7596961854665039,1.0,3039.994290975292,0.4239701168489029,1.3127973434272342,0.9739729947802581,0.2869602397895932,0.688003258752758
0.0495,1.759173346157986,1.0,3044.728144739101,0.42720118323182915,1.3125204659511638,0.974335196596725,0.2869382805386354,0.6885553519185825
0.05,1.758650506849468,1.0,3049.3810257979194,0.430414126616353,1.3122443164798108,0.974687654091158,0.28691632128767763,0.6891055064606371
0.0505,1.7581276675409503,1.0,3053.956187830345,0.4336090460996822,1.3119688653879675,0.9750307203769802,0.2868943620367199,0.6896537851675517
0.051000000000000004,1.7576048282324324,1.0,3058.4532177699507,0.4367860229334692,1.3116941146537866,0.9753647325727348,0.28687240278576215,0.6902001877876025
0.051500000000000004,1.7570819889239144,1.0,3062.8812443272445,0.4399451960966133,1.3114199844024381,0.9756900136944806,0.2868504435348044,0.6907448766415345
0.052000000000000005,1.7565591496153965,1.0,3067.242180689553,0.443086660972608,1.3111464568840403,0.9760068714886739,0.28682848428384666,0.6912878902057018
0.0525,1.7560363103068786,1.0,3071.537948396863,0.44621051294494685,1.310873514348712,0.9763156000982852,0.2868065250328889,0.6918292668255139
0.053,1.7555134709983606,1.0,3075.770477108669,0.4493168473971234,1.3106011390465715,0.9766164807813555,0.2867845657819311,0.6923690447161108
0.0535,1.7549906316898427,1.0,3079.9417043767994,0.4524057597126311,1.3103293132277376,0.9769097825856383,0.2867626065309734,0.6929072619630126
0.054,1.7544677923813248,1.0,3084.053575425921,0.45547734527496353,1.3100580191423288,0.977195762982362,0.28674064728001564,0.6934439565227528
0.0545,1.7539449530728068,1.0,3088.10804294058,0.4585316994676142,1.3097872390404637,0.9774746684619205,0.28671868802905787,0.6939791662234905
0.055,1.753422113764289,1.0,3092.107066859924,0.46156891767407665,1.3095169551722605,0.9777467350940746,0.28669672877810015,0.6945129287656022
0.0555,1.752899274455771,1.0,3096.05261417815,0.4645890952778443,1.3092471497878382,0.9780121890550609,0.2866747695271424,0.6950452817222526
0.056,1.752376435147253,1.0,3099.9466587534107,0.4675923276624108,1.3089778051373149,0.9782712471238232,0.2866528102761846,0.6955762625399473
0.0565,1.7518535958387351,1.0,3103.791181122651,0.4705787102112696,1.3087089034708095,0.978524117149411,0.2866308510252269,0.696105908539064
0.057,1.7513307565302172,1.0,3107.5881683237494,0.47354833830791426,1.3084404270384404,0.9787709984914453,0.2866088917742691,0.6966342569143639
0.0575,1.7508079172216993,1.0,3111.3396137249233,0.4765013073358383,1.3081723580903262,0.9790120824354088,0.28658693252331136,0.6971613447354841
0.058,1.7502850779131813,1.0,3115.0475168607345,0.47943771267853513,1.3079046788765853,0.9792475525843922,0.28656497327235364,0.6976872089474071
0.0585,1.7497622386046636,1.0,3118.7138832750065,0.48235764971949846,1.3076373716473366,0.9794775852288067,0.28654301402139587,0.6982118863709136
0.059000000000000004,1.7492393992961457,1.0,3122.338336527,0.4852611829079464,1.3073704389460297,0.9797023482473309,0.2865210547704381,0.6987353739225927
0.059500000000000004,1.7487165599876278,1.0,3125.9228398570067,0.4881484150294204,1.3071038634454855,0.9799220050403511,0.2864990955194804,0.6992577074517112
0.06,1.7481937206791098,1.0,3129.4714316070576,0.4910194752271851,1.306837610250341,0.9801367138096815,0.2864771362685226,0.6997789570658797
0.0605,1.747670881370592,1.0,3132.984949168174,0.49387444913837975,1.3065716717079934,0.9803466246116934,0.28645517701756484,0.7002991393691529
0.061,1.747148042062074,1.0,3136.4642326241624,0.4967134224001436,1.3063060401658408,0.9805518817838186,0.28643321776660713,0.7008182709117421
0.0615,1.746625202753556,1.0,3139.910124699094,0.4995364806496158,1.3060407079712806,0.9807526242060541,0.28641125851564936,0.7013363681901702
0.062,1.746102363445038,1.0,3143.3234707059287,0.5023437095239356,1.3057756674717105,0.9809489855485939,0.2863892992646916,0.701853447647417
0.0625,1.7455795241365202,1.0,3146.7051184964143,0.5051351946602423,1.3055109110145278,0.981141094506425,0.2863673400137339,0.7023695256730653
0.063,1.7450566848280022,1.0,3150.055918411784,0.5079110216956749,1.3052464309471303,0.9813290750216669,0.2863453807627761,0.7028846186034401
0.0635,1.7445338455194843,1.0,3153.3767232359883,0.5106712762673729,1.3049822196169154,0.9815130464943783,0.28632342151181833,0.7033987427217461
0.064,1.7440110062109664,1.0,3156.668388148777,0.5134160440124752,1.304718269371281,0.9816931239825143,0.2863014622608606,0.7039119142581995
0.0645,1.7434881669024485,1.0,3159.9317706810034,0.5161454105681212,1.3044545725576244,0.9818694183916629,0.28627950300990285,0.7044241493901602
0.065,1.7429653275939305,1.0,3163.16773067104,0.5188594615714502,1.3041911215233433,0.9820420366551572,0.2862575437589451,0.7049354642422532
0.0655,1.7424424882854126,1.0,3166.377130222362,0.5215582826596012,1.3039279086158353,0.9822110819051185,0.2862355845079873,0.7054458748864938
0.066,1.7419196489768947,1.0,3169.56083366253,0.5242419594697137,1.303664926182498,0.9823766536349432,0.2862136252570296,0.7059553973424045
0.0665,1.7413968096683767,1.0,3172.719707503293,0.5269105776389267,1.3034021665707287,0.9825388478537275,0.2861916660060718,0.7064640475771294
0.067,1.740873970359859,1.0,3175.8546204023096,0.5295642228043794,1.3031396221279254,0.9826977572330776,0.2861697067551141,0.7069718415055439
0.0675,1.740351131051341,1.0,3178.9664431258175,0.5322029806032111,1.3028772852014856,0.9828534712467353,0.28614774750415634,0.7074787949903634
0.068,1.7398282917428232,1.0,3182.0560485130545,0.5348269366725611,1.3026151481388066,0.9830060763034182,0.28612578825319857,0.7079849238422453
0.0685,1.7393054524343052,1.0,3185.1243114414533,0.5374361766495684,1.3023532032872864,0.9831556558732464,0.28610382900224085,0.7084902438198879
0.069,1.7387826131257873,1.0,3188.1721087933784,0.5400307861713725,1.3020914429943222,0.9833022906081135,0.2860818697512831,0.7089947706301281
0.0695,1.7382597738172694,1.0,3191.1989764287196,0.5426108112949539,1.3018298708970781,0.9834460565831343,0.2860599105003253,0.7094984981959602
0.07,1.7377369345087514,1.0,3194.20606303946,0.5451763598348783,1.3015684770760336,0.9835870304427572,0.28603795124936754,0.710001446537123
