Time [s],Phi [rad],STIM [ ],Fsee [N],Gamma [ ],Lcerel [ ],q [ ],Lmtc [m],fisomrel [ ]
0.0,1.8,1.0,18.322882350540784,0.0006066486937451926,1.3793000885440971,0.005094939266473901,0.288653,0.5412354682093115
0.0005,1.79999375,1.0,18.817077762555257,0.006212455183165256,1.3792428044154907,0.01467960745757127,0.2886527375,0.5413740283771488
0.001,1.799975,1.0,22.601558305424092,0.01178681753036554,1.3788390015435428,0.03878519756807055,0.28865195,0.5423501623389402
0.0015,1.79994375,1.0,33.03410759805847,0.01732991211299362,1.3778813695648051,0.07490566349216306,0.2886506375,0.5446609392086327
0.002,1.7999,1.0,57.48959536568869,0.022841914317514898,1.3761191119331777,0.11978651875226372,0.2886488,0.5488980026740999
0.0025,1.79984375,1.0,103.41874625272918,0.028322998547088335,1.373636364001822,0.17007072147567306,0.28864643749999996,0.5548337611463581
0.003,1.7997750000000001,1.0,168.9758201886181,0.03377333822971433,1.3709178823328616,0.22293848597625643,0.28864354999999997,0.5612880247630914
0.0035,1.79969375,1.0,246.64437958934437,0.03919310581596116,1.3683112639698358,0.27623217199099914,0.2886401375,0.5674324388805547
0.004,1.7996,1.0,330.94492970283915,0.04458247279130037,1.3659068758204023,0.32835090373008013,0.2886362,0.5730617290413034
0.0045000000000000005,1.7994937500000001,1.0,419.0477545267574,0.04994160967955115,1.3636945955494222,0.37818971506116605,0.2886317375,0.5782086771943311
0.005,1.799375,1.0,509.3586086648575,0.05527068601479618,1.361648051451878,0.42506785862077057,0.28862675,0.58294224132991
0.0055,1.79924375,1.0,600.8140045777575,0.06056987052303072,1.35974382213493,0.46863468502311206,0.2886212375,0.5873226480731882
0.006,1.7991000000000001,1.0,692.5327123890136,0.06583933074167585,1.357965038812371,0.5087784743309819,0.2886152,0.5913935937119189
0.006500000000000001,1.79894375,1.0,783.8213275061131,0.07107923344667332,1.3562981115074937,0.5455475109600942,0.2886086375,0.5951902287506173
0.007,1.798775,1.0,874.1003993186315,0.07628974448211151,1.3547323054873779,0.5790908178566797,0.28860155,0.5987404063890613
0.0075,1.79859375,1.0,962.8766255723007,0.08147102853326721,1.3532589798610006,0.6096148943797903,0.2885939375,0.6020666235572869
0.008,1.7984,1.0,1049.7888993783542,0.08662324992598089,1.3518701152692654,0.6373532180744396,0.2885858,0.605189483355848
0.0085,1.79819375,1.0,1134.5161916085544,0.09174657130505992,1.3505592407402978,0.6625472504352574,0.2885771375,0.6081256974859246
0.009000000000000001,1.797975,1.0,1216.8193555834137,0.0968411547214234,1.349320389272701,0.6854334805006341,0.28856795,0.6108905154284714
0.0095,1.79774375,1.0,1296.540693199424,0.10190716184988628,1.3481478726707252,0.7062360553781533,0.2885582375,0.6134982740907159
0.01,1.7975,1.0,1373.546034440177,0.10694475264849042,1.3470368574105642,0.7251632476759281,0.288548,0.6159611594343104
0.0105,1.79724375,1.0,1447.747529457421,0.11195408636230347,1.3459828602586976,0.7424055465862155,0.2885372375,0.6182903711964621
0.011,1.796975,1.0,1519.1087074140391,0.11693532154546678,1.3449815604578446,0.7581353562524306,0.28852595000000003,0.6204965655104291
0.0115,1.79669375,1.0,1587.6244241856793,0.1218886164932435,1.3440289494022273,0.7725077124563897,0.2885141375,0.6225895471084175
0.012,1.7964,1.0,1653.2798223765797,0.12681412710538437,1.3431217157467408,0.7856615454287209,0.28850180000000003,0.6245774495631786
0.0125,1.79609375,1.0,1716.100420176229,0.13171200925931942,1.3422565534255042,0.7977206892057924,0.2884889375,0.6264682769046397
0.013000000000000001,1.7957750000000001,1.0,1776.1278937731486,0.13658241774679689,1.341430393247064,0.8087954033414138,0.28847555,0.628269408696286
0.0135,1.79544375,1.0,1833.444919980105,0.1414255082143793,1.3406400712634403,0.8189836402864415,0.2884616375,0.629988334979714
0.014,1.7951000000000001,1.0,1888.0915031018244,0.14624143271807244,1.33988321806654,0.8283727105859027,0.2884472,0.6316307336630509
0.0145,1.79474375,1.0,1940.1272795689247,0.15103034312915234,1.339157503160272,0.8370401974515643,0.2884322375,0.6332021302617667
0.015,1.794375,1.0,1989.632951542659,0.15579239131889502,1.3384605960485445,0.8450550669059637,0.28841675,0.634707987635408
0.0155,1.79399375,1.0,2036.6885231761871,0.16052772781994373,1.337790375880894,0.8524787449579364,0.2884007375,0.6361532588081771
0.016,1.7936,1.0,2081.398303187252,0.1652365040526178,1.337144641973235,0.8593659157975148,0.2883842,0.6375430178212349
0.0165,1.7931937500000001,1.0,2123.8286144071044,0.16991886778112947,1.3365217445355868,0.8657655082380336,0.2883671375,0.6388811079551189
0.017,1.792775,1.0,2164.05493536514,0.17457496656976254,1.335920063216861,0.8717212191251927,0.28834955,0.6401712727308038
0.0175,1.7923437500000001,1.0,2202.163671337112,0.1792049479828009,1.3353379776659693,0.8772721229572988,0.2883314375,0.6414172217311795
0.018000000000000002,1.7919,1.0,2238.2377758280545,0.18380895825902946,1.334774002464575,0.8824532502987816,0.2883128,0.6426223446232424
0.0185,1.79144375,1.0,2272.3759413184193,0.18838714505978973,1.3342265821166006,0.8872960068732324,0.2882936375,0.6437901524446914
0.019,1.790975,1.0,2304.650233855003,0.19293965230935045,1.3336945050926934,0.8918286933627406,0.28827395,0.644923396909893
0.0195,1.79049375,1.0,2335.1313748082944,0.1974666230788758,1.333176636841662,0.8960767943938228,0.2882537375,0.6460246449709162
0.02,1.79,1.0,2363.8958340412632,0.20196820043953007,1.3326718428123159,0.9000632796283402,0.288233,0.6470964445148526
0.0205,1.78949375,1.0,2391.025148284319,0.20644452743198702,1.3321789903615682,0.9038088862670258,0.2882117375,0.6481413213085753
0.021,1.788975,1.0,2416.5874111825788,0.2108957446672826,1.3316971231023735,0.9073324030750798,0.28818995000000003,0.6491614111148242
0.021500000000000002,1.78844375,1.0,2440.6742509140945,0.21532199638977892,1.3312250969903554,0.910650808874528,0.2881676375,0.6501592318996482
0.022,1.7879,1.0,2463.3421747431057,0.21972342079403398,1.3307621425944698,0.913779579281418,0.2881448,0.651136495619629
0.0225,1.78734375,1.0,2484.6506654942546,0.2241001560746059,1.330307490483673,0.9167327730596769,0.28812143749999997,0.6520949034769717
0.023,1.786775,1.0,2504.661937053358,0.2284523404260527,1.3298603712269208,0.9195231814450482,0.28809755,0.6530361463457846
0.0235,1.78619375,1.0,2523.4407029948734,0.2327801120429324,1.32942001539317,0.9221624599674482,0.28807313749999996,0.6539619051605985
0.024,1.7856,1.0,2541.0459022426935,0.23708360710505968,1.328985729444992,0.9246612577129587,0.2880482,0.6548736920329927
0.0245,1.78499375,1.0,2557.541891727222,0.24136296450347502,1.328556787484655,0.9270293021469931,0.2880227375,0.6557730784367448
0.025,1.784375,1.0,2572.982347082929,0.2456183198916461,1.3281325808256323,0.9292755139026824,0.28799675,0.6566613820175697
0.025500000000000002,1.78374375,1.0,2587.4128799999494,0.24984980619531025,1.3277125903216593,0.9314080812915432,0.2879702375,0.6575397262266207
0.026000000000000002,1.7831000000000001,1.0,2600.880393430451,0.2540575563402049,1.3272962968264714,0.9334345177602024,0.2879432,0.6584092285831579
0.0265,1.78244375,1.0,2613.4329710695433,0.25824170325206725,1.3268831811938044,0.9353617266181504,0.2879156375,0.6592710008055435
0.027,1.781775,1.0,2625.119772813026,0.2624023798566349,1.326472724277394,0.9371960587679715,0.28788755,0.6601261489250534
0.0275,1.7810937500000001,1.0,2635.9894473470927,0.2665397185025207,1.3260644207019334,0.9389433661029831,0.2878589375,0.6609757447458947
0.028,1.7804,1.0,2646.0837485606417,0.27065385066495995,1.3256578368085683,0.9406090558290351,0.2878298,0.6618207057562624
0.0285,1.77969375,1.0,2655.4403629062153,0.27474490652688843,1.3252525831870083,0.9421981264467276,0.2878001375,0.6626618530936805
0.029,1.778975,1.0,2664.094659545742,0.27881301452403023,1.3248482975809717,0.9437152016864052,0.28776995,0.6634999475725271
0.029500000000000002,1.7782437500000001,1.0,2672.082565467316,0.2828583030921098,1.3244446177341767,0.9451645605534423,0.2877392375,0.6643357462478443
0.03,1.7775,1.0,2679.4405138246657,0.2868809006668514,1.3240411813903414,0.9465501674410116,0.287708,0.6651700024335199
0.0305,1.7767472339687598,1.0,2686.384312679847,0.2908809268668889,1.3236375603799142,0.9478756876753685,0.2876763838266879,0.6660036017580913
0.031,1.7759940666649934,1.0,2693.314478909105,0.2948585230925514,1.3232339651188696,0.9491446132649606,0.28764475079992974,0.666836109035502
0.0315,1.7752408993612272,1.0,2700.2430117371364,0.29881381241376337,1.3228304663709163,0.9503601649100667,0.28761311777317156,0.6676673787714819
0.032,1.774487732057461,1.0,2707.1630095230335,0.30274691731397707,1.3224271267563723,0.9515253370368545,0.2875814847464134,0.6684972829452495
0.0325,1.7737345647536948,1.0,2714.067535660829,0.30665796027664477,1.3220240088955553,0.9526429175652849,0.2875498517196552,0.6693256941799597
0.033,1.7729813974499284,1.0,2720.94961884348,0.3105470637852187,1.3216211754087834,0.9537155046560843,0.287518218692897,0.6701524857419405
0.0335,1.7722282301461623,1.0,2727.8022534147435,0.314414350323151,1.3212186889163748,0.9547455219099169,0.2874865856661388,0.670977531539685
0.034,1.771475062842396,1.0,2734.6183998070396,0.318259942373894,1.320816612038647,0.9557352321781356,0.28745495263938065,0.6718007061225899
0.0345,1.77072189553863,1.0,2741.3909850669165,0.32208396242089987,1.3204150073959187,0.9566867501265571,0.28742331961262246,0.6726218846794432
0.035,1.7699687282348635,1.0,2748.112903467094,0.3258865329476209,1.3200139376085072,0.9576020536778889,0.2873916865858643,0.6734409430366661
0.035500000000000004,1.7692155609310973,1.0,2754.778684134885,0.3296677742382974,1.3196134502146517,0.9584829923272679,0.2873600535591061,0.6742577883988723
0.036000000000000004,1.7684623936273312,1.0,2761.385647821833,0.33342780715387027,1.3192135673141019,0.9593312964764446,0.2873284205323479,0.6750723802378997
0.0365,1.767709226323565,1.0,2767.9310851183745,0.3371667514816317,1.318814311194575,0.9601485885703502,0.28729678750558973,0.6758846778620177
0.037,1.7669560590197986,1.0,2774.413807054655,0.3408847237456339,1.3184156903535456,0.9609363891890065,0.28726515447883155,0.6766946688031729
0.0375,1.7662028917160324,1.0,2780.8326229143404,0.34458184046992874,1.3180177132884883,0.9616961265756828,0.28723352145207337,0.6775023406720692
0.038,1.7654497244122662,1.0,2787.186340355038,0.34825821817856817,1.3176203884968778,0.9624291432710157,0.2872018884253152,0.6783076811578203
0.0385,1.7646965571085,1.0,2793.473765530387,0.3519139733956042,1.3172237244761884,0.9631367022006387,0.287170255398557,0.6791106780276
0.039,1.7639433898047336,1.0,2799.6937032137475,0.3555492226450888,1.3168277297238948,0.9638199922667962,0.2871386223717988,0.679911319126284
0.0395,1.7631902225009675,1.0,2805.8475846916863,0.3591640632858491,1.3164323891792507,0.9644801277075167,0.28710698934504064,0.6807096399180843
0.04,1.7624370551972013,1.0,2811.932457831668,0.3627586330068943,1.316037727128678,0.9651181701185825,0.28707535631828246,0.6815055964009542
0.0405,1.761683887893435,1.0,2817.9477804343537,0.36633305197741733,1.3156437462214252,0.965735115706689,0.2870437232915243,0.6822991883651293
0.041,1.7609307205896687,1.0,2823.894459087181,0.36988742911940353,1.3152504361759867,0.9663319017818158,0.2870120902647661,0.6830904416162313
0.0415,1.7601775532859025,1.0,2829.7734082500738,0.3734218733548384,1.3148577867108566,0.9669094138327636,0.2869804572380079,0.6838793818480253
0.042,1.7594243859821364,1.0,2835.5855501037868,0.3769364936057073,1.3144657875445291,0.9674684889288911,0.28694882421124973,0.6846660346428541
0.0425,1.7586712186783702,1.0,2841.3318144002938,0.38043139879399573,1.3140744283954986,0.9680099188649602,0.28691719118449155,0.685450425472069
0.043000000000000003,1.7579180513746038,1.0,2847.0131383159187,0.38390669784168907,1.3136836989822593,0.9685344530709228,0.28688555815773337,0.6862325796964519
0.043500000000000004,1.7571648840708376,1.0,2852.6304663066803,0.38736249967077274,1.3132935890233055,0.9690428013064163,0.2868539251309752,0.6870125225666331
0.044,1.7564117167670714,1.0,2858.184749965508,0.3907989132032322,1.3129040882371315,0.9695356361579055,0.286822292104217,0.6877902792234996
0.0445,1.7556585494633052,1.0,2863.6769478827446,0.3942160473610528,1.3125151863422313,0.9700135953547468,0.2867906590774588,0.6885658746985983
0.045,1.7549053821595388,1.0,2869.108025507911,0.3976140110662201,1.3121268730570996,0.9704772839189724,0.28675902605070064,0.689339333914532
0.0455,1.7541522148557727,1.0,2874.478955014966,0.40099291324071945,1.3117391381002301,0.9709272761622402,0.28672739302394246,0.6901106816853497
0.046,1.7533990475520065,1.0,2879.7907151686286,0.40435286280653626,1.3113519711901176,0.9713641175422066,0.2866957599971843,0.6908799427169265
0.0465,1.7526458802482403,1.0,2885.0442911942496,0.40769396868565594,1.310965362045256,0.9717883263894717,0.2866641269704261,0.6916471416073435
0.047,1.751892712944474,1.0,2890.2394519772056,0.41101629131699396,1.310579311184305,0.9722003899425399,0.2866324939436679,0.6924122814549831
0.0475,1.7511395456407077,1.0,2895.379644388102,0.41431999283859033,1.3101937866826272,0.9726007826567215,0.2866008609169097,0.693175429539199
0.048,1.7503863783369416,1.0,2900.466293099884,0.4176051835936632,1.3098087745768683,0.9729899505950919,0.28656922789015155,0.6939366173315664
0.0485,1.7496332110331754,1.0,2905.5004502409183,0.42087196226484824,1.309424264250422,0.9733683172991155,0.28653759486339336,0.6946958695570316
0.049,1.748880043729409,1.0,2910.4831738158873,0.4241204275347809,1.309040245086682,0.9737362863121204,0.2865059618366352,0.6954532108315163
0.0495,1.7481268764256428,1.0,2915.4155275888616,0.42735067808609667,1.3086567064690424,0.9740942423059817,0.286474328809877,0.6962086656622557
0.05,1.7473737091218766,1.0,2920.2985809687993,0.4305628126014311,1.308273637780897,0.9744425521344694,0.2864426957831188,0.6969622584481261
0.0505,1.7466205418181104,1.0,2925.1334088980198,0.4337569297634197,1.3078910284056393,0.9747815658186477,0.28641106275636063,0.6977140134799675
0.051000000000000004,1.745867374514344,1.0,2929.9210917425025,0.43693312825469793,1.3075088677266635,0.9751116174692808,0.28637942972960245,0.6984639549408972
0.051500000000000004,1.7451142072105779,1.0,2934.662715185152,0.4400915067579014,1.3071271451273634,0.9754330261508002,0.28634779670284427,0.6992121069066182
0.052000000000000005,1.7443610399068117,1.0,2939.359370121536,0.44323216395566556,1.3067458499911326,0.9757460966910153,0.2863161636760861,0.6999584933457192
0.0525,1.7436078726030455,1.0,2944.0121525578115,0.4463551985306259,1.306364971701365,0.9760511204404224,0.2862845306493279,0.7007031381199675
0.053,1.7428547052992793,1.0,2948.6221635114907,0.44946070916541797,1.3059844996414545,0.9763483759846626,0.2862528976225697,0.7014460649845943
0.0535,1.742101537995513,1.0,2953.1905089145384,0.4525487945426773,1.305604423194795,0.9766381298133959,0.28622126459581154,0.7021872975885736
0.054,1.7413483706917467,1.0,2957.7182995189655,0.4556195533450394,1.3052247317447803,0.9769206369486095,0.28618963156905336,0.7029268594748945
0.0545,1.7405952033879806,1.0,2962.206650805092,0.45867308425513975,1.304845414674804,0.977196141535147,0.2861579985422952,0.7036647740808251
0.055,1.7398420360842142,1.0,2966.6566828919717,0.4617094859556139,1.3044664613682604,0.9774648773960264,0.286126365515537,0.7044010647381684
0.0555,1.739088868780448,1.0,2971.069520450685,0.4647288571290974,1.304087861208543,0.9777270685549267,0.2860947324887788,0.7051357546735139
0.056,1.7383357014766818,1.0,2975.446292619796,0.46773129645822564,1.3037096035790454,0.9779829297280415,0.28606309946202063,0.7058688670084792
0.0565,1.7375825341729156,1.0,2979.7871210538083,0.4707168774319244,1.3033316866659328,0.9782326650187722,0.28603146643526245,0.7066004077308685
0.057,1.7368293668691492,1.0,2984.0931304466762,0.4736857006485902,1.3029540999477343,0.9784764721671007,0.28599983340850427,0.7073303996328388
0.0575,1.736076199565383,1.0,2988.366414223344,0.47663789132431345,1.3025768245243898,0.9787145425750688,0.2859682003817461,0.7080588815712264
0.058,1.7353230322616169,1.0,2992.607610111813,0.4795735379452516,1.302199854192395,0.9789470574527924,0.2859365673549879,0.7087858677490282
0.0585,1.7345698649578507,1.0,2996.8173584938863,0.48249272899756224,1.3018231827482454,0.9791741908176906,0.2859049343282297,0.7095113723077784
0.059000000000000004,1.7338166976540843,1.0,3000.9963023636656,0.48539555296740294,1.301446803988437,0.9793961098368241,0.28587330130147154,0.7102354093276685
0.059500000000000004,1.7330635303503181,1.0,3005.145087286972,0.4882820983409313,1.3010707117094653,0.9796129751503394,0.28584166827471336,0.7109579928276659
0.06,1.732310363046552,1.0,3009.264361361445,0.4911524536043048,1.3006948997078258,0.9798249411772071,0.2858100352479552,0.7116791367656268
0.0605,1.7315571957427858,1.0,3013.354775177467,0.49400670724368106,1.3003193617800144,0.980032156404348,0.285778402221197,0.7123988550384083
0.061,1.7308040284390196,1.0,3017.4169817802813,0.4968449477452177,1.299944091722527,0.9802347636601759,0.2857467691944388,0.7131171614819782
0.0615,1.7300508611352532,1.0,3021.451636632511,0.49966726359507213,1.2995690833318585,0.980432900373503,0.28571513616768063,0.7138340698715243
0.062,1.729297693831487,1.0,3025.4593975778157,0.5024737432794021,1.2991943304045053,0.9806266988187057,0.28568350314092245,0.7145495939215553
0.0625,1.7285445265277208,1.0,3029.4409248053616,0.505264475284365,1.2988198267369626,0.9808162863479692,0.28565187011416426,0.7152637472860065
0.063,1.7277913592239544,1.0,3033.396880815042,0.5080395480961185,1.2984455661257264,0.9810017856113895,0.2856202370874061,0.7159765435583376
0.0635,1.7270381919201883,1.0,3037.32793038362,0.5107990502008201,1.2980715423672922,0.9811833147656515,0.2855886040606479,0.7166879962716313
0.064,1.726285024616422,1.0,3041.234740531829,0.5135430700846274,1.2976977492581558,0.9813609876719553,0.2855569710338897,0.7173981188986868
0.0645,1.725531857312656,1.0,3045.117980492155,0.516271696233698,1.2973241805948126,0.9815349140838217,0.28552533800713154,0.718106924852115
0.065,1.7247786900088895,1.0,3048.9783216775013,0.5189850171341892,1.2969508301737585,0.9817051998253628,0.28549370498037335,0.718814427484425
0.0655,1.7240255227051233,1.0,3052.816437650748,0.521683121272259,1.296577691791489,0.9818719469605682,0.28546207195361517,0.7195206400881139
0.066,1.7232723554013571,1.0,3056.632883552842,0.524366092026586,1.2962047602798943,0.9820352536609369,0.285430438926857,0.720225573939829
0.0665,1.722519188097591,1.0,3060.4265606082863,0.5270339468368371,1.295832044683685,0.9821952109787356,0.2853988059000988,0.7209292134511166
0.067,1.7217660207938246,1.0,3064.200167061507,0.5296868670399434,1.2954595214536888,0.9823519160615204,0.2853671728733406,0.7216316045355778
0.0675,1.7210128534900584,1.0,3067.9540212490865,0.5323249309151412,1.2950871875053718,0.9825054569033533,0.28533553984658244,0.7223327543691631
0.068,1.7202596861862922,1.0,3071.6884426291335,0.534948216741667,1.2947150397542013,0.9826559184992509,0.28530390681982426,0.7230326700978302
0.0685,1.719506518882526,1.0,3075.403751768475,0.5375568027987575,1.2943430751156442,0.9828033829682964,0.2852722737930661,0.7237313588375838
0.069,1.7187533515787596,1.0,3079.100270330242,0.5401507673656489,1.293971290505167,0.982947929670881,0.2852406407663079,0.7244288276745112
0.0695,1.7180001842749935,1.0,3082.778321061134,0.542730188721578,1.2935996828382368,0.9830896353203894,0.2852090077395497,0.7251250836648175
0.07,1.7172470169712273,1.0,3086.4382277793216,0.5452951451457809,1.2932282490303204,0.9832285740896345,0.28517737471279153,0.725820133834861
0.07050000000000001,1.716493849667461,1.0,3090.080315362586,0.5478457149174946,1.2928569859968848,0.9833648177123125,0.28514574168603335,0.7265139851811875
0.07100000000000001,1.7157406823636947,1.0,3093.7049097363633,0.5503819763159552,1.2924858906533965,0.9834984355797555,0.28511410865927517,0.7272066446705657
