Time [s],Phi [rad],STIM [ ],Fsee [N],Gamma [ ],Lcerel [ ],q [ ],Lmtc [m],fisomrel [ ]
0.0,1.8,1.0,17.969782105807965,4.126328381947963e-05,1.3793394522616196,0.005000448740865055,0.288653,0.5411402422125461
0.0005,1.79999375,1.0,18.289445817262475,0.005650241138233774,1.3793009771261227,0.013027532555922046,0.2886527375,0.5412333187218387
0.001,1.799975,1.0,21.654262123198826,0.011227757061653333,1.3789346389613857,0.03577166389367855,0.28865195,0.5421190669489933
0.0015,1.79994375,1.0,31.15456522649173,0.016773987531524395,1.3780389389568586,0.07082483277122803,0.2886506375,0.5442811244654737
0.002,1.7999,1.0,53.766375907196085,0.022289108033592835,1.3763562057181273,0.11498202241028715,0.2886488,0.5483291020964753
0.0025,1.79984375,1.0,97.42836339679275,0.027773293069683375,1.3739202686286685,0.16486205047943261,0.28864643749999996,0.5541569920556901
0.003,1.7997750000000001,1.0,161.36106452273754,0.033226716165129,1.37119927233735,0.21757668396317606,0.28864354999999997,0.5606221307915238
0.0035,1.79969375,1.0,238.1386987137203,0.03864954986859014,1.368570714431479,0.27090751412345365,0.2886401375,0.5668227948452462
0.004,1.7996,1.0,321.95131534309166,0.0440419657627764,1.3661432635086228,0.3232010751681075,0.2886362,0.5725099189644618
0.0045000000000000005,1.7994937500000001,1.0,409.76956474088485,0.049404134469648614,1.3639110382889637,0.3733053043053484,0.2886317375,0.5777064930212004
0.005,1.799375,1.0,499.92555311618077,0.05473622564162648,1.3618474641368232,0.420500810043951,0.28862675,0.5824821833474185
0.0055,1.79924375,1.0,591.3070640470926,0.060038408007554445,1.3599287432161342,0.46440825938776514,0.2886212375,0.5868982774453257
0.006,1.7991000000000001,1.0,683.0354484977918,0.06531084931956917,1.3581370126614694,0.5048955211936452,0.2886152,0.5910008933734647
0.006500000000000001,1.79894375,1.0,774.3957839531184,0.07055371638077922,1.3564584717787371,0.5419978514540806,0.2886086375,0.5948257586006609
0.007,1.798775,1.0,864.7990403807557,0.07576717518854426,1.3548821059309775,0.5758563441803538,0.28860155,0.5984014377869723
0.0075,1.79859375,1.0,953.7414410436331,0.08095139047667578,1.3533991169670798,0.6066732898981436,0.2885939375,0.6017508422413529
0.008,1.7984,1.0,1040.849944400292,0.08610652654113841,1.3520014110018181,0.6346804726142898,0.2885858,0.6048947916222229
0.0085,1.79819375,1.0,1125.8016450064642,0.091232746333642,1.3506823422058831,0.6601191972177708,0.2885771375,0.607850430054196
0.009000000000000001,1.797975,1.0,1208.3472338001814,0.09633021185985652,1.3494359271648557,0.6832268661563895,0.28856795,0.6106330765511405
0.0095,1.79774375,1.0,1288.326916176255,0.10139908503583199,1.3482563719069067,0.7042290407180877,0.2885582375,0.6132573323540762
0.01,1.7975,1.0,1365.5998042680749,0.1064395257930427,1.3471388236483655,0.7233357262264428,0.288548,0.6157354499873375
0.0105,1.79724375,1.0,1440.0751962108538,0.1114516933969949,1.3460787439957602,0.7407392130629367,0.2885372375,0.6180787721757559
0.011,1.796975,1.0,1511.7099135361398,0.11643574653948854,1.345071818031518,0.7566137132064146,0.28852595000000003,0.6202979604605323
0.0115,1.79669375,1.0,1580.4991572055012,0.1213918436950443,1.3441139658069845,0.7711159424108938,0.2885141375,0.6224029927824921
0.012,1.7964,1.0,1646.4297716712235,0.12632014090757954,1.3432018021032945,0.7843863894881371,0.28850180000000003,0.6244021780390658
0.0125,1.79609375,1.0,1709.5232266944888,0.13122079393558314,1.3423320232551708,0.7965503423349523,0.2884889375,0.6263035263202208
0.013000000000000001,1.7957750000000001,1.0,1769.8201611549857,0.13609395783609227,1.3415015325554291,0.8077193593937946,0.28847555,0.6281144874435369
0.0135,1.79544375,1.0,1827.3958682929508,0.1409397879906304,1.3407072140557759,0.8179925826558584,0.2884616375,0.6298424562830094
0.014,1.7951000000000001,1.0,1882.2985413188328,0.14575843696826943,1.339946577316495,0.8274583190408068,0.2884472,0.6314933819221951
0.0145,1.79474375,1.0,1934.5849926755939,0.15055005665100823,1.3392172991090043,0.8361950810595341,0.2884322375,0.6330727805650265
0.015,1.794375,1.0,1984.3332466507227,0.1553147989208457,1.3385170562047224,0.8442726556935951,0.28841675,0.6345861054160996
0.0155,1.79399375,1.0,2031.6252640565642,0.16005281447404857,1.3378436879320774,0.85175317809007,0.2884007375,0.636038400907057
0.016,1.7936,1.0,2076.560920365771,0.16476425455623178,1.337195023670549,0.8586919795907494,0.2883842,0.6374346811601337
0.0165,1.7931937500000001,1.0,2119.206580024431,0.169449267090769,1.3365693983089557,0.8651385463734803,0.2883671375,0.6387788269194756
0.017,1.792775,1.0,2159.6390833586083,0.17410799987351533,1.3359651645590567,0.871137063447485,0.28834955,0.6400746435038456
0.0175,1.7923437500000001,1.0,2197.9464008899386,0.17874060070032594,1.335380675132611,0.8767270360933417,0.2883314375,0.6413259016186036
0.018000000000000002,1.7919,1.0,2234.2108767235454,0.1833472155654405,1.3348144414719378,0.8819438814381524,0.2883128,0.6425360005798288
0.0185,1.79144375,1.0,2268.537429520829,0.18792799266610288,1.3342648375992903,0.886819329949475,0.2882936375,0.6437086044155615
0.019,1.790975,1.0,2300.991576743614,0.19248307536325057,1.333730710967055,0.891382002085863,0.28827395,0.6448463410632141
0.0195,1.79049375,1.0,2331.6450450830644,0.19701260699989187,1.3332109106503007,0.895657647884693,0.2882537375,0.6459518144885119
0.02,1.79,1.0,2360.5754063452637,0.20151673091903505,1.3327042857240956,0.89966947251786,0.288233,0.6470276092500618
0.0205,1.78949375,1.0,2387.8617421541257,0.20599558977182483,1.3322097225845644,0.9034384300265793,0.2882117375,0.648076212437139
0.021,1.788975,1.0,2413.581284382138,0.21044932584060663,1.3317261719255467,0.9069834790361548,0.28818995000000003,0.6490999580982866
0.021500000000000002,1.78844375,1.0,2437.812586475204,0.2148780818463082,1.3312526125615332,0.9103217937067999,0.2881676375,0.6501011054565013
0.022,1.7879,1.0,2460.6143003684892,0.21928199621279892,1.3307882503571307,0.9134689945012935,0.2881448,0.6510814203624625
0.0225,1.78734375,1.0,2482.0481379042517,0.22366120736394834,1.3303322911769464,0.9164392697132929,0.28812143749999997,0.6520426575439704
0.023,1.786775,1.0,2502.178616491479,0.22801585372362584,1.329883940885587,0.9192455265997453,0.28809755,0.652986561051641
0.0235,1.78619375,1.0,2521.0728187482628,0.23234607371570085,1.329442405347659,0.921899524780583,0.28807313749999996,0.6539148646643774
0.024,1.7856,1.0,2538.7878703913725,0.23665200285171312,1.3290070063130166,0.924412013735564,0.2880482,0.6548290490974065
0.0245,1.78499375,1.0,2555.39229528741,0.2409337815943709,1.3285769769221156,0.9267928024273139,0.2880227375,0.6557307724385315
0.025,1.784375,1.0,2570.936076402234,0.24519154464260623,1.3281517418370583,0.9290508965135481,0.28799675,0.6566212829378337
0.025500000000000002,1.78374375,1.0,2585.4647819745596,0.24942542499865428,1.3277307809242516,0.9311945557510813,0.2879702375,0.6575017067435595
0.026000000000000002,1.7831000000000001,1.0,2599.0252849751946,0.2536355556647501,1.3273135740501028,0.9332313581275041,0.2879432,0.6583731640387369
0.0265,1.78244375,1.0,2611.6656517148313,0.2578220696431288,1.326899601081019,0.9351682653406355,0.2879156375,0.6592367691743324
0.027,1.781775,1.0,2623.435036450578,0.2619850999360256,1.3264883418834073,0.9370116811905487,0.28788755,0.6600936307851512
0.0275,1.7810937500000001,1.0,2634.3791341499195,0.26612477812586866,1.3260793174762684,0.9387675093506122,0.2878589375,0.6609447663080708
0.028,1.7804,1.0,2644.5383442288676,0.27024123498002917,1.3256721057296244,0.9404412019077518,0.2878298,0.6617910699924503
0.0285,1.77969375,1.0,2653.9672100239363,0.27433460572092033,1.325266160916982,0.9420377763181327,0.2878001375,0.6626336880176275
0.029,1.778975,1.0,2662.6970434649124,0.27840501741200907,1.3248611580678693,0.9435618983918634,0.28776995,0.6634733035038356
0.029500000000000002,1.7782437500000001,1.0,2670.759686548642,0.28245259711676246,1.324456772211815,0.9450178855142123,0.2877392375,0.6643105961922525
0.03,1.7775,1.0,2678.187465049304,0.2864774718986474,1.3240526783783475,0.9464097371246083,0.287708,0.6651462424611585
0.0305,1.77674375,1.0,2685.013144569741,0.2904797688211311,1.323648551596995,0.9477411621674648,0.2876762375,0.6659809153353551
0.031,1.775975,1.0,2691.269888934198,0.2944596149476804,1.3232440668972858,0.9490156038485787,0.28764395,0.666815284488849
0.0315,1.7751937500000001,1.0,2696.9912209224963,0.2984171373417624,1.3228388993087485,0.9502362619907966,0.2876111375,0.6676500162408027
0.032,1.7744,1.0,2702.204100483678,0.3023524591108794,1.3224327867569476,0.9514061197251509,0.2875778,0.668485644209658
0.0325,1.77359375,1.0,2706.9425691682627,0.30626570954986226,1.322025404933888,0.952527949196578,0.2875439375,0.6693228270955531
0.033,1.772775,1.0,2711.231913857784,0.31015701234852966,1.3216165117318817,0.9536043422198812,0.28750955,0.6701620515989044
0.0335,1.7719437500000002,1.0,2715.0935945820056,0.31402648861624716,1.3212059017633506,0.9546377202260705,0.2874746375,0.6710037266339055
0.034,1.7711000000000001,1.0,2718.5492418178815,0.3178742594623804,1.3207933696407173,0.9556303442501249,0.2874392,0.6718482589112058
0.0345,1.7702437500000001,1.0,2721.620639068879,0.32170044599629494,1.3203787099764035,0.9565843274485446,0.2874032375,0.6726960529140802
0.035,1.7693750000000001,1.0,2724.329706378512,0.3255051693273564,1.3199617173828315,0.9575016465001417,0.28736675,0.6735475108719039
0.035500000000000004,1.76849375,1.0,2726.6984847800063,0.3292885505649304,1.319542186472423,0.9583841520013806,0.2873297375,0.6744030327309414
0.036000000000000004,1.7676,1.0,2728.7471148984323,0.33305070854469315,1.3191199301010044,0.9592335793126325,0.2872922,0.6752629789933995
0.0365,1.76669375,1.0,2730.491132729457,0.3367917573937384,1.3186948037901156,0.9600515590589092,0.2872541375,0.6761276212920272
0.037,1.765775,1.0,2731.960383361058,0.3405118301724122,1.3182665337220218,0.9608396128783757,0.28721555,0.6769974920681414
0.0375,1.76484375,1.0,2733.1675405473375,0.34421104114360235,1.3178350027565555,0.9615991812060191,0.2871764375,0.6778728030061874
0.038,1.7639,1.0,2734.1253285154485,0.3478895045701967,1.3174000937535493,0.9623316179616838,0.28713679999999997,0.6787537643024175
0.0385,1.76294375,1.0,2734.8465159257553,0.351547334715083,1.3169616895728353,0.9630381966931549,0.28709663750000003,0.6796405846400944
0.039,1.761975,1.0,2735.343910135309,0.355184645841149,1.316519673074246,0.9637201162187143,0.28705595,0.6805334711638149
0.0395,1.7609937500000001,1.0,2735.6303517666106,0.3588015522112826,1.3160739271176143,0.9643785058149175,0.2870147375,0.6814326294529626
0.04,1.76,1.0,2735.7187095797117,0.3623981680883716,1.315624334562772,0.9650144299907247,0.286973,0.6823382634942836
0.0405,1.7589937500000001,1.0,2735.6218756491535,0.36597460773530377,1.3151707782695523,0.9656288928850179,0.2869307375,0.6832505756535865
0.041,1.757975,1.0,2735.352760844797,0.3695309854149669,1.314713141097787,0.9662228423208685,0.28688795,0.6841697666465701
0.0415,1.75694375,1.0,2734.9242906168975,0.3730674153902488,1.3142513059073089,0.9667971735466696,0.2868446375,0.6850960355087723
0.042,1.7559,1.0,2734.3464600030334,0.37658401074126735,1.3137851822675704,0.9673527347352008,0.28680079999999997,0.6860295261138637
0.0425,1.75484375,1.0,2733.6290522729555,0.38008088171953947,1.313314681749545,0.967890327717958,0.2867564375,0.6869703769138438
0.043000000000000003,1.753775,1.0,2732.781755240753,0.3835581382034095,1.3128397168467871,0.968410711295009,0.28671155,0.6879187230970092
0.043500000000000004,1.75269375,1.0,2731.812390130918,0.38701588967764483,1.3123602170465718,0.9689146052610832,0.28666613750000003,0.6888746645619215
0.044,1.7516,1.0,2730.7287812176087,0.39045424562701286,1.311876111836174,0.9694026915691057,0.2866202,0.6898382999551989
0.0445,1.75049375,1.0,2729.5162601632182,0.39387331421722144,1.3113875351636304,0.9698756323945824,0.2865737375,0.6908093206145371
0.045,1.7493750000000001,1.0,2728.233234652838,0.39727320583958325,1.3108939567812596,0.9703340051412714,0.28652675,0.691788736087029
0.0455,1.7482437749471056,1.0,2726.8735523707023,0.4006540275557604,1.3103954443585748,0.9707784026895976,0.28647923854777846,0.6927763651831725
0.046,1.747107064679744,1.0,2725.752763092735,0.40401588529219407,1.3098922848381471,0.9712094041295638,0.2864314967165492,0.6937715937429614
0.0465,1.7459703544123821,1.0,2725.1114823184994,0.40735888497532524,1.309384765162548,0.9716275594996236,0.28638375488532003,0.6947738108587851
0.047,1.7448336441450203,1.0,2724.9179991375013,0.41068313253159516,1.3088731722743492,0.9720333915279873,0.28633601305409084,0.695782408957845
0.0475,1.7436969338776587,1.0,2725.1418025134135,0.41398873353818916,1.3083577832944384,0.9724273965066311,0.28628827122286166,0.6967968031943246
0.048,1.7425602236102968,1.0,2725.749071361425,0.4172757925690973,1.3078389063217801,0.9728100486493496,0.28624052939163247,0.6978163512583236
0.0485,1.741423513342935,1.0,2726.7009365645536,0.4205444153157311,1.3073168960074806,0.9731818027158948,0.2861927875604033,0.6988403234321664
0.049,1.7402868030755734,1.0,2727.973246458928,0.4237947038896922,1.3067919735824578,0.9735430821655598,0.2861450457291741,0.6998682555656266
0.0495,1.7391500928082115,1.0,2729.541886053487,0.4270267604025822,1.3062643602776298,0.9738942905043594,0.28609730389794485,0.7008996863001727
0.05,1.7380133825408497,1.0,2731.3827632889734,0.43024068696600276,1.3057342773239147,0.9742358124119357,0.28604956206671567,0.7019341571084938
0.0505,1.7368766722734879,1.0,2733.471796381153,0.4334365856915556,1.3052019459522302,0.9745680147951541,0.2860018202354865,0.7029712123309055
0.051000000000000004,1.7357399620061262,1.0,2735.7933249314938,0.4366145542739913,1.3046675109225518,0.9748912422764139,0.2859540784042573,0.704010547794186
0.051500000000000004,1.7346032517387644,1.0,2738.3174139812427,0.4397746992528092,1.3041312465701578,0.9752058332364283,0.2859063365730281,0.7050516098841897
0.052000000000000005,1.7334665414714026,1.0,2741.0246660197945,0.44291712190331733,1.3035933313683639,0.9755121041553642,0.2858585947417989,0.70609403427506
0.0525,1.732329831204041,1.0,2743.9029951737944,0.44604191953306477,1.3030538773294484,0.9758103528368556,0.28581085291056973,0.7071375874859299
0.053,1.731193120936679,1.0,2746.940306184161,0.4491491894496009,1.3025129964656899,0.9761008639975102,0.2857631110793405,0.7081820375298136
0.0535,1.7300564106693173,1.0,2750.124490723929,0.45223902896047485,1.3019708007893662,0.9763839099572423,0.2857153692481113,0.7092271539241993
0.054,1.7289197004019556,1.0,2753.4434239931916,0.4553115353732359,1.3014274023127559,0.9766597512875522,0.2856676274168821,0.7102727077008419
0.0545,1.7277829901345938,1.0,2756.8849615933696,0.4583668059954331,1.300882913048137,0.9769286374206557,0.28561988558565293,0.7113184714147552
0.055,1.726646279867232,1.0,2760.4369366789406,0.46140493813461586,1.300337445007788,0.9771908072221318,0.28557214375442375,0.712364219152404
0.0555,1.7255095695998703,1.0,2764.0871573876752,0.46442602909833325,1.2997911102039872,0.9774464895295581,0.28552440192319456,0.7134097265390971
0.056,1.7243728593325085,1.0,2767.8283025744463,0.4674301713552011,1.2992439764371266,0.9776959006231906,0.2854766600919654,0.7144548551214809
0.0565,1.7232361490651467,1.0,2771.6481567720866,0.47041746542837676,1.298696155512899,0.9779392511603635,0.28542891826073613,0.715499383551703
0.057,1.722099438797785,1.0,2775.5387841787824,0.4733880064173943,1.2981477203839822,0.9781767404660401,0.285381176429507,0.7165431659114629
0.0575,1.7209627285304232,1.0,2779.4948941680254,0.47634188633463076,1.2975987199966674,0.9784085581589943,0.28533343459827776,0.7175861028582435
0.058,1.7198260182630614,1.0,2783.511182892895,0.47927919719246304,1.297049203297247,0.9786348862519704,0.28528569276704857,0.7186280957285422
0.0585,1.7186893079956997,1.0,2787.582332698657,0.4822000310032681,1.296499219232012,0.9788558995187497,0.2852379509358194,0.7196690465395641
0.059000000000000004,1.717552597728338,1.0,2791.7030115892167,0.48510447977942284,1.2959488167472544,0.9790717658407099,0.2851902091045902,0.7207088579907528
0.059500000000000004,1.716415887460976,1.0,2795.8678727465153,0.4879926355333043,1.295398044789266,0.9792826465341739,0.285142467273361,0.721747433465175
0.06,1.7152791771936144,1.0,2800.0715541029494,0.4908645902772894,1.2948469523043384,0.979488696659757,0.28509472544213177,0.72278467703075
0.0605,1.7141424669262526,1.0,2804.308677967273,0.49372043602375515,1.2942955882387632,0.9796900653148314,0.28504698361090264,0.7238204934413276
0.061,1.7130057566588908,1.0,2808.579274154864,0.49656025024867373,1.2937439529406445,0.9798868921820302,0.2849992417796734,0.7248548791798611
0.0615,1.7118690463915291,1.0,2812.8739251096135,0.49938414041049367,1.2931921313521677,0.98007931846443,0.2849514999484442,0.7258876725547616
0.062,1.7107323361241673,1.0,2817.188315177301,0.5021921993510595,1.2926401625121269,0.9802674765297996,0.284903758117215,0.7269187987400382
0.0625,1.7095956258568055,1.0,2821.5206175483167,0.504984512782112,1.2920880630906404,0.9804514921228503,0.28485601628598584,0.7279482251274174
0.063,1.7084589155894438,1.0,2825.8689998083446,0.5077611664153918,1.2915358497578266,0.9806314863527477,0.28480827445475665,0.7289759193430547
0.0635,1.707322205322082,1.0,2830.231623893312,0.5105222459626398,1.2909835391838043,0.9808075758990209,0.2847605326235274,0.7300018492476641
0.064,1.7061854950547202,1.0,2834.6066460505353,0.5132678371355968,1.2904311480386916,0.980979873206868,0.2847127907922983,0.7310259829366313
0.0645,1.7050487847873586,1.0,2838.992216805258,0.5159980256460033,1.2898786929926072,0.9811484866724649,0.28466504896106903,0.7320482887401079
0.065,1.7039120745199967,1.0,2843.3864809347583,0.5187128972056002,1.2893261907156692,0.9813135208188697,0.28461730712983985,0.7330687352230874
0.0655,1.7027753642526349,1.0,2847.787577447171,0.5214125375261283,1.2887736578779962,0.9814750764630589,0.28456956529861066,0.7340872911854655
0.066,1.701638653985273,1.0,2852.1936395674156,0.5240970323193282,1.2882211111497068,0.9816332508746036,0.2845218234673815,0.7351039256620802
0.0665,1.7005019437179114,1.0,2856.6027947289167,0.5267664672969409,1.2876685672009194,0.9817881379264625,0.2844740816361523,0.7361186079227364
0.067,1.6993652334505496,1.0,2861.013164571444,0.5294209281707069,1.2871160427017523,0.9819398282383357,0.28442633980492305,0.7371313074722117
0.0675,1.6982285231831877,1.0,2865.422864945631,0.532060500652367,1.2865635543223242,0.9820884093129966,0.2843785979736939,0.7381419940502436
0.068,1.6970918129158261,1.0,2869.8313912422823,0.5346852568167494,1.2860111064524444,0.9822339641995497,0.28433085614246467,0.7391506600314047
0.0685,1.6959551026484643,1.0,2874.238560463093,0.5372952744035844,1.28545870061977,0.9823765733752703,0.2842831143112355,0.7401573030627313
0.069,1.6948183923811024,1.0,2878.6405256076864,0.5398906685375485,1.2849063707775432,0.9825163184936068,0.2842353724800063,0.7411618618953095
0.0695,1.6936816821137408,1.0,2883.0369068646482,0.5424715171602551,1.284354120110683,0.9826532747057558,0.2841876306487771,0.7421643315563753
0.07,1.692544971846379,1.0,2887.427323364369,0.5450378982133175,1.2838019518041086,0.9827875146776796,0.2841398888175479,0.7431647071179159
0.07050000000000001,1.6914082615790171,1.0,2891.811393184782,0.5475898896383488,1.2832498690427387,0.9829191086894044,0.2840921469863187,0.7441629836966561
0.07100000000000001,1.6902715513116555,1.0,2896.188733357662,0.5501275693769625,1.2826978750114923,0.9830481247297062,0.28404440515508955,0.7451591564540391
0.07150000000000001,1.6891348410442937,1.0,2900.5589598740016,0.5526510153707717,1.2821459728952886,0.983174628586432,0.2839966633238603,0.7461532205962087
0.07200000000000001,1.6879981307769318,1.0,2904.9216876913015,0.5551603055613898,1.2815941658790464,0.9832986839326826,0.2839489214926311,0.7471451713739927
