Time [s],Phi [rad],STIM [ ],Fsee [N],Gamma [ ],Lcerel [ ],q [ ],Lmtc [m],fisomrel [ ]
0.0,1.8,1.0,20.364449751666164,0.0015823475570193274,1.3790795761308294,0.005640335806188052,0.288653,0.5417687339300723
0.0005,1.79999375,1.0,21.105720645177495,0.00718268114725646,1.378999444780693,0.017874423923716777,0.2886527375,0.5419624389538471
0.001,1.799975,1.0,25.630338618335518,0.012751601294171841,1.3785459679788994,0.04426333643457471,0.28865195,0.5430578766802234
0.0015,1.79994375,1.0,37.860460168550794,0.01828928420248463,1.3774961866841247,0.08214218317882667,0.2886506375,0.5455887405578588
0.002,1.7999,1.0,65.70688799700565,0.023795905088380913,1.3756216339114336,0.12818944993193276,0.2886488,0.550090523398294
0.0025,1.79984375,1.0,115.40879306460563,0.029271638184708234,1.3730918169273856,0.17910637895976864,0.28864643749999996,0.5561304086155046
0.003,1.7997750000000001,1.0,183.47703299397529,0.034716656748255165,1.3703990247815139,0.23219002114952225,0.28864354999999997,0.5625145485998198
0.0035,1.79969375,1.0,262.4459749916247,0.040131133063543975,1.367840873842025,0.285384163289408,0.2886401375,0.5685366439130597
0.004,1.7996,1.0,347.422192082335,0.045515238447184206,1.3654819754856609,0.3371771923982261,0.2886362,0.5740526964129427
0.0045000000000000005,1.7994937500000001,1.0,435.87487647422086,0.05086914322270029,1.3633080774411879,0.38654386535396806,0.2886317375,0.5791047221491961
0.005,1.799375,1.0,526.3725531861304,0.05619301691581714,1.361292994093751,0.43286718201705865,0.28862675,0.5837607538863928
0.0055,1.79924375,1.0,617.8343732353783,0.06148702780913152,1.3594163738490106,0.47584508522994456,0.2886212375,0.5880735657182024
0.006,1.7991000000000001,1.0,709.4629672645196,0.06675134351592238,1.357661369817973,0.5153981050779785,0.2886152,0.5920865578441685
0.006500000000000001,1.79894375,1.0,800.5588327864148,0.07198613051916199,1.3560157084048516,0.5515961690177636,0.2886086375,0.5958316816613255
0.007,1.798775,1.0,890.5685805779883,0.077191554579883,1.354469023518798,0.5846008825614739,0.28860155,0.5993358143036667
0.0075,1.79859375,1.0,979.0228360902016,0.08236778038129168,1.353012907198144,0.6146252854913798,0.2885939375,0.6026208142586561
0.008,1.7984,1.0,1065.5368434700965,0.08751497146413699,1.3516401614528675,0.6419057346743212,0.2885858,0.6057053471090603
0.0085,1.79819375,1.0,1149.8380742918578,0.09263329093756394,1.350343945106441,0.66668326778205,0.2885771375,0.6086068881608899
0.009000000000000001,1.797975,1.0,1231.699870101453,0.0977229009250162,1.3491184268509806,0.6891927027379567,0.28856795,0.6113403189830884
0.0095,1.79774375,1.0,1310.9399861449879,0.10278396196129282,1.3479584924365866,0.7096558733804007,0.2885582375,0.6139186464963582
0.01,1.7975,1.0,1387.4435114586793,0.10781663410072119,1.3468592310838492,0.7282779569510174,0.288548,0.6163541894512785
0.0105,1.79724375,1.0,1461.1618054257385,0.11282107759026849,1.345815825953699,0.7452461174777598,0.2885372375,0.6186588473213042
0.011,1.796975,1.0,1532.039584082186,0.11779745023621911,1.3448243434007285,0.7607298624711211,0.28852595000000003,0.6208423858362769
0.0115,1.79669375,1.0,1600.0473975551374,0.1227459089275244,1.3438811774696995,0.7748814758082788,0.2885141375,0.622913698284608
0.012,1.7964,1.0,1665.2007984007787,0.1276666104576642,1.3429827380057862,0.7878370384424987,0.28850180000000003,0.6248815096621628
0.0125,1.79609375,1.0,1727.540885702546,0.13255971080682658,1.3421256238627262,0.7997178763897156,0.2884889375,0.6267540098741723
0.013000000000000001,1.7957750000000001,1.0,1787.1153931173058,0.13742536538877348,1.3413067760145918,0.810632037995149,0.28847555,0.6285385352248892
0.0135,1.79544375,1.0,1843.961685780786,0.14226372720841557,1.3405236012309505,0.8206757094895367,0.2884616375,0.6302413169792878
0.014,1.7951000000000001,1.0,1898.1435454338869,0.14707494927066364,1.3397735062813696,0.8299343346758093,0.2884472,0.6318685090218881
0.0145,1.79474375,1.0,1949.732809118042,0.1518591835590184,1.339054070658604,0.8384838930746856,0.2884322375,0.633425820056857
0.015,1.794375,1.0,1998.8265831950002,0.15661658323445404,1.3383628302011876,0.8463919226277696,0.28841675,0.6349189895989868
0.0155,1.79399375,1.0,2045.4939117603592,0.1613472981449116,1.3376978198015086,0.853718682108802,0.2884007375,0.6363526227720275
0.016,1.7936,1.0,2089.8035986264003,0.1660514769927321,1.337057239248139,0.8605178993756234,0.2883842,0.6377309230561952
0.0165,1.7931937500000001,1.0,2131.8380992477155,0.17072926848025638,1.3364392883296503,0.8668374942927146,0.2883671375,0.6390580525135154
0.017,1.792775,1.0,2171.689382991047,0.17538082099290853,1.3358421971331254,0.8727202753118393,0.28834955,0.6403380695943717
0.0175,1.7923437500000001,1.0,2209.446019737815,0.1800062819619729,1.3352643441674703,0.8782045747401905,0.2883314375,0.6415746796235843
0.018000000000000002,1.7919,1.0,2245.2012629399387,0.18460579913848807,1.334704159341885,0.8833247469655067,0.2883128,0.6427714468088077
0.0185,1.79144375,1.0,2279.022389952054,0.18917951660553284,1.334160418426108,0.888111703568374,0.2882936375,0.6439311695066596
0.019,1.790975,1.0,2310.9837131878403,0.1937275784461861,1.3336318971898793,0.8925932230916994,0.28827395,0.6450566236526845
0.0195,1.79049375,1.0,2341.165997170464,0.1982501287435266,1.3331173714029374,0.8967943095166779,0.2882537375,0.646150563997441
0.02,1.79,1.0,2369.647057630702,0.20274731034153584,1.33261570318185,0.9007375255304163,0.288233,0.6472155420817713
0.0205,1.78949375,1.0,2396.5137535569984,0.20721926732115775,1.3321257172225176,0.9044432388638517,0.2882117375,0.6482541707889933
0.021,1.788975,1.0,2421.83997609479,0.2116661415358826,1.3316464098160992,0.9079299085079031,0.28818995000000003,0.649268682576824
0.021500000000000002,1.78844375,1.0,2445.685260730482,0.21608807218416615,1.3311769537876572,0.9112142923641107,0.2881676375,0.6502609224487499
0.022,1.7879,1.0,2468.1124824610006,0.22048519846446415,1.330716521962254,0.9143115948093832,0.2881448,0.6512327235369577
0.0225,1.78734375,1.0,2489.1875791766774,0.2248576595752324,1.3302642871649528,0.9172356322026162,0.28812143749999997,0.6521859076002092
0.023,1.786775,1.0,2508.978972474305,0.2292055946503656,1.3298194252332023,0.9199989793668482,0.28809755,0.6531222791417095
0.0235,1.78619375,1.0,2527.543003657763,0.23352913976400025,1.3293812502033309,0.9226131219321064,0.28807313749999996,0.6540433418829426
0.024,1.7856,1.0,2544.96049105275,0.2378284360502465,1.3289488656444572,0.9250885081160322,0.2880482,0.6549510324975282
0.0245,1.78499375,1.0,2561.2770499614567,0.24210361747909967,1.328521726304897,0.9274347474099794,0.2880227375,0.6558465412807729
0.025,1.784375,1.0,2576.539853078679,0.246354818020555,1.3280992869329649,0.9296606354401906,0.28799675,0.6567310520219387
0.025500000000000002,1.78374375,1.0,2590.797502133382,0.2505821716446077,1.3276810022769765,0.9317742339903551,0.2879702375,0.6576057421771561
0.026000000000000002,1.7831000000000001,1.0,2604.0999061215866,0.2547858123212531,1.327266327085247,0.9337829421810588,0.2879432,0.6584717830233806
0.0265,1.78244375,1.0,2616.4981661306388,0.2589658740204863,1.3268547161060917,0.9356935598766164,0.2879156375,0.6593303397933871
0.027,1.781775,1.0,2628.0366580154546,0.26312248660282184,1.3264456964234672,0.9375123535935146,0.28788755,0.6601824211945073
0.0275,1.7810937500000001,1.0,2638.771222727698,0.2672557873663931,1.3260386976158853,0.9392450853465745,0.2878589375,0.6610292335999276
0.028,1.7804,1.0,2648.7369895559127,0.27136590502868835,1.3256333488006002,0.940897096162627,0.2878298,0.6618715629748297
0.0285,1.77969375,1.0,2657.9691379417804,0.27545296801273506,1.3252292847954614,0.9424733191874649,0.2878001375,0.6627101795645174
0.029,1.778975,1.0,2666.503453927003,0.27951710474156055,1.324826140418318,0.9439783154873345,0.28776995,0.6635458498116684
0.029500000000000002,1.7782437500000001,1.0,2674.376275522133,0.28355844363819227,1.3244235504870192,0.9454163069068837,0.2877392375,0.6643793363820041
0.03,1.7775,1.0,2681.624441032246,0.28757711312565765,1.324021149819414,0.9467912056332952,0.287708,0.6652113981814567
0.0305,1.77674375,1.0,2688.282727249949,0.291573239968783,1.323618596250831,0.9481066432648226,0.2876762375,0.6660427428591891
0.031,1.775975,1.0,2694.3784302362897,0.29554694662073544,1.323215619663581,0.949365999966068,0.28764395,0.6668739260379063
0.0315,1.7751937500000001,1.0,2699.9586938162856,0.2994983710258567,1.3228117714847552,0.9505724005199305,0.2876111375,0.6677058679555938
0.032,1.7744,1.0,2705.045678508905,0.30342763493749564,1.3224068345819697,0.9517287758126702,0.2875778,0.66853900833812
0.0325,1.77359375,1.0,2709.661776900581,0.3073348601090013,1.32200059182284,0.9528378556156336,0.2875439375,0.6693737846484084
0.033,1.772775,1.0,2713.8295922317316,0.3112201682937225,1.3215928260749816,0.9539021848191457,0.28750955,0.6702106320698553
0.0335,1.7719437500000002,1.0,2717.5719180299575,0.3150836812450083,1.3211833202060106,0.9549241381710785,0.2874746375,0.6710499834867452
0.034,1.7711000000000001,1.0,2720.9117187874713,0.31892552071620756,1.3207718570835423,0.9559059336736999,0.2874392,0.6718922694616567
0.0345,1.7702437500000001,1.0,2723.8721116846855,0.32274580846066925,1.3203582195751926,0.956849644775114,0.2874032375,0.6727379182098618
0.035,1.7693750000000001,1.0,2726.4763493583223,0.3265446662317423,1.319942190548577,0.9577572114764142,0.28736675,0.6735873555707206
0.035500000000000004,1.76849375,1.0,2728.7478037156197,0.3303222157827756,1.3195235528713114,0.9586304504623199,0.2873297375,0.674441004976066
0.036000000000000004,1.7676,1.0,2730.700526609508,0.33407857226816856,1.3191021750543723,0.9594710716396375,0.2872922,0.6752991131236248
0.0365,1.76669375,1.0,2732.358462617033,0.3378138603822343,1.3186778364483072,0.9602806719603102,0.2872541375,0.6761621063667921
0.037,1.765775,1.0,2733.7444578921063,0.3415282024791711,1.3182503271080594,0.9610607510232205,0.28721555,0.6770303867844808
0.0375,1.76484375,1.0,2734.8713711373753,0.3452217131097089,1.3178195283859402,0.9618127248301704,0.2871764375,0.6779041689302888
0.038,1.7639,1.0,2735.7521100083673,0.3488945068245779,1.317385321634261,0.9625379246058068,0.28713679999999997,0.6787836658517752
0.0385,1.76294375,1.0,2736.399625072833,0.35254669817450823,1.3169475882053325,0.9632376027987961,0.28709663750000003,0.6796690890651242
0.039,1.761975,1.0,2736.8269040810837,0.3561784017102301,1.316506209451466,0.9639129385954721,0.28705595,0.6805606485289056
0.0395,1.7609937500000001,1.0,2737.0469665500914,0.3597897319824736,1.3160610667249724,0.964565042990378,0.2870147375,0.6814585526169405
0.04,1.76,1.0,2737.0728586580863,0.36338080354196894,1.315612041378163,0.9651949634536838,0.286973,0.6823630080902704
0.0405,1.7589937500000001,1.0,2736.917648452261,0.36695173093944616,1.315159014763349,0.9658036882314562,0.2869307375,0.6832742200682245
0.041,1.757975,1.0,2736.594421368254,0.37050262872563555,1.314701868232841,0.966392150311229,0.28688795,0.6841923919985955
0.0415,1.75694375,1.0,2736.110292986705,0.37403360523565843,1.3142405374570771,0.9669612346344868,0.2868446375,0.6851176167687734
0.042,1.7559,1.0,2735.4790786221156,0.3775447774607413,1.3137748973849954,0.9675117741046219,0.28680079999999997,0.6860501076882513
0.0425,1.75484375,1.0,2734.714336536789,0.38103626043013056,1.3133048253569288,0.9680445564135679,0.2867564375,0.6869900714542868
0.043000000000000003,1.753775,1.0,2733.8231611033766,0.38450816181991004,1.3128302574476178,0.968560330670869,0.28671155,0.6879375957438048
0.043500000000000004,1.75269375,1.0,2732.812651227069,0.3879605893061637,1.312351129731802,0.9690598063109884,0.28666613750000003,0.6888927670767442
0.044,1.7516,1.0,2731.68990876095,0.3913936505649752,1.3118673782842218,0.9695436555860191,0.2866202,0.689855670797596
0.0445,1.75049375,1.0,2730.462037013983,0.39480745327242867,1.3113789391796167,0.9700125158779676,0.2865737375,0.6908263910566855
0.045,1.7493750000000001,1.0,2729.1361393479697,0.3982021051046079,1.310885748492727,0.9704669918453198,0.28652675,0.6918050107911892
0.0455,1.74824375,1.0,2727.719317865956,0.40157771373759676,1.3103877422982924,0.9709076574172677,0.2864792375,0.6927916117058956
0.046,1.7471,1.0,2726.2186721909816,0.40493438684747907,1.309884856671053,0.9713350576477788,0.2864312,0.693786274253702
0.0465,1.7459437500000001,1.0,2724.641298335758,0.4082722321103387,1.3093770276857488,0.9717497104406131,0.28638263750000004,0.6947890776158527
0.047,1.744775,1.0,2722.9914884757836,0.4115913479575919,1.3088642168910498,0.9721521087827834,0.28633355,0.6958000495034393
0.0475,1.74359375,1.0,2721.2766205932985,0.4148918471328723,1.3083463577255572,0.9725427214528645,0.28628393750000003,0.6968192719304296
0.048,1.7424,1.0,2719.503557345231,0.4181738412400506,1.3078233882599455,0.9729219947129129,0.2862338,0.6978468164546137
0.0485,1.74119375,1.0,2717.6760178903514,0.4214374308551349,1.3072952751381652,0.9732903540544201,0.2861831375,0.6988826973142837
0.049,1.739975,1.0,2715.7977182128684,0.4246827165541334,1.3067619850041667,0.9736482048011551,0.28613195,0.6999269277943347
0.0495,1.73874375,1.0,2713.8723707640343,0.4279097989130543,1.3062234845019005,0.9739959332455843,0.2860802375,0.700979520215288
0.05,1.7375,1.0,2711.9036841283582,0.4311187785079057,1.305679740275317,0.9743339077113087,0.286028,0.7020404859222408
0.0505,1.73624375,1.0,2709.895362714225,0.4343097559146957,1.3051307189683667,0.9746624795469603,0.2859752375,0.7031098352737488
0.051000000000000004,1.734975,1.0,2707.8511064694408,0.4374828317094326,1.304576387225,0.9749819840565491,0.28592195,0.7041875776306341
0.051500000000000004,1.73369375,1.0,2705.7746106213835,0.4406381064681244,1.304016711689167,0.9752927413708544,0.2858681375,0.7052737213447255
0.052000000000000005,1.7324,1.0,2703.6695654415,0.4437756807667793,1.3034516590048184,0.9755950572640758,0.2858138,0.7063682737475236
0.0525,1.73109375,1.0,2701.5396560352483,0.4468956551814054,1.3028811958159048,0.9758892239196397,0.28575893750000003,0.7074712411387996
0.053,1.729775,1.0,2699.3885621557997,0.449998130288011,1.3023052887663762,0.9761755206487291,0.28570355000000003,0.7085826287751209
0.0535,1.72844375,1.0,2697.216011893836,0.45308320538413255,1.301723940583201,0.9764542166576963,0.2856476375,0.7097023714252071
0.054,1.7271,1.0,2695.0259590526307,0.4561509763479229,1.3011371153452223,0.976725566807888,0.2855912,0.7108304775559895
0.0545,1.7257437500000001,1.0,2692.8225477501283,0.4592015395386231,1.3005447753332493,0.9769898149736382,0.2855342375,0.7119669579715775
0.055,1.724375,1.0,2690.6077077702607,0.4622349912208845,1.2999469030400195,0.9772471958579274,0.28547675,0.7131117836629501
0.0555,1.72299375,1.0,2688.383197492808,0.465251427484916,1.2993434825001713,0.977497934345351,0.2854187375,0.714264921826115
0.056,1.7216,1.0,2686.151456206634,0.4682509441855396,1.2987344914836094,0.977742245533639,0.2853602,0.715426350759022
0.0565,1.72019375,1.0,2683.9137207282283,0.47123363617606173,1.2981199187461603,0.9779803361491839,0.28530113749999997,0.7165960269348941
0.057,1.718775,1.0,2681.6698906460088,0.4741995973957028,1.2974997652879903,0.9782124050426333,0.28524155,0.7177738828239499
0.0575,1.71734375,1.0,2679.4198657579173,0.4771489217836831,1.2968740321092647,0.9784386429634506,0.2851814375,0.7189598503162861
0.058,1.7159,1.0,2677.1546883241285,0.48008170248666177,1.2962428015069893,0.978659237448838,0.2851208,0.7201537071278397
0.0585,1.7144437859055444,1.0,2674.9124199762587,0.4829980333995293,1.2956057404047492,0.978874345495489,0.2850596390080329,0.7213560147951532
0.059000000000000004,1.7129822333434623,1.0,2673.0057139295654,0.48589800599687205,1.2949631947156062,0.9790841550173295,0.2849982538004254,0.7225660515406996
0.059500000000000004,1.71152068078138,1.0,2671.6566157440607,0.48878171167173123,1.2943155319866915,0.9792888477445925,0.28493686859281797,0.7237830600490778
0.06,1.710059128219298,1.0,2670.824704527912,0.4916492418171481,1.293663119765136,0.9794885983629643,0.2848754833852105,0.7250062885516817
0.0605,1.708597575657216,1.0,2670.4715668914077,0.4945006871749927,1.2930063088317254,0.9796835739008376,0.28481409817760306,0.7262350222729833
0.061,1.707136023095134,1.0,2670.552882802225,0.4973361388641425,1.2923455055864623,0.9798739380205647,0.2847527129699956,0.7274684482251139
0.0615,1.7056744705330518,1.0,2671.0356813566527,0.5001556860697385,1.2916810131659207,0.980059842637774,0.28469132776238815,0.7287059520360396
0.062,1.7042129179709697,1.0,2671.889449490898,0.5029594175272842,1.2910131128957958,0.9802414328222356,0.28462994255478075,0.7299469646769733
0.0625,1.7027513654088877,1.0,2673.083736242788,0.5057474219722832,1.2903420861017827,0.9804188482748252,0.2845685573471733,0.7311909216775032
0.063,1.7012898128468055,1.0,2674.59493645525,0.5085197857584679,1.289668151631423,0.980592220186591,0.28450717213956583,0.7324373786047033
0.0635,1.6998282602847234,1.0,2676.3892702251783,0.5112765993612358,1.2889916220257198,0.9807616800516543,0.2844457869319584,0.7336857219354066
0.064,1.6983667077226414,1.0,2678.4372441544137,0.514017952327837,1.2883127705203472,0.9809273525805692,0.2843844017243509,0.7349354156724541
0.0645,1.6969051551605594,1.0,2680.7224068732253,0.5167439296380659,1.2876317506685422,0.9810893517051144,0.2843230165167435,0.7361861479826198
0.065,1.6954436025984772,1.0,2683.2283112653263,0.5194546162717172,1.2869487160235407,0.9812477873101589,0.28426163130913606,0.7374376096059995
0.0655,1.6939820500363951,1.0,2685.938507347112,0.5221500972085852,1.2862638201385792,0.9814027654106104,0.2842002461015286,0.7386894938764897
0.066,1.692520497474313,1.0,2688.83653566947,0.5248304574284645,1.2855772165668944,0.9815543883194479,0.28413886089392115,0.7399414967407688
0.0665,1.6910589449122309,1.0,2691.905921242762,0.5274957819111498,1.2848890588617223,0.981702754807341,0.2840774756863137,0.741193316775772
0.067,1.6895973923501488,1.0,2695.130167984377,0.5301461556364353,1.2841995005762998,0.9818479602543403,0.28401609047870624,0.7424446552046612
0.0675,1.6881358397880668,1.0,2698.4939699433544,0.5327816627118327,1.2835086841452363,0.9819900962034149,0.2839547052710988,0.7436952360147852
0.068,1.6866742872259848,1.0,2701.9887347445947,0.5354023838162228,1.28281669041823,0.9821292479513947,0.28389332006349133,0.7449448967502519
0.0685,1.6852127346639025,1.0,2705.594315249062,0.5380084090805766,1.2821237056153632,0.9822655035162403,0.28383193485588387,0.7461932867661222
0.069,1.6837511821018205,1.0,2709.3034260060776,0.5405998188921091,1.281429798185374,0.9823989418502264,0.28377054964827647,0.7474402700680476
0.0695,1.6822896295397385,1.0,2713.108766967815,0.5431766936380359,1.280735036577001,0.9825296392905557,0.283709164440669,0.748685711856218
0.07,1.6808280769776562,1.0,2717.003022141537,0.5457391137055727,1.2800394892389824,0.982657669665532,0.28364777923306156,0.7499294785292407
0.07050000000000001,1.6793665244155742,1.0,2720.978858344897,0.5482871594819348,1.2793432246200565,0.9827831043957517,0.2835863940254541,0.751171437687719
0.07100000000000001,1.6779049718534922,1.0,2725.0289240654815,0.5508209113543377,1.2786463111689617,0.9829060125905759,0.2835250088178467,0.7524114581375325
0.07150000000000001,1.67644341929141,1.0,2729.1458484240934,0.5533404497099971,1.2779488173344364,0.9830264611401354,0.28346362361023925,0.7536494098928193
0.07200000000000001,1.674981866729328,1.0,2733.3222402423453,0.5558458549361281,1.277250811565219,0.9831445148031037,0.2834022384026318,0.7548851641786589
0.0725,1.673520314167246,1.0,2737.5506872136057,0.5583372074199465,1.2765523623100479,0.9832602362904557,0.28334085319502433,0.7561185934334567
0.073,1.6720587616051639,1.0,2741.8310660586417,0.5608145757087993,1.2758534717140741,0.9833736827050004,0.2832794679874169,0.7573496879569276
0.0735,1.6705972090430818,1.0,2746.150201455477,0.5632780541954433,1.2751542602053254,0.983484916080592,0.2832180827798094,0.7585782305193243
