Time [s],Phi [rad],STIM [ ],Fsee [N],Gamma [ ],Lcerel [ ],q [ ],Lmtc [m],fisomrel [ ]
0.0,1.8,1.0,18.458286697015232,0.0007153718240715957,1.379285094356067,0.005131837016346225,0.288653,0.5412717385182058
0.0005,1.79999375,1.0,18.98337833107096,0.006320568462706891,1.3792246388617697,0.0150142122055631,0.2886527375,0.5414179632658175
0.001,1.799975,1.0,22.848959132893913,0.011894324379912544,1.3788143561523336,0.03937846054407875,0.28865195,0.5424097052707046
0.0015,1.79994375,1.0,33.469710410146796,0.017436815934063515,1.3778454962019637,0.07570011967369165,0.2886506375,0.5447473883925122
0.002,1.7999,1.0,58.290951985013926,0.022948218492704817,1.3760690954667933,0.12071607313804135,0.2886488,0.549017970136441
0.0025,1.79984375,1.0,104.6477378161724,0.0284287064402704,1.3735791434413542,0.1710748309530025,0.28864643749999996,0.5549701007194646
0.003,1.7997750000000001,1.0,170.50686645661148,0.03387845318482707,1.3708620760649068,0.2239695873855931,0.28864354999999997,0.5614200272220258
0.0035,1.79969375,1.0,248.33650473720203,0.0392976311591854,1.3682601851003502,0.27725435165937784,0.2886401375,0.5675524109370402
0.004,1.7996,1.0,332.723196396757,0.0446864118302295,1.365860517874973,0.3293382615931396,0.2886362,0.5731699026156141
0.0045000000000000005,1.7994937500000001,1.0,420.8714921935921,0.050044965696886094,1.3636523339204212,0.3791253585623451,0.2886317375,0.5783066965377248
0.005,1.799375,1.0,511.2168620958884,0.05537346232367446,1.3616089867120515,0.42594199549986517,0.28862675,0.5830323365085566
0.0055,1.79924375,1.0,602.672040516812,0.06067207029143625,1.3597078524953663,0.46944336724272606,0.2886212375,0.5874051685369
0.006,1.7991000000000001,1.0,694.3880861200101,0.06594095726300142,1.3579315801907181,0.5095211638503674,0.2886152,0.5914699741778555
0.006500000000000001,1.79894375,1.0,785.6589121476918,0.07118028991377966,1.3562669605158264,0.5462263177771391,0.2886086375,0.5952610103469853
0.007,1.798775,1.0,875.9114923038784,0.0763902341289745,1.354703230289266,0.5797092733247732,0.28860155,0.5988061811937496
0.0075,1.79859375,1.0,964.654709003576,0.08157095451268945,1.3532317808048393,0.6101773053544876,0.2885939375,0.6021278986908226
0.008,1.7984,1.0,1051.5256262934608,0.08672261534184943,1.3518446710917693,0.6378642329982712,0.2885858,0.6052465797969537
0.0085,1.79819375,1.0,1136.2087922308235,0.091845379430888,1.3505353860032816,0.6630114873189642,0.2885771375,0.6081790279321759
0.009000000000000001,1.797975,1.0,1218.4621783927084,0.09693940867461687,1.3492980320147892,0.6858554136308546,0.28856795,0.6109403215261331
0.0095,1.79774375,1.0,1298.1281963072083,0.10200486444622904,1.3481269423439857,0.7066198801482424,0.2885582375,0.6135447449433269
0.01,1.7975,1.0,1375.0882214375615,0.1070419073785791,1.3470171022323094,0.7255127295405696,0.288548,0.6160048812445502
0.0105,1.79724375,1.0,1449.241421518946,0.11205069619742183,1.3459642201607385,0.7427242015037621,0.2885372375,0.6183314998997835
0.011,1.796975,1.0,1520.543516164712,0.11703138931256987,1.3449640827507834,0.7584264028874579,0.28852595000000003,0.6205350178951233
0.0115,1.79669375,1.0,1588.996368564053,0.12198414503539881,1.344012601719389,0.7727739972561221,0.2885141375,0.6226254140888299
0.012,1.7964,1.0,1654.607146594921,0.12690912024670722,1.3431062167326673,0.7859055018826515,0.28850180000000003,0.6246113649215432
0.0125,1.79609375,1.0,1717.3822301180162,0.13180646987297945,1.3422418621808703,0.7979445833114611,0.2884889375,0.6265003436574306
0.013000000000000001,1.7957750000000001,1.0,1777.3635259892246,0.13667634884069974,1.3414164724542499,0.8090012514751176,0.28847555,0.6282997204620422
0.0135,1.79544375,1.0,1834.6085960650023,0.1415189112778522,1.3406271674920942,0.8191733404705781,0.2884616375,0.6300163672395178
0.014,1.7951000000000001,1.0,1889.2011792615995,0.14633431170543854,1.3398710923247017,0.828547772913274,0.2884472,0.6316570172258102
0.0145,1.79474375,1.0,1941.1999223114155,0.15112270179817766,1.3391459402448036,0.8372019721092562,0.2884322375,0.6332271403554468
0.015,1.794375,1.0,1990.6673629308887,0.15588423231324003,1.3384495847699114,0.8452048227796235,0.28841675,0.6347317556411817
0.0155,1.79399375,1.0,2037.6842557165346,0.16061905400779616,1.3377798994175365,0.8526176101355041,0.2884007375,0.6361758276450221
0.016,1.7936,1.0,2082.3345253275625,0.16532731669854112,1.337134897915273,0.8594949610646437,0.2883842,0.637563968774421
0.0165,1.7931937500000001,1.0,2124.7179342056197,0.17000917080857894,1.3365125814836385,0.8658855864625616,0.2883671375,0.6389007732883214
0.017,1.792775,1.0,2164.9099319703114,0.17466476375716905,1.3359113360206996,0.8718330940272664,0.28834955,0.6401899691734333
0.0175,1.7923437500000001,1.0,2202.9846671980117,0.17929424201408764,1.3353296703050965,0.8773765131465119,0.2883314375,0.6414349879243472
0.018000000000000002,1.7919,1.0,2239.0258093620964,0.183897752049111,1.3347660931154692,0.8825507986092609,0.2883128,0.6426392311868783
0.0185,1.79144375,1.0,2273.1184699576283,0.18847543947046158,1.3342191856377077,0.8873873240767567,0.2882936375,0.6438059182132254
0.019,1.790975,1.0,2305.3538432059204,0.19302745047374104,1.3336875455079886,0.8919142827106574,0.28827395,0.6449382078216008
0.0195,1.79049375,1.0,2335.811316634452,0.19755392933139151,1.33316995537409,0.8961570900328311,0.2882537375,0.6460388419516161
0.02,1.79,1.0,2364.5573834641386,0.2020550179689427,1.3326653817322394,0.9001386960108364,0.288233,0.6471101524137228
0.0205,1.78949375,1.0,2391.663522202143,0.20653085831192436,1.3321727910786636,0.9038798195888885,0.2882117375,0.6481544542953142
0.021,1.788975,1.0,2417.20578086365,0.21098159228586613,1.3316911499095903,0.9073991959649849,0.28818995000000003,0.6491740467846101
0.021500000000000002,1.78844375,1.0,2441.254893831044,0.21540736014924716,1.3312195159421543,0.91071381200621,0.2881676375,0.6501710212341998
0.022,1.7879,1.0,2463.891192359826,0.21980830438374163,1.3307568898401247,0.9138390666024901,0.2881448,0.6511475759671161
0.0225,1.78734375,1.0,2485.1791258894027,0.22418456421365754,1.3303024561260375,0.9167889850596099,0.28812143749999997,0.6521055085366936
0.023,1.786775,1.0,2505.173764760083,0.22853627656696138,1.3298555148271873,0.9195763497310313,0.28809755,0.6530463626852399
0.0235,1.78619375,1.0,2523.9325492046264,0.2328635783716196,1.3294153659708683,0.9222128080655873,0.28807313749999996,0.6539716730302261
0.024,1.7856,1.0,2541.5150908919272,0.23716660655559874,1.3289813095843752,0.9247089890435758,0.2880482,0.6548829653831297
0.0245,1.78499375,1.0,2557.9829853338288,0.2414454980468653,1.3285526456950023,0.927074606263653,0.2880227375,0.6557817570370355
0.025,1.784375,1.0,2573.3887284522466,0.24570038642497102,1.328128776430504,0.9293185652105187,0.28799675,0.6566693433616717
0.025500000000000002,1.78374375,1.0,2587.796673278295,0.2499314111212172,1.3277090074127198,0.9314490136711532,0.2879702375,0.6575472144788583
0.026000000000000002,1.7831000000000001,1.0,2601.2509547992977,0.2541387046747558,1.3272928464072744,0.9334734582646768,0.2879432,0.6584164307736744
0.0265,1.78244375,1.0,2613.793728172025,0.25832239854340905,1.326879830138475,0.9353988002090085,0.2879156375,0.6592779867622505
0.027,1.781775,1.0,2625.4681602429864,0.2624826241849993,1.326469495330628,0.9372313884768319,0.28788755,0.6601328718704245
0.0275,1.7810937500000001,1.0,2636.318341641595,0.2666195130573488,1.3260613787080404,0.93897707133826,0.2878589375,0.6609820705198082
0.028,1.7804,1.0,2646.389203632397,0.27073319661827994,1.325655016995019,0.9406412424668419,0.2878298,0.661826562200172
0.0285,1.77969375,1.0,2655.721866164305,0.2748238046065185,1.325249989061297,0.9422288876124055,0.2878001375,0.662667234105951
0.029,1.778975,1.0,2664.35296384104,0.2788914661054501,1.3248459211037638,0.9437446221742235,0.28776995,0.663504870989309
0.029500000000000002,1.7782437500000001,1.0,2672.333426473183,0.2829363158035934,1.3244423131880356,0.9451927023592973,0.2877392375,0.6643405147104484
0.03,1.7775,1.0,2679.691151707063,0.28695847904902255,1.3240388820573274,0.9465770973742845,0.287708,0.6651747541933593
0.0305,1.77674375,1.0,2686.4544398077146,0.29095808118981187,1.323635344454854,0.9479014885310237,0.2876762375,0.6660081754451146
0.031,1.775975,1.0,2692.651957985337,0.2949352475740356,1.3232314171238302,0.9491692937458729,0.28764395,0.6668413615565068
0.0315,1.7751937500000001,1.0,2698.312706500279,0.298890103549768,1.3228268168074706,0.9503836896669521,0.2876111375,0.6676748926975632
0.032,1.7744,1.0,2703.4659865472668,0.3028227744650833,1.32242126024899,0.9515476316845929,0.2875778,0.6685093461079499
0.0325,1.77359375,1.0,2708.141369918453,0.30673338566805575,1.322014464191603,0.9526638720502881,0.2875439375,0.6693452960822541
0.033,1.772775,1.0,2712.366515360393,0.310622061146269,1.3216061650292015,0.9537349782103289,0.28750955,0.6701832736454402
0.0335,1.7719437500000002,1.0,2716.1651947934924,0.3144889226732346,1.3211961364784035,0.9547633493251401,0.2874746375,0.6710237305846518
0.034,1.7711000000000001,1.0,2719.570264350569,0.31833409861548034,1.3207840711313974,0.9557512185736009,0.2874392,0.6718672822333118
0.0345,1.7702437500000001,1.0,2722.5998612993612,0.32215770810642375,1.3203697971430033,0.956700685845702,0.2874032375,0.6727142636433384
0.035,1.7693750000000001,1.0,2725.272246176441,0.32595987027948214,1.3199531426680418,0.9576137155886388,0.28736675,0.6735650079618741
0.035500000000000004,1.76849375,1.0,2727.6057900214428,0.3297407042680729,1.3195339358613332,0.9584921471096252,0.2873297375,0.6744198464061397
0.036000000000000004,1.7676,1.0,2729.618962265544,0.33350032920561345,1.3191120048776976,0.9593377039818161,0.2872922,0.675279108236404
0.0365,1.76669375,1.0,2731.330319275272,0.3372388642255212,1.3186871778719553,0.9601520026406786,0.2872541375,0.6761431207270686
0.037,1.765775,1.0,2732.758493550343,0.34095642846121343,1.3182592829989266,0.9609365602487951,0.28721555,0.677012209135871
0.0375,1.76484375,1.0,2733.9205671720106,0.3446531389025071,1.3178281630940558,0.9616928028757011,0.2871764375,0.6778866669140888
0.038,1.7639,1.0,2734.830010104025,0.34832910711756804,1.3173936942967284,0.9624220731452621,0.28713679999999997,0.6787667181781727
0.0385,1.76294375,1.0,2735.5129956738333,0.35198446434816777,1.3169556378169744,0.9631256272576867,0.28709663750000003,0.6796528177807236
0.039,1.761975,1.0,2735.980238527333,0.35561932283214664,1.31651389560749,0.9638046570593055,0.28705595,0.6805451335694226
0.0395,1.7609937500000001,1.0,2736.242483409953,0.35923379480734485,1.316068369620972,0.9644602853556857,0.2870147375,0.6814438320316983
0.04,1.76,1.0,2736.310501013574,0.3628279925116027,1.3156189618101164,0.9650935706449073,0.286973,0.6823490782713785
0.0405,1.7589937500000001,1.0,2736.195084036713,0.36640202818276035,1.3151655741276198,0.9657055114780152,0.2869307375,0.6832610359847187
0.041,1.757975,1.0,2735.907043457818,0.36995601405865813,1.3147081085261787,0.9662970504796353,0.28688795,0.6841798674358257
0.0415,1.75694375,1.0,2735.4572050216757,0.37349006237713633,1.3142464669584895,0.966869078058512,0.2868446375,0.6851057334314636
0.042,1.7559,1.0,2734.8564059393148,0.3770042853760351,1.3137805513772483,0.9674224358348414,0.28680079999999997,0.686038793295249
0.0425,1.75484375,1.0,2734.115491800526,0.3804987952931947,1.3133102637351517,0.9679579198087153,0.2867564375,0.6869792048412299
0.043000000000000003,1.753775,1.0,2733.245313699527,0.3839737043664554,1.3128355059848964,0.9684762832916641,0.28671155,0.6879271243468554
0.043500000000000004,1.75269375,1.0,2732.2497752167674,0.38742911250058765,1.3123562432234666,0.9689782427637759,0.28666613750000003,0.6888825807376359
0.044,1.7516,1.0,2731.1406128025023,0.3908651372750488,1.3118723694261134,0.9694644741929411,0.2866202,0.6898457435859116
0.0445,1.75049375,1.0,2729.932064481207,0.3942818999311694,1.3113837558146897,0.9699356171597807,0.2865737375,0.6908168259398524
0.045,1.7493750000000001,1.0,2728.6293037359674,0.397679504644995,1.3108903559579417,0.9703922821490942,0.28652675,0.6917958755495675
0.0455,1.74824375,1.0,2727.2375042621748,0.40105805559257135,1.3103921234246152,0.9708350485859996,0.2864792375,0.6927829391452758
0.046,1.7471,1.0,2725.7618391073465,0.404417656949944,1.3098890117834563,0.9712644667121816,0.2864312,0.6937780624230641
0.0465,1.7459437500000001,1.0,2724.2074798583158,0.40775841289315873,1.3093809746032106,0.9716810593314359,0.28638263750000004,0.6947812900305088
0.047,1.744775,1.0,2722.579595876683,0.41108042759826113,1.3088679654526243,0.9720853234347782,0.28633355,0.6957926655521571
0.0475,1.74359375,1.0,2720.8833535821586,0.4143838052412969,1.3083499379004433,0.9724777317144798,0.28628393750000003,0.6968122314948749
0.048,1.7424,1.0,2719.1239157827904,0.4176686499983117,1.3078268455154132,0.9728587339756041,0.2862338,0.6978400292730547
0.0485,1.74119375,1.0,2717.3064410544653,0.4209350660453512,1.3072986418662802,0.9732287584528603,0.2861831375,0.6988760991936852
0.049,1.739975,1.0,2715.4360831665686,0.42418315755846103,1.3067652805217904,0.9735882130399514,0.28613195,0.6999204804412859
0.0495,1.73874375,1.0,2713.517990556852,0.42741302871368686,1.3062267150506894,0.9739374864379754,0.2860802375,0.7009732110627036
0.05,1.7375,1.0,2711.557305853382,0.4306247836870744,1.305682899021723,0.974276949228898,0.286028,0.70203432795177
0.0505,1.73624375,1.0,2709.559346400718,0.4338185265099875,1.3051337843527693,0.9746069547539902,0.2859752375,0.7031038700464213
0.051000000000000004,1.734975,1.0,2707.529725315013,0.43699435686148086,1.3045793201994573,0.9749278395202587,0.28592195,0.7041818804427182
0.051500000000000004,1.73369375,1.0,2705.4691519622897,0.44015237357347725,1.3040195004178776,0.9752399275854209,0.2858681375,0.7052683143037759
0.052000000000000005,1.7324,1.0,2703.378506350903,0.44329267610072404,1.3034543173013755,0.9755435284245465,0.2858138,0.7063631291809825
0.0525,1.73109375,1.0,2701.258344880334,0.4464153638367223,1.3028837660931092,0.975838937920147,0.28575893750000003,0.7074662762667562
0.053,1.729775,1.0,2699.1049465523806,0.4495205331901689,1.3023078811317064,0.9761264410355857,0.28570355000000003,0.7085776307578383
0.0535,1.728444923392447,1.0,2696.999433553217,0.45260828818412147,1.3017264509039035,0.9764062958858948,0.28564768678248276,0.7096975408958365
0.054,1.7271128395544808,1.0,2695.3642075603198,0.455678724629048,1.3011398197977346,0.976678782501067,0.2855917392612882,0.7108252835847829
0.0545,1.7257807557165146,1.0,2694.2602806477303,0.4587319383354167,1.300548332201233,0.9769441688895194,0.2855357917400936,0.7119601403413818
0.055,1.7244486718785486,1.0,2693.6496880634104,0.4617680251136955,1.299952332502433,0.9772027116650198,0.28547984421889905,0.7131013974054525
0.0555,1.7231165880405823,1.0,2693.4946246885256,0.46478708077435266,1.2993521650893678,0.977454656636022,0.28542389669770446,0.7142483458428186
0.056,1.721784504202616,1.0,2693.7574119001483,0.46778920112785605,1.2987481743500715,0.9777002393599424,0.28536794917650987,0.7154002816406227
0.0565,1.7204524203646498,1.0,2694.4004670627965,0.47077448198467386,1.298140704672578,0.9779396856647148,0.2853120016553153,0.7165565057950851
0.057,1.7191203365266836,1.0,2695.3958043064636,0.4737430163384633,1.2975300132867393,0.9781732068889283,0.2852560541341207,0.717716489775487
0.0575,1.7177882526887174,1.0,2696.7057354358267,0.476694901577733,1.2969164466237466,0.9784010112608736,0.2852001066129261,0.7188795399372699
0.058,1.7164561688507511,1.0,2698.305454095502,0.47963023084662604,1.296300233557729,0.9786232916680596,0.2851441590917315,0.7200451900307248
0.0585,1.715124085012785,1.0,2700.175351335225,0.4825490955745153,1.295681555644499,0.9788402305420816,0.285088211570537,0.721213066491228
0.059000000000000004,1.7137920011748187,1.0,2702.2958331526993,0.48545158719077375,1.295060594439869,0.9790520031211686,0.2850322640493424,0.7223827984974208
0.059500000000000004,1.7124599173368524,1.0,2704.647310937418,0.4883377971247742,1.294437531499652,0.9792587777951336,0.2849763165281478,0.7235540179986975
0.06,1.7111278334988864,1.0,2707.2101926447694,0.4912078168058895,1.29381254837966,0.979460716431244,0.2849203690069532,0.7247263597405929
0.0605,1.7097957496609202,1.0,2709.964874701097,0.49406173766349254,1.2931858266357064,0.9796579746821998,0.28486442148575863,0.7258994612880662
0.061,1.708463665822954,1.0,2712.8966922829936,0.4968996480253662,1.292557502622795,0.979850699627172,0.28480847396456405,0.7270730473823768
0.0615,1.7071315819849877,1.0,2715.988152652926,0.49972163958154386,1.2919277383346286,0.9800390344102886,0.28475252644336946,0.7282467971646321
0.062,1.7057994981470215,1.0,2719.219011207169,0.5025278063526302,1.2912967205925128,0.9802231182964845,0.2846965789221749,0.7294203462118863
0.0625,1.7044674143090552,1.0,2722.580311717944,0.505318234946138,1.2906645331417235,0.980403079480656,0.28464063140098034,0.730593524150204
0.063,1.703135330471089,1.0,2726.0630847806747,0.5080930119695806,1.2900312597275365,0.9805790414385284,0.28458468387978575,0.7317661619287572
0.0635,1.7018032466331228,1.0,2729.658345719538,0.5108522240304709,1.2893969840952277,0.9807511231375808,0.28452873635859116,0.7329380918258499
0.064,1.7004711627951565,1.0,2733.357092648806,0.513595957736322,1.288761789990073,0.9809194392370711,0.2844727888373966,0.734109147454493
0.0645,1.6991390789571905,1.0,2737.150304690011,0.5163242996946472,1.2881257611573478,0.9810841002777907,0.284416841316202,0.7352791637675351
0.065,1.6978069951192243,1.0,2741.0289403438846,0.5190373365129592,1.2874889813423283,0.9812452128621565,0.2843608937950074,0.736447977062342
0.0655,1.696474911281258,1.0,2744.983936018675,0.5217351547987715,1.2868515342902902,0.9814028798251911,0.28430494627381286,0.7376154249850334
0.066,1.6951428274432918,1.0,2749.006204713011,0.5244178411595969,1.286213503746509,0.9815572003969167,0.2842489987526182,0.7387813465342701
0.0665,1.6938107436053256,1.0,2753.0946046661347,0.5270854712304103,1.2855749013247322,0.9817082661059163,0.2841930512314237,0.7399457134354894
0.067,1.6924786597673593,1.0,2757.2346592146523,0.529738143943137,1.2849358592220914,0.9818561726983966,0.2841371037102291,0.7411082784737516
0.0675,1.691146575929393,1.0,2761.42142352462,0.5323759427507907,1.2842964231146046,0.9820010074731594,0.2840811561890345,0.7422689534574035
0.068,1.6898144920914269,1.0,2765.6515094041106,0.5349989486695832,1.283656624493415,0.9821428539268228,0.2840252086678399,0.743427676597582
0.0685,1.6884824082534606,1.0,2769.921518916045,0.5376072427157266,1.2830164948496672,0.982281792737474,0.28396926114664534,0.7445843866167356
0.069,1.6871503244154944,1.0,2774.2280441362127,0.5402009059054329,1.2823760656745047,0.9824179018801775,0.28391331362545075,0.7457390227493235
0.0695,1.6858182405775284,1.0,2778.567666932977,0.542780019254914,1.281735368459071,0.9825512567369934,0.28385736610425616,0.7468915247424472
0.07,1.6844861567395621,1.0,2782.936958769264,0.545344663780382,1.2810944346945103,0.9826819302018048,0.2838014185830616,0.7480418328564211
0.07050000000000001,1.683154072901596,1.0,2787.332480526148,0.547894920498049,1.2804532958719665,0.9828099927802305,0.28374547106186704,0.7491898878652781
0.07100000000000001,1.6818219890636297,1.0,2791.750782349146,0.5504308704241269,1.279811983482583,0.9829355126848867,0.28368952354067245,0.7503356310572153
0.07150000000000001,1.6804899052256634,1.0,2796.1884035155754,0.5529525945748276,1.279170529017504,0.9830585559262423,0.28363357601947786,0.7514790042349713
0.07200000000000001,1.6791578213876972,1.0,2800.641872324694,0.5554601739663632,1.278528963967873,0.9831791863993004,0.2835776284982833,0.7526199497161459
0.0725,1.677825737549731,1.0,2805.108189539206,0.5579536873909193,1.2778873154893666,0.9832974656422248,0.2835216809770887,0.7537584180169427
0.073,1.6764936537117647,1.0,2809.588936799969,0.5604331964530526,1.2772455696110268,0.9834134504281314,0.2834657334558941,0.7548944328158715
