Time [s],Phi [rad],STIM [ ],Fsee [N],Gamma [ ],Lcerel [ ],q [ ],Lmtc [m],fisomrel [ ]
0.0,1.8,1.0,20.454241344490402,0.0016119856285455715,1.3790701375048455,0.0056644186510747515,0.288653,0.5417915524619181
0.0005,1.79999375,1.0,21.202156522347956,0.007212152972628659,1.378989487730975,0.017978173532869252,0.2886527375,0.5419865057060369
0.001,1.799975,1.0,25.74988959066848,0.012780907805851116,1.3785347669538612,0.04443509188602019,0.28865195,0.5430849177525063
0.0015,1.79994375,1.0,38.03852904444596,0.01831842632788117,1.3774824597769861,0.08236569440010279,0.2886506375,0.5456217875022833
0.002,1.7999,1.0,65.9893142572923,0.023824883749235665,1.3756051058820864,0.12844682852161793,0.2886488,0.5501301161840136
0.0025,1.79984375,1.0,115.80228361253695,0.02930045429872548,1.3730744376177955,0.1793817318993557,0.28864643749999996,0.5561717601918548
0.003,1.7997750000000001,1.0,183.94371950291318,0.0347453112261783,1.3703826737231497,0.2324709522159893,0.28864354999999997,0.5625531728497795
0.0035,1.79969375,1.0,262.9477078153493,0.0401596268120292,1.3678261733281643,0.2856613871031224,0.2886401375,0.5685711295113498
0.004,1.7996,1.0,347.94009392251905,0.04554357236722345,1.365468785500895,0.3374440821944144,0.2886362,0.5740834401291482
0.0045000000000000005,1.7994937500000001,1.0,436.4047712078818,0.05089731821523218,1.3632960280770412,0.38679609146287003,0.2886317375,0.5791326402533346
0.005,1.799375,1.0,526.9032913224405,0.0562210338488983,1.3612820113304818,0.43310246854091405,0.28862675,0.5837860595950308
0.0055,1.79924375,1.0,618.3785134329064,0.06151488763914833,1.359405980235508,0.4760622778779131,0.2886212375,0.5880973895757449
0.006,1.7991000000000001,1.0,709.9912834310046,0.06677904702400796,1.3576519523189485,0.5155975407592092,0.2886152,0.5921080389108564
0.006500000000000001,1.79894375,1.0,801.0842388735947,0.07201367870119554,1.356006891531305,0.5517783039004057,0.2886086375,0.5958517001983981
0.007,1.798775,1.0,891.0764449363741,0.07721894815623227,1.3544609429947725,0.5847668514876927,0.28860155,0.5993540812858948
0.0075,1.79859375,1.0,979.5190138343595,0.08239502030443992,1.3530053775751514,0.6147762012835379,0.2885939375,0.602637765953523
0.008,1.7984,1.0,1066.0253127139824,0.0875420586674672,1.351633056018994,0.6420428139451894,0.2885858,0.6057212816158899
0.0085,1.79819375,1.0,1150.3104337210605,0.092660226165617,1.3503373306063182,0.6668078306210604,0.2885771375,0.6086216670396661
0.009000000000000001,1.797975,1.0,1232.1561368776377,0.0977496850241696,1.3491122536052853,0.6893059424850789,0.28856795,0.6113540637201498
0.0095,1.79774375,1.0,1311.3818944558498,0.10281059583793446,1.3479526969280828,0.7097588955359636,0.2885582375,0.6139315073356943
0.01,1.7975,1.0,1387.8692980851386,0.10784311860706065,1.346853803101539,0.7283718030909634,0.288548,0.6163661966645373
0.0105,1.79724375,1.0,1461.571306631065,0.11284741360189889,1.3458107389391296,0.7453317241166802,0.2885372375,0.6186700664361389
0.011,1.796975,1.0,1532.4297387883628,0.1178236384627994,1.3448196101273615,0.7608080904797658,0.28852595000000003,0.6208527948712195
0.0115,1.79669375,1.0,1600.419809105304,0.12277195020293645,1.3438767564868737,0.7749530712852206,0.2885141375,0.6229233939670517
0.012,1.7964,1.0,1665.5583870106436,0.12769250557049186,1.3429785768455826,0.7879026620533729,0.28850180000000003,0.6248906116867946
0.0125,1.79609375,1.0,1727.8881964105847,0.13258546089305948,1.342121655881965,0.7997781112203729,0.2884889375,0.626762667654918
0.013000000000000001,1.7957750000000001,1.0,1787.4498203296366,0.13745097101285364,1.34130301943692,0.8106874351727312,0.28847555,0.6285467121276831
0.0135,1.79544375,1.0,1844.2820842075137,0.1422891891057407,1.340520058134765,0.8207267527528161,0.2884616375,0.6302490115047714
0.014,1.7951000000000001,1.0,1898.4503201788984,0.14710026834758716,1.3397701625998168,0.8299814481188843,0.2884472,0.6318757544862692
0.0145,1.79474375,1.0,1950.023572438322,0.15188436080004902,1.3390509436918991,0.8385274648177926,0.2884322375,0.6334325815740838
0.015,1.794375,1.0,1999.1059270209114,0.1566416194439255,1.3383598631589835,0.8464322723146515,0.28841675,0.6349253922290625
0.0155,1.79399375,1.0,2045.7599212373898,0.16137219367863048,1.3376950267993402,0.85375611684199,0.2884007375,0.6363586379942376
0.016,1.7936,1.0,2090.057437985645,0.1660762325656581,1.3370546024285457,0.8605526833893636,0.2883842,0.6377365911407367
0.0165,1.7931937500000001,1.0,2132.084137719594,0.17075388516650253,1.3364367578621772,0.8668698542740256,0.2883671375,0.6390634820127129
0.017,1.792775,1.0,2171.9236127556833,0.17540529939958352,1.335839810317369,0.8727504386537233,0.28834955,0.6403431817793164
0.0175,1.7923437500000001,1.0,2209.6776223870656,0.18003062408140036,1.335262004372395,0.8782327091095401,0.2883314375,0.6415796824751409
0.018000000000000002,1.7919,1.0,2245.420029033482,0.1846300046455275,1.3347019668945386,0.8833510532756973,0.2883128,0.6427761267759158
0.0185,1.79144375,1.0,2279.224249808564,0.18920358579299096,1.3341584104736497,0.8881363464353769,0.2882936375,0.6439354486917215
0.019,1.790975,1.0,2311.1709416708486,0.19375151222481676,1.333630047699578,0.8926163352856418,0.28827395,0.6450605589029891
0.0195,1.79049375,1.0,2341.3414391881283,0.198273927828114,1.333115649547242,0.8968160092818873,0.2882537375,0.6461542220239765
0.02,1.79,1.0,2369.821044121998,0.20277097686794732,1.3326140059033744,0.9007579038779491,0.288233,0.6472191424646365
0.0205,1.78949375,1.0,2396.6876991403356,0.2072428022844597,1.332124029881201,0.9044623971332459,0.2882117375,0.6482577448197422
0.021,1.788975,1.0,2422.0035459811625,0.21168954415606414,1.3316448314393476,0.9079479619956191,0.28818995000000003,0.6492720209807612
0.021500000000000002,1.78844375,1.0,2445.834520185002,0.21611134256117354,1.3311755205364408,0.9112313329520538,0.2881676375,0.6502639496091118
0.022,1.7879,1.0,2468.2500357979934,0.2205083375782008,1.3307152071311068,0.9143276936234935,0.2881448,0.6512354967226694
0.0225,1.78734375,1.0,2489.317032198165,0.22488066817277713,1.3302630550106143,0.917250851951201,0.28812143749999997,0.6521885028541325
0.023,1.786775,1.0,2509.104268183605,0.2292284738069796,1.3298182373612053,0.9200133768629879,0.28809755,0.6531247777549352
0.0235,1.78619375,1.0,2527.680626225111,0.233551893814646,1.3293799502677084,0.9226267288351456,0.28807313749999996,0.6540460725817665
0.024,1.7856,1.0,2545.095747972536,0.23785106316773402,1.3289475924328815,0.925101403467688,0.2880482,0.6549537035478663
0.0245,1.78499375,1.0,2561.401073506511,0.2421261168382014,1.3285205625594827,0.9274469942433593,0.2880227375,0.6558489795140339
0.025,1.784375,1.0,2576.649691040273,0.24637718979800585,1.32809825935027,0.9296722824258794,0.28799675,0.656733202204474
0.025500000000000002,1.78374375,1.0,2590.8961946379254,0.25060441701910513,1.3276800815080012,0.9317853169056759,0.2879702375,0.6576076663995845
0.026000000000000002,1.7831000000000001,1.0,2604.190091283402,0.25480793188758283,1.3272654878380759,0.9337934942397527,0.2879432,0.6584735346623285
0.0265,1.78244375,1.0,2616.581717443705,0.2589878686601596,1.3268539404361304,0.9357036129145541,0.2879156375,0.6593319567008118
0.027,1.781775,1.0,2628.1264564461976,0.2631443621244449,1.3264448645893934,0.9375219233902914,0.28788755,0.6601841530076933
0.0275,1.7810937500000001,1.0,2638.860741520754,0.2672775417045462,1.326037870060549,0.9392542100745039,0.2878589375,0.6610309543570807
0.028,1.7804,1.0,2648.8217604649712,0.27138753682457095,1.3256325666122821,0.9409058085832076,0.2878298,0.6618731873772247
0.0285,1.77969375,1.0,2658.0473904819355,0.27547447690862653,1.3252285640072774,0.942481646436523,0.2878001375,0.6627116745974626
0.029,1.778975,1.0,2666.5761363939596,0.27953849138082043,1.324825472008219,0.9439862795740022,0.28776995,0.6635472344854518
0.029500000000000002,1.7782437500000001,1.0,2674.4470722330316,0.2835797096652602,1.324422900377792,0.9454239251645664,0.2877392375,0.6643806814746849
0.03,1.7775,1.0,2681.6934593510514,0.28759825873568834,1.324020516897719,0.9467984979852269,0.287708,0.6652127060884405
0.0305,1.77674375,1.0,2688.3540090889414,0.2915942685519088,1.323617943382017,0.9481136246077342,0.2876762375,0.6660440903099287
0.031,1.775975,1.0,2694.461518784047,0.295567866137657,1.3232148595195288,0.9493726792053786,0.28764395,0.6668754929393217
0.0315,1.7751937500000001,1.0,2700.0417038552773,0.29951917537182154,1.3228110128441257,0.9505788057649389,0.2876111375,0.6677074298040488
0.032,1.7744,1.0,2705.120558125457,0.3034483201332909,1.3224061508896792,0.9517349297146277,0.2875778,0.668540414121497
0.0325,1.77359375,1.0,2709.724327198996,0.30735542430095375,1.3220000211900609,0.9528437757875143,0.2875439375,0.6693749564846949
0.033,1.772775,1.0,2713.8794832522744,0.3112406117536985,1.3215923712791422,0.9539078842197354,0.28750955,0.6702115648439362
0.0335,1.7719437500000002,1.0,2717.612701237541,0.3151040063704137,1.3211829486907944,0.954929625456495,0.2874746375,0.671050744484332
0.034,1.7711000000000001,1.0,2720.940749213395,0.31894572497169,1.3207715927925257,0.955911221898027,0.2874392,0.6718928101318435
0.0345,1.7702437500000001,1.0,2723.898718918487,0.3227658989063676,1.3203579774763645,0.9568547367252785,0.2874032375,0.6727384128420062
0.035,1.7693750000000001,1.0,2726.507786416408,0.32656464914222366,1.3199419046400185,0.9577621115103279,0.28736675,0.6735879389519048
0.035500000000000004,1.76849375,1.0,2728.7846257526735,0.330342093250172,1.3195232181279104,0.9586351679905913,0.2873297375,0.6744416871083667
0.036000000000000004,1.7676,1.0,2730.7460029229783,0.33409834880112615,1.3191017617844634,0.959475613497782,0.2872922,0.6752999541647053
0.0365,1.76669375,1.0,2732.4087656478328,0.3378335333659998,1.3186773794541007,0.9602850494393556,0.2872541375,0.6761630351539131
0.037,1.765775,1.0,2733.78983368777,0.34154776451570684,1.3182499149812454,0.9610649790595852,0.28721555,0.6770312232603
0.0375,1.76484375,1.0,2734.9061896997246,0.3452411598211608,1.3178192122103207,0.9618168145487787,0.2871764375,0.6779048097895763
0.038,1.7639,1.0,2735.774870633063,0.3489138368532755,1.3173851149857496,0.9625418835619904,0.28713679999999997,0.6787840841373805
0.0385,1.76294375,1.0,2736.4129596675457,0.3525659131829645,1.3169474671519557,0.9632414352022025,0.28709663750000003,0.67966933375625
0.039,1.761975,1.0,2736.832767655507,0.3561975004361112,1.3165061562252094,0.963916648390052,0.28705595,0.6805607559679316
0.0395,1.7609937500000001,1.0,2737.0485770938444,0.35980871749718274,1.3160610521059373,0.9645686336724162,0.2870147375,0.6814585820844643
0.04,1.76,1.0,2737.076918050914,0.36339968516579146,1.3156120045309097,0.9651984366241675,0.286973,0.6823630822575927
0.0405,1.7589937500000001,1.0,2736.9271927531563,0.3669705139862108,1.315158928126977,0.9658070475284799,0.2869307375,0.6832743942023434
0.041,1.757975,1.0,2736.6088204028792,0.37052131450271414,1.3147017375209902,0.9663954013079145,0.28688795,0.6841926543407839
0.0415,1.75694375,1.0,2736.1312342000065,0.37405219725957506,1.314240347339799,0.9669643811908223,0.2868446375,0.6851179977798549
0.042,1.7559,1.0,2735.503878524867,0.37756327280106694,1.3137746722102541,0.967514822098447,0.28680079999999997,0.686050558288736
0.0425,1.75484375,1.0,2734.736206282782,0.3810546516714632,1.3133046267592057,0.9680475137766521,0.2867564375,0.6869904682757488
0.043000000000000003,1.753775,1.0,2733.8376764098853,0.3845264444150373,1.3128301256135044,0.96856320369393,0.28671155,0.6879378587647929
0.043500000000000004,1.75269375,1.0,2732.817751541399,0.3879787615760627,1.3123510834000003,0.9690625997253222,0.28666613750000003,0.6888928593713204
0.044,1.7516,1.0,2731.6858958402945,0.3914117136988127,1.3118674147455438,0.969546372640046,0.2866202,0.6898555982778412
0.0445,1.75049375,1.0,2730.451766966415,0.39482541129336823,1.3113790325141095,0.9700151582675194,0.2865737375,0.6908262057097485
0.045,1.7493750000000001,1.0,2729.1268485632554,0.3982199620792347,1.3108858329481505,0.9704695581210042,0.28652675,0.6918048433422661
0.0455,1.74824375,1.0,2727.7117917706373,0.40159547253517147,1.3103878107300275,0.970910150394179,0.2864792375,0.6927914762443259
0.046,1.7471,1.0,2726.2128652405136,0.40495204885123187,1.3098849094858227,0.9713374803477878,0.2864312,0.6937861698755213
0.0465,1.7459437500000001,1.0,2724.6363349126214,0.4082897972174691,1.3093770728416183,0.9717520660888346,0.28638263750000004,0.6947889885202552
0.047,1.744775,1.0,2722.979838628812,0.41160882336498666,1.308864322910347,0.9721544057806812,0.28633355,0.695799840666878
0.0475,1.74359375,1.0,2721.274282798375,0.4149092328608219,1.308346379007317,0.972544951656754,0.28628393750000003,0.6968192300799616
0.048,1.7424009605890831,1.0,2719.551074309251,0.4181911295865962,1.3078233893719244,0.9729241640815266,0.2862338403447415,0.6978468142716219
0.0485,1.7412058610714138,1.0,2718.2439308027683,0.421454617206701,1.307295571593361,0.9732924861083034,0.28618364616499936,0.6988821163236912
0.049,1.7400107615537446,1.0,2717.4421944027167,0.42469979910106753,1.3067631523229049,0.9736503403061487,0.2861334519852573,0.6999246440590379
0.0495,1.7388156620360755,1.0,2717.10191004118,0.42792677848284305,1.3062265299680385,0.9739981409419063,0.28608325780551513,0.7009735725246622
0.05,1.7376205625184062,1.0,2717.185851832631,0.4311356571313133,1.3056860428731678,0.9743362787579329,0.2860330636257731,0.7020281989558158
0.0505,1.736425463000737,1.0,2717.661189275933,0.4343265362452788,1.3051419902825945,0.9746651238004125,0.28598286944603096,0.7030879010407431
0.051000000000000004,1.735230363483068,1.0,2718.4987542469735,0.43749951571814255,1.3045946387940865,0.974985026924292,0.28593267526628885,0.7041521237815687
0.051500000000000004,1.7340352639653986,1.0,2719.6693708893345,0.4406546956622486,1.304044255607664,0.9752963231721435,0.28588248108654674,0.7052203145152472
0.052000000000000005,1.7328401644477296,1.0,2721.1319682353146,0.4437921812647029,1.3034912165721217,0.9755993400345225,0.2858322869068046,0.7062917138506808
0.0525,1.7316450649300603,1.0,2722.867934555784,0.44691206970130215,1.3029356932075171,0.9758943767373757,0.28578209272706256,0.707365962311483
0.053,1.730449965412391,1.0,2724.8586770926013,0.45001445814784313,1.302377857033907,0.9761817193721515,0.2857318985473204,0.7084427027282592
0.0535,1.729254865894722,1.0,2727.085612937922,0.45309944378012257,1.3018178795713486,0.9764616415893256,0.28568170436757834,0.7095215802648434
0.054,1.7280597663770527,1.0,2729.53016056386,0.4561671237739372,1.3012559323398996,0.9767344052496845,0.2856315101878362,0.710602242442659
0.0545,1.7268646668593834,1.0,2732.1737320067555,0.4592175953050837,1.3006921868596162,0.9770002610362795,0.2855813160080941,0.7116843391632068
0.055,1.7256695673417144,1.0,2734.997725701862,0.46225095554935886,1.3001268146505562,0.9772594490297302,0.285531121828352,0.7127675227286692
0.0555,1.7244744678240451,1.0,2737.9837311980873,0.46526730152995227,1.299559985315781,0.9775121991219617,0.2854809276486099,0.7138514515229879
0.056,1.7232793683063758,1.0,2741.123634893866,0.4682667240810238,1.2989917748312372,0.977758725622613,0.28543073346886777,0.7149359648701109
0.0565,1.7220842687887068,1.0,2744.393239585146,0.4712493271209044,1.2984224049146522,0.9779992436431642,0.28538053928912566,0.7160206257811077
0.057,1.7208891692710375,1.0,2747.784114322621,0.47421520268573597,1.2978519540160345,0.9782339502525326,0.2853303451093836,0.7171052726046878
0.0575,1.7196940697533685,1.0,2751.2878149395456,0.4771644428116605,1.2972805005853922,0.9784630345622918,0.2852801509296415,0.7181897448077124
0.058,1.7184989702356992,1.0,2754.895882240409,0.4800971395348199,1.296708123072734,0.9786866781137682,0.28522995674989937,0.7192738829804062
0.0585,1.71730387071803,1.0,2758.5998403250396,0.48301338489135626,1.2961348999280677,0.9789050552433558,0.28517976257015726,0.7203575288411777
0.059000000000000004,1.7161087712003609,1.0,2762.3911950495917,0.4859132709174113,1.2955609096014018,0.9791183334274417,0.28512956839041514,0.7214405252410458
0.059500000000000004,1.7149136716826916,1.0,2766.261432623818,0.4887968896491272,1.2949862305427446,0.9793266736082266,0.28507937421067303,0.7225227161676744
0.06,1.7137185721650223,1.0,2770.2020183451564,0.4916643331226458,1.2944109412021045,0.9795302305016415,0.2850291800309309,0.7236039467490145
0.0605,1.7125234726473533,1.0,2774.204762703563,0.49451569274967744,1.2938351167184687,0.9797291526614825,0.28497898585118886,0.7246840694612369
0.061,1.711328373129684,1.0,2778.2692751780487,0.4973510484312817,1.2932587617679923,0.9799235783505701,0.2849287916714467,0.7257630696629591
0.0615,1.7101332736120147,1.0,2782.3796438307545,0.5001705085517745,1.2926820207666332,0.9801136501777021,0.28487859749170463,0.7268406719386483
0.062,1.7089381740943457,1.0,2786.5326676549817,0.5029741592643697,1.2921049233661648,0.9802994977214885,0.2848284033119625,0.7279168167896908
0.0625,1.7077430745766764,1.0,2790.7251367095,0.5057620867222812,1.2915274992183607,0.9804812457560274,0.2847782091322204,0.7289914451514308
0.063,1.7065479750590073,1.0,2794.953831893532,0.5085343770787231,1.2909497779749948,0.9806590144657882,0.2847280149524783,0.7300644983938178
0.0635,1.705352875541338,1.0,2799.2155247419464,0.511291116486909,1.2903717892878404,0.9808329196493503,0.2846778207727362,0.7311359183219963
0.064,1.7041577760236688,1.0,2803.5069772396587,0.5140323911000529,1.2897935628086707,0.9810030729126554,0.2846276265929941,0.7322056471768399
0.0645,1.7029626765059998,1.0,2807.8249416551857,0.5167582870713688,1.2892151281892599,0.9811695818523914,0.28457743241325195,0.7332736276354272
0.065,1.7017675769883305,1.0,2812.166160394762,0.5194688905540708,1.2886365150813812,0.9813325502300705,0.2845272382335099,0.7343398028114656
0.0655,1.7005724774706612,1.0,2816.5273658745164,0.5221642877013722,1.2880577531368083,0.9814920781373445,0.2844770440537678,0.7354041162556557
0.066,1.6993773779529922,1.0,2820.90528041338,0.5248445646664875,1.2874788720073145,0.9816482621530577,0.28442684987402567,0.7364665119560017
0.0665,1.6981822784353229,1.0,2825.2966161448107,0.5275098076026304,1.2868999013446736,0.9818011954925017,0.28437665569428355,0.737526934338063
0.067,1.6969871789176536,1.0,2829.698699899837,0.5301600994420473,1.286320865221564,0.9819509676673089,0.28432646151454144,0.7385853384527262
0.0675,1.6957920793999846,1.0,2834.11289111029,0.5327955067989765,1.2857417516641567,0.9820976623336796,0.2842762673347994,0.7396417453950874
0.068,1.6945969798823153,1.0,2838.531672527682,0.5354161450798091,1.2851626278570394,0.9822413672187286,0.2842260731550572,0.7406960321226648
0.0685,1.693401880364646,1.0,2842.954160498416,0.5380220934595036,1.284583501694316,0.9823821619594298,0.28417587897531515,0.7417481841945195
0.069,1.692206780846977,1.0,2847.379468609939,0.5406134311130187,1.28400438107009,0.9825201235256,0.28412568479557304,0.7427981872863363
0.0695,1.6910116813293077,1.0,2851.8067076918533,0.5431902372153132,1.2834252738784657,0.9826553263278748,0.28407549061583093,0.7438460271904231
0.07,1.6898165818116384,1.0,2856.234985817309,0.5457525909413455,1.282846188013547,0.982787842320609,0.2840252964360888,0.7448916898157052
0.07050000000000001,1.6886214822939694,1.0,2860.663408305982,0.5483005714660746,1.2822671313694378,0.9829177410999717,0.2839751022563467,0.7459351611877185
0.07100000000000001,1.6874263827763,1.0,2865.091077728595,0.5508342579644587,1.2816881118402417,0.9830450899974885,0.2839249080766046,0.7469764274485954
0.07150000000000001,1.686231283258631,1.0,2869.517093912691,0.5533537296114568,1.2811091373200627,0.9831699541692762,0.2838747138968625,0.7480154748570476
0.07200000000000001,1.6850361837409618,1.0,2873.9405539499185,0.5558590655820274,1.2805302157030047,0.98329239668119,0.2838245197171204,0.7490522897883471
0.0725,1.6838410842232925,1.0,2878.360552204133,0.558350345051129,1.2799513548831716,0.9834124785901006,0.28377432553737825,0.7500868587343001
