Time [s],Phi [rad],STIM [ ],Fsee [N],Gamma [ ],Lcerel [ ],q [ ],Lmtc [m],fisomrel [ ]
0.0,1.8,1.0,17.966880633309216,4.068693102385299e-05,1.379339777312961,0.005000436341462196,0.288653,0.5411394558295701
0.0005,1.79999375,1.0,18.286615777011846,0.0056496680183223185,1.3793012913914862,0.01302592999819133,0.2886527375,0.5412325585100476
0.001,1.799975,1.0,21.65115836832468,0.011227187156490771,1.3789349557128716,0.03576867268423055,0.28865195,0.5421183014632782
0.0015,1.79994375,1.0,31.15056370408002,0.016773420823079865,1.378039279416573,0.0708207489399542,0.2886506375,0.5442803036294587
0.002,1.7999,1.0,53.76050143552311,0.022288544503934107,1.3763565861813423,0.11497719021879899,0.2886488,0.5483281888964474
0.0025,1.79984375,1.0,97.42021437539695,0.027772732700980678,1.3739206606946974,0.16485679164695552,0.28864643749999996,0.5541560570970694
0.003,1.7997750000000001,1.0,161.35137547441454,0.03322615893965145,1.3711996345600341,0.21757125421508733,0.28864354999999997,0.5606212732860241
0.0035,1.79969375,1.0,238.1282778840198,0.038648995768706465,1.3685710351170648,0.2709021094219766,0.2886401375,0.5668220410482634
0.004,1.7996,1.0,321.9405807906299,0.04404141477095472,1.366143547614252,0.32319583871193314,0.2886362,0.5725092555499043
0.0045000000000000005,1.7994937500000001,1.0,409.7587074981095,0.04940358656845599,1.3639112929954205,0.37330033114626143,0.2886317375,0.577705901882657
0.005,1.799375,1.0,499.9146924752604,0.054735680813753525,1.3618476948075715,0.4204961552529638,0.28862675,0.5824816510282098
0.0055,1.79924375,1.0,591.2962474014263,0.06003786623569669,1.3599289544557815,0.4644039485907506,0.2886212375,0.5868977925521937
0.006,1.7991000000000001,1.0,683.0247629231825,0.06531031058661248,1.3581372068239606,0.5048915583160613,0.2886152,0.5910004498990169
0.006500000000000001,1.79894375,1.0,774.3859026401288,0.07055318067725026,1.3564586404037242,0.5419942202774933,0.2886086375,0.5948253752599759
0.007,1.798775,1.0,864.7890075106358,0.07576664247419926,1.3548822679463517,0.5758530377660638,0.28860155,0.598401071100937
0.0075,1.79859375,1.0,953.731776283349,0.08095086073114642,1.3533992655826246,0.6066702807639152,0.2885939375,0.6017505072884617
0.008,1.7984,1.0,1040.8412559334113,0.08610599980099051,1.3520015388920494,0.6346777318354431,0.2885858,0.6048945045205008
0.0085,1.79819375,1.0,1125.793269782766,0.09123222255390523,1.3506824607428096,0.6601167066102239,0.2885771375,0.6078501649469636
0.009000000000000001,1.797975,1.0,1208.3405093498113,0.09632969104634746,1.349436019029606,0.683224592035361,0.28856795,0.6106328718263421
0.0095,1.79774375,1.0,1288.32013303749,0.10139856709760656,1.3482564616509456,0.7042269741646082,0.2885582375,0.6132571330304958
0.01,1.7975,1.0,1365.5932690716654,0.10643901074018994,1.347138907630096,0.7233338444257622,0.288548,0.6157352640605349
0.0105,1.79724375,1.0,1440.0691368210876,0.11145118125026025,1.3460788198228064,0.7407374959422832,0.2885372375,0.6180786048152216
0.011,1.796975,1.0,1511.7050505459126,0.11643523727310726,1.3450718774274761,0.7566121397083523,0.28852595000000003,0.6202978297470565
0.0115,1.79669375,1.0,1580.496257244022,0.12139133730988982,1.3441140004473664,0.7711144937979169,0.2885141375,0.6224029167605546
0.012,1.7964,1.0,1646.42755286275,0.12631963734499074,1.3432018280711293,0.784385059693105,0.28850180000000003,0.6244021212010045
0.0125,1.79609375,1.0,1709.5211959003238,0.13122029318576497,1.3423320465798625,0.7965491217818768,0.2884889375,0.6263034753968204
0.013000000000000001,1.7957750000000001,1.0,1769.8168898725366,0.13609345984795648,1.3415015694821766,0.8077182435776319,0.28847555,0.6281144070191649
0.0135,1.79544375,1.0,1827.392846820701,0.14093929283177217,1.3407072476210231,0.8179915548603703,0.2884616375,0.6298423833498306
0.014,1.7951000000000001,1.0,1882.296008782964,0.1457579446291184,1.3399466050368558,0.8274573696785391,0.2884472,0.6314933218237117
0.0145,1.79474375,1.0,1934.5830411640661,0.15054956709213171,1.3392173201790125,0.8361942021615415,0.2884322375,0.6330727349826828
0.015,1.794375,1.0,1984.33181219472,0.15531431207294874,1.3385170714968315,0.8442718407068839,0.28841675,0.6345860724018146
0.0155,1.79399375,1.0,2031.6216057201914,0.1600523303224021,1.3378437264754226,0.8517524305665198,0.2884007375,0.6360383178609689
0.016,1.7936,1.0,2076.555787777651,0.164763773086249,1.337195077157978,0.8586912907854253,0.2883842,0.6374345661365604
0.0165,1.7931937500000001,1.0,2119.2023910496696,0.16944878837089206,1.336569441521386,0.865137903432085,0.2883671375,0.6387787341644845
0.017,1.792775,1.0,2159.6369844499927,0.17410752388877293,1.335965186007236,0.87113645883382,0.28834955,0.6400745975482252
0.0175,1.7923437500000001,1.0,2197.946210895646,0.17874012735233333,1.3353806770571175,0.8767264668711461,0.2883314375,0.6413258975022623
0.018000000000000002,1.7919,1.0,2234.210113319135,0.18334674501943057,1.334814449141667,0.8819433515690962,0.2883128,0.6425359842026854
0.0185,1.79144375,1.0,2268.53428547919,0.18792752463176463,1.3342648689467853,0.8868188405372139,0.2882936375,0.6437085375892488
0.019,1.790975,1.0,2300.987310561288,0.1924826098509643,1.3337307532017613,0.8913815466253318,0.28827395,0.6448462511715087
0.0195,1.79049375,1.0,2331.6409329424396,0.19701214404936368,1.3332109510915262,0.8956572205716499,0.2882537375,0.6459517285480885
0.02,1.79,1.0,2360.5727383953845,0.20151627059929691,1.3327043118010113,0.8996690681710725,0.288233,0.6470275539190543
0.0205,1.78949375,1.0,2387.8597415933723,0.20599513197764538,1.3322097420262817,0.9034380484691298,0.2882117375,0.6480761712462735
0.021,1.788975,1.0,2413.5836344415584,0.21044887116712208,1.3317261492093746,0.906983111093113,0.28818995000000003,0.6491000061566319
0.021500000000000002,1.78844375,1.0,2437.818294886438,0.214877629705598,1.3312525576577565,0.9103214399088795,0.2881676375,0.6501012214451363
0.022,1.7879,1.0,2460.622718914551,0.21928154628732427,1.3307881697632022,0.9134686548366315,0.2881448,0.65108159038492
0.0225,1.78734375,1.0,2482.058970886892,0.22366075960655196,1.3303321879174859,0.916438943674039,0.28812143749999997,0.6520428750817819
0.023,1.786775,1.0,2502.1919280023844,0.2280154083575321,1.3298838145123821,0.919245213225802,0.28809755,0.6529868269220672
0.0235,1.78619375,1.0,2521.084193456398,0.23234563036118758,1.3294422977669367,0.9218992308366561,0.28807313749999996,0.653915090695284
0.024,1.7856,1.0,2538.7968646415247,0.23665156299903015,1.3290069215436873,0.9244117395443197,0.2880482,0.654829226965389
0.0245,1.78499375,1.0,2555.4025669732114,0.2409333452631875,1.3285768804282116,0.9267925405250292,0.2880227375,0.6557309746430635
0.025,1.784375,1.0,2570.9461081380077,0.24519111067064145,1.3281516478825985,0.9290506478945549,0.28799675,0.6566214795661195
0.025500000000000002,1.78374375,1.0,2585.473728541099,0.24942499273837387,1.3277306973689356,0.931194320542842,0.2879702375,0.6575018813841556
0.026000000000000002,1.7831000000000001,1.0,2599.032982341329,0.2536351249833666,1.3273135023493114,0.9332311356631513,0.2879432,0.658373313711184
0.0265,1.78244375,1.0,2611.672624633007,0.2578216409226015,1.326899536285814,0.9351680542259316,0.2879156375,0.6592369042605859
0.027,1.781775,1.0,2623.4422012269424,0.261984673930074,1.3264882754548892,0.9370114797390019,0.28788755,0.6600937691023354
0.0275,1.7810937500000001,1.0,2634.38508819368,0.2661243538045041,1.3260792623878868,0.9387673184810124,0.2878589375,0.66094488086917
0.028,1.7804,1.0,2644.5543581228267,0.2702408166740889,1.3256719578498652,0.9404410074118794,0.2878298,0.6617913771372309
0.0285,1.77969375,1.0,2653.9840010994058,0.27433419057922515,1.3252660061360606,0.9420375894794278,0.2878001375,0.6626340090953322
0.029,1.778975,1.0,2662.7086187113055,0.27840460356030977,1.3248610515417092,0.9435617257797816,0.28776995,0.6634735242066805
0.029500000000000002,1.7782437500000001,1.0,2670.763370262349,0.28245218365773955,1.3244567383620471,0.9450177294010412,0.2877392375,0.6643106662355296
0.03,1.7775,1.0,2678.1839217905076,0.28647705891191133,1.3240527108923108,0.9464095958631096,0.287708,0.6651461752657668
0.0305,1.77674375,1.0,2685.0063978913195,0.29047935736322206,1.323648613427736,0.9477410305330486,0.2876762375,0.6659807877114281
0.031,1.775975,1.0,2691.2575354060305,0.29445920239827766,1.323244179981051,0.9490154832884152,0.28764395,0.6668150513660009
0.0315,1.7751937500000001,1.0,2696.9731619164286,0.29841672356713966,1.3228390644449093,0.9502361520328226,0.2876111375,0.6676496762383155
0.032,1.7744,1.0,2702.1938231977465,0.30235205218270705,1.322432880644314,0.951406007268969,0.2875778,0.6684854511460765
0.0325,1.77359375,1.0,2706.940969150462,0.3062653097217638,1.3220254195379184,0.9525278333718952,0.2875439375,0.6693227971027667
0.033,1.772775,1.0,2711.236261081665,0.3101566176610941,1.3216164720843755,0.953604225452335,0.28750955,0.6701621329209189
0.0335,1.7719437500000002,1.0,2715.1015519455796,0.31402609747748195,1.3212058292423383,0.9546376044967044,0.2874746375,0.671003875193692
0.034,1.7711000000000001,1.0,2718.558867552616,0.3178738706477115,1.32079328197046,0.9556302311244119,0.2874392,0.6718484382736638
0.0345,1.7702437500000001,1.0,2721.6303887480008,0.3217000586485669,1.3203786212273936,0.956584218103388,0.2874032375,0.6726962342488338
0.035,1.7693750000000001,1.0,2724.3384345582813,0.32550478295683216,1.319961637971792,0.9575015417489757,0.28736675,0.6735476729158416
0.035500000000000004,1.76849375,1.0,2726.7054463077347,0.32928816504929137,1.3195421231623086,0.958384052317497,0.2873297375,0.6744031617503955
0.036000000000000004,1.7676,1.0,2728.7539727026183,0.33305032640272864,1.3191198677575962,0.9592334834936168,0.2872922,0.6752631058749182
0.0365,1.76669375,1.0,2730.499191903642,0.33679138007122283,1.3186947305486183,0.9600514660398736,0.2872541375,0.6761277701547945
0.037,1.765775,1.0,2731.9672304900328,0.34051145488011486,1.3182664715122776,0.9608395240807847,0.28721555,0.6769976183390453
0.0375,1.76484375,1.0,2733.1723382576374,0.3442106668808485,1.3178349591764698,0.9615990969740018,0.2871764375,0.677872891343405
0.038,1.7639,1.0,2734.1275871828966,0.34788913067939087,1.3174000732404931,0.9623315383955973,0.28713679999999997,0.6787538058256684
0.0385,1.76294375,1.0,2734.846094064487,0.3515469608817091,1.3169616934036452,0.9630381216634947,0.28709663750000003,0.6796405768963445
0.039,1.761975,1.0,2735.3410146243477,0.3551842720937705,1.316519699365224,0.9637200453791004,0.28705595,0.6805334180923095
0.0395,1.7609937500000001,1.0,2735.6255379307972,0.3588011789215422,1.3160739708245275,0.964378438614209,0.2870147375,0.68143254134954
0.04,1.76,1.0,2735.7128811414336,0.36239779597099125,1.3156243874808535,0.9650143656843158,0.286973,0.6823381569749236
0.0405,1.7589937500000001,1.0,2735.616284567665,0.365974237848085,1.3151708290335,0.9656288305453667,0.2869307375,0.6832504736171439
0.041,1.757975,1.0,2735.34900705962,0.36953061915879054,1.3147131751817647,0.966222780847308,0.28688795,0.6841696982366452
0.0415,1.75694375,1.0,2734.915784771123,0.3730670400729315,1.314251383145584,0.966797115810818,0.2868446375,0.6850958807113756
0.042,1.7559,1.0,2734.335436494308,0.37658362832458114,1.3137852823783618,0.9673526792591474,0.28680079999999997,0.6860293257740171
0.0425,1.75484375,1.0,2733.620544962207,0.3800805011256812,1.313314759019422,0.967890272115834,0.2867564375,0.6869702225146731
0.043000000000000003,1.753775,1.0,2732.777850118215,0.38355776538429887,1.312839752321568,0.9684106549550123,0.28671155,0.6879186523194515
0.043500000000000004,1.75269375,1.0,2731.8140970820064,0.38701552800850136,1.312360201537602,0.9689145479567194,0.28666613750000003,0.6888746954572345
0.044,1.7516,1.0,2730.7360346243604,0.3904538959063558,1.3118760459203267,0.9694026334516811,0.2866202,0.6898384310621883
0.0445,1.75049375,1.0,2729.5504137261237,0.3938729759859295,1.3113872247225453,0.9698755582814271,0.2865737375,0.690809937116043
0.045,1.7493750000000001,1.0,2728.2639862174597,0.39727287515528964,1.31089367719706,0.9703339359888274,0.28652675,0.6917892904301346
0.0455,1.74824375,1.0,2726.8835034992667,0.4006537003225033,1.3103953425966741,0.9707783488527734,0.2864792375,0.6927765666272108
0.046,1.7471,1.0,2725.415715346911,0.4040155583956378,1.3098921601741902,0.9712093497795022,0.2864312,0.693771840123004
0.0465,1.7459437500000001,1.0,2723.8673687952546,0.4073585562827603,1.3093840691824108,0.9716274640619422,0.28638263750000004,0.6947751841075678
0.047,1.744775,1.0,2722.245207105495,0.4106828008919379,1.3088710088741389,0.9720331910174695,0.28633355,0.6957866705263764
0.0475,1.74359375,1.0,2720.5559688144845,0.41398839913123797,1.3083529185021772,0.9724270055135443,0.28628393750000003,0.6968063700611916
0.048,1.7424,1.0,2718.8063868645827,0.41727545790872755,1.3078297373193284,0.9728093593898907,0.2862338,0.6978343521106929
0.0485,1.74119375,1.0,2717.000947707963,0.4205440814660781,1.3073014249869184,0.9731806838770238,0.2861831375,0.6988706447736268
0.049,1.739975,1.0,2715.144078204102,0.42379437128998815,1.3067679416726412,0.9735413893987943,0.28613195,0.6999152741133005
0.0495,1.73874375,1.0,2713.2399385478466,0.42702642949352526,1.3062292499352641,0.973891867292548,0.2860802375,0.7009682604722116
0.05,1.7375,1.0,2711.2924704312513,0.43024035808137534,1.3056853142860185,0.9742324907582985,0.286028,0.7020296193554147
0.0505,1.73624375,1.0,2709.30570673335,0.43343625904078,1.3051360983635771,0.9745636156877788,0.2859752375,0.7030993669497876
0.051000000000000004,1.734975,1.0,2707.279930627678,0.43661423366210284,1.3045815999849,0.9748855838344929,0.28592195,0.7041774520109643
0.051500000000000004,1.73369375,1.0,2705.2236134058794,0.4397743823353376,1.3040217422115403,0.9751987165082603,0.2858681375,0.7052639676742976
0.052000000000000005,1.7324,1.0,2703.1390643519585,0.44291680509599013,1.303456504276766,0.9755033241328063,0.2858138,0.7063588967223375
0.0525,1.73109375,1.0,2701.0302839857204,0.4460416013303578,1.3028858499328095,0.9757997022546069,0.28575893750000003,0.7074622509900497
0.053,1.7297782753232007,1.0,2699.054306821518,0.4491488699433415,1.3023098231925925,0.9760881383380717,0.28570368756357445,0.7085738864836209
0.0535,1.7284623242502097,1.0,2697.614661434142,0.45223870904056745,1.301728683893816,0.9763689205227626,0.2856484176185088,0.7096932439914083
0.054,1.7271463731772188,1.0,2696.6896997308063,0.45531121696778243,1.3011428412286092,0.9766423336013763,0.2855931476734432,0.710819480793242
0.0545,1.7258304221042278,1.0,2696.2404516682677,0.45836649049012745,1.3005526491768669,0.9769086466339949,0.2855378777283776,0.7119518656657118
0.055,1.7245144710312366,1.0,2696.2295589970277,0.46140462611457495,1.2999584483114561,0.9771681164078396,0.2854826077833119,0.7130896979801771
0.0555,1.7231985199582456,1.0,2696.628069161935,0.46442571783858283,1.2993605033743125,0.9774209841650108,0.2854273378382463,0.714232426720275
0.056,1.7218825688852546,1.0,2697.391306098288,0.46742986482921556,1.2987592236919598,0.977667490038272,0.2853720678931807,0.7153792291421477
0.0565,1.7205666178122636,1.0,2698.485412404373,0.4704171635410444,1.298154920193075,0.9779078582767905,0.28531679794811504,0.716529475652618
0.057,1.7192506667392726,1.0,2699.888839710652,0.4733877067493487,1.2975477916536822,0.9781422971780438,0.28526152800304944,0.7176827540880643
0.0575,1.7179347156662816,1.0,2701.580072695017,0.4763415872294079,1.2969380368498054,0.9783710065929367,0.28520625805798383,0.7188386552033917
0.058,1.7166187645932907,1.0,2703.5376170710097,0.4792788977565013,1.2963258545574683,0.9785941783414753,0.2851509881129182,0.7199967727065886
0.0585,1.7153028135202997,1.0,2705.7399884510705,0.4821997311059083,1.2957114435526953,0.9788119966048535,0.28509571816785256,0.7211567032907561
0.059000000000000004,1.7139868624473087,1.0,2708.16570208661,0.4851041800529082,1.2950950026115104,0.9790246382954623,0.28504044822278696,0.7223180466636245
0.059500000000000004,1.7126709113743177,1.0,2710.7932634832996,0.4879923373727804,1.2944767305099378,0.9792322734062278,0.28498517827772135,0.7234804055745454
0.06,1.7113549603013267,1.0,2713.6081801756195,0.49086429206137433,1.2938567620256654,0.9794350615611246,0.28492990833265575,0.7246435057773963
0.0605,1.7100390092283357,1.0,2716.5885785487117,0.49372013934770426,1.293235299091906,0.9796331603611441,0.2848746383875901,0.7258069495104604
0.061,1.7087230581553448,1.0,2719.7189918811273,0.496559970547194,1.2926124850063014,0.9798267179681788,0.2848193684425245,0.7269704515894038
0.0615,1.7074071070823538,1.0,2722.9893833624233,0.49938387368553905,1.2919884134406237,0.9800158740696975,0.2847640984974589,0.7281338214809548
0.062,1.7060911560093628,1.0,2726.389702509554,0.5021919367884349,1.2913631780666444,0.9802007631191303,0.2847088285523932,0.7292968701113038
0.0625,1.7047752049363718,1.0,2729.909882652875,0.5049842478815769,1.290736872556136,0.9803815145738457,0.2846535586073276,0.7304594098733329
0.063,1.7034592538633808,1.0,2733.5398386158076,0.5077608949906607,1.29010959058087,0.9805582531206198,0.284598288662262,0.731621254633291
0.0635,1.7021433027903898,1.0,2737.269464590033,0.5105219661413817,1.2894814258126186,0.9807310988893373,0.28454301871719634,0.7327822197369049
0.064,1.7008273517173988,1.0,2741.08863220476,0.5132675493594353,1.2888524719231536,0.980900167655622,0.28448774877213073,0.7339421220149356
0.0645,1.6995114006444079,1.0,2744.9871887903455,0.515997732670517,1.288222822584247,0.9810655710330484,0.2844324788270651,0.7351007797881688
0.065,1.6981954495714169,1.0,2748.964331598871,0.5187125929038553,1.2875924865477124,0.9812274116349274,0.2843772088819995,0.7362581686266068
0.0655,1.696879498498426,1.0,2753.001892423837,0.5214122321424952,1.2869616297386945,0.9813857979709755,0.2843219389369339,0.7374139765870931
0.066,1.695563547425435,1.0,2757.09562350667,0.5240967333536689,1.2863302917192057,0.9815408272294889,0.28426666899186825,0.7385681251402889
0.0665,1.694247596352444,1.0,2761.241530709182,0.5267661791504031,1.2856985096565086,0.9816925930717926,0.28421139904680265,0.7397205407527101
0.067,1.692931645279453,1.0,2765.4356089261173,0.5294206521457245,1.2850663207178665,0.9818411859206732,0.28415612910173704,0.7408711504859007
0.0675,1.691615694206462,1.0,2769.6738417344873,0.53206023495266,1.2844337620705424,0.9819866930962164,0.2841008591566714,0.7420198819974428
0.068,1.690299743133471,1.0,2773.9522010740225,0.5346850101842362,1.2838008708817992,0.9821291989450378,0.2840455892116058,0.7431666635418761
0.0685,1.68898379206048,1.0,2778.26664695727,0.5372950604534801,1.2831676843189,0.982268784963274,0.28399031926654017,0.74431142397153
0.069,1.687667840987489,1.0,2782.6131272111998,0.5398904683734183,1.2825342395491075,0.9824055299136796,0.2839350493214745,0.7454540927372689
0.0695,1.686351889914498,1.0,2786.987577249251,0.5424713165570775,1.2819005737396847,0.9825395099371459,0.2838797793764089,0.7465945998891473
0.07,1.685035938841507,1.0,2791.3859198734376,0.5450376876174847,1.2812667240578948,0.9826707986589462,0.2838245094313433,0.7477328760769772
0.07050000000000001,1.683719987768516,1.0,2795.804065107745,0.5475896641676666,1.2806327276710006,0.9827994672899916,0.2837692394862777,0.74886885255081
0.07100000000000001,1.682404036695525,1.0,2800.241761300669,0.5501273148879303,1.2799985871849549,0.9829255823009403,0.28371396954121203,0.7500025228776442
0.07150000000000001,1.681088085622534,1.0,2804.693967972791,0.5526507322465269,1.27936434813986,0.98304921139149,0.2836586995961464,0.7511338041721656
0.07200000000000001,1.679772134549543,1.0,2809.156295762583,0.5551600051328084,1.2787300500981893,0.9831704196020764,0.2836034296510808,0.7522626249115463
0.0725,1.6784561834765521,1.0,2813.6275347796677,0.5576552097656455,1.278095704032246,0.9832892678764853,0.2835481597060152,0.7533889649196729
0.073,1.6771402324035611,1.0,2818.1064712547163,0.5601364223639096,1.277461320914333,0.9834058152309022,0.28349288976094955,0.7545128041979384
