Time [s],Phi [rad],STIM [ ],Fsee [N],Gamma [ ],Lcerel [ ],q [ ],Lmtc [m],fisomrel [ ]
0.0,1.8,1.0,18.14146764204845,0.00042343548730126976,1.3793202648650014,0.0050463896964733045,0.288653,0.5411866602766111
0.0005,1.79999375,1.0,18.58192211930238,0.006030269657923538,1.379268628797256,0.014128054791034479,0.2886527375,0.5413115663592132
0.001,1.799975,1.0,22.23031052091884,0.011605653921858784,1.3788762387032776,0.037795461409335054,0.28865195,0.5422601905167636
0.0015,1.79994375,1.0,32.352372972866696,0.01714976468915713,1.3779379908403426,0.0735739420842121,0.2886506375,0.5445244741057561
0.002,1.7999,1.0,56.19922524841907,0.022662777378242092,1.3762003883943688,0.11822419788765491,0.2886488,0.5487030222319071
0.0025,1.79984375,1.0,101.39287536249883,0.028144866425315277,1.3737314337084001,0.16838061095774742,0.28864643749999996,0.5546071921500757
0.003,1.7997750000000001,1.0,166.44288738056312,0.033596205287441866,1.371010765175943,0.2212009532082468,0.28864354999999997,0.5610682784552339
0.0035,1.79969375,1.0,243.8334063296937,0.03901696644960483,1.3683965054930933,0.2745083712609866,0.2886401375,0.5672321898612158
0.004,1.7996,1.0,327.98463938444905,0.04440732142734589,1.3659843252597088,0.3266848923322404,0.2886362,0.5728809746945015
0.0045000000000000005,1.7994937500000001,1.0,416.000736882594,0.049767440774473114,1.3637654100537941,0.3766104111367968,0.2886317375,0.5780444083175862
0.005,1.799375,1.0,506.270293044543,0.055097494082138855,1.361713132873407,0.4235916802774412,0.28862675,0.5827921221521208
0.0055,1.79924375,1.0,597.70397322984,0.06039765003404068,1.3598041537889107,0.46726899510508535,0.2886212375,0.587184218482927
0.006,1.7991000000000001,1.0,689.4277647847701,0.0656680762723446,1.358021131870053,0.5075240207080459,0.2886152,0.5912655265768052
0.006500000000000001,1.79894375,1.0,780.7448947663217,0.07090893959305801,1.3563503454775006,0.5444008470865312,0.2886086375,0.5950715283101595
0.007,1.798775,1.0,871.0667986293943,0.0761204058381485,1.3547810743282567,0.5780460441489266,0.28860155,0.598630067916097
0.0075,1.79859375,1.0,959.8978953476826,0.08130263973044305,1.35330460135455,0.6086647646171044,0.2885939375,0.6019638350181841
0.008,1.7984,1.0,1046.8769863260263,0.08645580566325259,1.3519128239611025,0.6364899235111768,0.2885858,0.6050936362618691
0.0085,1.79819375,1.0,1131.6790649983175,0.09158006628355297,1.350599265848536,0.6617629766667181,0.2885771375,0.6080362078650116
0.009000000000000001,1.797975,1.0,1214.0634590625252,0.09667558366060078,1.3493579283281285,0.6847207018960341,0.28856795,0.6108068811042036
0.0095,1.79774375,1.0,1293.869168420852,0.10174251948289297,1.348183124154195,0.7055877282671361,0.2885582375,0.6134200001729094
0.01,1.7975,1.0,1370.9617305303573,0.10678103381915055,1.3470699868262936,0.724572876764712,0.288548,0.6158878324119782
0.0105,1.79724375,1.0,1445.2529999465971,0.11179128586354861,1.3460140073005047,0.7418672163435436,0.2885372375,0.6182216414280812
0.011,1.796975,1.0,1516.7017842943144,0.1167734341228633,1.3450108982413755,0.7576437515151839,0.28852595000000003,0.6204320156080332
0.0115,1.79669375,1.0,1585.3059536952583,0.12172763718412355,1.3440565916723162,0.7720580440122143,0.2885141375,0.6225288958125927
0.012,1.7964,1.0,1651.0508474883718,0.12665405088993573,1.3431477572365158,0.7852495301889009,0.28850180000000003,0.624520461427134
0.0125,1.79609375,1.0,1713.959538603719,0.1315528309259135,1.3422811030122128,0.7973425192755347,0.2884889375,0.6264146891605324
0.013000000000000001,1.7957750000000001,1.0,1774.076829689894,0.1364241322674269,1.3414535114954163,0.808447674258917,0.28847555,0.628219067243143
0.0135,1.79544375,1.0,1831.4754933872157,0.14126811032898198,1.34066191917431,0.8186633657843629,0.2884616375,0.6299408699760072
0.014,1.7951000000000001,1.0,1886.2073999507231,0.14608491781103683,1.3399038143528297,0.8280771861667606,0.2884472,0.63158608733545
0.0145,1.79474375,1.0,1938.3282402174061,0.15087470633263939,1.3391769036924415,0.8367670326689883,0.2884322375,0.6331601658214551
0.015,1.794375,1.0,1987.9146304302387,0.15563762751283763,1.3384788938546126,0.8448021483343968,0.28841675,0.6346684898436157
0.0155,1.79399375,1.0,2035.0489298995533,0.16037383209011857,1.337807632218551,0.8522441812560793,0.2884007375,0.6361160829556638
0.016,1.7936,1.0,2079.8291304744544,0.16508347130455803,1.3371609786006549,0.8591480403040271,0.2883842,0.6375078906538545
0.0165,1.7931937500000001,1.0,2122.330014039551,0.1697666935171152,1.3365371896137386,0.865562806083013,0.2883671375,0.6388479592056333
0.017,1.792775,1.0,2162.625084181367,0.174423646069267,1.3359346619722603,0.8715323413844361,0.28834955,0.640139996446375
0.0175,1.7923437500000001,1.0,2200.798735166886,0.17905447630249036,1.3353517923906775,0.8770958669981527,0.2883314375,0.6413876764679846
0.018000000000000002,1.7919,1.0,2236.937489093223,0.18365933069314258,1.334787056250559,0.8822885278029942,0.2883128,0.6425944737470823
0.0185,1.79144375,1.0,2271.134698695873,0.1882383563346225,1.3342389490859798,0.8871418535881251,0.2882936375,0.6437637911795273
0.019,1.790975,1.0,2303.470134908823,0.1927916981933468,1.3337061801466032,0.8916842232880338,0.28827395,0.6448985501656976
0.0195,1.79049375,1.0,2334.012182111266,0.19731949910500773,1.3331876367390325,0.8959412147220474,0.2882537375,0.6460012714421509
0.02,1.79,1.0,2362.834924057998,0.20182190190529764,1.3326822061698704,0.899935880152336,0.288233,0.6470744569449867
0.0205,1.78949375,1.0,2390.017667392479,0.20629904942990884,1.3321887757457207,0.9036890296770128,0.2882117375,0.6481205907798446
0.021,1.788975,1.0,2415.6316801020143,0.210751082638486,1.3317063565689016,0.9072195057386809,0.28818995000000003,0.6491418782263544
0.021500000000000002,1.78844375,1.0,2439.7646282863802,0.21517814522689685,1.3312338414744866,0.9105443492224997,0.2881676375,0.6501407597642049
0.022,1.7879,1.0,2462.479897645595,0.21958037658637006,1.3307703936568123,0.913679070763166,0.2881448,0.651119090178946
0.0225,1.78734375,1.0,2483.8344719407937,0.2239579146118847,1.3303152669722806,0.9166377777653893,0.28812143749999997,0.6520785216997161
0.023,1.786775,1.0,2503.88802916171,0.22831089719841965,1.3298677152772942,0.9194333049621368,0.28809755,0.653020696485134
0.0235,1.78619375,1.0,2522.7027166523308,0.232639462240954,1.3294269924282547,0.9220773468348703,0.28807313749999996,0.6539472470015135
0.024,1.7856,1.0,2540.3415402942323,0.23694374733481574,1.3289923654561577,0.9245805769137131,0.2880482,0.654859768723093
0.0245,1.78499375,1.0,2556.857742049884,0.24122388755513857,1.3285632122337692,0.9269527672581159,0.2880227375,0.6557596159650101
0.025,1.784375,1.0,2572.3258822094035,0.24548002246967313,1.3281387270466194,0.9292028306694565,0.28799675,0.6566485198093884
0.025500000000000002,1.78374375,1.0,2586.7887339873005,0.249712284659996,1.327718417615307,0.9313389841739292,0.2879702375,0.6575275470526762
0.026000000000000002,1.7831000000000001,1.0,2600.290324495072,0.2539208067076838,1.327301791660431,0.9333687671312474,0.2879432,0.658397758851632
0.0265,1.78244375,1.0,2612.8758302362066,0.2581057211943129,1.3268883569025907,0.935299106264885,0.2879156375,0.6592602108466981
0.027,1.781775,1.0,2624.591477975038,0.2622671607014601,1.3264776210623845,0.9371363736594878,0.28788755,0.6601159532699172
0.0275,1.7810937500000001,1.0,2635.4844509778854,0.26640525781070185,1.3260690918604117,0.9388864385614638,0.2878589375,0.660966031037393
0.028,1.7804,1.0,2645.594060679227,0.2705201413013625,1.3256623577099753,0.9405547240397506,0.2878298,0.6618113162333549
0.0285,1.77969375,1.0,2654.973226193232,0.2746119466658049,1.325256888276697,0.9421462228120338,0.2878001375,0.6626529229227047
0.029,1.778975,1.0,2663.655837458989,0.2786808020611099,1.3248523351402859,0.9436655729469593,0.28776995,0.6634915827611715
0.029500000000000002,1.7782437500000001,1.0,2671.6735316104623,0.2827268344665285,1.3244483755744774,0.9451170696123611,0.2877392375,0.6643279706220755
0.03,1.7775,1.0,2679.058424816196,0.28675017086131177,1.3240446868530082,0.9465046919598248,0.287708,0.6651627580431627
0.0305,1.77674375,1.0,2685.8430687942305,0.2907509382247109,1.3236409462496141,0.9478321303848988,0.2876762375,0.6659966132355051
0.031,1.775975,1.0,2692.060409635458,0.2947292635359768,1.3232368310380316,0.9491028111138049,0.28764395,0.6668302010857494
0.0315,1.7751937500000001,1.0,2697.743748936608,0.29868527377436055,1.3228320184919968,0.9503199184078428,0.2876111375,0.6676641831517316
0.032,1.7744,1.0,2702.9146643171293,0.3026190877514759,1.3224262958877837,0.9514864255755829,0.2875778,0.6684989914543474
0.0325,1.77359375,1.0,2707.6178058007563,0.30653084178766615,1.322019242152366,0.9526050816767013,0.2875439375,0.6693354836849996
0.033,1.772775,1.0,2711.876240184103,0.310420658250981,1.3216106357003152,0.9536784685528384,0.28750955,0.670174103968237
0.0335,1.7719437500000002,1.0,2715.7104264889026,0.3142886575947211,1.321200280458458,0.9547089973637933,0.2874746375,0.6710152418157143
0.034,1.7711000000000001,1.0,2719.140988968042,0.31813496027218713,1.3207879803536202,0.9556989196863868,0.2874392,0.67185928463216
0.0345,1.7702437500000001,1.0,2722.1887005935914,0.32195968673667985,1.3203735393126288,0.9566503399583369,0.2874032375,0.6727066176922816
0.035,1.7693750000000001,1.0,2724.874467396423,0.3257629574415,1.3199567612623102,0.9575652268128837,0.28736675,0.6735576241152201
0.035500000000000004,1.76849375,1.0,2727.2193136592896,0.3295448928399483,1.319537450129491,0.9584454234146335,0.2873297375,0.6744126848365531
0.036000000000000004,1.7676,1.0,2729.2443679611943,0.33330561338532544,1.3191154098409974,0.9592926568950204,0.2872922,0.6752721785778453
0.0365,1.76669375,1.0,2730.970850074897,0.337045239530932,1.318690444323656,0.9601085469751195,0.2872541375,0.6761364818137459
0.037,1.765775,1.0,2732.4117751497283,0.3407638863730208,1.3182624327585983,0.9608946201692472,0.28721555,0.6770058159903657
0.0375,1.76484375,1.0,2733.5875234591467,0.3444616763174105,1.317831187979266,0.9616523053568966,0.2871764375,0.6778805355474762
0.038,1.7639,1.0,2734.5187736379835,0.3481387295832044,1.3173965206408726,0.9623829449891796,0.28713679999999997,0.6787609970824876
0.0385,1.76294375,1.0,2735.217530095787,0.3517951598204017,1.316958320606531,0.9630878080476108,0.28709663750000003,0.6796473947649475
0.039,1.761975,1.0,2735.695834180132,0.3554310806790015,1.3165164777393539,0.9637680891094108,0.28705595,0.6805399212993403
0.0395,1.7609937500000001,1.0,2735.96575915365,0.3590466058090027,1.3160708819024534,0.9644249135088201,0.2870147375,0.6814387678998897
0.04,1.76,1.0,2736.0394054380267,0.36264184886040457,1.3156214229589422,0.9650593420872083,0.286973,0.6823441242645807
0.0405,1.7589937500000001,1.0,2735.928896128814,0.36621692348320606,1.315167990771933,0.9656723755687562,0.2869307375,0.6832561785484146
0.041,1.757975,1.0,2735.6463727775476,0.3697719433274063,1.314710475204538,0.9662649585948665,0.28688795,0.6841751173358861
0.0415,1.75694375,1.0,2735.2039914440197,0.37330702204300437,1.3142487661198696,0.9668379834472042,0.2868446375,0.6851011256126897
0.042,1.7559,1.0,2734.6129820962124,0.37682227135189844,1.3137827618893287,0.9673922938780797,0.28680079999999997,0.6860343697101557
0.0425,1.75484375,1.0,2733.88271120862,0.3803178002068731,1.3133123778810876,0.9679286888373766,0.2867564375,0.686974980441641
0.043000000000000003,1.753775,1.0,2733.025894138416,0.3837937276052236,1.3128374990988534,0.9684479235454384,0.28671155,0.6879231478238996
0.043500000000000004,1.75269375,1.0,2732.049259988633,0.3872501607779036,1.3123580649471631,0.9689507156202649,0.28666613750000003,0.6888789517297954
0.044,1.7516,1.0,2730.9595412944345,0.3906872069558664,1.3118740148305539,0.9694377449893905,0.2866202,0.6898424708975494
0.0445,1.75049375,1.0,2729.7634726004158,0.3941049733700657,1.3113852881535633,0.9699096562386399,0.2865737375,0.6908137829130179
0.045,1.7493750000000001,1.0,2728.4677891182605,0.397503567251455,1.3108918243207281,0.9703670607922252,0.28652675,0.6917929641917395
0.0455,1.74824375,1.0,2727.0792254661046,0.4008830958309878,1.3103935627365857,0.9708105389378194,0.2864792375,0.6927800899607437
0.046,1.7471,1.0,2725.6045144896057,0.40424366633961756,1.3098904428056735,0.9712406417090349,0.2864312,0.6937752342401264
0.0465,1.7459437500000001,1.0,2724.0503861639277,0.4075853860082979,1.3093824039325281,0.9716578926366192,0.28638263750000004,0.6947784698243942
0.047,1.744775,1.0,2722.423566577302,0.4109083620679823,1.3088693855216873,0.9720627893786903,0.28633355,0.6957898682635693
0.0475,1.74359375,1.0,2720.7239937844342,0.4142126750086361,1.3083513887338443,0.9724558062064933,0.28628393750000003,0.6968093783989466
0.048,1.7424,1.0,2718.9675447335208,0.4174984645051413,1.3078282695989725,0.9728373917444114,0.2862338,0.697837233532214
0.0485,1.74119375,1.0,2717.1590193473467,0.42076583593004646,1.3072999848952958,0.9732079757317325,0.2861831375,0.6988734671025223
0.049,1.739975,1.0,2715.3015045057314,0.42401488853883895,1.3067665069698748,0.9735679678106873,0.28613195,0.6999180809996867
0.0495,1.73874375,1.0,2713.398084353483,0.427245721587006,1.3062278081697705,0.9739177583571303,0.2860802375,0.7009710762230175
0.05,1.7375,1.0,2711.4518400317224,0.4304584343300348,1.3056838608420431,0.9742577195579766,0.286028,0.7020324528721378
0.0505,1.73624375,1.0,2709.465849425998,0.4336531260234126,1.3051346373337536,0.9745882064190219,0.2859752375,0.7031022101377509
0.051000000000000004,1.734975,1.0,2707.4431869319737,0.4368298959226266,1.304580109991962,0.974909557708226,0.28592195,0.7041803462923606
0.051500000000000004,1.73369375,1.0,2705.386923237261,0.4399888432831641,1.3040202511637295,0.9752220968391276,0.2858681375,0.7052668586809401
0.052000000000000005,1.7324,1.0,2703.3001251208816,0.4431300673605123,1.3034550331961166,0.9755261326986846,0.2858138,0.7063617437115555
0.0525,1.73109375,1.0,2701.1858552694002,0.44625366741015837,1.3028844284361836,0.975821960423488,0.28575893750000003,0.7074649968459388
0.053,1.729775,1.0,2699.047172109938,0.4493597426875896,1.3023084092309913,0.976109862127994,0.28570355000000003,0.708576612590011
0.0535,1.72844375,1.0,2696.8871296602774,0.45244839244829327,1.3017269479276006,0.9763901075881218,0.2856476375,0.7096965844843591
0.054,1.7271,1.0,2694.708777396111,0.4555197159477566,1.3011400168730716,0.9766629548833139,0.2855912,0.7108249050946626
0.0545,1.7257437500000001,1.0,2692.515160134695,0.4585738124414667,1.300547588414465,0.9769286509999123,0.2855342375,0.7119615660020706
0.055,1.724375,1.0,2690.30931793578,0.46161078118491095,1.299949634898842,0.9771874323984877,0.28547675,0.7131065577935313
0.0555,1.72299375,1.0,2688.0856789623404,0.4646306891232922,1.299346207508464,0.9774395271567464,0.2854187375,0.7142597195481492
0.056,1.7216,1.0,2685.8549584267835,0.4676336674775511,1.2987372082704223,0.977685151119097,0.2853602,0.7154211747282984
0.0565,1.72019375,1.0,2683.620521687004,0.4706198163412257,1.2981226064258535,0.9779245121297808,0.28530113749999997,0.7165909168936724
0.057,1.718775,1.0,2681.3832098617813,0.4735892259228329,1.2975023943141735,0.9781578099022434,0.28524155,0.7177688946981315
0.0575,1.71734375,1.0,2679.1438626852137,0.47654198643089,1.296876564274798,0.9783852360081227,0.2851814375,0.7189550560726778
0.058,1.7159,1.0,2676.9033185020903,0.47947818807391396,1.2962451086471423,0.9786069742724139,0.2851208,0.7201493482227133
0.0585,1.71444375,1.0,2674.662414263724,0.4823979210604219,1.2956080197706228,0.9788232011464053,0.2850596375,0.7213517176252905
0.059000000000000004,1.7129750000000001,1.0,2672.4219855251445,0.4853012755989308,1.2949652899846547,0.9790340860598012,0.28499795,0.7225621100263667
0.059500000000000004,1.71149375,1.0,2670.1828664439236,0.4881883418979579,1.2943169116286537,0.979239791753349,0.2849357375,0.7237804704380462
0.06,1.71,1.0,2667.9458897798413,0.49105921016602005,1.293662877042036,0.979440474593189,0.284873,0.7250067431358229
0.0605,1.7084937500000001,1.0,2665.711886896442,0.49391397061163456,1.2930031785642169,0.9796362848680708,0.2848097375,0.7262408716558215
0.061,1.7069750000000001,1.0,2663.481687763433,0.4967527134433184,1.2923378085346122,0.9798273670704899,0.28474595,0.7274827987920294
0.0615,1.7054437500000001,1.0,2661.2561209601627,0.4995755288695886,1.2916667592926376,0.9800138601627308,0.2846816375,0.7287324665935286
0.062,1.7039,1.0,2659.0360136815275,0.5023825070989624,1.290990023177709,0.9801958978287387,0.2846168,0.7299898163617233
0.0625,1.70234375,1.0,2656.822191743665,0.5051737383399566,1.2903075925292418,0.98037360871267,0.2845514375,0.7312547886475629
0.063,1.7007750000000001,1.0,2654.6154795919756,0.5079493128010886,1.289619459686652,0.9805471166449259,0.28448555,0.7325273232487621
0.0635,1.69919375,1.0,2652.416700310392,0.5107093206908752,1.288925616989355,0.9807165408564086,0.28441913750000003,0.7338073592070169
0.064,1.6976,1.0,2650.2265574509656,0.5134538446643215,1.2882260578669276,0.9808819956874306,0.2843522,0.7350948328013092
0.0645,1.69599375,1.0,2648.0459132924025,0.5161829505630124,1.287520774273593,0.9810435900219586,0.2842847375,0.7363896822739591
0.065,1.694375,1.0,2645.8760459704836,0.5188967660179814,1.2868097543114287,0.9812014329991147,0.28421675,0.7376918521422764
0.0655,1.69274375,1.0,2643.7170399866964,0.5215953725116079,1.2860929970877644,0.9813556270933252,0.2841482375,0.7390012659991724
0.066,1.6911,1.0,2641.568979740885,0.5242788515262716,1.28537050170993,0.9815062711194552,0.2840792,0.740317846791527
0.0665,1.6894437500000001,1.0,2639.4319495329514,0.5269472845443521,1.2846422672852555,0.9816534603880173,0.2840096375,0.7416415168198633
0.067,1.687775,1.0,2637.306033564514,0.529600753048229,1.2839082929210708,0.9817972868527296,0.28393955,0.7429721977380213
0.0675,1.68609375,1.0,2635.1913159411256,0.5322393385202818,1.283168577724706,0.9819378392508432,0.2838689375,0.744309810552829
0.068,1.6844000000000001,1.0,2633.087880674033,0.5348631224428901,1.2824231208034909,0.9820752032366474,0.2837978,0.7456542756237781
0.0685,1.68269375,1.0,2630.995811681947,0.5374721862984337,1.2816719212647552,0.9822094615085273,0.2837261375,0.7470055126626964
0.069,1.680975,1.0,2628.9151927931266,0.540066611569292,1.2809149782158291,0.9823406939299243,0.28365395,0.7483634407334192
0.0695,1.67924375,1.0,2626.8461077470865,0.5426464797378446,1.2801522907640428,0.982468977644538,0.28358123749999997,0.7497279782514643
0.07,1.6775,1.0,2624.7886401970422,0.5452118722864713,1.2793838580167256,0.9825943871860715,0.283508,0.7510990429837058
0.07050000000000001,1.67574375,1.0,2622.742873711266,0.5477628706975515,1.278609679081208,0.982716994582825,0.2834342375,0.752476552048043
0.07100000000000001,1.673975,1.0,2620.7088917754972,0.5502995564534647,1.2778297530648195,0.9828368694574007,0.28335995,0.7538604219130786
0.07150000000000001,1.67219375,1.0,2618.686777794663,0.5528220110365908,1.2770440790748905,0.9829540791217881,0.2832851375,0.7552505683977865
0.07200000000000001,1.6704,1.0,2616.6766150953845,0.5553303159293093,1.2762526562187504,0.9830686886680653,0.2832098,0.7566469066711892
0.0725,1.66859375,1.0,2614.678486927346,0.5578245526139995,1.2754554836037297,0.9831807610549513,0.2831339375,0.7580493512520261
0.073,1.6667750000000001,1.0,2612.6924764660002,0.5603048025730414,1.274652560337158,0.9832903571904231,0.28305755,0.7594578160084307
0.0735,1.66494375,1.0,2610.7162574978397,0.5627711445647645,1.2738439079187975,0.9833975368503107,0.2829806375,0.7608721750502587
0.074,1.6631,1.0,2608.7516094772764,0.565223652920812,1.2730295097085993,0.9835023559560399,0.2829032,0.7622923687126335
0.0745,1.6612437500000001,1.0,2606.7994457933682,0.5676624046054229,1.2722093570973558,0.9836048691401834,0.2828252375,0.7637183224127686
0.075,1.659375,1.0,2604.859944846724,0.570087476596879,1.271383448302398,0.9837051295966052,0.28274675,0.7651499489397311
0.0755,1.65749375,1.0,2602.933475555592,0.5724989457246619,1.2705517797658201,0.9838031887534633,0.2826677375,0.7665871634743213
