Time [s],Phi [rad],STIM [ ],Fsee [N],Gamma [ ],Lcerel [ ],q [ ],Lmtc [m],fisomrel [ ]
0.0,1.8,1.0,17.966431435341068,1.0391432254783141e-05,1.379339827638859,0.005000028770368244,0.288653,0.5411393340781909
0.0005,1.79999375,1.0,18.275962389173852,0.00561954245333258,1.3793024746284066,0.012941602714065432,0.2886527375,0.5412296962396906
0.001,1.799975,1.0,21.617912862864817,0.011197230572101976,1.378938349984247,0.0356106228290854,0.28865195,0.5421100985689298
0.0015,1.79994375,1.0,31.069299434918513,0.016743632271430435,1.3780461983249048,0.07060450846785747,0.2886506375,0.5442636222324195
0.002,1.7999,1.0,53.583407225549706,0.022258923042532124,1.37636806555476,0.11472115737549181,0.2886488,0.5483006353015556
0.0025,1.79984375,1.0,97.12117201075046,0.02774327739253703,1.3739350595914992,0.1645782857157656,0.28864643749999996,0.5541217194142283
0.003,1.7997750000000001,1.0,160.9614948308552,0.03319686885220239,1.3712142191863346,0.2172839519268403,0.28864354999999997,0.560586745771301
0.0035,1.79969375,1.0,237.68732807718047,0.038619869975508,1.3685846111298459,0.27061636545382,0.2886401375,0.5667901289485342
0.004,1.7996,1.0,321.47119756151926,0.04401245235043759,1.3661559751628383,0.3229191668090864,0.2886362,0.572480235499206
0.0045000000000000005,1.7994937500000001,1.0,409.27248188298665,0.04937478660416339,1.3639227031100967,0.37303770115532986,0.2886317375,0.577679420156379
0.005,1.799375,1.0,499.41844128779576,0.05470704239414108,1.3618582374336818,0.42025044829447583,0.28862675,0.5824573214330011
0.0055,1.79924375,1.0,590.795486684261,0.06000938845553377,1.3599387359915671,0.4641764643602614,0.2886212375,0.5868753390714061
0.006,1.7991000000000001,1.0,682.5232619847619,0.06528199254446478,1.3581463210678137,0.5046825044496012,0.2886152,0.5909796323520105
0.006500000000000001,1.79894375,1.0,773.8866484148577,0.07052502149447691,1.356467161597146,0.5418030833068405,0.2886086375,0.5948060035168183
0.007,1.798775,1.0,864.2911400533083,0.07573864119418267,1.3548903089185045,0.57567889931636,0.28860155,0.5983828719251545
0.0075,1.79859375,1.0,953.2479858962569,0.08092301660913903,1.3534067058162378,0.6065118483647958,0.2885939375,0.6017337381508774
0.008,1.7984,1.0,1040.3640666235922,0.08607831178289718,1.3520085637188441,0.6345338078612608,0.2885858,0.6048787342748612
0.0085,1.79819375,1.0,1125.3269778181689,0.09120468982978297,1.3506890610015763,0.6599859679524556,0.2885771375,0.6078354033604361
0.009000000000000001,1.797975,1.0,1207.8909036435368,0.09630231290553012,1.3494421618091479,0.683105752283443,0.28856795,0.6106191822389966
0.0095,1.79774375,1.0,1287.857325056171,0.10137134151602531,1.3482625853710137,0.7041190775587234,0.2885582375,0.6132435319856422
0.01,1.7975,1.0,1365.1646370979092,0.10641193848015182,1.3471444162821473,0.7232354771313289,0.288548,0.6157230683805077
0.0105,1.79724375,1.0,1439.6821275963023,0.11142426168847049,1.346083663176721,0.7406476463700943,0.2885372375,0.618067914802876
0.011,1.796975,1.0,1511.3401386257233,0.11640846903154217,1.3450763346889063,0.7565300525277282,0.28852595000000003,0.6202880205282841
0.0115,1.79669375,1.0,1580.1246625427923,0.1213647183999278,1.3441184394528753,0.7710395295974793,0.2885141375,0.6223931748358347
0.012,1.7964,1.0,1646.0593354299392,0.1262931673187952,1.3432061377478641,0.7843164388762351,0.28850180000000003,0.6243926881766395
0.0125,1.79609375,1.0,1709.174209632371,0.1311939719897424,1.3423360320949738,0.7964861158193729,0.2884889375,0.6262947740097866
0.013000000000000001,1.7957750000000001,1.0,1769.4979283324271,0.13606728693613365,1.3415051701337588,0.8076602585130596,0.28847555,0.6281065649614556
0.0135,1.79544375,1.0,1827.0775110235168,0.1409132662473237,1.3407107508089018,0.817938195542689,0.2884616375,0.6298347713113344
0.014,1.7951000000000001,1.0,1881.9813278955971,0.1457320632939429,1.3399500495824355,0.8274081935998742,0.2884472,0.6314858539186852
0.0145,1.79474375,1.0,1934.2871342466108,0.1505238313111726,1.339220515138942,0.8361487362456995,0.2884322375,0.6330658230512463
0.015,1.794375,1.0,1984.0554950465144,0.15528872105443564,1.3385200172963592,0.8442297283973614,0.28841675,0.6345797126583951
0.0155,1.79399375,1.0,2031.3648711557626,0.16002688323591802,1.3378464314552445,0.8517133571446887,0.2884007375,0.6360324896459082
0.016,1.7936,1.0,2076.292690102994,0.16473846717109386,1.3371978190247151,0.8586550585127267,0.2883842,0.6374286697862739
0.0165,1.7931937500000001,1.0,2118.9482447048044,0.1694236244084002,1.3365720633122744,0.8651042078356841,0.2883671375,0.6387731064978264
0.017,1.792775,1.0,2159.402450737403,0.17408250211752346,1.335967582709409,0.8711050424179435,0.28834955,0.640069462271672
0.0175,1.7923437500000001,1.0,2197.727719291166,0.17871524666787258,1.3353828902761455,0.8766971391571613,0.2883314375,0.6413211636161318
0.018000000000000002,1.7919,1.0,2234.0060786711624,0.18332200442885643,1.3348164990725104,0.8819159361760868,0.2883128,0.64253160697968
0.0185,1.79144375,1.0,2268.328360429538,0.18790292176988385,1.33426692215853,0.8867932162055445,0.2882936375,0.643704160556962
0.019,1.790975,1.0,2300.7731752481372,0.19245814305973669,1.333732873166628,0.8913575788531242,0.28827395,0.6448417390559547
0.0195,1.79049375,1.0,2331.4365137352042,0.19698781498692386,1.333212961515995,0.8956347325667062,0.2882537375,0.6459474562427933
0.02,1.79,1.0,2360.384326368103,0.2014920794278317,1.3327061534038391,0.8996479267724404,0.288233,0.6470236463240469
0.0205,1.78949375,1.0,2387.684860994158,0.20597107791774827,1.332211441570842,0.9034181522797952,0.2882117375,0.6480725704382114
0.021,1.788975,1.0,2413.410917468226,0.2104249519919617,1.3317278187576853,0.9069643861124193,0.28818995000000003,0.6490964740506004
0.021500000000000002,1.78844375,1.0,2437.6394626896586,0.21485384318576004,1.331254277705051,0.9103038123366577,0.2881676375,0.650097587698039
0.022,1.7879,1.0,2460.4348961139226,0.21925789056317505,1.33078996789476,0.9134520469877984,0.2881448,0.651077797003137
0.0225,1.78734375,1.0,2481.8818636479696,0.2236372370094843,1.3303338761232946,0.9164232444050106,0.28812143749999997,0.6520393185119895
0.023,1.786775,1.0,2502.0354483337464,0.2279920196546615,1.3298853000777846,0.919230338825821,0.28809755,0.6529837015069835
0.0235,1.78619375,1.0,2520.949372303774,0.23232237498173075,1.3294435729059857,0.9218851202092226,0.28807313749999996,0.6539124115782478
0.024,1.7856,1.0,2538.6794938776875,0.2366284394737162,1.329008027755653,0.9243983454558898,0.2880482,0.6548269058429064
0.0245,1.78499375,1.0,2555.2836277661045,0.2409103496136419,1.3285779977745427,0.9267798431564794,0.2880227375,0.6557286332221705
0.025,1.784375,1.0,2570.819272545216,0.24516824138218865,1.3281528358031367,0.9290386095970691,0.28799675,0.656618993476912
0.025500000000000002,1.78374375,1.0,2585.3362510142165,0.24940224864384572,1.3277319813387027,0.9311829012543317,0.2879702375,0.6574991977289802
0.026000000000000002,1.7831000000000001,1.0,2598.902540368364,0.25361250947894265,1.3273147174276843,0.9332202695818773,0.2879432,0.6583707772807246
0.0265,1.78244375,1.0,2611.557917356363,0.2577991549773264,1.3269006022036944,0.9351576931135853,0.2879156375,0.6592346820116771
0.027,1.781775,1.0,2623.3431521677235,0.26196231622884397,1.3264891938003465,0.9370015908540026,0.28788755,0.6600918569247443
0.0275,1.7810937500000001,1.0,2634.2999244450884,0.26610212432334224,1.326080050351254,0.9387578745925383,0.2878589375,0.6609432422287107
0.028,1.7804,1.0,2644.470743625704,0.27021871035066813,1.32567272999003,0.9404319956913193,0.2878298,0.6617897734082943
0.0285,1.77969375,1.0,2653.8988736118,0.2743122054006686,1.3252667908502875,0.9420289869903848,0.2878001375,0.6626323812817453
0.029,1.778975,1.0,2662.6225230314963,0.27838273796184765,1.3248618438796023,0.9435535068206966,0.28776995,0.6634718826248244
0.029500000000000002,1.7782437500000001,1.0,2670.683874888904,0.2824304401156527,1.3244574688528599,0.9450098628154481,0.2877392375,0.664309154673455
0.03,1.7775,1.0,2678.1160594624484,0.28645543954961694,1.3240533336207276,0.9464020557267924,0.287708,0.6651448882949407
0.0305,1.77674375,1.0,2684.9487697353857,0.29045786197173346,1.3236491415710285,0.9477337996719831,0.2876762375,0.6659796975776031
0.031,1.775975,1.0,2691.21207878727,0.2944378330899951,1.3232445960915853,0.9490085426005453,0.28764395,0.6668141935509818
0.0315,1.7751937500000001,1.0,2696.936404018089,0.29839547861239485,1.3228394005702206,0.950229488688981,0.2876111375,0.6676489841819535
0.032,1.7744,1.0,2702.1524733236165,0.30233092424692554,1.3224332583947573,0.9513996185898517,0.2875778,0.6684846743652413
0.0325,1.77359375,1.0,2706.888291224358,0.3062442935980588,1.322025900353759,0.9525217104199115,0.2875439375,0.6693218096344095
0.033,1.772775,1.0,2711.169202017172,0.3101357091943825,1.3216170836792989,0.9535983563133688,0.28750955,0.6701608784618076
0.0335,1.7719437500000002,1.0,2715.0315946881624,0.31400530289361217,1.3212064668153303,0.9546319657633547,0.2874746375,0.6710025691199366
0.034,1.7711000000000001,1.0,2718.4942269886883,0.31785319419101393,1.320793870713418,0.9556248036467917,0.2874392,0.6718472337777517
0.0345,1.7702437500000001,1.0,2721.575999135841,0.321679502581854,1.320379116325126,0.9565789866814787,0.2874032375,0.672695222649016
0.035,1.7693750000000001,1.0,2724.295939614329,0.32548434756139855,1.3199620246020185,0.9574964948499711,0.28736675,0.6735468839686777
0.035500000000000004,1.76849375,1.0,2726.673191690319,0.32926784862491376,1.3195424164956602,0.9583791818160506,0.2873297375,0.6744025639672004
0.036000000000000004,1.7676,1.0,2728.727000635076,0.3330301252676657,1.319120112957615,0.9592287844330888,0.2872922,0.6752626068428539
0.0365,1.76669375,1.0,2730.4767016600094,0.3367712969849206,1.3186949349394477,0.9600469314328598,0.2872541375,0.6761273547319555
0.037,1.765775,1.0,2731.9417085622426,0.3404914832719446,1.3182667033927224,0.960835151373859,0.28721555,0.676997147677069
0.0375,1.76484375,1.0,2733.1404624109605,0.34419080221637793,1.317835248722,0.9615948805441222,0.2871764375,0.6778723044318381
0.038,1.7639,1.0,2734.0881359957693,0.3478693677486757,1.3174004315345729,0.9623274710162205,0.28713679999999997,0.6787530805537849
0.0385,1.76294375,1.0,2734.805825659925,0.35152730517347497,1.3169620590716433,0.9630341918795658,0.28709663750000003,0.67963983772023
0.039,1.761975,1.0,2735.3046510717677,0.35516472741045935,1.3165200295441788,0.9637162437204304,0.28705595,0.6805327515859445
0.0395,1.7609937500000001,1.0,2735.5957631991764,0.35878174737931245,1.3160742411631463,0.9643747574750772,0.2870147375,0.6814319964067004
0.04,1.76,1.0,2735.690339937296,0.36237847799971784,1.3156245921395138,0.9650107992117205,0.286973,0.6823377450151964
0.0405,1.7589937500000001,1.0,2735.599581966677,0.3659550321913591,1.3151709806842482,0.965625374535287,0.2869307375,0.6832501687963306
0.041,1.757975,1.0,2735.3347088404084,0.3695115228739199,1.314713305008317,0.9662194326483972,0.28688795,0.6841694376618048
0.0415,1.75694375,1.0,2734.9069553015297,0.37304806296708387,1.3142514633226878,0.9667938700987092,0.2868446375,0.6850957200240733
0.042,1.7559,1.0,2734.327567830131,0.3765647653905346,1.313785353838328,0.9673495342398568,0.28680079999999997,0.686029182769628
0.0425,1.75484375,1.0,2733.6068320148515,0.38006174099136814,1.3133148835711095,0.9678872268204258,0.2867564375,0.6869699736378256
0.043000000000000003,1.753775,1.0,2732.7482889063526,0.3835390851127727,1.3128400208613442,0.9684077090675474,0.28671155,0.6879181165416892
0.043500000000000004,1.75269375,1.0,2731.7746955960547,0.3869969371119621,1.312360559531788,0.9689116946807315,0.28666613750000003,0.6888739822990699
0.044,1.7516,1.0,2730.6918221867154,0.3904354021939031,1.311876447705342,0.9693998667204186,0.2866202,0.6898376319091107
0.0445,1.75049375,1.0,2729.5054410696666,0.3938545855635625,1.311387633504907,0.9698728727253645,0.2865737375,0.690809125319559
0.045,1.7493750000000001,1.0,2728.2213258102315,0.397254592425907,1.3108940650533845,0.9703313269049062,0.28652675,0.6917885214112944
0.0455,1.74824375,1.0,2726.8452500933345,0.40063552798590335,1.3103956904736753,0.970775812175294,0.2864792375,0.692775877982686
0.046,1.7471,1.0,2725.3829867287495,0.4039974974485183,1.3098924578886806,0.9712068820525918,0.2864312,0.6937712517337766
0.0465,1.7459437500000001,1.0,2723.8403067156187,0.40734060601871863,1.3093843154213016,0.9716250624135249,0.28638263750000004,0.6947746982502951
0.047,1.744775,1.0,2722.222978366941,0.410664958901471,1.3088712111944394,0.9720308531346618,0.28633355,0.6957862719875001
0.0475,1.74359375,1.0,2720.5367664941823,0.4139706613017422,1.308353093330995,0.9724247296194144,0.28628393750000003,0.6968060262538478
0.048,1.7424,1.0,2718.787431650215,0.41725781842449894,1.3078299099538695,0.9728071442215099,0.2862338,0.6978340131944918
0.0485,1.74119375,1.0,2716.9807294336274,0.42052653547470803,1.3073016091859642,0.9731785275728568,0.2861831375,0.6988702837746077
0.049,1.739975,1.0,2715.1224098511657,0.42377691765733616,1.3067681391501798,0.9735392898230518,0.28613195,0.699914887762551
0.0495,1.73874375,1.0,2713.2182167408873,0.42700907017735007,1.3062294479694179,0.9738898217971612,0.2860802375,0.7009678737128368
0.05,1.7375,1.0,2711.270081097879,0.4302230757415488,1.3056855184792084,0.9742304957910025,0.286028,0.7020292212758212
0.0505,1.73624375,1.0,2709.2845438974896,0.43341906143388736,1.305136291441707,0.9745616692323659,0.2859752375,0.7030989912155663
0.051000000000000004,1.734975,1.0,2707.2651304792503,0.43659713142688233,1.304581735063783,0.9748836823260296,0.28592195,0.7041771896222435
0.051500000000000004,1.73369375,1.0,2705.2143216261493,0.4397573824414747,1.3040218270484953,0.975196859628799,0.2858681375,0.7052638031827002
0.052000000000000005,1.7324,1.0,2703.134595022485,0.4428999111986058,1.303456545098903,0.9755015111193246,0.2858138,0.7063588177188693
0.0525,1.73109375,1.0,2701.0284251143325,0.4460248144192165,1.3028858669180647,0.9757979329771256,0.28575893750000003,0.7074622181801415
0.053,1.729775,1.0,2698.898282980618,0.44913218882424816,1.3023097702090394,0.9760864083134587,0.28570355000000003,0.7085739886357073
0.0535,1.72844375,1.0,2696.74663621599,0.4522221311346419,1.3017282326748856,0.9763672078574006,0.2856476375,0.709694112266869
0.054,1.7271,1.0,2694.5759488240333,0.45529473807133874,1.3011412320186626,0.9766405906002449,0.2855912,0.7108225713593177
0.0545,1.7257437500000001,1.0,2692.3886811218654,0.4583501063552799,1.300548745943429,0.9769068044010804,0.2855342375,0.7119593472953831
0.055,1.724375,1.0,2690.187289655521,0.46138833270740653,1.2999507521522438,0.9771660865561919,0.28547675,0.7131044205462476
0.0555,1.72299375,1.0,2687.9742271267246,0.4644095138486597,1.2993472283481655,0.9774186643347327,0.2854187375,0.7142577706641302
0.056,1.7216,1.0,2685.751942330194,0.46741374649998063,1.2987381522342534,0.9776647554829268,0.2853602,0.715419376274439
0.0565,1.72019375,1.0,2683.5228801023895,0.47040112738231044,1.2981235015135661,0.9779045686988935,0.28530113749999997,0.7165892150678914
0.057,1.718775,1.0,2681.289481281221,0.47337175321659025,1.2975032538891627,0.9781383040800334,0.28524155,0.7177672637926034
0.0575,1.71734375,1.0,2679.051421948128,0.4763256979144032,1.2968774123932394,0.9783661529664323,0.2851814375,0.7189534502892043
0.058,1.7159,1.0,2676.809324907456,0.4792630569624063,1.2962459713735786,0.978588300381248,0.2851208,0.7201477182555003
0.0585,1.71444375,1.0,2674.5684277637247,0.4821839608137267,1.295608882793251,0.9788049245413647,0.2850596375,0.7213500906049936
0.059000000000000004,1.7129750000000001,1.0,2672.3293511023376,0.48508849689250294,1.2949661409483328,0.9790161951919797,0.28499795,0.7225605092284701
0.059500000000000004,1.71149375,1.0,2670.0927144689526,0.4879767526228734,1.2943177401348993,0.97922227537986,0.2849357375,0.7237789153121361
0.06,1.71,1.0,2667.859136370412,0.49084881542897646,1.2936636746490264,0.9794233217679583,0.284873,0.7250052493355572
0.0605,1.7084937500000001,1.0,2665.6292342772713,0.49370477273495067,1.2930039387867898,0.9796194849328901,0.2848097375,0.726239451069602
0.061,1.7069750000000001,1.0,2663.403624626333,0.4965447119649344,1.292338526844265,0.9798109096463298,0.28474595,0.7274814595743779
0.0615,1.7054437500000001,1.0,2661.1829228242004,0.4993687205430661,1.291667433117528,0.9799977351413081,0.2846816375,0.7287312131971695
0.062,1.7039,1.0,2658.967743251966,0.5021768858934842,1.2909906519026542,0.9801800953643339,0.2846168,0.7299886495703711
0.0625,1.70234375,1.0,2656.758699269462,0.5049692954403271,1.2903081774957195,0.9803581192141909,0.2845514375,0.7312537056094192
0.063,1.7007750000000001,1.0,2654.556403221617,0.5077460366077332,1.2896200041927997,0.9805319307682107,0.28448555,0.732526317510723
0.0635,1.69919375,1.0,2652.361466444799,0.5105071968198411,1.2889261262899703,0.980701649496766,0.28441913750000003,0.7338064207495923
0.064,1.6976,1.0,2650.174499273514,0.5132528635007891,1.2882265380833071,0.980867390466678,0.2843522,0.735093950078163
0.0645,1.69599375,1.0,2647.9961110488675,0.5159831240747157,1.287521233868886,0.9810292645341918,0.2842847375,0.7363888395233208
0.065,1.694375,1.0,2645.826910126875,0.5186980659657593,1.2868102079427821,0.9811873785281207,0.28421675,0.737691022384624
0.0655,1.69274375,1.0,2643.667503887616,0.5213977765980584,1.2860934546010718,0.9813418354237324,0.2841482375,0.7390004312322209
0.066,1.6911,1.0,2641.5184987456664,0.5240823433957512,1.2853709681398306,0.9814927345079072,0.2840792,0.7403169979047697
0.0665,1.6894437500000001,1.0,2639.380500160731,0.5267518537829765,1.2846427428551341,0.9816401715360616,0.2840096375,0.7416406535073533
0.067,1.687775,1.0,2637.2541126487413,0.5294063951838724,1.283908773043058,0.9817842388813091,0.28393955,0.7429713284093921
0.0675,1.68609375,1.0,2635.1392461561677,0.532046014454581,1.2831690594164826,0.9819250232893952,0.2838689375,0.7443089406542874
0.068,1.6844000000000001,1.0,2633.0361364227833,0.5346708294017309,1.2824235996749367,0.9820626130372881,0.2837978,0.7456534130951885
0.0685,1.68269375,1.0,2630.945015067017,0.5372809413576218,1.2816723915530484,0.9821970922520359,0.2837261375,0.7470046678468949
0.069,1.680975,1.0,2628.86583735425,0.5398764282601226,1.2809154353420638,0.9823285407793484,0.28365395,0.7483626217684274
0.0695,1.67924375,1.0,2626.7985586700975,0.5424573680471017,1.280152731333229,0.982457035748744,0.28358123749999997,0.7497271910922564
0.07,1.6775,1.0,2624.743134520035,0.5450238386564279,1.2793842798177901,0.9825826516829713,0.283508,0.7510982914244093
0.07050000000000001,1.67574375,1.0,2622.6995205284115,0.5475759180259699,1.278610081086993,0.9827054606022969,0.2834342375,0.7524758377445766
0.07100000000000001,1.673975,1.0,2620.667672437795,0.5501136840935965,1.277830135432084,0.9828255321239299,0.28335995,0.7538597444062176
0.07150000000000001,1.67219375,1.0,2618.6475461086306,0.5526372147971762,1.2770444431443089,0.9829429335568458,0.2832851375,0.7552499251366703
0.07200000000000001,1.6704,1.0,2616.639097518364,0.5551465880745777,1.276253004514914,0.9830577299922475,0.2832098,0.7566462930372541
0.0725,1.66859375,1.0,2614.642282760783,0.5576418818636698,1.275455819835145,0.9831699843898916,0.2831339375,0.7580487605833803
0.073,1.6667750000000001,1.0,2612.657058045432,0.5601231741023212,1.2746528893962485,0.983279757660497,0.28305755,0.7594572396246558
0.0735,1.66494375,1.0,2610.683379696929,0.5625905427284004,1.27384421348947,0.9833871087444351,0.2829806375,0.7608716413849921
0.074,1.6631,1.0,2608.7212041541557,0.5650440656797762,1.273029792406056,0.9834920946868955,0.2829032,0.7622918764627102
0.0745,1.6612437500000001,1.0,2606.770487969995,0.5674838208943174,1.2722096264372522,0.9835947707097004,0.2828252375,0.7637178548306492
0.075,1.659375,1.0,2604.8311878104323,0.5699098863098924,1.2713837158743049,0.9836951902799458,0.28274675,0.765149485836271
0.0755,1.65749375,1.0,2602.9032604538147,0.5723223398643702,1.27055206100846,0.9837934051756212,0.2826677375,0.7665866782017684
