Time [s],Phi [rad],STIM [ ],Fsee [N],Gamma [ ],Lcerel [ ],q [ ],Lmtc [m],fisomrel [ ]
0.0,1.8,1.0,18.021214785655438,0.00023729280417505072,1.3793336946190309,0.00501463623976581,0.288653,0.5411541713223081
0.0005,1.79999375,1.0,18.404491744221172,0.0058451710880375336,1.3792882222278737,0.013583561090412706,0.2886527375,0.5412641724464895
0.001,1.799975,1.0,21.914916538660187,0.01142159360858176,1.3789081185828498,0.036802826852431615,0.28865195,0.5421831558418528
0.0015,1.79994375,1.0,31.73079894731774,0.01696673680874979,1.3779901377217816,0.07223004310619227,0.2886506375,0.5443987748248361
0.002,1.7999,1.0,54.96992232396534,0.022480776139630888,1.3762786909237754,0.11664219260087771,0.2886488,0.5485151363414857
0.0025,1.79984375,1.0,99.41935503412832,0.027963886069314308,1.3738249643995528,0.1666656190830837,0.28864643749999996,0.5543842346673249
0.003,1.7997750000000001,1.0,163.93094382264894,0.03341624008869363,1.3711035789796344,0.21943569698933432,0.28864354999999997,0.5608486405245734
0.0035,1.79969375,1.0,241.03093579249867,0.03883801071269561,1.3684819797082644,0.27275536972866055,0.2886401375,0.5670313476730812
0.004,1.7996,1.0,325.02168148299666,0.04422936949050529,1.3660621952789407,0.3249894967201542,0.2886362,0.5726992002154423
0.0045000000000000005,1.7994937500000001,1.0,412.9445127008846,0.04959048701093786,1.3638366995257591,0.3750024244363487,0.2886317375,0.5778790053514109
0.005,1.799375,1.0,503.16166254691706,0.05492153289428551,1.3617788431763778,0.4220882148631167,0.28862675,0.5826405249679907
0.0055,1.79924375,1.0,594.5690623020308,0.06022267583032082,1.3598651271444169,0.46587770340338,0.2886212375,0.5870442929379232
0.006,1.7991000000000001,1.0,686.2981737561036,0.06549408354557619,1.3580777980951069,0.506245783264353,0.2886152,0.5911361304571425
0.006500000000000001,1.79894375,1.0,777.6357974887609,0.07073592281441766,1.3564032387116909,0.5432323683301389,0.2886086375,0.5949513119764588
0.007,1.798775,1.0,867.9945476986069,0.07594835955676033,1.3548305511482588,0.5769813646571422,0.28860155,0.5985181121550476
0.0075,1.79859375,1.0,956.8835276404893,0.08113155854030811,1.3533508407814678,0.607696462389386,0.2885939375,0.6018596406856818
0.008,1.7984,1.0,1043.9268135999112,0.08628568404663958,1.3519561544198806,0.6356101286984838,0.2885858,0.6049963819067894
0.0085,1.79819375,1.0,1128.8028955770287,0.0914108988984209,1.3506398930030337,0.6609637283543975,0.2885771375,0.6079453617181796
0.009000000000000001,1.797975,1.0,1211.2660565694498,0.09650736517463068,1.3493960763505908,0.683994354203239,0.28856795,0.610721880838049
0.0095,1.79774375,1.0,1291.1585035911994,0.10157524463398981,1.348218929317453,0.7049270714769509,0.2885582375,0.6133404887277001
0.01,1.7975,1.0,1368.3410413041518,0.10661469720448083,1.3471036145856112,0.7239712919046941,0.288548,0.6158133952219498
0.0105,1.79724375,1.0,1442.7233803091992,0.11162588222811654,1.3460456199446833,0.7413186856066688,0.2885372375,0.6181518779244255
0.011,1.796975,1.0,1514.2701842782121,0.11660895848774193,1.3450405604570597,0.7571428045735663,0.28852595000000003,0.6203667462993564
0.0115,1.79669375,1.0,1582.9673396843868,0.12156408401899746,1.3440844945910653,0.7715998353346237,0.2885141375,0.6224676676722296
0.012,1.7964,1.0,1648.80224886973,0.1264914149251285,1.34317404581104,0.7848297147156732,0.28850180000000003,0.6244629281941398
0.0125,1.79609375,1.0,1711.7997964880954,0.13139110703194928,1.3423058844140408,0.7969572124323544,0.2884889375,0.6263605915035759
0.013000000000000001,1.7957750000000001,1.0,1772.0134608996002,0.13626331587495624,1.341476781922653,0.8080933786877501,0.28847555,0.6281683909685871
0.0135,1.79544375,1.0,1829.5029543316302,0.14110819634086771,1.3406838133912202,0.8183370270282758,0.2884616375,0.6298933013176539
0.014,1.7951000000000001,1.0,1884.3107412260063,0.1459259005821895,1.3399245582841288,0.8277761236544036,0.2884472,0.631541118224936
0.0145,1.79474375,1.0,1936.502991431315,0.1507165807514273,1.3391965960657655,0.8364888196200657,0.2884322375,0.6331175676575189
0.015,1.794375,1.0,1986.163445686895,0.15548038866792857,1.3384975497524052,0.8445445981995777,0.28841675,0.6346282168737818
0.0155,1.79399375,1.0,2033.379058491569,0.1602174754856893,1.3378252143732536,0.8520053311854863,0.2884007375,0.6360782032323509
0.016,1.7936,1.0,2078.2408062890013,0.16492799218263046,1.3371775208909535,0.858926163363404,0.2883842,0.6374723195338986
0.0165,1.7931937500000001,1.0,2120.81385940546,0.16961208645203366,1.336552821162209,0.8653563895821018,0.2883671375,0.6388144086982084
0.017,1.792775,1.0,2161.1755082999925,0.17426990598718053,1.3359494670437246,0.8713400209875434,0.28834955,0.640108276763512
0.0175,1.7923437500000001,1.0,2199.414147159131,0.17890159848135276,1.3353658103922041,0.8769164095137129,0.2883314375,0.6413576952167735
0.018000000000000002,1.7919,1.0,2235.613781777669,0.1835073101728578,1.3348003490571476,0.8821208337959252,0.2883128,0.6425660914260591
0.0185,1.79144375,1.0,2269.8735006848556,0.18808718894086862,1.3342515183403172,0.8869849210828834,0.2882936375,0.6437369977270173
0.019,1.790975,1.0,2302.265840452136,0.19264137882315815,1.3337180976572276,0.8915371682283415,0.28827395,0.6448731865307433
0.0195,1.79049375,1.0,2332.86075261344,0.1971700228229661,1.3331989562259579,0.8958032367066283,0.2882537375,0.6459772180163655
0.02,1.79,1.0,2361.7339585673058,0.20167326394353238,1.3326929632645874,0.8998062530626406,0.288233,0.6470516332724103
0.0205,1.78949375,1.0,2388.9664642240386,0.20615124518809677,1.3321989879911953,0.9035670934601053,0.2882117375,0.6480989552857963
0.021,1.788975,1.0,2414.628876277175,0.21060410745314315,1.3317160467764904,0.9071046642051905,0.28818995000000003,0.6491213785426571
0.021500000000000002,1.78844375,1.0,2438.809519259606,0.21503199467656076,1.3312430249880673,0.9104360605605208,0.2881676375,0.6501213596835287
0.022,1.7879,1.0,2461.5691322554703,0.2194350458136773,1.3307791102687585,0.9135768478962173,0.2881448,0.6511007021996444
0.0225,1.78734375,1.0,2482.965649990887,0.22381339889821356,1.3303235462951741,0.9165411759369105,0.28812143749999997,0.6520610802390943
0.023,1.786775,1.0,2503.0597290347023,0.22816719196389024,1.3298755767439245,0.9193419173240878,0.28809755,0.6530041577419106
0.0235,1.78619375,1.0,2521.9145194449434,0.23249656304442812,1.3294344452916202,0.9219908005517912,0.28807313749999996,0.6539315888246253
0.024,1.7856,1.0,2539.593747708759,0.2368016491752179,1.328999411647652,0.9244985298334314,0.2880482,0.6548449844881978
0.0245,1.7849981007182951,1.0,2556.3578318979876,0.2410825871356308,1.3285698722006085,0.9268749107658157,0.2880229202301684,0.6557456603382519
0.025,1.7843960299060573,1.0,2572.6135962081994,0.2453395148976763,1.328145530574637,0.9291289694972715,0.28799763325605443,0.6566342817726083
0.025500000000000002,1.7837939590938197,1.0,2588.3817205434707,0.24957256520159724,1.3277262212794159,0.9312689944291112,0.2879723462819404,0.6575112368811076
0.026000000000000002,1.7831918882815818,1.0,2603.6750527609156,0.2537818707876365,1.3273117788246236,0.933302588675201,0.28794705930782644,0.6583769114880762
0.0265,1.782589817469344,1.0,2618.5068110977145,0.2579675643960369,1.3269020377199385,0.935236735944408,0.2879217723337124,0.659231689204566
0.027,1.7819877466571061,1.0,2632.890566617516,0.2621297787670414,1.326496832475039,0.9370778592915978,0.28789648535959844,0.6600759514788467
0.0275,1.7813856758448683,1.0,2646.840190643234,0.2662686465796968,1.3260959979283977,0.9388318736085739,0.2878711983854845,0.6609100769613598
0.028,1.7807836050326304,1.0,2660.3652469534877,0.27038429150578275,1.3256994115165563,0.9405042350942231,0.2878459114113705,0.6617343537556406
0.0285,1.7801815342203926,1.0,2673.4882606205797,0.2744768581368997,1.3253068340036014,0.9420999721710561,0.2878206244372565,0.6625493104290604
0.029,1.7795794634081548,1.0,2686.220922877155,0.27854647263109095,1.3249181287846536,0.9436237393990425,0.2877953374631425,0.6633552601628803
0.029500000000000002,1.7789773925959171,1.0,2698.575168584128,0.28259326114639965,1.3245331592548344,0.9450798436246106,0.2877700504890285,0.6641525144900393
0.03,1.7783753217836793,1.0,2710.563164709946,0.2866173498408691,1.3241517888092649,0.9464722744121351,0.2877447635149145,0.6649413833282964
0.0305,1.7777732509714415,1.0,2722.197299222684,0.29061886487254257,1.3237738808430664,0.9478047314516894,0.28771947654080055,0.6657221750121807
0.031,1.7771711801592036,1.0,2733.4901703964015,0.2945979323994633,1.3233992987513596,0.9490806492763251,0.2876941895666866,0.6664951963237526
0.0315,1.7765691093469658,1.0,2744.454576530976,0.29855467857967444,1.323027905929266,0.9503032195821453,0.28766890259257255,0.6672607525221724
0.032,1.775967038534728,1.0,2755.103506085975,0.30248922957121926,1.3226595657719067,0.9514754114095784,0.2876436156184586,0.6680191473720811
0.0325,1.77536496772249,1.0,2765.450128227838,0.306401711532141,1.322294141674403,0.9525999894138717,0.28761832864434456,0.6687706831707905
0.033,1.7747628969102522,1.0,2775.4958371707035,0.3102922290095367,1.321931604718482,0.9536795368705357,0.2875930416702306,0.6695154396791554
0.0335,1.7741608260980146,1.0,2785.266373442069,0.31416093138888895,1.3215717076246176,0.9547164513528605,0.2875677546961166,0.6702539440541692
0.034,1.7735587552857768,1.0,2794.7748209292604,0.3180079457034054,1.3212143189828565,0.9557129785508013,0.28754246772200265,0.6709864836746804
0.0345,1.772956684473539,1.0,2804.0290008234256,0.321833389273145,1.3208593558613837,0.9566712201893885,0.2875171807478886,0.6717132453961032
0.035,1.772354613661301,1.0,2813.0368354446605,0.32563737941816695,1.3205067353283846,0.9575931424173816,0.28749189377377465,0.6724344152077195
0.035500000000000004,1.7717525428490632,1.0,2821.806343857527,0.32942003345853027,1.320156374452045,0.9584805861308257,0.28746660679966063,0.6731501782452868
0.036000000000000004,1.7711504720368254,1.0,2830.345637640924,0.3331814687142941,1.3198081903005499,0.9593352763971272,0.28744131982554666,0.673860718803212
0.0365,1.7705484012245876,1.0,2838.6629168086138,0.3369218025055175,1.3194620999420845,0.9601588310673201,0.2874160328514327,0.6745662203462807
0.037,1.7699463304123497,1.0,2846.766465883407,0.34064115215225965,1.3191180204448347,0.9609527686548075,0.28739074587731867,0.6752668655209504
0.0375,1.769344259600112,1.0,2854.6646501237324,0.3443396349745796,1.318775868876986,0.9617185155505464,0.2873654589032047,0.6759628361662076
0.038,1.7687421887878743,1.0,2862.3659119021304,0.34801736829253643,1.318435562306723,0.9624574126373076,0.2873401719290907,0.6766543133239833
0.0385,1.7681401179756364,1.0,2869.8787672364006,0.3516744694261893,1.3180970178022318,0.963170721359115,0.2873148849549767,0.6773414772491284
0.039,1.7675380471633986,1.0,2877.211802474143,0.35531105569559723,1.3177601524316975,0.9638596292962147,0.28728959798086273,0.6780245074189553
0.0395,1.7669359763511607,1.0,2884.373671128212,0.35892724442081936,1.3174248832633058,0.9645252552907746,0.28726431100674876,0.6787035825423364
0.04,1.7663339055389229,1.0,2891.3727491322115,0.36252315194092155,1.3170911303832697,0.9651686542517876,0.28723902403263474,0.6793788744651155
0.0405,1.765731834726685,1.0,2898.2083786372837,0.3660988715334909,1.3167588940920374,0.9657908242965395,0.28721373705852077,0.6800503922627215
0.041,1.7651297639144472,1.0,2904.8971576234635,0.36965454817659077,1.3164280227832048,0.9663927038004518,0.2871884500844068,0.6807184515226774
0.0415,1.7645276931022096,1.0,2911.4434497824955,0.3731902899559389,1.3160984733399013,0.9669751819511574,0.2871631631102928,0.6813831478067084
0.042,1.7639256222899717,1.0,2917.8516527285583,0.3767062049572528,1.315770202645256,0.9675390993270069,0.2871378761361788,0.6820445762798915
0.0425,1.763323551477734,1.0,2924.126196754974,0.3802024012662502,1.315443167582399,0.9680852510531766,0.28711258916206484,0.6827028317142301
0.043000000000000003,1.762721480665496,1.0,2930.271543632717,0.3836789869686487,1.3151173250344592,0.9686143897219034,0.28708730218795087,0.6833580084921141
0.043500000000000004,1.7621194098532582,1.0,2936.2921854494643,0.3871360701501659,1.3147926318845666,0.9691272280966943,0.28706201521383684,0.6840102006096548
0.044,1.7615173390410204,1.0,2942.19264349057,0.39057375889651935,1.3144690450158503,0.9696244416184959,0.28703672823972287,0.684659501679908
0.0445,1.7609152682287825,1.0,2947.9774671605187,0.39399216129342685,1.3141465213114396,0.9701066707301677,0.28701144126560885,0.6853060049359734
0.045,1.760313197416545,1.0,2953.6512329462726,0.3973913854266059,1.3138250176544644,0.9705745230340936,0.2869861542914949,0.6859498032339768
0.0455,1.759711126604307,1.0,2959.218543421223,0.40077153938177423,1.313504490928054,0.9710285752964367,0.2869608673173809,0.6865909890559366
0.046,1.7591090557920692,1.0,2964.684026290979,0.4041327312446494,1.3131848980153378,0.9714693753103213,0.28693558034326694,0.6872296545125078
0.0465,1.7585069849798314,1.0,2970.0523334798568,0.407475069100949,1.3128661957994452,0.9718974436291447,0.2869102933691529,0.6878658913456098
0.047,1.7579049141675935,1.0,2975.3281402589314,0.41079866103639073,1.312548341163506,0.9723132751802259,0.28688500639503894,0.6884997909309334
0.0475,1.7573028433553557,1.0,2980.512176730053,0.4141035947718193,1.3122313255033515,0.9727173406049223,0.2868597194209249,0.6891313755561868
0.048,1.7567007725431178,1.0,2985.610226220423,0.41738998978243386,1.311915096367994,0.9731100888277808,0.28683443244681095,0.6897607546484217
0.0485,1.75609870173088,1.0,2990.6282556992446,0.42065796542895134,1.3115995999281702,0.973491947157763,0.286809145472697,0.6903880399381515
0.049,1.7554966309186422,1.0,2995.56849910083,0.42390762069409915,1.3112848149576448,0.9738633224039852,0.28678385849858296,0.6910132779871965
0.0495,1.7548945601064045,1.0,3000.4332018669324,0.4271390545606048,1.3109707202301835,0.9742246023384816,0.286758571524469,0.6916365151770439
0.05,1.7542924892941667,1.0,3005.2246206166014,0.43035236601119575,1.3106572945195512,0.9745761567592159,0.286733284550355,0.6922577977097987
0.0505,1.7536904184819289,1.0,3009.9450228263368,0.43354765402859935,1.3103445165995131,0.9749183384844958,0.286707997576241,0.6928771716091024
0.051000000000000004,1.753088347669691,1.0,3014.596686520784,0.4367250175955431,1.3100323652438344,0.9752514842837924,0.286682710602127,0.6934946827210258
0.051500000000000004,1.7524862768574532,1.0,3019.1818999720367,0.4398845556947545,1.3097208192262804,0.9755759157495625,0.28665742362801305,0.6941103767149291
0.052000000000000005,1.7518842060452153,1.0,3023.7029614103863,0.44302636730896094,1.3094098573206159,0.975891940114299,0.28663213665389903,0.6947242990842989
0.0525,1.7512821352329775,1.0,3028.162178744151,0.44615055142088983,1.3090994583006066,0.9761998510167054,0.28660684967978506,0.6953364951475496
0.053,1.7506800644207399,1.0,3032.561869289919,0.4492572070132687,1.3087896009400173,0.976499929220571,0.2865815627056711,0.6959470100488039
0.0535,1.750077993608502,1.0,3036.9043595123626,0.452346433068825,1.3084802640126134,0.9767924432896569,0.28655627573155706,0.6965558887586363
0.054,1.7494759227962642,1.0,3041.191984774941,0.45541832857028614,1.30817142629216,0.9770776502216325,0.2865309887574431,0.6971631760747954
0.0545,1.7488738519840263,1.0,3045.4270890992066,0.4584729925003796,1.307863066552422,0.9773557960438816,0.2865057017833291,0.6977689166228922
0.055,1.7482717811717885,1.0,3049.6120249351093,0.4615105238418328,1.3075551635671652,0.977627116373766,0.2864804148092151,0.6983731548570609
0.0555,1.7476697103595507,1.0,3053.7485426785856,0.46453101485140036,1.3072477013544574,0.9778918366248273,0.28645512783510113,0.6989759247844456
0.056,1.7470676395473128,1.0,3057.8354814169306,0.46753453064549216,1.3069406889886546,0.9781501718128895,0.2864298408609871,0.6995772112345984
0.0565,1.746465568735075,1.0,3061.8790569789,0.47052122021339177,1.3066340722233245,0.9784023321033672,0.28640455388687314,0.7001771229328476
0.057,1.7458634979228371,1.0,3065.8803087990646,0.473491173028908,1.306327841360358,0.9786485161997998,0.28637926691275917,0.7007756811463753
0.0575,1.7452614271105995,1.0,3069.8402802718015,0.4764444785658493,1.3060219867016467,0.9788889147744656,0.2863539799386452,0.7013729070637027
0.058,1.7446593562983617,1.0,3073.7600186694976,0.4793812262980245,1.3057164985490812,0.9791237108572809,0.2863286929645312,0.7019688217949287
0.0585,1.7440572854861238,1.0,3077.6405750626327,0.48230150569924224,1.3054113672045529,0.9793530802028717,0.2863034059904172,0.7025634463719572
0.059000000000000004,1.743455214673886,1.0,3081.48300424184,0.48520540624331115,1.3051065829699526,0.979577191637208,0.2862781190163032,0.7031568017487226
0.059500000000000004,1.7428531438616481,1.0,3085.288364642541,0.48809301740403993,1.304802136147172,0.9797962073850912,0.2862528320421892,0.7037489088014057
0.06,1.7422510730494103,1.0,3089.05771827104,0.4909644286552372,1.304498017038102,0.9800102833796943,0.28622754506807524,0.7043397883286472
0.0605,1.7416490022371724,1.0,3092.792130633152,0.49381972947071173,1.3041942159446338,0.9802195695552679,0.28620225809396127,0.7049294610517522
0.061,1.7410469314249348,1.0,3096.4926706647807,0.4966590093242721,1.3038907231686583,0.9804242101240512,0.28617697111984725,0.7055179476148913
0.0615,1.740444860612697,1.0,3100.160410664725,0.499482357689727,1.3035875290120669,0.980624343838356,0.2861516841457333,0.7061052685852917
0.062,1.7398427898004591,1.0,3103.7964262291403,0.502289864040885,1.3032846237767504,0.9808201042387226,0.28612639717161925,0.7066914444534279
0.0625,1.7392407189882213,1.0,3107.401796188586,0.505081617851555,1.3029819977646004,0.9810116198889884,0.2861011101975053,0.7072764956332005
0.063,1.7386386481759835,1.0,3110.9776025468386,0.5078577085955456,1.3026796412775077,0.9811990145990526,0.2860758232233913,0.7078604424621151
0.0635,1.7380365773637456,1.0,3114.5249304218914,0.5106182257466652,1.3023775446173638,0.9813824076360659,0.28605053624927734,0.7084433052014483
0.064,1.7374345065515078,1.0,3118.044867989119,0.5133632587787228,1.3020756980860593,0.9815619139247321,0.2860252492751633,0.7090251040364157
0.0645,1.73683243573927,1.0,3121.538506426482,0.5160928971655269,1.3017740919854859,0.9817376442373518,0.28599996230104935,0.709605859076325
0.065,1.736230364927032,1.0,3125.0066765001434,0.5188072242492008,1.3014727188547823,0.9819097050624986,0.2859746753269353,0.7101855860532698
0.0655,1.7356282941147945,1.0,3128.4488172490765,0.5215062976933837,1.3011715830689508,0.9820781979400017,0.28594938835282135,0.7107642779073409
0.066,1.7350262233025566,1.0,3131.8675065324646,0.5241902504447947,1.300870662361538,0.9822432246124033,0.2859241013787074,0.7113419787312799
0.0665,1.7344241524903188,1.0,3135.263229611727,0.5268591629086388,1.300569952264941,0.9824048805849681,0.2858988144045934,0.7119186983273313
0.067,1.733822081678081,1.0,3138.6364731888507,0.529513115490121,1.300269448311557,0.9825632580519656,0.2858735274304794,0.7124944464626057
0.0675,1.733220010865843,1.0,3141.9877253861637,0.5321521885944465,1.2999691460337832,0.9827184460348041,0.2858482404563654,0.7130692328691417
0.068,1.7326179400536053,1.0,3145.3174757253355,0.5347764626268201,1.2996690409640164,0.9828705305134722,0.2858229534822514,0.7136430672439626
0.0685,1.7320158692413674,1.0,3148.626215108461,0.5373860179924469,1.2993691286346536,0.9830195945516538,0.2857976665081374,0.7142159592491334
0.069,1.7314137984291296,1.0,3151.914435798223,0.539980935096532,1.299069404578092,0.9831657184158638,0.28577237953402346,0.7147879185118162
0.0695,1.730811727616892,1.0,3155.18263139902,0.5425612943442802,1.2987698643267287,0.9833089796889279,0.2857470925599095,0.7153589546243244
0.07,1.730209656804654,1.0,3158.4312968387494,0.5451271761408968,1.2984705034129609,0.9834494533781137,0.28572180558579546,0.7159290771441764
0.07050000000000001,1.7296075859924163,1.0,3161.660928351,0.5476786608915866,1.2981713173691853,0.9835872120181964,0.2856965186116815,0.7164982955941472
