Time [s],Phi [rad],STIM [ ],Fsee [N],Gamma [ ],Lcerel [ ],q [ ],Lmtc [m],fisomrel [ ]
0.0,1.8,1.0,17.97941301759797,0.00010978815012663438,1.3793383735007136,0.005003152266386758,0.288653,0.5411428520083963
0.0005,1.79999375,1.0,18.321678925115293,0.005718381634248451,1.379297399474374,0.013219865437277573,0.2886527375,0.5412419730611517
0.001,1.799975,1.0,21.737436007240323,0.011295515343365956,1.3789261591491762,0.03613045347015355,0.28865195,0.5421395596698126
0.0015,1.79994375,1.0,31.34708288963432,0.016841365742876546,1.378022584815865,0.07131485669910777,0.2886506375,0.544320552835243
0.002,1.7999,1.0,54.17678506215889,0.022356108306399263,1.3763296766109172,0.11556166130577095,0.2886488,0.548392775835212
0.0025,1.79984375,1.0,98.11435494271093,0.027839917523977974,1.3738873227584405,0.1654922103247012,0.28864643749999996,0.5542355544659622
0.003,1.7997750000000001,1.0,162.2510878995508,0.03329296690890281,1.3711660452870276,0.21822651492450415,0.28864354999999997,0.5607007870726666
0.0035,1.79969375,1.0,239.1428959172952,0.038715428998034915,1.3685398445984573,0.2715536569169503,0.2886401375,0.5668953537734213
0.004,1.7996,1.0,323.01883221861505,0.04410747536237267,1.3661150337303603,0.32382658701934086,0.2886362,0.5725758357034987
0.0045000000000000005,1.7994937500000001,1.0,410.8744178655194,0.04946927661230172,1.3638851365079177,0.37389898845868536,0.2886317375,0.5777666053208359
0.005,1.799375,1.0,501.0524921029056,0.05480100238921248,1.361823542517644,0.4210561840278865,0.28862675,0.5825373854591286
0.0055,1.79924375,1.0,592.4434202166923,0.06010282140758437,1.3599065619253468,0.46492241192544365,0.2886212375,0.5869491922291982
0.006,1.7991000000000001,1.0,684.1723640345879,0.06537490141091103,1.3581163629803628,0.5053680035501628,0.2886152,0.5910480566508836
0.006500000000000001,1.79894375,1.0,775.5254005781345,0.07061740920353697,1.3564392019136966,0.5424298472511466,0.2886086375,0.594869564219155
0.007,1.798775,1.0,865.9136600065548,0.07583051069930748,1.354864112391802,0.5762500307552304,0.28860155,0.5984421611491664
0.0075,1.79859375,1.0,954.846549288231,0.08101437081266188,1.3533821286202175,0.6070312567842511,0.2885939375,0.601789130012258
0.008,1.7984,1.0,1041.919255188417,0.08616915339287945,1.3519856753127577,0.6350058361574982,0.2885858,0.6049301159905036
0.0085,1.79819375,1.0,1126.8488069771872,0.09129502207179759,1.3506675248965996,0.6604147354476648,0.2885771375,0.6078835681852447
0.009000000000000001,1.797975,1.0,1209.3757642234239,0.09639213855090793,1.3494218791079673,0.6834953657126741,0.28856795,0.6106643826551565
0.0095,1.79774375,1.0,1289.3153377284784,0.10146066403095017,1.3482432971606495,0.7044733045215682,0.2885582375,0.6132863711182385
0.01,1.7975,1.0,1366.5558187791282,0.10650075919634713,1.3471265403740627,0.7235581336301797,0.288548,0.6157626433926475
0.0105,1.79724375,1.0,1441.0109272269178,0.11151258366665609,1.3460670361959939,0.7409419134528585,0.2885372375,0.6181046124315073
0.011,1.796975,1.0,1512.6179761503947,0.1164962954922289,1.3450607287415612,0.7567987681430678,0.28852595000000003,0.6203223644143581
0.0115,1.79669375,1.0,1581.3573546120676,0.12145205216546014,1.3441037159336382,0.7712852782537781,0.2885141375,0.622425486864356
0.012,1.7964,1.0,1647.2580685748958,0.1263800116699044,1.3431921093491073,0.7845415084068966,0.28850180000000003,0.6244233931138725
0.0125,1.79609375,1.0,1710.336261256472,0.13128032960077324,1.342322686257392,0.7966926165114033,0.2884889375,0.6263239109487345
0.013000000000000001,1.7957750000000001,1.0,1770.6141555751867,0.13615316017340598,1.341492570831559,0.807850097028587,0.28847555,0.6281340053152189
0.0135,1.79544375,1.0,1828.1455073164586,0.14099865760314195,1.340698887244675,0.818113036913665,0.2884616375,0.6298605492035723
0.014,1.7951000000000001,1.0,1882.9971856665927,0.14581697532332097,1.339938930881833,0.8275695244328892,0.2884472,0.6315099594098098
0.0145,1.79474375,1.0,1935.2575013561407,0.1506082670004771,1.339210038824702,0.8362978383154791,0.2884322375,0.6330884871190824
0.015,1.794375,1.0,1984.990898543809,0.15537268355975747,1.3385100458471706,0.8443677297470833,0.28841675,0.6346012399889875
0.0155,1.79399375,1.0,2032.2643004938382,0.16011037502196857,1.3378369557314433,0.8518413032158259,0.2884007375,0.6360529060654043
0.016,1.7936,1.0,2077.160841779912,0.16482149140791677,1.3371887722597244,0.8587738636603388,0.2883842,0.6374481245598842
0.0165,1.7931937500000001,1.0,2119.7644286116724,0.16950618171917975,1.3365636440620716,0.8652147654091495,0.2883671375,0.638791178238709
0.017,1.792775,1.0,2160.176555296863,0.17416459574171989,1.3359596726218255,0.8712080607674823,0.28834955,0.6400864106244766
0.0175,1.7923437500000001,1.0,2198.47226322441,0.17879688006173833,1.335375348841243,0.8767932460726806,0.2883314375,0.6413372939719852
0.018000000000000002,1.7919,1.0,2234.725712350968,0.18340318041750697,1.3348092693485916,0.8820057163859025,0.2883128,0.642547044509765
0.0185,1.79144375,1.0,2269.0195628731326,0.18798364254729766,1.3342600307721395,0.8868772159290759,0.2882936375,0.6437188514930114
0.019,1.790975,1.0,2301.437563548833,0.19253841134689353,1.333726295965803,0.891436276831984,0.28827395,0.644855737821892
0.0195,1.79049375,1.0,2332.068636830079,0.1970676322182689,1.3332067449892815,0.8957085760283887,0.2882537375,0.6459606667527039
0.02,1.79,1.0,2360.9916579356313,0.2015714488663541,1.3327002174032048,0.899717290774312,0.288233,0.6470362415174117
0.0205,1.78949375,1.0,2388.27142520301,0.2060500024537248,1.332205741401412,0.9034833834314495,0.2882117375,0.6480846472574562
0.021,1.788975,1.0,2413.977189610262,0.2105034341429565,1.3317223451777422,0.9070258056025637,0.28818995000000003,0.6491080539214886
0.021500000000000002,1.78844375,1.0,2438.1822839441165,0.21493188509662484,1.3312490569260347,0.9103617185886612,0.2881676375,0.6501086169821833
0.022,1.7879,1.0,2460.9568223462443,0.21933549499128724,1.3307849713758575,0.9135066999628654,0.2881448,0.6510883377291874
0.0225,1.78734375,1.0,2482.3751181585376,0.22371440520391253,1.3303291745164048,0.9164748993659213,0.28812143749999997,0.6520492234161691
0.023,1.786775,1.0,2502.5015106852456,0.22806875487455558,1.329880875575253,0.919279212247631,0.28809755,0.652993009979925
0.0235,1.78619375,1.0,2521.3897775569776,0.23239868012470505,1.3294394076773988,0.9219314091975659,0.28807313749999996,0.6539211628481016
0.024,1.7856,1.0,2539.0958280815858,0.23670431707584963,1.3290041039478386,0.9244422297477334,0.2880482,0.6548351389843106
0.0245,1.78499375,1.0,2555.6775237054844,0.240985801849478,1.3285742975115689,0.926821486889829,0.2880227375,0.6557363871644739
0.025,1.784375,1.0,2571.1945083352525,0.24524327056707887,1.3281493214935858,0.9290781597312555,0.28799675,0.6566263482248065
0.025500000000000002,1.78374375,1.0,2585.695909658121,0.24947685627264873,1.3277286223831337,0.9312204932962788,0.2879702375,0.6575062183381803
0.026000000000000002,1.7831000000000001,1.0,2599.243463634965,0.25368669713552244,1.3273115417619692,0.9332560376239143,0.2879432,0.6583774063437586
0.0265,1.78244375,1.0,2611.8847338213104,0.25787292649424937,1.3268975653218953,0.9351917499383371,0.2879156375,0.6592410133501825
0.027,1.781775,1.0,2623.6586478197382,0.2620356748228032,1.3264862687041852,0.937034042680505,0.28788755,0.6600979475370491
0.0275,1.7810937500000001,1.0,2634.6050215526066,0.26617507259515755,1.3260772275501114,0.9387888216829258,0.2878589375,0.6609491124784213
0.028,1.7804,1.0,2644.7644829311953,0.270291250285286,1.3256700175009473,0.940461532891774,0.2878298,0.6617954072096068
0.0285,1.77969375,1.0,2654.178399517698,0.2743843383671622,1.3252642141979658,0.9420572042144696,0.2878001375,0.6626377262824612
0.029,1.778975,1.0,2662.888810179837,0.2784544673147597,1.32485939328244,0.9435804830542698,0.28776995,0.6634769598091996
0.029500000000000002,1.7782437500000001,1.0,2670.929721108952,0.2825017638220623,1.3244552097829183,0.9450356795183417,0.2877392375,0.6643138292242425
0.03,1.7775,1.0,2678.3442536624966,0.28652636058134995,1.3240512396624111,0.9464267779606872,0.287708,0.6651492157948169
0.0305,1.77674375,1.0,2685.1661788528527,0.2905283854956993,1.3236471491168704,0.9477574836700102,0.2876762375,0.6659838101674816
0.031,1.775975,1.0,2691.422606893382,0.29450796302702614,1.32324266894386,0.9490312436288988,0.28764395,0.6668181663713335
0.0315,1.7751937500000001,1.0,2697.140974956513,0.2984652176372463,1.3228375299409432,0.9502512611356698,0.2876111375,0.6676528356557099
0.032,1.7744,1.0,2702.349016608813,0.30240027378827566,1.3224314629056841,0.9514205160430037,0.2875778,0.6684883664811876
0.0325,1.77359375,1.0,2707.074732852969,0.30631325594203,1.322024198635647,0.9525417830812067,0.2875439375,0.6693253045059612
0.033,1.772775,1.0,2711.346364776335,0.3102042885604252,1.3216154679283947,0.9536176484679223,0.28750955,0.6701641925676012
0.0335,1.7719437500000002,1.0,2715.1923678063126,0.31407349610537705,1.3212050015814916,0.9546505249828583,0.2874746375,0.671005570660185
0.034,1.7711000000000001,1.0,2718.6323314727692,0.3179209930694435,1.3207926128733216,0.9556426722654497,0.2874392,0.671849807161694
0.0345,1.7702437500000001,1.0,2721.699923719535,0.3217469157715078,1.3203779882716975,0.9565961939487425,0.2874032375,0.6726975275222579
0.035,1.7693750000000001,1.0,2724.412403968477,0.3255513824218103,1.3199609649857498,0.9575130694767203,0.28736675,0.6735490461906499
0.035500000000000004,1.76849375,1.0,2726.786744020707,0.32933451075701664,1.31954138382375,0.9583951522973183,0.2873297375,0.6744046684438868
0.036000000000000004,1.7676,1.0,2728.840011801214,0.3330964185137927,1.3191190855939692,0.959244179083449,0.2872922,0.6752646977349139
0.0365,1.76669375,1.0,2730.5893607432245,0.3368372234288042,1.3186939111046796,0.9600617784172429,0.2872541375,0.6761294356658246
0.037,1.765775,1.0,2732.052019734372,0.34055704323871694,1.318265701164152,0.9608494787344674,0.28721555,0.6769991819594727
0.0375,1.76484375,1.0,2733.245283624736,0.3442559956801967,1.3178342965806584,0.9616087155996972,0.2871764375,0.6778742344294582
0.038,1.7639,1.0,2734.1865042966856,0.34793419848990925,1.3173995381624701,0.9623408383753945,0.28713679999999997,0.6787548889485034
0.0385,1.76294375,1.0,2734.8930822969864,0.35159176940452036,1.3169612667178585,0.9630471163414976,0.28709663750000003,0.6796414394152123
0.039,1.761975,1.0,2735.3765952427775,0.3552288196743543,1.3165193762973904,0.96372874798145,0.28705595,0.6805340702433387
0.0395,1.7609937500000001,1.0,2735.6457682134305,0.3588454609603157,1.3160737871452337,0.964386864749847,0.2870147375,0.681432911606089
0.04,1.76,1.0,2735.7297714959313,0.36244182744242226,1.3156242341285815,0.9650225207767061,0.286973,0.6823384656592677
0.0405,1.7589937500000001,1.0,2735.6371872074715,0.36601802883514944,1.315170639249282,0.9656367224330415,0.2869307375,0.6832508550867316
0.041,1.757975,1.0,2735.376614549755,0.36957417485297284,1.3147129245091826,0.9662304196652157,0.28688795,0.6841702013612165
0.0415,1.75694375,1.0,2734.9566671037605,0.3731103752103679,1.3142510119101318,0.9668045097424735,0.2868446375,0.6850966247240375
0.042,1.7559,1.0,2734.385970259528,0.3766267396218102,1.3137848234539773,0.9673598407182358,0.28680079999999997,0.6860302441644015
0.0425,1.75484375,1.0,2733.6731587808267,0.38012337780177524,1.313314281142567,0.9678972146297387,0.2867564375,0.6869711773983305
0.043000000000000003,1.753775,1.0,2732.8268745042105,0.3836003994647385,1.3128393069777493,0.9684173904582618,0.28671155,0.6879195408471988
0.043500000000000004,1.75269375,1.0,2731.8557641739567,0.3870579143251755,1.3123598229613718,0.9689210868701005,0.28666613750000003,0.6888754496158818
0.044,1.7516,1.0,2730.76847741056,0.39049603209756173,1.3118757510952825,0.9694089847565569,0.2866202,0.6898390174705147
0.0445,1.75049375,1.0,2729.5736648156703,0.3939148624963728,1.3113870133813295,0.969881729589549,0.2865737375,0.6908103568158666
0.045,1.7493750000000001,1.0,2728.27997621036,0.39731451523608413,1.3108935318213604,0.9703399336078989,0.28652675,0.6917895786723239
0.0455,1.74824375,1.0,2726.8960590093675,0.40069510003117126,1.3103952284172236,0.9707841778480211,0.2864792375,0.692776792652486
0.046,1.7471,1.0,2725.428675188978,0.40405672570927464,1.309892042286029,0.9712150151839984,0.2864312,0.6937720731115882
0.0465,1.7459437500000001,1.0,2723.882451385719,0.4073994964067478,1.3093839319458782,0.9716329716644451,0.28638263750000004,0.6947754548906512
0.047,1.744775,1.0,2722.2640370080717,0.4107235168696189,1.3088708374898212,0.9720385460814878,0.28633355,0.6957870081260729
0.0475,1.74359375,1.0,2720.5786713342172,0.41402889194393216,1.3083527118063536,0.9724322137443855,0.28628393750000003,0.6968067765359307
0.048,1.7424,1.0,2718.8216100730083,0.41731572603798905,1.307829598674453,0.9728144332789841,0.2862338,0.6978346242982308
0.0485,1.74119375,1.0,2717.0121506517266,0.42058412379019233,1.3073013229225408,0.9731856260511875,0.2861831375,0.6988708448024756
0.049,1.739975,1.0,2715.1767248552446,0.42383418935916967,1.3067676441443479,0.9735461888792788,0.28613195,0.6999158562057614
0.0495,1.7387449927531973,1.0,2713.3471735089847,0.4270660245525177,1.3062288335466958,0.9738965343866197,0.28608028969563426,0.7009690736754786
0.05,1.737513066695243,1.0,2711.956214675802,0.43027973117783314,1.3056851623364047,0.9742370558887525,0.2860285488012002,0.7020299155847126
0.0505,1.7362811406372889,1.0,2711.0687876289394,0.4334754110427125,1.3051369017202954,0.9745681284778638,0.28597680790676616,0.7030978035986568
0.051000000000000004,1.7350492145793346,1.0,2710.6562165070427,0.4366531653870364,1.3045843110014614,0.9748901091947623,0.28592506701233206,0.7041721858793528
0.051500000000000004,1.7338172885213805,1.0,2710.675331649712,0.43981309553422365,1.3040277829458682,0.9752033475029576,0.28587332611789795,0.7052522550925384
0.052000000000000005,1.7325853624634262,1.0,2711.087946137925,0.44295530177917747,1.3034676658752646,0.9755081741811419,0.2858215852234639,0.706337295179269
0.0525,1.7313534364054721,1.0,2711.865801991448,0.44607988259796805,1.3029042182963548,0.9758048994028414,0.28576984432902985,0.7074267682980684
0.053,1.7301215103475178,1.0,2712.980702712399,0.4491869364666656,1.3023376987158433,0.9760938196679153,0.28571810343459575,0.7085201400995154
0.0535,1.7288895842895637,1.0,2714.4044949373415,0.4522765618613403,1.3017683656404344,0.9763752185298546,0.28566636254016164,0.7096168797790213
0.054,1.7276576582316094,1.0,2716.1155596097574,0.4553488544554352,1.3011964182756102,0.9766493633753139,0.2856146216457276,0.7107165740368102
0.0545,1.7264257321736554,1.0,2718.083674445347,0.4584039144125614,1.30062213437591,0.9769165153328291,0.28556288075129355,0.7118186617451288
0.055,1.725193806115701,1.0,2720.2812125912333,0.461441841406049,1.3000457680206785,0.9771769229802179,0.28551113985685944,0.7129226310359732
0.0555,1.723961880057747,1.0,2722.6933949369027,0.4644627295243647,1.2994674562368824,0.97743081698632,0.28545939896242534,0.7140281972417439
0.056,1.7227299539997927,1.0,2725.305442084863,0.46746667285597504,1.298887336051488,0.9776784184216896,0.2854076580679913,0.715135077640449
0.0565,1.7214980279418386,1.0,2728.1025686483335,0.4704537654893467,1.298305544491462,0.9779199392403172,0.28535591717355724,0.7162429914721059
0.057,1.7202661018838843,1.0,2731.0699779655306,0.4734241015129463,1.2977222185837707,0.978155582733436,0.28530417627912313,0.717351659953946
0.0575,1.7190341758259302,1.0,2734.1928572300553,0.4763777750152405,1.297137495355381,0.9783855439572391,0.2852524353846891,0.7184608062944228
0.058,1.717802249767976,1.0,2737.456373037321,0.47931488008469586,1.296551511833259,0.9786100101362077,0.285200694490255,0.7195701557060221
0.0585,1.7165703237100218,1.0,2740.8456673478086,0.48223551080977906,1.2959644050443715,0.9788291610436188,0.28514895359582093,0.7206794354168725
0.059000000000000004,1.7153383976520675,1.0,2744.3528030249104,0.4851397561494067,1.2953762490215772,0.9790431654522304,0.2850972127013868,0.7217884933480332
0.059500000000000004,1.7141064715941134,1.0,2747.961239463017,0.4880277144943745,1.2947871956172377,0.9792521905756854,0.2850454718069528,0.7228970322070296
0.06,1.7128745455361591,1.0,2751.6629830094726,0.49089947613219037,1.2941973189643354,0.9794563922664997,0.2849937309125187,0.7240049027876183
0.0605,1.711642619478205,1.0,2755.451302885331,0.4937551302166313,1.293606681614945,0.9796559196747855,0.2849419900180846,0.7251119786704731
0.061,1.7104106934202508,1.0,2759.3194533611136,0.4965947659014742,1.293015346121141,0.9798509162670407,0.2848902491236505,0.7262181343670533
0.0615,1.7091787673622967,1.0,2763.260672745815,0.49941847234049597,1.2924233750349985,0.9800415200878168,0.28483850822921647,0.7273232453225147
0.062,1.7079468413043424,1.0,2767.268182461417,0.5022263386874735,1.2918308309085915,0.9802278640074394,0.28478676733478236,0.7284271879183708
0.0625,1.7067149152463883,1.0,2771.3351862053055,0.5050184540961837,1.291237776293995,0.9804100759566278,0.2847350264403483,0.7295298394749008
0.063,1.705482989188434,1.0,2775.4548691984837,0.5077949077204035,1.2906442737432837,0.9805882791487923,0.2846832855459142,0.7306310782533136
0.0635,1.70425106313048,1.0,2779.622849136667,0.5105557836606697,1.2900503637261023,0.9807625907942827,0.28463154465148016,0.7317308243059815
0.064,1.7030191370725256,1.0,2783.8349567529663,0.5133011678352463,1.2894560846839649,0.9809331238843789,0.28457980375704606,0.7328290020389967
0.0645,1.7017872110145715,1.0,2788.0804355174996,0.5160311611436754,1.288861534194177,0.9810999913782218,0.284528062862612,0.7339254274967677
0.065,1.7005552849566172,1.0,2792.3567825315117,0.5187458469238423,1.2882667353693913,0.9812632972519731,0.2844763219681779,0.7350200551003614
0.0655,1.6993233588986631,1.0,2796.6614874527813,0.5214453085136322,1.2876717113222604,0.9814231418000784,0.28442458107374385,0.7361128396202872
0.066,1.6980914328407088,1.0,2800.992032374088,0.5241296292509302,1.2870764851654375,0.9815796217928033,0.28437284017930975,0.7372037361768442
0.0665,1.6968595067827548,1.0,2805.345891714121,0.5267988924736215,1.2864810800115751,0.9817328306259503,0.2843210992848757,0.7382927002404385
0.067,1.6956275807248005,1.0,2809.7205321192287,0.5294531815195915,1.2858855189733263,0.9818828584631963,0.28426935839044165,0.739379687631862
0.0675,1.6943956546668464,1.0,2814.1134123781853,0.5320925797267251,1.2852898251633436,0.9820297923714656,0.28421761749600755,0.7404646545225411
0.068,1.693163728608892,1.0,2818.521983347861,0.5347171704329075,1.28469402169428,0.9821737164497244,0.28416587660157344,0.7415475574347477
0.0685,1.691931802550938,1.0,2822.9436878913743,0.537327036976024,1.2840981316787885,0.9823147119515596,0.2841141357071394,0.7426283532417786
0.069,1.6906998764929837,1.0,2827.375960827622,0.5399222626939598,1.2835021782295215,0.982452857401886,0.28406239481270534,0.7437069991681016
0.0695,1.6894679504350296,1.0,2831.816228892812,0.5425029309246,1.2829061844591323,0.9825882287080959,0.28401065391827124,0.7447834527894625
0.07,1.6882360243770753,1.0,2836.261910714119,0.5450691250058298,1.2823101734802735,0.9827208992659568,0.28395891302383713,0.7458576720329652
0.07050000000000001,1.6870040983191212,1.0,2840.7138187692767,0.5476209067495279,1.2817141380942807,0.9828509373544253,0.2839071721294031,0.7469296696358309
0.07100000000000001,1.685772172261167,1.0,2845.1680584060355,0.5501583773875675,1.2811181130323472,0.9829784133316833,0.28385543123496904,0.7479993830520806
0.07150000000000001,1.6845402462032129,1.0,2849.621947767259,0.552681627552644,1.2805221221279774,0.9831033941383698,0.28380369034053493,0.7490667697602554
0.07200000000000001,1.6833083201452586,1.0,2854.07485175643,0.5551907334578934,1.279926170946518,0.9832259428860242,0.2837519494461008,0.7501318202143521
0.0725,1.6820763940873045,1.0,2858.5261333321773,0.5576857713164513,1.2793302650533152,0.983346120674661,0.2837002085516668,0.7511945249529487
