Time [s],Phi [rad],STIM [ ],Fsee [N],Gamma [ ],Lcerel [ ],q [ ],Lmtc [m],fisomrel [ ]
0.0,1.8,1.0,17.968520061093148,2.4652618754022436e-05,1.379339593644993,0.005000160827280095,0.288653,0.5411399001698074
0.0005,1.79999375,1.0,18.282670896798884,0.00563372364585806,1.3793017294962266,0.012981240948585451,0.2886527375,0.541231498728225
0.001,1.799975,1.0,21.635144279864615,0.011211332219349966,1.3789365903801176,0.03568496489123645,0.28865195,0.5421143509919992
0.0015,1.79994375,1.0,31.10909746787465,0.01675765481959285,1.3780428087577312,0.07070624571304897,0.2886506375,0.5442717944724664
0.002,1.7999,1.0,53.66831323425609,0.022272866935275082,1.376362559523129,0.11484163360391691,0.2886488,0.5483138513686199
0.0025,1.79984375,1.0,97.26345767031953,0.02775714307107539,1.3739282057733755,0.16470935115133942,0.28864643749999996,0.5541380641808169
0.003,1.7997750000000001,1.0,161.14645019940448,0.033210656755245885,1.371207298190036,0.21741916878633158,0.28864354999999997,0.5606031306455793
0.0035,1.79969375,1.0,237.89619018626746,0.03863358053930875,1.3685781790911598,0.2707508580074953,0.2886401375,0.5668052483987404
0.004,1.7996,1.0,321.69330816704365,0.044026086008811284,1.3661500933575437,0.3230493960203868,0.2886362,0.5724939704536418
0.0045000000000000005,1.7994937500000001,1.0,409.5023985432254,0.04938834378851831,1.363917306878664,0.3731613255864449,0.2886317375,0.5776919443691972
0.005,1.799375,1.0,499.6529500730461,0.054720523533524766,1.3618532547509534,0.42036611037971705,0.28862675,0.582468820236421
0.0055,1.79924375,1.0,591.0320589529666,0.0600227939761905,1.3599341144255757,0.46428355036739255,0.2886212375,0.586885947935831
0.006,1.7991000000000001,1.0,682.7600904988772,0.0652953228706722,1.3581420165454314,0.50478091631704,0.2886152,0.5909894642371554
0.006500000000000001,1.79894375,1.0,774.1238278545286,0.07053827704392117,1.3564631131127645,0.5418930458713596,0.2886086375,0.5948152072383817
0.007,1.798775,1.0,864.5285452446609,0.0757518224022381,1.354886474339069,0.5757608519910364,0.28860155,0.5983915508009737
0.0075,1.79859375,1.0,953.482092710965,0.0809361238673689,1.3534031052415518,0.606586377648761,0.2885939375,0.6017418533342751
0.008,1.7984,1.0,1040.5945794902636,0.08609134553584416,1.3520051700784284,0.6346015149950657,0.2885858,0.6048863527999258
0.0085,1.79819375,1.0,1125.5498121453372,0.09121765044876444,1.3506859066608097,0.6600474918101478,0.2885771375,0.6078424581297381
0.009000000000000001,1.797975,1.0,1208.1103674847081,0.09631520088029266,1.349439163221323,0.6831616422175711,0.28856795,0.610625864818819
0.0095,1.79774375,1.0,1288.0845008035792,0.10138415782507686,1.3482595793202075,0.7041698093135905,0.2885582375,0.6132502085832658
0.01,1.7975,1.0,1365.366496424811,0.10642468241801609,1.3471418219377336,0.723281787598364,0.288548,0.6157288120591546
0.0105,1.79724375,1.0,1439.8568151655434,0.11143693356870876,1.3460814769112304,0.740689993370686,0.2885372375,0.6180727402389717
0.011,1.796975,1.0,1511.500856306969,0.11642106964752974,1.3450743715167655,0.7565687627851515,0.28852595000000003,0.6202923409512415
0.0115,1.79669375,1.0,1580.284752033531,0.12137724855032023,1.344116526987744,0.7710749025598235,0.2885141375,0.622397371983078
0.012,1.7964,1.0,1646.2258426087585,0.12630562773339982,1.343204188861059,0.7843487801720941,0.28850180000000003,0.6243969539165258
0.0125,1.79609375,1.0,1709.3339775712275,0.13120636247231232,1.3423341969359808,0.7965157960729038,0.2884889375,0.6262987806383837
0.013000000000000001,1.7957750000000001,1.0,1769.6458661467202,0.13607960768058416,1.3415035000722375,0.8076875678113217,0.28847555,0.6281102022908523
0.0135,1.79544375,1.0,1827.2128821554434,0.14092551753825516,1.3407092468813757,0.8179633720679217,0.2884616375,0.6298380391885389
0.014,1.7951000000000001,1.0,1882.1188091216015,0.1457442465093896,1.339948544656288,0.8274313883476258,0.2884472,0.6314891166647697
0.0145,1.79474375,1.0,1934.4179035451305,0.15053594618468386,1.3392191031692957,0.8361701740580102,0.2884322375,0.633068877694575
0.015,1.794375,1.0,1984.1766200955078,0.1553007677433029,1.3385187259646727,0.844249587097163,0.28841675,0.6345825005460932
0.0155,1.79399375,1.0,2031.474138346075,0.16003886213301524,1.3378452801848284,0.8517317926017512,0.2884007375,0.6360349702067436
0.016,1.7936,1.0,2076.4034119001913,0.1647503796695468,1.3371966651187266,0.8586721595612845,0.2883842,0.6374311512525809
0.0165,1.7931937500000001,1.0,2119.072236383456,0.16943547021354344,1.3365707841860874,0.8651200576717192,0.2883671375,0.638775852144012
0.017,1.7927757783488885,1.0,2159.5580946322752,0.17409428086284104,1.3359663436808864,0.8711198002101828,0.2883495826906533,0.6400721170717364
0.0175,1.7923551895530567,1.0,2198.3207260634636,0.17872695871527544,1.3353820498970979,0.8767110028188333,0.28833191796122837,0.641322961118688
0.018000000000000002,1.7919346007572248,1.0,2235.549818541355,0.1833336507301472,1.3348166176307072,0.8819291382711562,0.28831425323180343,0.6425313538212143
0.0185,1.7915140119613928,1.0,2271.3036225027795,0.1879145029939017,1.3342689970439885,0.8868060792445427,0.2882965885023785,0.6436997372933866
0.019,1.7910934231655609,1.0,2305.6302912020806,0.19246966099169405,1.333738292808552,0.8913704916626084,0.28827892377295355,0.6448302038049529
0.0195,1.7906728343697291,1.0,2338.5764868584706,0.19699926788963845,1.3332236701767441,0.8956481760245442,0.2882612590435286,0.6459246990878202
0.02,1.7902522455738972,1.0,2370.193056563602,0.2015034668538491,1.3327242944009112,0.8996623802684854,0.2882435943141037,0.6469851527915043
0.0205,1.7898316567780652,1.0,2400.5267982284136,0.20598239918589217,1.3322394077316622,0.9034341026645645,0.28822592958467874,0.6480133161674564
0.021,1.7894110679822333,1.0,2429.63980263507,0.21043620929977835,1.3317681381145487,0.9069823026134956,0.2882082648552538,0.6490111687882836
0.021500000000000002,1.7889904791864013,1.0,2457.586056762012,0.2148650393763106,1.3313097243008278,0.9103241694720571,0.28819060012582887,0.6499804419123388
0.022,1.7885698903905696,1.0,2484.405021035889,0.2192690275802732,1.330863571609977,0.9134753237150823,0.28817293539640393,0.6509225031297501
0.0225,1.7881493015947376,1.0,2510.1385401914904,0.22364831207645047,1.3304290853614735,0.9164499527530897,0.288155270666979,0.6518387102907527
0.023,1.7877287127989057,1.0,2534.8306855295714,0.2280030310296268,1.330005670874795,0.919260962250942,0.28813760593755405,0.6527304119594277
0.0235,1.7873081240030737,1.0,2558.527605015995,0.23233332260458647,1.3295927334694184,0.9219201096844506,0.2881199412081291,0.6535989478448881
0.024,1.786887535207242,1.0,2581.2772669931296,0.23663932492835404,1.3291896795325038,0.9244381225598084,0.2881022764787042,0.6544456469683912
0.0245,1.78646694641141,1.0,2603.113135361342,0.2409211713815965,1.3287960671929169,0.9268248271164949,0.28808461174927924,0.655271512112471
0.025,1.786046357615578,1.0,2624.0937329066637,0.2451790040837606,1.3284112353448072,0.92908918063179,0.28806694701985425,0.6560779990411277
0.025500000000000002,1.785625768819746,1.0,2644.249384628949,0.24941295527436774,1.3280347988224315,0.9312394320871322,0.28804928229042936,0.6568659781936446
0.026000000000000002,1.7852051800239142,1.0,2663.611536038426,0.2536231571929394,1.3276663724600466,0.933283149519758,0.28803161756100437,0.657636314919879
0.0265,1.7847845912280824,1.0,2682.21268310743,0.2578097420789969,1.3273055710919097,0.9352272854459093,0.2880139528315795,0.6583898696817565
0.027,1.7843640024322505,1.0,2700.0863055099153,0.26197284217206174,1.326952009552277,0.9370782352009336,0.2879962881021545,0.6591274982453053
0.0275,1.7839434136364185,1.0,2717.26680315153,0.2661125897116554,1.3266053026754059,0.9388418890392234,0.28797862337272956,0.6598500518632223
0.028,1.7835228248405866,1.0,2733.7894359875986,0.2702291169372992,1.326265065295553,0.9405236787289636,0.2879609586433046,0.6605583774479864
0.0285,1.7831022360447548,1.0,2749.676337021309,0.2743225498596414,1.3259310384008467,0.9421286349460176,0.2879432939138797,0.6612530555068425
0.029,1.7826816472489229,1.0,2764.9725053162565,0.27839302678144384,1.325602761844417,0.9436613841211638,0.28792562918445475,0.6619350812477292
0.029500000000000002,1.782261058453091,1.0,2779.699808453603,0.2824406739663569,1.325279991003818,0.9451262327877565,0.2879079644550298,0.6626049982543243
0.03,1.781840469657259,1.0,2793.8801114697217,0.28646561743121557,1.3249624857347155,0.9465271710474554,0.28789029972560487,0.6632633382178406
0.0305,1.781419880861427,1.0,2807.5357412302296,0.2904679831928551,1.3246500058927755,0.9478678993796061,0.28787263499617993,0.6639106303374389
0.031,1.7809992920655953,1.0,2820.6894590335514,0.2944478972681106,1.3243423113336639,0.949151853322826,0.287854970266755,0.6645474013990327
0.0315,1.7805787032697633,1.0,2833.3644344927334,0.2984054856738173,1.3240391619130472,0.9503822257632983,0.28783730553733006,0.6651741758504146
0.032,1.7801581144739314,1.0,2845.5842206965713,0.30234087442681024,1.3237403174865907,0.951561987087782,0.2878196408079051,0.6657914758727087
0.0325,1.7797375256780994,1.0,2857.372129253513,0.306254189064092,1.3234455432526981,0.9526939039240541,0.2878019760784802,0.6663998104271907
0.033,1.7793169368822677,1.0,2868.7413147250954,0.31014554781967973,1.3231546974160775,0.9537805639080976,0.28778431134905524,0.6669994947000109
0.0335,1.7788963480864357,1.0,2879.7244540626334,0.3140150855863113,1.3228674674739649,0.9548243664014324,0.2877666466196303,0.6675911940272584
0.034,1.7784757592906038,1.0,2890.3353983329516,0.31786292173229,1.3225837104102638,0.9558275669011095,0.28774898189020537,0.6681752225062088
0.0345,1.7780551704947718,1.0,2900.5882000620195,0.32168917562591903,1.3223032832088768,0.9567922735965572,0.28773131716078043,0.6687518929616664
0.035,1.7776345816989398,1.0,2910.4971024495667,0.3254939666355015,1.322026042853707,0.9577204587217523,0.2877136524313555,0.669321516976985
0.035500000000000004,1.777213992903108,1.0,2920.0765290371924,0.32927741412934064,1.3217518463286573,0.9586139689067132,0.28769598770193056,0.6698844049237886
0.036000000000000004,1.7767934041072762,1.0,2929.3410738299935,0.33303963747573967,1.321480550617631,0.959474534626941,0.2876783229725056,0.6704408659903851
0.0365,1.7763728153114442,1.0,2938.305491871747,0.33678075604300167,1.3212120127045308,0.9603037788387686,0.2876606582430806,0.6709912082088787
0.037,1.7759522265156122,1.0,2946.9846902736845,0.3405008891994299,1.3209460895732599,0.9611032248791295,0.28764299351365574,0.6715357384809728
0.0375,1.7755316377197805,1.0,2955.393719695968,0.34420015631332757,1.320682638207721,0.9618743036999388,0.28762532878423075,0.6720747626024742
0.038,1.7751110489239486,1.0,2963.5379491743556,0.34787866452282284,1.3204216012296008,0.9626183661327824,0.28760766405480587,0.6726084102852636
0.0385,1.7746904601281166,1.0,2971.4406218717686,0.3515365470162696,1.3201627662043394,0.9633366737557006,0.2875899993253809,0.6731371273481682
0.039,1.7742698713322846,1.0,2979.110865742456,0.3551739171968027,1.3199060449353222,0.9640304217886201,0.28757233459595594,0.6736611046359683
0.0395,1.773849282536453,1.0,2986.557001929734,0.3587908872606837,1.3196513569562884,0.9647007367600898,0.287554669866531,0.6741805165688887
0.04,1.773428693740621,1.0,2993.7874260189596,0.3623875694041741,1.3193986218009772,0.965348680758703,0.28753700513710606,0.674695536963126
0.0405,1.773008104944789,1.0,3000.8106044818733,0.36596407582353535,1.319147759003128,0.9659752558043081,0.2875193404076811,0.6752063390410759
0.041,1.772587516148957,1.0,3007.635071264387,0.36952051871502894,1.31889868809648,0.9665814078783754,0.2875016756782562,0.6757130954411481
0.0415,1.772166927353125,1.0,3014.2694245178673,0.3730570102749164,1.318651328614772,0.967168030643388,0.28748401094883125,0.6762159782271702
0.042,1.7717463385572934,1.0,3020.7223234741423,0.3765736626994592,1.3184056000917437,0.967735968878239,0.2874663462194063,0.6767151588973743
0.0425,1.7713257497614614,1.0,3027.0024854640683,0.38007058818491873,1.318161422061134,0.9682860216540248,0.2874486814899814,0.6772108083929751
0.043000000000000003,1.7709051609656294,1.0,3033.1186830794077,0.3835478989275566,1.3179187140566822,0.9688189452723102,0.28743101676055643,0.6777030971063316
0.043500000000000004,1.7704845721697975,1.0,3039.076918707565,0.3870057002596093,1.317677419928125,0.9693354568514787,0.2874133520311315,0.6781921456243934
0.044,1.7700639833739658,1.0,3044.883312132883,0.3904441005250314,1.3174374828524669,0.9698362363625624,0.28739568730170656,0.6786780755111282
0.0445,1.7696433945781338,1.0,3050.5504179944905,0.39386322459146106,1.3171987910046339,0.9703219267360657,0.2873780225722816,0.6791611192130058
0.045,1.7692228057823018,1.0,3056.0827502249576,0.3972631768710432,1.316961302140468,0.9707931401788654,0.2873603578428567,0.6796413678106472
0.0455,1.7688022169864699,1.0,3061.4848504247184,0.4006440617759229,1.3167249740158116,0.9712504578312937,0.28734269311343175,0.6801189121003939
0.046,1.768381628190638,1.0,3066.7612867551165,0.4040059837182453,1.3164897643865066,0.9716944316435095,0.2873250283840068,0.6805938425974922
0.0465,1.7679610393948062,1.0,3071.916652870954,0.4073490471101555,1.3162556310083953,0.9721255861211563,0.28730736365458187,0.6810662495391637
0.047,1.7675404505989742,1.0,3076.955566892808,0.41067335636379854,1.3160225316373197,0.9725444199505816,0.28728969892515693,0.6815362228875614
0.0475,1.7671198618031423,1.0,3081.882670418749,0.4139790158913195,1.3157904240291223,0.9729514075129848,0.287272034195732,0.6820038523326122
0.048,1.7666992730073103,1.0,3086.702627575409,0.4172661301048636,1.315559265939645,0.9733470002960672,0.287254369466307,0.6824692272947464
0.0485,1.7662786842114786,1.0,3091.4201241095625,0.42053480341657573,1.3153290151247297,0.9737316282110106,0.2872367047368821,0.6829324369275128
0.049,1.7658580954156466,1.0,3096.0398665173157,0.42378514023860103,1.315099629340219,0.9741057008219532,0.2872190400074571,0.6833935701200784
0.0495,1.7654375066198147,1.0,3100.5665812157295,0.4270172449830847,1.314871066341955,0.9744696084945335,0.28720137527803224,0.6838527154996181
0.05,1.7650169178239827,1.0,3105.0050137507933,0.4302312220621717,1.3146432838857798,0.9748237234695117,0.28718371054860725,0.6843099614335861
0.0505,1.7645963290281508,1.0,3109.3539552924144,0.43342714691013023,1.3144162905934471,0.975168400914027,0.2871660458191823,0.6847652940352584
0.051000000000000004,1.764175740232319,1.0,3113.622655911288,0.43660515232913744,1.3141900060871865,0.9755039805106706,0.2871483810897574,0.6852188777899673
0.051500000000000004,1.763755151436487,1.0,3117.8157803809772,0.43976534667583034,1.3139643892370825,0.9758307863589984,0.28713071636033244,0.6856707981217659
0.052000000000000005,1.7633345626406551,1.0,3121.9355090966615,0.44290782552443697,1.3137394201651778,0.9761491280239188,0.2871130516309075,0.6861210976862822
0.0525,1.7629139738448232,1.0,3125.9840314770236,0.4460326844491853,1.313515078993516,0.9764593013744045,0.28709538690148256,0.686569819016867
0.053,1.7624933850489914,1.0,3129.9635456834876,0.4491400190243036,1.3132913458441402,0.9767615893074338,0.2870777221720576,0.687017004525406
0.0535,1.7620727962531595,1.0,3133.8762583476587,0.45222992482401975,1.3130682008390941,0.9770562624276634,0.2870600574426327,0.6874626965031014
0.054,1.7616522074573275,1.0,3137.7243843078386,0.45530249742256185,1.3128456241004207,0.9773435796858918,0.28704239271320775,0.6879069371212317
0.0545,1.7612316186614956,1.0,3141.5101463541264,0.4583578323941579,1.3126235957501635,0.9776237889791426,0.2870247279837828,0.6883497684318824
0.055,1.7608110298656636,1.0,3145.2357749824537,0.46139602531303603,1.3124020959103657,0.9778971277149769,0.2870070632543579,0.6887912323686565
0.0555,1.760390441069832,1.0,3148.9035081570696,0.4644171717534243,1.3121811047030707,0.9781638233424509,0.28698939852493294,0.6892313707473547
0.056,1.759969852274,1.0,3152.515591082271,0.46742136728955064,1.3119606022503219,0.978424093851947,0.286971733795508,0.6896702252666342
0.0565,1.759549263478168,1.0,3156.074275982443,0.47040870749564323,1.3117405686741623,0.9786781482459496,0.28695406906608306,0.6901078375086412
0.057,1.759128674682336,1.0,3159.5818218910676,0.47337928794593004,1.3115209840966355,0.9789261869826751,0.2869364043366581,0.6905442489396165
0.0575,1.7587080858865043,1.0,3163.040494448388,0.4763332042146392,1.3113018286397846,0.9791684023943301,0.2869187396072332,0.6909795009104789
0.058,1.7582874970906723,1.0,3166.4525657080812,0.4792705518759987,1.3110830824256532,0.9794049790816414,0.28690107487780825,0.6914136346573797
0.0585,1.7578669082948404,1.0,3169.8203139523375,0.48219142650423663,1.3108647255762842,0.9796360942861853,0.2868834101483833,0.691846691302237
0.059000000000000004,1.7574463194990084,1.0,3173.1434306250653,0.48509589566775635,1.3106467600725396,0.9798619171213279,0.2868657454189584,0.6922786685473025
0.059500000000000004,1.7570257307031767,1.0,3176.424629607539,0.48798406889150187,1.3104291624328213,0.9800826121461985,0.28684808068953344,0.6927096145129372
0.06,1.7566051419073447,1.0,3179.667272489895,0.4908560602668699,1.310211903777174,0.9802983375686374,0.2868304159601085,0.6931395878665221
0.0605,1.7561845531115128,1.0,3182.872330087317,0.49371195600821893,1.309994975415443,0.9805092443333989,0.2868127512306835,0.6935686071976368
0.061,1.7557639643156808,1.0,3186.0407760335256,0.4965518423299071,1.3097783686574729,0.9807154776255934,0.2867950865012586,0.6939966910456468
0.0615,1.7553433755198489,1.0,3189.173586717197,0.4993758054462929,1.3095620748131087,0.980917177134305,0.28677742177183363,0.6944238578998829
0.062,1.7549227867240171,1.0,3192.2717412218285,0.5021839315717345,1.3093460851921952,0.9811144773022137,0.28675975704240875,0.6948501261998186
0.0625,1.7545021979281852,1.0,3195.3362212653265,0.5049763069205903,1.3091303911045777,0.9813075075620631,0.28674209231298375,0.6952755143352385
0.063,1.7540816091323532,1.0,3198.3680111431154,0.5077530177072185,1.3089149838601009,0.9814963925607639,0.2867244275835588,0.6957000406464082
0.0635,1.7536610203365213,1.0,3201.3680976713244,0.5105141501459776,1.3086998547686095,0.9816812523718647,0.2867067628541339,0.6961237234242328
0.064,1.7532404315406895,1.0,3204.3374701327125,0.5132597904512257,1.3084849951399489,0.9818622026970734,0.28668909812470894,0.6965465809104137
0.0645,1.7528198427448576,1.0,3207.2771202239105,0.5159900248373214,1.3082703962839637,0.9820393550574744,0.286671433395284,0.696968631297602
0.065,1.7523992539490256,1.0,3210.1880420041657,0.5187049395186227,1.308056049510499,0.9822128169750357,0.28665376866585907,0.6973898927295441
0.0655,1.7519786651531937,1.0,3213.0712318461437,0.5214046207094881,1.3078419461293993,0.982382692144966,0.28663610393643413,0.6978103833012246
0.066,1.7515580763573617,1.0,3215.927688388024,0.5240891546242759,1.30762807745051,0.982549080599447,0.2866184392070092,0.6982301210590021
0.0665,1.75113748756153,1.0,3218.75841248747,0.5267586274773444,1.307414434783676,0.9827120788632322,0.28660077447758425,0.698649124000743
0.067,1.750716898765698,1.0,3221.5644071774677,0.5294131254830519,1.3072010094387418,0.982871780101566,0.2865831097481593,0.6990674100759504
0.0675,1.750296309969866,1.0,3224.3466776231808,0.5320527348557567,1.3069877927255529,0.9830282742608604,0.2865654450187344,0.6994849971858832
0.068,1.7498757211740341,1.0,3227.106231081311,0.5346775418098171,1.3067747759539539,0.9831816482025247,0.28654778028930944,0.699901903183678
0.0685,1.7494551323782024,1.0,3229.8427019630326,0.5372875962635796,1.3065619619223867,0.9833319841275928,0.2865301155598845,0.7003181234129372
0.069,1.7490345435823704,1.0,3232.556909607698,0.5398829897276234,1.3063493435297513,0.9834793635660503,0.28651245083045956,0.7007336725729925
0.0695,1.7486139547865385,1.0,3235.251136341552,0.5424638509431743,1.306136901474599,0.9836238669812615,0.2864947861010346,0.7011485891439149
