Time [s],Phi [rad],STIM [ ],Fsee [N],Gamma [ ],Lcerel [ ],q [ ],Lmtc [m],fisomrel [ ]
0.0,1.8,1.0,18.401070684408037,0.0006709222799707229,1.3792914235181193,0.005116025078481983,0.288653,0.5412564287168324
0.0005,1.79999375,1.0,18.913564304858905,0.006276368245398576,1.379232255146257,0.014876757860151621,0.2886527375,0.5413995429103451
0.001,1.799975,1.0,22.745921382026914,0.011850372090863976,1.3788246041963577,0.039135379388653135,0.28865195,0.5423849466054623
0.0015,1.79994375,1.0,33.28936689752565,0.017393110182628985,1.3778603196123977,0.0753749388893157,0.2886506375,0.5447116672908694
0.002,1.7999,1.0,57.96069321723513,0.02290475789596854,1.376089666571575,0.12033581470870341,0.2886488,0.5489686310525561
0.0025,1.79984375,1.0,104.1439844005199,0.028385489622824382,1.3736025568183177,0.17066419766963922,0.28864643749999996,0.5549143161314277
0.003,1.7997750000000001,1.0,169.8785565393958,0.03383547877986901,1.3708849473727236,0.22354803788095592,0.28864354999999997,0.5613659305240181
0.0035,1.79969375,1.0,247.64214629492255,0.03925489780674482,1.3682811240412425,0.27683652730020764,0.2886401375,0.567503232381757
0.004,1.7996,1.0,331.99364241585783,0.04464391817787935,1.3658795217222932,0.32893472340809293,0.2886362,0.5731255598988074
0.0045000000000000005,1.7994937500000001,1.0,420.12524827093876,0.050002710406167356,1.3636696156048176,0.3787429667497919,0.2886317375,0.5782666157074114
0.005,1.799375,1.0,510.4511905633367,0.05533144401442267,1.3616250742654032,0.42558483564502364,0.28862675,0.5829952348933087
0.0055,1.79924375,1.0,601.9116015357052,0.06063028771845857,1.3597225670895179,0.4691129055820142,0.2886212375,0.587371411755508
0.006,1.7991000000000001,1.0,693.6272278407733,0.06589940904461168,1.3579452956082791,0.5092176977427167,0.2886152,0.5914386650251966
0.006500000000000001,1.79894375,1.0,784.905830245396,0.07113897475725826,1.3562797224552094,0.5459489560766815,0.2886086375,0.5952320132883895
0.007,1.798775,1.0,875.1693387397247,0.07634915069187914,1.3547151411477905,0.5794565744059048,0.28860155,0.5987792367362982
0.0075,1.79859375,1.0,963.9253305943116,0.08153010152029887,1.353242934954138,0.6099475151011085,0.2885939375,0.6021027707429423
0.008,1.7984,1.0,1050.8136837736702,0.08668199155975509,1.3518550989689642,0.6376554389717602,0.2885858,0.6052231802600141
0.0085,1.79819375,1.0,1135.514542117998,0.09180498344703872,1.3505451682952405,0.6628218091492798,0.2885771375,0.6081571587527472
0.009000000000000001,1.797975,1.0,1217.789253299209,0.09689923921836346,1.3493071880625598,0.6856830122767448,0.28856795,0.6109199246423072
0.0095,1.79774375,1.0,1297.480357151516,0.10196492053448047,1.3481354821887133,0.7064630322581399,0.2885582375,0.6135257845702555
0.01,1.7975,1.0,1374.4544565995473,0.1070021873545928,1.3470252193209125,0.7253699436262466,0.288548,0.6159869169492111
0.0105,1.79724375,1.0,1448.6242022293036,0.11201119890525224,1.3459719203738914,0.7425940295391746,0.2885372375,0.6183145099260261
0.011,1.796975,1.0,1519.9530635147842,0.1169921137220335,1.3449712741797388,0.7583074940482721,0.28852595000000003,0.6205191963992585
0.0115,1.79669375,1.0,1588.436631084556,0.12194509011785722,1.3440192705327736,0.7726651778633672,0.2885141375,0.622610782851079
0.012,1.7964,1.0,1654.0603502342997,0.1268702839691364,1.3431126008583771,0.7858058324925381,0.28850180000000003,0.6245973951919642
0.0125,1.79609375,1.0,1716.8498012360294,0.13176785112154515,1.3422479638571954,0.7978531300220131,0.2884889375,0.6264870256237369
0.013000000000000001,1.7957750000000001,1.0,1776.8456385217337,0.1366379463713204,1.3414223064524042,0.8089171886932066,0.28847555,0.6282870174002569
0.0135,1.79544375,1.0,1834.1318157699827,0.14148072534894068,1.3406324539184078,0.8190958239117961,0.2884616375,0.6300048830915937
0.014,1.7951000000000001,1.0,1888.7494626516605,0.146296340144946,1.3398760279285824,0.8284762252853246,0.2884472,0.6316463190034741
0.0145,1.79474375,1.0,1940.7576172246822,0.1510849425889596,1.3391507078350235,0.8371358756175606,0.2884322375,0.6332168283641662
0.015,1.794375,1.0,1990.2363079344045,0.1558466845106048,1.3384541729898267,0.8451436521080428,0.28841675,0.6347218519954478
0.0155,1.79399375,1.0,2037.2649612575885,0.1605817164967633,1.3377843106546148,0.8525609018431909,0.2884007375,0.636166324858376
0.016,1.7936,1.0,2081.9481776873968,0.1652901898615099,1.3371389186973721,0.8594422360878354,0.2883842,0.6375553236593328
0.0165,1.7931937500000001,1.0,2124.3533887006524,0.1699722524355676,1.3365163373239013,0.8658365169748841,0.2883671375,0.6388927127363083
0.017,1.792775,1.0,2164.555882374558,0.174628051775927,1.3359149496976175,0.8717873865013362,0.28834955,0.640182227581783
0.0175,1.7923437500000001,1.0,2202.641847867001,0.17925773543957874,1.335333138981937,0.8773338707572557,0.2883314375,0.6414275698358449
0.018000000000000002,1.7919,1.0,2238.6933333069396,0.18386144967811846,1.3347694299473354,0.882510959364835,0.2883128,0.6426321070559187
0.0185,1.79144375,1.0,2272.810432345437,0.18843934207753593,1.334222253916405,0.8873500155826938,0.2882936375,0.6437993781474429
0.019,1.790975,1.0,2305.0648359334004,0.19299155648553779,1.3336904040262068,0.8918793070860491,0.28827395,0.6449321245562083
0.0195,1.79049375,1.0,2335.5275886894874,0.19751823603519297,1.3331727433165128,0.8961242876372444,0.2882537375,0.6460329180833835
0.02,1.79,1.0,2364.2754830062245,0.2020195238595706,1.332668134827096,0.9001078995220712,0.288233,0.6471043114498123
0.0205,1.78949375,1.0,2391.3882097321343,0.20649556267033603,1.3321754645511552,0.9038508600962734,0.2882117375,0.6481487906576028
0.021,1.788975,1.0,2416.9404510488266,0.21094649415935887,1.3316937127911612,0.9073719234365488,0.28818995000000003,0.6491686253023427
0.021500000000000002,1.78844375,1.0,2441.012776080341,0.21537246133560606,1.3312218430591272,0.9106880723917432,0.2881676375,0.6501661054863359
0.022,1.7879,1.0,2463.66338163484,0.21977360254520223,1.3307590693599345,0.913814761145695,0.2881448,0.651142978431601
0.0225,1.78734375,1.0,2484.953476743225,0.2241500561342721,1.3303046056984644,0.9167660293401269,0.28812143749999997,0.6521009804030037
0.023,1.786775,1.0,2504.947032617207,0.22850196044894033,1.3298576660795982,0.9195546511286561,0.28809755,0.6530418371445162
0.0235,1.78619375,1.0,2523.710546305008,0.23282945383533163,1.3294174645082175,0.9221922667625555,0.28807313749999996,0.6539672642760754
0.024,1.7856,1.0,2541.301211411669,0.23713267155855175,1.3289833243256746,0.9246895171426521,0.2880482,0.6548787382513649
0.0245,1.78499375,1.0,2557.7867296287964,0.2414117543411759,1.3285544884566842,0.9270561153603832,0.2880227375,0.6557778957747658
0.025,1.784375,1.0,2573.215487247677,0.2456668363679609,1.3281303982151524,0.9293009813616099,0.28799675,0.656665949512645
0.025500000000000002,1.78374375,1.0,2587.633669591055,0.24989805062900433,1.3277105291040654,0.9314322942670574,0.2879702375,0.6575440341656043
0.026000000000000002,1.7831000000000001,1.0,2601.088759991641,0.25410553011440373,1.3272943566264097,0.933457559225717,0.2879432,0.6584132784454864
0.0265,1.78244375,1.0,2613.6294281075916,0.25828940781425663,1.3268813562851718,0.9353836720458935,0.2879156375,0.6592748052078017
0.027,1.781775,1.0,2625.3054243377496,0.26244981671866063,1.3264710035833376,0.9372169768401266,0.28788755,0.6601297315666084
0.0275,1.7810937500000001,1.0,2636.1590707503933,0.26658688749570286,1.3260628518053021,0.9389633282676703,0.2878589375,0.6609790072467907
0.028,1.7804,1.0,2646.2333320629937,0.2707007524635458,1.3256564559056567,0.9406281267343874,0.2878298,0.6618235737467062
0.0285,1.77969375,1.0,2655.582095269787,0.27479154593787514,1.325251277069243,0.9422163460232963,0.2878001375,0.6626645623878396
0.029,1.778975,1.0,2664.236295670788,0.2788593948526718,1.3248469944717547,0.943732612011035,0.28776995,0.66350264726616
0.029500000000000002,1.7782437500000001,1.0,2672.2273894424993,0.2829044261419169,1.324443287288885,0.9451812056615992,0.2877392375,0.6643384991491775
0.03,1.7775,1.0,2679.587308248798,0.28692676673959133,1.3240398346963278,0.9465660931542476,0.287708,0.6651727854909967
0.0305,1.77674375,1.0,2686.348416134285,0.2909265435796762,1.3236363158697761,0.9478909530221932,0.2876762375,0.6660061704408116
0.031,1.775975,1.0,2692.5434686992935,0.29490388359615244,1.3232324099849242,0.949159200631133,0.28764395,0.6668393148448275
0.0315,1.7751937500000001,1.0,2698.205574557225,0.29885891372300105,1.3228277962174648,0.9503740102872018,0.2876111375,0.6676728762416295
0.032,1.7744,1.0,2703.360353679303,0.3027917576070281,1.32242222503331,0.9515383429175314,0.2875778,0.6685073622594695
0.0325,1.77359375,1.0,2708.04021458107,0.3067025428428398,1.3220153872827178,0.952654949921104,0.2875439375,0.6693434003608458
0.033,1.772775,1.0,2712.2760851762832,0.31059139506638067,1.32160698960432,0.9537263973192514,0.28750955,0.6701815823904552
0.0335,1.7719437500000002,1.0,2716.088767025978,0.31445843505863935,1.3211968328860277,0.9547550887327678,0.2874746375,0.671022304030565
0.034,1.7711000000000001,1.0,2719.4992270293587,0.3183037836006046,1.3207847180157526,0.955743268786761,0.2874392,0.6718659588251088
0.0345,1.7702437500000001,1.0,2722.528580707735,0.32212756147326516,1.320370445881406,0.956693035502241,0.2874032375,0.6727129381560877
0.035,1.7693750000000001,1.0,2725.198076366933,0.32592988945760987,1.3199538173708998,0.9576063515836409,0.28736675,0.6735636312174391
0.035500000000000004,1.76849375,1.0,2727.5290801395686,0.3297108883346274,1.319534633372145,0.9584850547121777,0.2873297375,0.6744184249863805
0.036000000000000004,1.7676,1.0,2729.5430619052954,0.33347067888530657,1.319112694773053,0.9593308669429523,0.2872922,0.6752777041922206
0.0365,1.76669375,1.0,2731.2486141777904,0.3372093749417548,1.318687920297089,0.9601454136651821,0.2872541375,0.6761416117879984
0.037,1.765775,1.0,2732.6755728415214,0.34092710325200404,1.3182600362730557,0.9609302040806242,0.28721555,0.6770106802024021
0.0375,1.76484375,1.0,2733.84461652072,0.34462398310869247,1.3178288529032056,0.9616866624322291,0.2871764375,0.6778852686933434
0.038,1.7639,1.0,2734.7679556637754,0.3483001287404326,1.317394257801419,0.9624161339343174,0.28713679999999997,0.6787655775340764
0.0385,1.76294375,1.0,2735.4578433969523,0.35195565437583676,1.316956138581577,0.9631198840438825,0.28709663750000003,0.6796518055339803
0.039,1.761975,1.0,2735.926570098633,0.3555906742435175,1.3165143828575596,0.9637991040533541,0.28705595,0.6805441500137059
0.0395,1.7609937500000001,1.0,2736.1864582550384,0.35920530257208716,1.3160688782432477,0.9644549162331277,0.2870147375,0.6814428067795124
0.04,1.76,1.0,2736.2498575943155,0.3627996535901582,1.3156195123525218,0.9650883785645372,0.286973,0.6823479700967995
0.0405,1.7589937500000001,1.0,2736.129140502112,0.36637384152634306,1.3151661727992627,0.9657004890998905,0.2869307375,0.6832598326628356
0.041,1.757975,1.0,2735.8366977161695,0.3699279806092542,1.3147087471973506,0.9662921899825773,0.28688795,0.68417858557868
0.0415,1.75694375,1.0,2735.384934185525,0.37346218502372186,1.3142471231617192,0.966864371149637,0.2868446375,0.6851044183181865
0.042,1.7559,1.0,2734.7869616788976,0.37697655917479495,1.313781181984888,0.9674178716083301,0.28680079999999997,0.6860375313525722
0.0425,1.75484375,1.0,2734.052605213109,0.38047122721166077,1.313310834871073,0.9679534906300565,0.2867564375,0.6869780636236967
0.043000000000000003,1.753775,1.0,2733.189273678098,0.3839462967223474,1.3128360150210057,0.9684719836862822,0.28671155,0.687926108755667
0.043500000000000004,1.75269375,1.0,2732.2043808189314,0.3874018752948831,1.3123566556354176,0.9689740661713966,0.28666613750000003,0.6888817591844936
0.044,1.7516,1.0,2731.1053435480762,0.3908380705172959,1.3118726899150401,0.9694604159246173,0.2866202,0.6898451061388942
0.0445,1.75049375,1.0,2729.8995803581747,0.394254989977614,1.3113840510606043,0.9699316755690662,0.2865737375,0.6908162396208131
0.045,1.7493750000000001,1.0,2728.594509832344,0.3976527412638655,1.3108906722728415,0.9703884546829544,0.28652675,0.6917952483856527
0.0455,1.74824375,1.0,2727.197549254161,0.40103143196407864,1.3103924867524834,0.970831331816441,0.2864792375,0.6927822199222239
0.046,1.7471,1.0,2725.716113316812,0.4043911696662814,1.309889427700261,0.9712608563665346,0.2864312,0.693777240432413
0.0465,1.7459437500000001,1.0,2724.157612930481,0.4077320619585021,1.3093814283169056,0.971677550321292,0.28638263750000004,0.6947803948105593
0.047,1.744775,1.0,2722.518789076124,0.41105418211583283,1.3088685188685634,0.9720819123939307,0.28633355,0.6957915754207268
0.0475,1.74359375,1.0,2720.803294838975,0.41435763214418103,1.3083506667608833,0.9724744162489966,0.28628393750000003,0.6968107981763989
0.048,1.7424,1.0,2719.0363883341415,0.4176425842269303,1.307827642629791,0.9728555075932088,0.2862338,0.6978384643908982
0.0485,1.74119375,1.0,2717.2206992765905,0.42090913578465516,1.3072994229794845,0.9732256155928505,0.2861831375,0.6988745683561093
0.049,1.739975,1.0,2715.358855327816,0.4241573842379304,1.3067659843141612,0.9735851490551057,0.28613195,0.69991910353241
0.0495,1.73874375,1.0,2713.4534818678517,0.4273874270073307,1.306227303138019,0.9739344975763002,0.2860802375,0.7009720625408669
0.05,1.7375,1.0,2711.5072017794655,0.4305993615134306,1.3056833559552552,0.9742740326153495,0.286028,0.7020334371553978
0.0505,1.73624375,1.0,2709.5226352443547,0.4337932851768049,1.3051341192700678,0.9746041084979123,0.2859752375,0.703103218294898
0.051000000000000004,1.734975,1.0,2707.502399552049,0.4369692954180281,1.3045795695866544,0.9749250633562978,0.28592195,0.7041813960153327
0.051500000000000004,1.73369375,1.0,2705.449108920327,0.44012748965767495,1.3040196834092124,0.9752372200097762,0.2858681375,0.705267959501793
0.052000000000000005,1.7324,1.0,2703.3653743286272,0.4432679653163201,1.3034544372419397,0.9755408867895582,0.2858138,0.7063628970605157
0.0525,1.73109375,1.0,2701.253803363274,0.44639081981453826,1.3028838075890339,0.9758363583123709,0.28575893750000003,0.7074661961108708
0.053,1.729775,1.0,2699.1170000750403,0.44949615057290404,1.3023077709546926,0.9761239162062597,0.28570355000000003,0.7085778431773122
0.0535,1.72844375,1.0,2696.957564848921,0.4525840550119921,1.3017263038431135,0.976403829791939,0.2856476375,0.709697823881292
0.054,1.7271,1.0,2694.7780942863005,0.4556546305523771,1.3011393827584943,0.9766763567227805,0.2855912,0.7108261229331412
0.0545,1.7257437500000001,1.0,2692.581181099014,0.45870797461463375,1.3005469842050326,0.9769417435862754,0.2855342375,0.7119627241239155
0.055,1.724375,1.0,2690.3694140160965,0.46174418461933664,1.299949084686926,0.9772002264695903,0.28547675,0.7131076103172045
0.0555,1.72299375,1.0,2688.145377702411,0.4647633579870605,1.2993456607083722,0.9774520314916468,0.2854187375,0.7142607634409059
0.056,1.7216,1.0,2685.9116526896582,0.46776559213837987,1.2987366887735687,0.977697375303967,0.2853602,0.7154221644789667
0.0565,1.72019375,1.0,2683.670815319645,0.4707509844938695,1.2981221453867136,0.977936465562354,0.28530113749999997,0.7165917934630843
0.057,1.718775,1.0,2681.4254376999324,0.4737196324741041,1.297502007052004,0.9781695013713375,0.28524155,0.7177696294643794
0.0575,1.71734375,1.0,2679.1780876711355,0.4766716334996582,1.296876250273638,0.9783966737031594,0.2851814375,0.7189556505850264
0.058,1.7159,1.0,2676.931328787305,0.47960708499110655,1.296244851555813,0.9786181657929532,0.2851208,0.7201498339498544
0.0585,1.71444375,1.0,2674.686961635996,0.4825260588205399,1.29560779436907,0.9788341517147611,0.2850596375,0.7213521425645842
0.059000000000000004,1.7129750000000001,1.0,2672.4446685180624,0.4854286702552249,1.2949650816150846,0.9790448033786032,0.28499795,0.722562502001934
0.059500000000000004,1.71149375,1.0,2670.204993795676,0.4883150092702992,1.2943167082780735,0.9792502833338258,0.2849357375,0.723780852131248
0.06,1.71,1.0,2667.9685070515793,0.4911851639169831,1.293662669101976,0.9794507475963187,0.284873,0.7250071325762226
0.0605,1.7084937500000001,1.0,2665.735776912637,0.494039222246497,1.2930029588307315,0.9796463461250864,0.2848097375,0.7262412822590456
0.061,1.7069750000000001,1.0,2663.5073710526126,0.4968772723100611,1.2923375722082795,0.9798372231021171,0.28474595,0.727483239398498
0.0615,1.7054437500000001,1.0,2661.2838561953076,0.49969940215889586,1.29166650397856,0.9800235171972517,0.2846816375,0.7287329415080506
0.062,1.7039,1.0,2659.065798118953,0.5025056998442214,1.2909897488855118,0.9802053618189549,0.2846168,0.729990325393963
0.0625,1.70234375,1.0,2656.853761660178,0.5052962534172584,1.2903073016730748,0.980382885351845,0.2845514375,0.7312553271533748
0.063,1.7007750000000001,1.0,2654.6483107196677,0.5080711509292267,1.2896191570851885,0.9805562113817722,0.28448555,0.732527882172401
0.0635,1.69919375,1.0,2652.4500082676755,0.5108304804313469,1.2889253098657922,0.9807254589091854,0.28441913750000003,0.7338079251242218
0.064,1.6976,1.0,2650.2594163504527,0.5135743299748394,1.2882257547588256,0.9808907425514808,0.2843522,0.7350953899671726
0.0645,1.69599375,1.0,2648.07709609728,0.5163027876109243,1.2875204865082281,0.9810521727349741,0.2842847375,0.736390209942831
0.065,1.694375,1.0,2645.9036077282153,0.5190159413908221,1.2868094998579394,0.9812098558771044,0.28421675,0.737692317574103
0.0655,1.69274375,1.0,2643.739510561965,0.5217138793657529,1.2860927895518988,0.9813638945594276,0.2841482375,0.7390016446633068
0.066,1.6911,1.0,2641.589162911318,0.5243966225823773,1.2853703152244778,0.9815143813494555,0.2840792,0.7403181861883998
0.0665,1.6894437500000001,1.0,2639.4507342927914,0.5270643443240695,1.2846420936503569,0.9816614187304153,0.2840096375,0.7416418320227726
0.067,1.687775,1.0,2637.324182188146,0.5297171237349961,1.283908125098619,0.9818050983602055,0.28393955,0.7429725016039123
0.0675,1.68609375,1.0,2635.2094671929917,0.5323550398773172,1.2831684098106166,0.9819455086883403,0.2838689375,0.7443101137924958
0.068,1.6844000000000001,1.0,2633.1065500134728,0.534978171813193,1.2824229480277025,0.9820827350956941,0.2837978,0.7456545868218802
0.0685,1.68269375,1.0,2631.0153914656626,0.5375865986047831,1.2816717399912294,0.9822168600207528,0.2837261375,0.7470058382981928
0.069,1.680975,1.0,2628.935952475279,0.5401803993142479,1.28091478594255,0.9823479630798191,0.28365395,0.7483637852004187
0.0695,1.67924375,1.0,2626.8681940769497,0.5427596530037473,1.280152086123017,0.9824761211814999,0.28358123749999997,0.7497283438804903
0.07,1.6775,1.0,2624.812077413837,0.5453244387354411,1.279383640773983,0.9826014086357886,0.283508,0.751099430063374
0.07050000000000001,1.67574375,1.0,2622.7675637368716,0.5478748355714897,1.278609450136801,0.9827238972580253,0.2834342375,0.75247695884716
0.07100000000000001,1.673975,1.0,2620.7346144043786,0.5504109225740529,1.2778295144528236,0.9828436564680146,0.28335995,0.7538608447031515
0.07150000000000001,1.67219375,1.0,2618.7131908815104,0.5529327788052908,1.2770438339634034,0.9829607533845529,0.2832851375,0.7552510014759508
0.07200000000000001,1.6704,1.0,2616.703254739842,0.5554404833273633,1.2762524089098932,0.983075252915608,0.2832098,0.7566473423835496
0.0725,1.66859375,1.0,2614.7047676564503,0.5579341152024304,1.275455239533646,0.9831872178443787,0.2831339375,0.7580497800174161
0.073,1.6667750000000001,1.0,2612.7176914139636,0.5604137534926523,1.274652326076014,0.9832967089114466,0.28305755,0.7594582263425855
0.0735,1.66494375,1.0,2610.7419878995165,0.5628794772601889,1.2738436687783503,0.983403784893223,0.2829806375,0.7608725926977461
0.074,1.6631,1.0,2608.7776191043176,0.5653313655672004,1.2730292678820074,0.9835085026768805,0.2829032,0.7622927897953286
0.0745,1.6612437500000001,1.0,2606.8245471233477,0.5677694974758466,1.2722091236283384,0.9836109173319482,0.2828252375,0.7637187277215944
0.075,1.659375,1.0,2604.882734154833,0.5701939520482875,1.2713832362586954,0.983711082178737,0.28274675,0.7651503159367254
0.0755,1.65749375,1.0,2602.9521424993345,0.5726048083466833,1.2705516060144317,0.9838090488537601,0.2826677375,0.7665874632749098
