Time [s],Phi [rad],STIM [ ],Fsee [N],Gamma [ ],Lcerel [ ],q [ ],Lmtc [m],fisomrel [ ]
0.0,1.8,1.0,18.159160593997893,0.0004467348335041434,1.3793182926892429,0.005051612944076738,0.288653,0.5411914312223147
0.0005,1.79999375,1.0,18.606753778441092,0.006053438313220213,1.3792658941407685,0.014197341853775483,0.2886527375,0.5413181809362353
0.001,1.799975,1.0,22.272525012819226,0.011628692619319519,1.3788719888870595,0.03792064229674069,0.28865195,0.5422704593009051
0.0015,1.79994375,1.0,32.43362304741341,0.017172674157732992,1.377931211527753,0.07374282833914997,0.2886506375,0.5445408142639182
0.002,1.7999,1.0,56.35726669826073,0.02268555834281569,1.3761903840596512,0.11842262089552846,0.2886488,0.5487270246844774
0.0025,1.79984375,1.0,101.64420590005565,0.0281675196066511,1.373719588027255,0.16859545718159974,0.28864643749999996,0.5546354257804171
0.003,1.7997750000000001,1.0,166.76004439040423,0.03361873140239703,1.3709990964797476,0.22142194049412794,0.28864354999999997,0.5610958877908512
0.0035,1.79969375,1.0,244.18758717833077,0.03903936621072544,1.368385738158068,0.27472768396763175,0.2886401375,0.5672574869953297
0.004,1.7996,1.0,328.3586174561574,0.04442959554363777,1.3659745217176213,0.3268969104706415,0.2886362,0.5729038566758875
0.0045000000000000005,1.7994937500000001,1.0,416.38496372139997,0.04978958994818049,1.3637564661363948,0.3768114541641886,0.2886317375,0.5780651573468173
0.005,1.799375,1.0,506.6640900202485,0.05511951902858617,1.3617048231971507,0.42377957214508666,0.28862675,0.5828112910584119
0.0055,1.79924375,1.0,598.097452213157,0.060419551422287235,1.3597965120114028,0.46744288322923744,0.2886212375,0.5872017536493255
0.006,1.7991000000000001,1.0,689.8235315448048,0.06568985481892167,1.3580139750516842,0.5076837259988461,0.2886152,0.5912818675627936
0.006500000000000001,1.79894375,1.0,781.1357846931626,0.07093059596577297,1.3563437029565655,0.5445468515088036,0.2886086375,0.5950866242449077
0.007,1.798775,1.0,871.4526654703993,0.07614194075603906,1.3547748663381063,0.5781790758499845,0.28860155,0.5986441142052896
0.0075,1.79859375,1.0,960.2784794553596,0.08132405385720583,1.3532987684822801,0.608785731835578,0.2885939375,0.6019769776431895
0.008,1.7984,1.0,1047.248374407901,0.08647709963503929,1.3519073735532423,0.6365998416909581,0.2885858,0.6051058687463609
0.0085,1.79819375,1.0,1132.041595268296,0.09160124085166363,1.3505941486150344,0.6618628281761201,0.2885771375,0.6080476497350102
0.009000000000000001,1.797975,1.0,1214.4148115522553,0.09669663947822314,1.3493531400617655,0.6848114563676704,0.28856795,0.6108175495184454
0.0095,1.79774375,1.0,1294.2088316069228,0.10176345709620431,1.3481786401895945,0.7056702816343223,0.2885582375,0.6134299570016737
0.01,1.7975,1.0,1371.2945794663603,0.10680185407397631,1.3470657181273418,0.7246480210716972,0.288548,0.6158972809335221
0.0105,1.79724375,1.0,1445.5769488473525,0.11181198935418897,1.346009960911662,0.7419357191794802,0.2885372375,0.6182305706310909
0.011,1.796975,1.0,1517.009562177905,0.11679402133456507,1.3450071454652466,0.7577063349124984,0.28852595000000003,0.6204402728887826
0.0115,1.79669375,1.0,1585.6007996412457,0.12174810878131494,1.3440530752113442,0.7721152959993022,0.2885141375,0.6225366117270954
0.012,1.7964,1.0,1651.3442880031603,0.12667440792178422,1.343144327917132,0.7853019364808308,0.28850180000000003,0.6245279662573335
0.0125,1.79609375,1.0,1714.2484528950868,0.13157307395824602,1.3422777891242628,0.7973905864733349,0.2884889375,0.6264219230618837
0.013000000000000001,1.7957750000000001,1.0,1774.3577484124314,0.13644426209297347,1.3414503443743884,0.8084918545110774,0.28847555,0.6282259640516952
0.0135,1.79544375,1.0,1831.7307050843474,0.14128812652267494,1.3406590873111157,0.8187041189656257,0.2884616375,0.6299470224246099
0.014,1.7951000000000001,1.0,1886.447033211507,0.14610482160434016,1.3399011942040033,0.8281148076311777,0.2884472,0.6315917671514426
0.0145,1.79474375,1.0,1938.5588601623992,0.1508944987200124,1.3391744162235204,0.8368018003549447,0.2884322375,0.6331655464905426
0.015,1.794375,1.0,1988.1354890335224,0.15565730904903236,1.3384765415651,0.844834336659739,0.28841675,0.6346735676343401
0.0155,1.79399375,1.0,2035.2608622753453,0.16039340340859923,1.337805401288516,0.8522740292360085,0.2884007375,0.6361208892229102
0.016,1.7936,1.0,2080.0256063965535,0.165102932208462,1.3371589327561162,0.859175784275907,0.2883842,0.6375122897409335
0.0165,1.7931937500000001,1.0,2122.5195638083014,0.16978604532782332,1.3365352357490576,0.8655886112363631,0.2883671375,0.6388521527401984
0.017,1.792775,1.0,2162.8108038067458,0.17444288967821872,1.3359327655054993,0.8715563719403703,0.28834955,0.640144059502
0.0175,1.7923437500000001,1.0,2200.978051012015,0.17907361217118375,1.3353499772635997,0.8771182859453368,0.2883314375,0.6413915585118085
0.018000000000000002,1.7919,1.0,2237.1097914669886,0.18367835971825394,1.334785326261518,0.8823094762388506,0.2883128,0.642598167474391
0.0185,1.79144375,1.0,2271.2862606421495,0.18825727744884724,1.3342374388359257,0.8871614903831144,0.2882936375,0.6437670104604618
0.019,1.790975,1.0,2303.6083062851526,0.19281051283479136,1.3337048130233942,0.8917026403098446,0.28827395,0.6449014597098901
0.0195,1.79049375,1.0,2334.1441603777,0.19733820866220042,1.3331863394638823,0.8959584954221733,0.2882537375,0.6460040280441919
0.02,1.79,1.0,2362.9628621123957,0.20184050714521895,1.3326809563007147,0.8999521112458315,0.288233,0.6470771087845726
0.0205,1.78949375,1.0,2390.1385356067917,0.20631755049799158,1.3321876016772167,0.9037043006082852,0.2882117375,0.6481230780992947
0.021,1.788975,1.0,2415.749961312507,0.2107694809346629,1.3317052137367131,0.9072338823455851,0.28818995000000003,0.6491442958542138
0.021500000000000002,1.78844375,1.0,2439.865103071805,0.21519643846996195,1.3312328754991705,0.9105579290615702,0.2881676375,0.6501428003461449
0.022,1.7879,1.0,2462.5692872744116,0.21959856632775576,1.3307695382273108,0.9136919013150687,0.2881448,0.6511208947094758
0.0225,1.78734375,1.0,2483.921175278772,0.22397600265816467,1.330314440823853,0.9166498993203189,0.28812143749999997,0.6520802620638563
0.023,1.786775,1.0,2503.9763056081797,0.22832888464372306,1.3298668775147473,0.9194447615675212,0.28809755,0.6530224589243326
0.0235,1.78619375,1.0,2522.7926081339356,0.23265734946696534,1.329426142525943,0.9220881858417402,0.28807313749999996,0.653949032590807
0.024,1.7856,1.0,2540.4302033672684,0.23696153431042594,1.3289915300833903,0.9245908463298176,0.2880482,0.6548615214712681
0.0245,1.78499375,1.0,2556.948123791761,0.24124157574512523,1.328562363422837,0.9269625021189051,0.2880227375,0.6557613945854579
0.025,1.784375,1.0,2572.3982818628147,0.24549760871652693,1.328138049158823,0.9292120973311176,0.28799675,0.6566499384382711
0.025500000000000002,1.78374375,1.0,2586.8523475226652,0.24972977154678364,1.3277178236600098,0.9313478008502593,0.2879702375,0.6575287884424321
0.026000000000000002,1.7831000000000001,1.0,2600.351428017571,0.2539381960731883,1.3273012226238923,0.9333771546900723,0.2879432,0.658398946648295
0.0265,1.78244375,1.0,2612.937740007201,0.2581230141330338,1.3268877817479643,0.9353070879632138,0.2879156375,0.6592614098976253
0.027,1.781775,1.0,2624.654516530168,0.2622843575636132,1.326477036729721,0.9371439749035313,0.28788755,0.6601171699240448
0.0275,1.7810937500000001,1.0,2635.5459187494494,0.2664223582022193,1.3260685232666567,0.9388936866895305,0.2878589375,0.6609672134397377
0.028,1.7804,1.0,2645.6569524772785,0.27053714788614525,1.3256617770562658,0.9405616377981788,0.2878298,0.6618125222084026
0.0285,1.77969375,1.0,2655.028450709168,0.27462885550981136,1.3252563793128145,0.9421528329036957,0.2878001375,0.6626539786872403
0.029,1.778975,1.0,2663.7033227980646,0.27869761434050305,1.3248518982162558,0.9436718981195122,0.28776995,0.6634924879633144
0.029500000000000002,1.7782437500000001,1.0,2671.7147465642174,0.2827435520171047,1.3244479969150045,0.9451231255203758,0.2877392375,0.6643287541385243
0.03,1.7775,1.0,2679.0947163521637,0.28676679503558766,1.324044353886797,0.9465104930797301,0.287708,0.6651634461546183
0.0305,1.77674375,1.0,2685.8756601621044,0.2907674698919233,1.3236406476093698,0.9478376901274567,0.2876762375,0.6659972296396292
0.031,1.775975,1.0,2692.0903987121965,0.294745703082083,1.3232365565604598,0.9491081419244999,0.28764395,0.6668307669098746
0.0315,1.7751937500000001,1.0,2697.7721067932184,0.2987016211020379,1.3228317592178034,0.9503250318566122,0.2876111375,0.6676647169653642
0.032,1.7744,1.0,2702.9445170451304,0.30263534514150464,1.3224260232073126,0.9514913307624222,0.2875778,0.6684995521642778
0.0325,1.77359375,1.0,2707.640425717265,0.30654700418289993,1.3220190357171493,0.9526097978159658,0.2875439375,0.6693359076396599
0.033,1.772775,1.0,2711.8959650845177,0.3104367282924179,1.3216104558271098,0.9536830019043534,0.28750955,0.6701744729039498
0.0335,1.7719437500000002,1.0,2715.7305524393114,0.31430463742141346,1.321200097057651,0.9547133546902715,0.2874746375,0.6710156175068738
0.034,1.7711000000000001,1.0,2719.163765584909,0.31815085152124145,1.3207877729292303,0.9557031082195059,0.2874392,0.6718597089894915
0.0345,1.7702437500000001,1.0,2722.2153272357486,0.3219754905432566,1.320373296962305,0.9566543673671973,0.2874032375,0.6727071128619349
0.035,1.7693750000000001,1.0,2724.9050901885157,0.3257786744388138,1.3199564826773325,0.9575691011747298,0.28736675,0.6735581925789218
0.035500000000000004,1.76849375,1.0,2727.2530232648164,0.32956052315926787,1.3195371435947696,0.9584491531877222,0.2873297375,0.67441330951306
0.036000000000000004,1.7676,1.0,2729.279198023804,0.3333211566559736,1.3191150932350737,0.9592962508935187,0.2872922,0.6752728229259255
0.0365,1.76669375,1.0,2731.003776246962,0.33706069488028584,1.318690145118702,0.9601120143459205,0.2872541375,0.676137089936928
0.037,1.765775,1.0,2732.4469981930374,0.34077925778355944,1.3182621127661118,0.9608979640554975,0.28721555,0.6770064654899577
0.0375,1.76484375,1.0,2733.619384716041,0.34447695857239674,1.3178308985899287,0.9616555354640233,0.2871764375,0.677881122134944
0.038,1.7639,1.0,2734.5436531864034,0.34815392062050166,1.3173962947033153,0.9623860693802863,0.28713679999999997,0.6787614544279535
0.0385,1.76294375,1.0,2735.2395457772564,0.3518102633685984,1.3169581207019707,0.9630908288842531,0.28709663750000003,0.6796477988554687
0.039,1.761975,1.0,2735.7181180770604,0.35544609966186197,1.316516275417065,0.9637710090618198,0.28705595,0.6805403297069792
0.0395,1.7609937500000001,1.0,2735.990456397019,0.35906154234546733,1.3160706576797674,0.9644277357289428,0.2870147375,0.6814392198784417
0.04,1.76,1.0,2736.067673456248,0.3626567042645895,1.315621166321248,0.9650620701834343,0.286973,0.6823446408482624
0.0405,1.7589937500000001,1.0,2735.9609042950597,0.36623169826440344,1.3151677001726765,0.9656750135822457,0.2869307375,0.6832567626526336
0.041,1.757975,1.0,2735.6813024144476,0.36978663719008414,1.3147101580652225,0.9662675109774014,0.28688795,0.6841757538602127
0.0415,1.75694375,1.0,2735.2400361429995,0.3733216338868066,1.3142484388300555,0.966840455040481,0.2868446375,0.6851017815461509
0.042,1.7559,1.0,2734.648285230339,0.37683680119974583,1.3137824412983456,0.9673946895026745,0.28680079999999997,0.6860350112654665
0.0425,1.75484375,1.0,2733.9172376681177,0.3803322519740768,1.3133120643012623,0.9679310123348287,0.2867564375,0.6869756070257705
0.043000000000000003,1.753775,1.0,2733.0489662907535,0.38380809132102744,1.3128372895174718,0.9684501841939473,0.28671155,0.6879235659673518
0.043500000000000004,1.75269375,1.0,2732.0614046218466,0.3872644379766623,1.3123579546086737,0.9689529159397517,0.28666613750000003,0.6888791715327991
0.044,1.7516,1.0,2730.9648673820398,0.39070140206598225,1.3118739664313923,0.9694398852322246,0.2866202,0.6898425671631083
0.0445,1.75049375,1.0,2729.765280153101,0.394119089748968,1.311385271724388,0.9699117370206144,0.2865737375,0.6908138155393148
0.045,1.7493750000000001,1.0,2728.4685694549776,0.3975176071856003,1.310891817226421,0.9703690830781904,0.28652675,0.691792978257824
0.0455,1.74824375,1.0,2727.080661669126,0.40089706053585994,1.3103935496762518,0.9708125040280285,0.2864792375,0.6927801158143374
0.046,1.7471,1.0,2725.6074820245726,0.40425755595972757,1.3098904158126403,0.9712425512261835,0.2864312,0.6937752875875921
0.0465,1.7459437500000001,1.0,2724.0549536465396,0.40759919961718405,1.3093823623743472,0.971659748513555,0.28638263750000004,0.6947785518229213
0.047,1.744775,1.0,2722.4289966680703,0.41092209766821003,1.3088693361001325,0.9720645938467749,0.28633355,0.6957899656156359
0.0475,1.74359375,1.0,2720.735527405166,0.41422635627278626,1.3083512837287568,0.9724575608175338,0.28628393750000003,0.6968095848942212
0.048,1.7424,1.0,2718.980457593546,0.4175120815908936,1.3078281519989798,0.9728391000689554,0.2862338,0.6978374644033577
0.0485,1.74119375,1.0,2717.164936490796,0.42077936770797475,1.3072999309887243,0.9732096421421773,0.2861831375,0.6988735727497617
0.049,1.739975,1.0,2715.299452287291,0.4240283337006372,1.306766525672476,0.9735695943286305,0.28613195,0.6999180444095603
0.0495,1.73874375,1.0,2713.3882837923957,0.42725908154146336,1.3062278975171775,0.973919346501565,0.2860802375,0.7009709017289829
0.05,1.7375,1.0,2711.4347347207936,0.4304717106289493,1.3056840168397046,0.9742592706548013,0.286028,0.70203214875237
0.0505,1.73624375,1.0,2709.4421051769605,0.4336663203615911,1.3051348539569338,0.9745897216105346,0.2859752375,0.7031017885863542
0.051000000000000004,1.734975,1.0,2707.413691406693,0.43684301013788485,1.3045803791857413,0.9749110379620002,0.28592195,0.7041798233898917
0.051500000000000004,1.73369375,1.0,2705.35278556791,0.4400018793563266,1.304020562843003,0.9752235429563144,0.2858681375,0.7052662543642336
0.052000000000000005,1.7324,1.0,2703.2626755209544,0.4431430274154125,1.303455375245595,0.9755275453217777,0.2858138,0.7063610817428415
0.0525,1.73109375,1.0,2701.146644638857,0.4462665537136386,1.3028847867103936,0.9758233400435872,0.28575893750000003,0.7074643047812479
0.053,1.729775,1.0,2699.007971636549,0.449372557649501,1.3023087675542748,0.9761112090916019,0.28570355000000003,0.7085759217468605
0.0535,1.72844375,1.0,2696.8499304200595,0.4524611386214958,1.301727288094115,0.9763914221035019,0.2856476375,0.7096959299087082
0.054,1.7271,1.0,2694.6757899551926,0.45553239602811907,1.30114031864679,0.9766642370264402,0.2855912,0.7108243255271358
0.0545,1.7257437500000001,1.0,2692.4817930496592,0.45858640579252313,1.3005478937855504,0.9769299023039446,0.2855342375,0.7119609806794309
0.055,1.724375,1.0,2690.2737105550636,0.4616232848625619,1.2999499609064498,0.9771886545902478,0.28547675,0.7131059341588625
0.0555,1.72299375,1.0,2688.0579805595667,0.46464314496558345,1.2993464612091663,0.9774407196320508,0.2854187375,0.7142592352090213
0.056,1.7216,1.0,2685.8356429833957,0.46764607728082325,1.2987373852615767,0.9776863146655489,0.2853602,0.7154208375225648
0.0565,1.72019375,1.0,2683.607736078404,0.47063217298751636,1.2981227236315578,0.9779256479209874,0.28530113749999997,0.7165906940513451
0.057,1.718775,1.0,2681.375296414714,0.4736015232648981,1.2975024668869863,0.9781589190671414,0.28524155,0.7177687570030535
0.0575,1.71734375,1.0,2679.13935886897,0.47655421929220376,1.296876605595739,0.9783863196303848,0.2851814375,0.7189549778378572
0.058,1.7159,1.0,2676.9009566151203,0.47949035224866854,1.2962451303256928,0.9786080333899825,0.2851208,0.7201493072650297
0.0585,1.71444375,1.0,2674.6611211169748,0.4824100133135276,1.2956080316447243,0.9788242367511439,0.2850596375,0.7213516952395782
0.059000000000000004,1.7129750000000001,1.0,2672.420882122375,0.4853132936660163,1.2949653001207102,0.9790350990972468,0.28499795,0.7225620909588628
0.059500000000000004,1.71149375,1.0,2670.1812676598643,0.4882002844853698,1.2943169263215275,0.9792407831225531,0.2849357375,0.723780442859211
0.06,1.71,1.0,2667.9433040370277,0.49107107695082336,1.2936629008150529,0.9794414451466381,0.284873,0.725006698612527
0.0605,1.7084937500000001,1.0,2665.7080158409112,0.4939257622416122,1.293003214169163,0.9796372354116758,0.2848097375,0.7262408051228941
0.061,1.7069750000000001,1.0,2663.476425940342,0.4967644315369717,1.2923378569517348,0.9798282983636335,0.28474595,0.727482708523173
0.0615,1.7054437500000001,1.0,2661.249555490062,0.4995871760161369,1.291666819730645,0.9800147729183672,0.2846816375,0.7287323541715928
0.062,1.7039,1.0,2659.0284239376133,0.5023940868583432,1.29099009307377,0.9801967927135375,0.2846168,0.7299896866483375
0.0625,1.70234375,1.0,2656.814049030798,0.5051852552428256,1.2903076675489873,0.9803744863471971,0.2845514375,0.731254649752126
0.063,1.7007750000000001,1.0,2654.607216664844,0.5079607656927104,1.2896195358455809,0.9805479772152516,0.28448555,0.732527182578413
0.0635,1.69919375,1.0,2652.4085546958013,0.5107206846960413,1.2889256920981322,0.9807173828821103,0.28441913750000003,0.7338072208087223
0.064,1.6976,1.0,2650.220231212456,0.5134651399892199,1.288226116223758,0.9808828203442888,0.2843522,0.7350947255311503
0.0645,1.69599375,1.0,2648.0423232912194,0.5161942140565032,1.2875208074034346,0.9810443999844243,0.2842847375,0.7363896215244805
0.065,1.694375,1.0,2645.8749079134514,0.5189079893821481,1.2868097648181376,0.9812022281854399,0.28421675,0.7376918329239943
0.0655,1.69274375,1.0,2643.718061967001,0.5216065484504112,1.2860929876488432,0.9813564075027827,0.2841482375,0.7390012832211699
0.066,1.6911,1.0,2641.5718622479153,0.5242899737455494,1.2853704750765271,0.981507036828045,0.2840792,0.740317895263384
0.0665,1.6894437500000001,1.0,2639.436385462364,0.5269583477518195,1.2846422262821655,0.981654211544449,0.2840096375,0.7416415912536113
0.067,1.687775,1.0,2637.3117082274766,0.5296117529534782,1.2839082404467344,0.9817980236746641,0.28393955,0.7429722927501252
0.0675,1.68609375,1.0,2635.1979070740063,0.5322502718347824,1.2831685167512097,0.9819385620213785,0.2838689375,0.7443099206661986
0.068,1.6844000000000001,1.0,2633.0950584472616,0.5348739868799888,1.2824230543765673,0.9820759123010305,0.2837978,0.7456543952698038
0.0685,1.68269375,1.0,2631.0032387091533,0.5374829805733543,1.2816718525037831,0.982210157271079,0.2837261375,0.7470056361833133
0.069,1.680975,1.0,2628.922524139674,0.5400773353991356,1.2809149103138335,0.9823413768511634,0.28365395,0.7483635623831979
0.0695,1.67924375,1.0,2626.8529909389067,0.5426571338415895,1.2801522269876942,0.9824696482384914,0.28358123749999997,0.7497280921997306
0.07,1.6775,1.0,2624.7947152286038,0.5452224583849729,1.2793838017063408,0.9825950460177619,0.283508,0.7510991433166838
0.07050000000000001,1.67574375,1.0,2622.7477730537385,0.5477733915135423,1.27860963365075,0.98271764226592,0.2834342375,0.7524766327710296
0.07100000000000001,1.673975,1.0,2620.712240384661,0.5503100157115549,1.2778297220018973,0.9828375066520179,0.28335995,0.7538604769526419
0.07150000000000001,1.67219375,1.0,2618.688193118489,0.5528324134632673,1.277044065940759,0.9829547065324434,0.2832851375,0.7552505916039938
0.07200000000000001,1.6704,1.0,2616.675912234376,0.5553406618163195,1.2762526627437702,0.9830693066308699,0.2832098,0.7566468951753085
0.0725,1.66859375,1.0,2614.6784305850374,0.5578347897111451,1.275455484126984,0.9831813655599668,0.2831339375,0.7580493503328087
0.073,1.6667750000000001,1.0,2612.6934406977234,0.5603149525410539,1.2746525513788782,0.9832909496513623,0.28305755,0.759457831699849
0.0735,1.66494375,1.0,2610.72071830258,0.5627812237805941,1.2738438664596308,0.9833981174578771,0.2829806375,0.76087224745676
0.074,1.6631,1.0,2608.7600395254008,0.565233676904314,1.2730294313294193,0.9835029256545611,0.2829032,0.7622925051911159
0.0745,1.6612437500000001,1.0,2606.811180883277,0.5676723853867619,1.2722092479484213,0.9836054291095911,0.2828252375,0.7637185118984532
0.075,1.659375,1.0,2604.873919279941,0.570097422702486,1.271383318276815,0.9837056809520405,0.28274675,0.7651501739829876
