Time [s],Phi [rad],STIM [ ],Fsee [N],Gamma [ ],Lcerel [ ],q [ ],Lmtc [m],fisomrel [ ]
0.0,1.8,1.0,18.66288295177561,0.0008502494941885924,1.3792625420540703,0.005185962757527991,0.288653,0.5413262888861115
0.0005,1.79999375,1.0,19.224644654459798,0.006454689575750372,1.3791984254250198,0.015436814079025571,0.2886527375,0.5414813589132198
0.001,1.799975,1.0,23.190888708132473,0.012027693179690555,1.3787805126658128,0.040120472962910984,0.28865195,0.5424914643642348
0.0015,1.79994375,1.0,34.04943733627994,0.017569436640172645,1.377798113876189,0.07668987255291101,0.2886506375,0.5448615597946241
0.002,1.7999,1.0,59.32827617479091,0.023080095301384152,1.3760048589562126,0.12187162126064942,0.2886488,0.5491720218154295
0.0025,1.79984375,1.0,106.21205881742698,0.028559843525144145,1.3735067941389545,0.17232146013858804,0.28864643749999996,0.5551424576914563
0.003,1.7997750000000001,1.0,172.43612830504827,0.03400885469406792,1.3707921105069185,0.2252486995686704,0.28864354999999997,0.5615854935772485
0.0035,1.79969375,1.0,250.462134414193,0.039427301218074244,1.3681962663410256,0.27852159448743696,0.2886401375,0.5677025173868894
0.004,1.7996,1.0,334.9501393442366,0.044815354540202426,1.3658026376707983,0.33056180998445384,0.2886362,0.5733049434728528
0.0045000000000000005,1.7994937500000001,1.0,423.1557460598153,0.050173185149787365,1.3635995296664727,0.38028438820957006,0.2886317375,0.5784291518696424
0.005,1.799375,1.0,513.5280318340684,0.055500962558806405,1.3615604995670567,0.42702475419358316,0.28862675,0.5831441490842487
0.0055,1.79924375,1.0,604.9903217123732,0.06079885535212774,1.3596630506479352,0.47044476969287763,0.2886212375,0.5875079400466223
0.006,1.7991000000000001,1.0,696.6942951412036,0.06606703115900939,1.3578900537444645,0.5104408237920123,0.2886152,0.5915647622155114
0.006500000000000001,1.79894375,1.0,787.9416234281255,0.0713056566395207,1.35622831436649,0.5470668127017934,0.2886086375,0.5953488139145702
0.007,1.798775,1.0,878.158701167606,0.0765148976307383,1.354667195464056,0.5804750239903487,0.28860155,0.5988876927986644
0.0075,1.79859375,1.0,966.8625681678554,0.08169491883507939,1.3531980424023267,0.6108736271049896,0.2885939375,0.6022038993723351
0.008,1.7984,1.0,1053.6779056123125,0.08684588426497732,1.3518131679389271,0.6384969501044533,0.2885858,0.6053172667881896
0.0085,1.79819375,1.0,1138.3012216896038,0.09196795681432525,1.35050592080819,0.6635863277551128,0.2885771375,0.6082448962959275
0.009000000000000001,1.797975,1.0,1220.5019643350133,0.09706129861855904,1.3492702934299505,0.6863778104229447,0.28856795,0.6110021113754982
0.0095,1.79774375,1.0,1300.099235537509,0.10212607064558381,1.3481009731127427,0.7070951058913374,0.2885582375,0.613602399610847
0.01,1.7975,1.0,1376.989358389152,0.10716243363412589,1.3469927641996937,0.7259455346198112,0.288548,0.6160587423247952
0.0105,1.79724375,1.0,1451.077896509706,0.11217054645229631,1.3459413186301619,0.7431188730121127,0.2885372375,0.6183820282666608
0.011,1.796975,1.0,1522.3159126333796,0.11715056746168337,1.3449425041974434,0.758786842164136,0.28852595000000003,0.6205824897895305
0.0115,1.79669375,1.0,1590.7020045101528,0.12210265471802051,1.3439922877043637,0.773103723840387,0.2885141375,0.6226699808670864
0.012,1.7964,1.0,1656.243050025759,0.1270269649817354,1.3430871230242172,0.7862076625074755,0.28850180000000003,0.6246531441803753
0.0125,1.79609375,1.0,1718.9499880969743,0.13192365342857848,1.3422239010434787,0.7982219614936101,0.2884889375,0.6265395457735438
0.013000000000000001,1.7957750000000001,1.0,1778.8664121327756,0.13679287498955978,1.3413995472643934,0.8092563181754368,0.28847555,0.6283365724734287
0.0135,1.79544375,1.0,1836.057877813133,0.14163478419653613,1.340611102417567,0.8194082612833672,0.2884616375,0.6300512656565358
0.014,1.7951000000000001,1.0,1890.591783572998,0.14644953493654808,1.3398559018289107,0.8287645412783543,0.2884472,0.6316899425767151
0.0145,1.79474375,1.0,1942.5215458478224,0.15123727845158763,1.339131697748724,0.8374023796071496,0.2884322375,0.6332579450958805
0.015,1.794375,1.0,1991.9211171963711,0.1559981659836468,1.3384362424273073,0.8453904218010501,0.28841675,0.6347605542464442
0.0155,1.79399375,1.0,2038.8767561571347,0.16073234823464128,1.3377673560555572,0.8527897648990439,0.2884007375,0.6362028481608369
0.016,1.7936,1.0,2083.479565582423,0.16543997576949518,1.337122983487397,0.8596548667799812,0.2883842,0.6375895854737126
0.0165,1.7931937500000001,1.0,2125.819867074549,0.1701211984767467,1.336501230445687,0.8660343408604296,0.2883671375,0.6389251336369219
0.017,1.792775,1.0,2165.9643529399814,0.17477616307258398,1.335900575615523,0.8719717043489468,0.28834955,0.640213020730741
0.0175,1.7923437500000001,1.0,2203.9902106969457,0.17940501627319516,1.3353194976819998,0.8775058726637092,0.2883314375,0.6414567425838373
0.018000000000000002,1.7919,1.0,2239.984246682683,0.18400790479476842,1.3347564753302135,0.8826717001294059,0.2883128,0.6426597647464675
0.0185,1.79144375,1.0,2274.0313788063886,0.18858497414597528,1.3342100936223305,0.8875004802849606,0.2882936375,0.64382529757957
0.019,1.790975,1.0,2306.225747261936,0.19313637093587216,1.333678922749514,0.8920203279785706,0.28827395,0.6449565577574102
0.0195,1.79049375,1.0,2336.6432233977407,0.19766223893491297,1.3331617819414023,0.8962566041751782,0.2882537375,0.6460562087169308
0.02,1.79,1.0,2365.3504712701683,0.20216272007062827,1.3326576371622336,0.9002322019701214,0.288233,0.6471265830281879
0.0205,1.78949375,1.0,2392.419132492901,0.20663795627054868,1.332165454376247,0.9039677897749755,0.2882117375,0.6481699965530021
0.021,1.788975,1.0,2417.925410719844,0.21108808946220478,1.3316841995476811,0.9074820578208993,0.28818995000000003,0.6491887492679019
0.021500000000000002,1.78844375,1.0,2441.9409184796446,0.21551326001742038,1.3312129228366232,0.9107919514708877,0.2881676375,0.6501849481697102
0.022,1.7879,1.0,2464.544369476966,0.21991361015229194,1.3307506412966306,0.9139128372745463,0.2881448,0.6511607566386085
0.0225,1.78734375,1.0,2485.80103277955,0.22428927926540196,1.3302965322395193,0.9168587071312352,0.28812143749999997,0.6521179872147583
0.023,1.786775,1.0,2505.7659341027643,0.22864040424957865,1.3298498967369816,0.919642314948003,0.28809755,0.6530581811945235
0.0235,1.78619375,1.0,2524.4964619818893,0.2329671219976503,1.3294100358607102,0.9222752826639806,0.28807313749999996,0.6539828707724671
0.024,1.7856,1.0,2542.0521698961784,0.23726956940244517,1.3289762506823972,0.9247682163477001,0.2880482,0.6548935793589048
0.0245,1.78499375,1.0,2558.4945892234123,0.2415478833567916,1.3285478422737351,0.9271308089876722,0.2880227375,0.6557918218663038
0.025,1.784375,1.0,2573.875845409617,0.2458021974146707,1.3281242166138676,0.9293719479802725,0.28799675,0.656678885432193
0.025500000000000002,1.78374375,1.0,2588.260720625933,0.25003265099827754,1.3277046756453115,0.9314997635372819,0.2879702375,0.6575562677302335
0.026000000000000002,1.7831000000000001,1.0,2601.69342433504,0.25423937668324625,1.327288726749317,0.9335217469473087,0.2879432,0.6584250297921268
0.0265,1.78244375,1.0,2614.2158654758305,0.258422505891792,1.326875909219026,0.9354447859906676,0.2879156375,0.6592861606257494
0.027,1.781775,1.0,2625.8709595121304,0.2625821700461301,1.326465762347581,0.9372752174618458,0.28788755,0.6601406441798876
0.0275,1.7810937500000001,1.0,2636.702541137502,0.2667185005684758,1.326057825428124,0.939018878578455,0.2878589375,0.6609894594294742
0.028,1.7804,1.0,2646.7552816852253,0.27083162888104423,1.3256516377537964,0.9406811529692134,0.2878298,0.6618335804472901
0.0285,1.77969375,1.0,2656.071024852041,0.27492168497807856,1.3252467716642267,0.9422670160489416,0.2878001375,0.6626739079145358
0.029,1.778975,1.0,2664.6858373443115,0.27898879736058463,1.3248428587372894,0.9437810751485979,0.28776995,0.6635112153296732
0.029500000000000002,1.7782437500000001,1.0,2672.6506337424157,0.2830331010190543,1.3244393993037582,0.9452275787562653,0.2877392375,0.664346543939466
0.03,1.7775,1.0,2679.9933481179096,0.287054721291928,1.3240361098732465,0.9466104888310861,0.287708,0.6651804830937925
0.0305,1.77674375,1.0,2686.7423164176416,0.29105378351764616,1.323632706955367,0.9479334800582934,0.2876762375,0.6660136192243034
0.031,1.775975,1.0,2692.9262408040254,0.2950304130346491,1.323228907059733,0.9491999642880611,0.28764395,0.6668465358449316
0.0315,1.7751937500000001,1.0,2698.574155776993,0.29898473518137736,1.322824426695958,0.9504131126088082,0.2876111375,0.6676798135472772
0.032,1.7744,1.0,2703.7153960779447,0.3029168752962713,1.3224189823736545,0.9515758753094742,0.2875778,0.6685140299908707
0.0325,1.77359375,1.0,2708.379566375803,0.3068269587177714,1.322012290602436,0.9526909999553991,0.2875439375,0.6693497598883045
0.033,1.772775,1.0,2712.593586612861,0.31071510916968675,1.3216040945720022,0.9537610504301001,0.28750955,0.6701875202631462
0.0335,1.7719437500000002,1.0,2716.3814014458126,0.3145814491199294,1.3211941664626536,0.9547884219235935,0.2874746375,0.6710277660406925
0.034,1.7711000000000001,1.0,2719.776076014623,0.31842610620086137,1.3207821970044562,0.955775343535152,0.2874392,0.6718711163424562
0.0345,1.7702437500000001,1.0,2722.7958150778354,0.32224919958651876,1.3203680137736586,0.956723911734734,0.2874032375,0.6727179073683701
0.035,1.7693750000000001,1.0,2725.4589464362657,0.32605084845093785,1.3199514443465095,0.9576360878106811,0.28736675,0.6735684734074696
0.035500000000000004,1.76849375,1.0,2727.7839081454645,0.3298311719681548,1.319532316299257,0.9585137081497062,0.2873297375,0.6744231468126008
0.036000000000000004,1.7676,1.0,2729.7892363858955,0.33359028931220586,1.3191104572081498,0.9593584936222194,0.2872922,0.6752822579732322
0.0365,1.76669375,1.0,2731.493553993517,0.33732831965712706,1.3186856946494365,0.9601720581600871,0.2872541375,0.6761461352863716
0.037,1.765775,1.0,2732.915559648635,0.34104538217695485,1.3182578561993656,0.9609559166046062,0.28721555,0.6770151051255864
0.0375,1.76484375,1.0,2734.0717912164623,0.3447415925530988,1.3178267896553721,0.9617114931244369,0.2871764375,0.6778894508206628
0.038,1.7639,1.0,2734.9784171940164,0.34841706671036343,1.317392346665807,0.9624401269374206,0.28713679999999997,0.678769446039452
0.0385,1.76294375,1.0,2735.656327504733,0.3520719316267879,1.3169543364345215,0.9631430761340336,0.28709663750000003,0.6796554483907913
0.039,1.761975,1.0,2736.11665580497,0.3557062997356588,1.3165126571107582,0.9638215304323673,0.28705595,0.6805476335736214
0.0395,1.7609937500000001,1.0,2736.3705664146023,0.35932028347026296,1.3160672068437598,0.9644766106540832,0.2870147375,0.6814461758864285
0.04,1.76,1.0,2736.429249969659,0.3629139952638869,1.315617883782769,0.9651093734463854,0.286973,0.682351248203082
0.0405,1.7589937500000001,1.0,2736.303919304957,0.36648754754981744,1.315164586077029,0.9657208156321511,0.2869307375,0.6832630219480071
0.041,1.757975,1.0,2736.0058055667055,0.3700410527613412,1.314707211875782,0.9663118782211132,0.28688795,0.6841816670707003
0.0415,1.75694375,1.0,2735.546154555229,0.3735746233317449,1.3142456593282714,0.9668834501117624,0.2868446375,0.6851073520195791
0.042,1.7559,1.0,2734.936223297666,0.37708837169431525,1.3137798265837395,0.9674363715107813,0.28680079999999997,0.6860402437151734
0.0425,1.75484375,1.0,2734.1872768506933,0.38058241028233886,1.3133096117914294,0.9679714370942414,0.2867564375,0.6869805075226525
0.043000000000000003,1.753775,1.0,2733.31058533282,0.3840568515291025,1.3128349131005836,0.9684893989325004,0.28671155,0.6879283072236935
0.043500000000000004,1.75269375,1.0,2732.307829735498,0.3875117827860548,1.3123557157982368,0.9689909722889786,0.28666613750000003,0.6888836314036069
0.044,1.7516,1.0,2731.1998454354193,0.39094734812099047,1.3118718311885165,0.969476829847932,0.2866202,0.6898468141298517
0.0445,1.75049375,1.0,2729.99226023114,0.3943636530637849,1.3113832087043866,0.969947614226714,0.2865737375,0.6908179124265319
0.045,1.7493750000000001,1.0,2728.6902228322833,0.39776080185814905,1.3108898021411277,0.970403935163457,0.28652675,0.6917969736117681
0.0455,1.74824375,1.0,2727.2988822117345,0.4011388987477941,1.31039156529402,0.9708463713814915,0.2864792375,0.6927840439870159
0.046,1.7471,1.0,2725.823386747092,0.40449804797643113,1.3098884519583436,0.9712754724624902,0.2864312,0.6937791688228998
0.0465,1.7459437500000001,1.0,2724.26888340955,0.4078383537877711,1.309380415929379,0.9716917605891557,0.28638263750000004,0.6947823923449123
0.047,1.744775,1.0,2722.6405169999507,0.4111599204255253,1.3088674110024068,0.972095732167686,0.28633355,0.6957937577189743
0.0475,1.74359375,1.0,2720.943429432826,0.41446285213340467,1.308349390972707,0.9724878593393791,0.28628393750000003,0.6968133070368643
0.048,1.7424,1.0,2719.1827590665953,0.4177472531551203,1.3078263096355605,0.9728685913899167,0.2862338,0.6978410813015052
0.0485,1.74119375,1.0,2717.3636400824676,0.4210132277343833,1.307298120786247,0.9732383560641378,0.2861831375,0.6988771204121209
0.049,1.739975,1.0,2715.4912019094018,0.4242608801149048,1.3067647782200473,0.9735975607934633,0.28613195,0.6999214631492512
0.0495,1.73874375,1.0,2713.570568697353,0.4274903145403958,1.3062262357322416,0.9739465938425127,0.2860802375,0.7009741471596351
0.05,1.7375,1.0,2711.6068588374555,0.43070163525456745,1.3056824471181103,0.9742858253809268,0.286028,0.7020352089409556
0.0505,1.73624375,1.0,2709.6049788255355,0.43389494455990807,1.3051333680495565,0.9746156083895093,0.2859752375,0.7031046801745342
0.051000000000000004,1.734975,1.0,2707.5674606208777,0.4370703184839342,1.3045789758121613,0.97493627819218,0.28592195,0.7041825494043841
0.051500000000000004,1.73369375,1.0,2705.502101530781,0.4402278972239047,1.304019199592484,0.9752481589094825,0.2858681375,0.7052688975738056
0.052000000000000005,1.7324,1.0,2703.4108851291094,0.44336777619475204,1.3034540215729258,0.9755515585597444,0.2858138,0.7063637015026094
0.0525,1.73109375,1.0,2701.295792386097,0.44649005081140836,1.3028834239358893,0.9758467714721499,0.28575893750000003,0.7074669371966593
0.053,1.729775,1.0,2699.158801575599,0.44959481648880617,1.3023073888637762,0.9761340790106651,0.28570355000000003,0.7085785798417271
0.0535,1.72844375,1.0,2697.001888189643,0.4526821686418777,1.3017258985389888,0.9764137502536757,0.2856476375,0.709698603797321
0.054,1.7271,1.0,2694.8270248599847,0.4557522026855552,1.3011389351439286,0.9766860426324009,0.2855912,0.7108269825904998
0.0545,1.7257437500000001,1.0,2692.636181286376,0.45880501403477114,1.3005464808609979,0.9769512025309077,0.2855342375,0.7119636889096614
0.055,1.724375,1.0,2690.4313241720383,0.4618406981044577,1.299948517872599,0.9772094658503433,0.28547675,0.7131086945983138
0.0555,1.72299375,1.0,2688.214417166756,0.4648593503095473,1.2993450283611332,0.9774610585397945,0.2854187375,0.7142619706488278
0.056,1.7216,1.0,2685.9874208157416,0.4678610660649722,1.2987359945090031,0.9777061970960127,0.2853602,0.7154234871961636
0.0565,1.72019375,1.0,2683.752292517006,0.47084594078566466,1.2981213984986104,0.9779450890340653,0.28530113749999997,0.716593213511584
0.057,1.718775,1.0,2681.51098648459,0.4738140698865571,1.2975012225123572,0.978177933330834,0.28524155,0.7177711179963422
0.0575,1.71734375,1.0,2679.2654537192975,0.47676554878258176,1.2968754487326455,0.9784049208431288,0.2851814375,0.7189571681753519
0.058,1.7159,1.0,2677.017641986819,0.47970047288867107,1.2962440593418771,0.9786262347020648,0.2851208,0.7201513306908367
0.0585,1.71444375,1.0,2674.769495802183,0.4826189376197572,1.2956070365224546,0.9788420506852278,0.2850596375,0.7213535712959573
0.059000000000000004,1.7129750000000001,1.0,2672.519560068864,0.48552099226717993,1.294964393655702,0.9790525354086916,0.28499795,0.7225637961585588
0.059500000000000004,1.71149375,1.0,2670.272611186891,0.4884067772690202,1.2943160868788048,0.9792578534158493,0.2849357375,0.7237820185087622
0.06,1.71,1.0,2668.0303710731346,0.4912763959267811,1.2936621003372426,0.9794581611975124,0.284873,0.7250081977854568
0.0605,1.7084937500000001,1.0,2665.793277971002,0.49412993409669237,1.2930024299566012,0.979653608373037,0.2848097375,0.726242270534206
0.061,1.7069750000000001,1.0,2663.561769389785,0.49696747763498383,1.2923370716624656,0.9798443388039759,0.28474595,0.7274841726142043
0.0615,1.7054437500000001,1.0,2661.3362821083674,0.4997891123978852,1.2916660213804212,0.9800304908577395,0.2846816375,0.7287338391967975
0.062,1.7039,1.0,2659.1172521794692,0.5025949242416263,1.2909892750360539,0.9802121976572475,0.2846168,0.7299912047640045
0.0625,1.70234375,1.0,2656.9051149337342,0.5053849990224368,1.2903068285549484,0.98038958731741,0.2845514375,0.7312562031070402
0.063,1.7007750000000001,1.0,2654.7003049846744,0.5081594225965467,1.2896186778626908,0.980562783169229,0.28448555,0.7325287673248309
0.0635,1.69919375,1.0,2652.503256234048,0.5109182808201855,1.288924818884866,0.9807319039722555,0.28441913750000003,0.7338088298225361
0.064,1.6976,1.0,2650.314401876827,0.5136616595495831,1.2882252475470597,0.9808970641160848,0.2843522,0.7350963223100644
0.0645,1.69599375,1.0,2648.134174407602,0.5163896446409694,1.2875199597748572,0.9810583738115358,0.2842847375,0.7363911758005883
0.065,1.694375,1.0,2645.9630056267056,0.5191023219505738,1.2868089514938439,0.9812159392721093,0.28421675,0.7376933206090622
0.0655,1.69274375,1.0,2643.8013266465127,0.5217997773346265,1.286092218629605,0.9813698628862906,0.2841482375,0.7390026863507342
0.066,1.6911,1.0,2641.6495678989168,0.5244820966493569,1.2853697571077265,0.9815202433812139,0.2840792,0.7403192019396594
0.0665,1.6894437500000001,1.0,2639.5081591424605,0.527149365750995,1.2846415628537933,0.9816671759781879,0.2840096375,0.7416427955872131
0.067,1.687775,1.0,2637.377529469838,0.5298016704957704,1.2839076317933908,0.9818107525405341,0.28393955,0.7429733948006008
0.0675,1.68609375,1.0,2635.258107316474,0.5324390967399132,1.2831679598521046,0.9819510617141751,0.2838689375,0.7443109263813676
0.068,1.6844000000000001,1.0,2633.1503204686933,0.5350617303396528,1.28242254295552,0.9820881890613729,0.2837978,0.7456553164239077
0.0685,1.68269375,1.0,2631.0545960723634,0.5376696571512192,1.2816713770292227,0.9822222171879967,0.2837261375,0.7470064903139715
0.069,1.680975,1.0,2628.9690547495165,0.5402629422012534,1.280914479355476,0.9823532255385248,0.28365395,0.7483643344656945
0.0695,1.67924375,1.0,2626.8915652491564,0.5428416532758613,1.2801518695782135,0.9824812911586446,0.28358123749999997,0.7497287307775244
0.07,1.6775,1.0,2624.827772966571,0.5454059230823521,1.2793834952903171,0.9826064892127871,0.283508,0.7510996892836905
0.07050000000000001,1.67574375,1.0,2622.7774723297016,0.5479558278381603,1.2786093582572111,0.9827288912952115,0.2834342375,0.7524771221030133
0.07100000000000001,1.673975,1.0,2620.7404581568567,0.5504914437607205,1.2778294602443192,0.9828485666158452,0.28335995,0.7538609407536679
0.07150000000000001,1.67219375,1.0,2618.716525652405,0.5530128470674669,1.277043803017065,0.9829655820941818,0.2832851375,0.7552510561538319
0.07200000000000001,1.6704,1.0,2616.7054704021116,0.5555201139758345,1.2762523883408727,0.9830800024488688,0.2832098,0.7566473786223331
0.0725,1.66859375,1.0,2614.7070883687456,0.5580133207032573,1.275455217981166,0.983191890283208,0.2831339375,0.7580498178792995
0.073,1.6667750000000001,1.0,2612.7211758877124,0.5604925434671703,1.2746522937033689,0.9833013061667847,0.28305755,0.7594582830468062
0.0735,1.66494375,1.0,2610.7475296628354,0.5629578584850078,1.273843617272905,0.9834083087134219,0.2829806375,0.7608726826495239
0.074,1.6631,1.0,2608.785946761899,0.5654093419742043,1.2730291904551985,0.9835129546556456,0.2829032,0.7622929246153667
0.0745,1.6612437500000001,1.0,2606.8362246127617,0.5678470701521945,1.2722090150156726,0.9836152989158449,0.2828252375,0.7637189162761394
0.075,1.659375,1.0,2604.8981609991993,0.5702711192364128,1.271383092719752,0.9837153946742855,0.28274675,0.765150564368184
0.0755,1.65749375,1.0,2602.971554056864,0.5726815654442937,1.27055142533286,0.983813293434141,0.2826677375,0.7665877750330289
