Time [s],Phi [rad],STIM [ ],Fsee [N],Gamma [ ],Lcerel [ ],q [ ],Lmtc [m],fisomrel [ ]
0.0,1.8,1.0,18.106206070153657,0.000379299151556472,1.3793241982279796,0.005037256009988938,0.288653,0.5411771448938152
0.0005,1.79999375,1.0,18.533421678484537,0.005986380892118054,1.379273975319901,0.0139975011383636,0.2886527375,0.541298634072191
0.001,1.799975,1.0,22.149128025460314,0.01156201133732495,1.3788844228621742,0.03755892062190741,0.28865195,0.5422404148992258
0.0015,1.79994375,1.0,32.19906614584004,0.017106366905087426,1.377950805622056,0.0732544464424347,0.2886506375,0.544493585872573
0.002,1.7999,1.0,55.90025088253777,0.022619623021454257,1.3762193526117104,0.11784860205158582,0.2886488,0.5486575214299285
0.0025,1.79984375,1.0,100.91810099478327,0.028101954129979005,1.3737538508490115,0.16797375558795033,0.28864643749999996,0.5545537594883128
0.003,1.7997750000000001,1.0,165.8396003018244,0.03355353369667838,1.3710329917666324,0.2207824180798225,0.28864354999999997,0.5610156856527491
0.0035,1.79969375,1.0,243.16473930073258,0.03897453421205743,1.368416854758388,0.27409285348567647,0.2886401375,0.5671843786031152
0.004,1.7996,1.0,327.2786532033523,0.04436512720096431,1.3660028473808083,0.3262831365326351,0.2886362,0.5728377414194539
0.0045000000000000005,1.7994937500000001,1.0,415.27295900545863,0.04972548322814162,1.3637823623779506,0.37622944636624,0.2886317375,0.5780050791540736
0.005,1.799375,1.0,505.530163915054,0.055055771889294,1.3617287594004022,0.42323553396178065,0.28862675,0.5827560734140496
0.0055,1.79924375,1.0,596.9544585150477,0.06035616185072502,1.3598187171187057,0.46693949744041746,0.2886212375,0.5871507997801302
0.006,1.7991000000000001,1.0,688.6813852077422,0.06562682081486569,1.3580346345611118,0.5072213010235758,0.2886152,0.5912346953274589
0.006500000000000001,1.79894375,1.0,780.0013285150761,0.07086791553397899,1.3563629857347257,0.544124158959968,0.2886086375,0.5950428010147695
0.007,1.798775,1.0,870.328866501687,0.07607961189906634,1.3547929503251408,0.5777939764419332,0.28860155,0.5986031964272391
0.0075,1.79859375,1.0,959.1767454267726,0.08126207466472181,1.3533156569467422,0.6084354926103304,0.2885939375,0.6019389239677679
0.008,1.7984,1.0,1046.1702326062716,0.08641546807777327,1.3519231987906914,0.6362816181098125,0.2885858,0.6050703512529576
0.0085,1.79819375,1.0,1130.9898913284596,0.09153995493716097,1.3506089960212326,0.6615737429619651,0.2885771375,0.6080144512403804
0.009000000000000001,1.797975,1.0,1213.3913042169117,0.09663569732096002,1.349367090451622,0.684548741388358,0.28856795,0.6107864671854855
0.0095,1.79774375,1.0,1293.2190479465828,0.10170285694533941,1.3481917081718842,0.7054313094534581,0.2885582375,0.6134009386490609
0.01,1.7975,1.0,1370.3343500828971,0.10674159368931942,1.3470780342225341,0.7244304335312058,0.288548,0.6158700196435632
0.0105,1.79724375,1.0,1444.6486209499137,0.11175206688007558,1.346021557704892,0.7417373249315704,0.2885372375,0.6182049796029341
0.011,1.796975,1.0,1516.1281680374577,0.1167344354390927,1.3450178934359445,0.7575250833027876,0.28852595000000003,0.620416623753263
0.0115,1.79669375,1.0,1584.7537600695841,0.12168885711125428,1.3440631782534374,0.7719495004297692,0.2885141375,0.6225144431445899
0.012,1.7964,1.0,1650.5176969712736,0.126615488097054,1.343153988728676,0.7851500903189714,0.28850180000000003,0.6245068240420908
0.0125,1.79609375,1.0,1713.4460256776554,0.13151448412485028,1.3422869937678625,0.7972512575811035,0.2884889375,0.6264018300298446
0.013000000000000001,1.7957750000000001,1.0,1773.5969688473406,0.13638600118921887,1.341458922100657,0.8083637081066927,0.28847555,0.6282072848145965
0.0135,1.79544375,1.0,1831.0209280382492,0.14123019347647708,1.3406669635810706,0.8185860069601884,0.2884616375,0.6299299104733849
0.014,1.7951000000000001,1.0,1885.7635366501643,0.14604721328795536,1.3399086679915433,0.828005845285599,0.2884472,0.631575565765991
0.0145,1.79474375,1.0,1937.8942501695697,0.1508372129249841,1.3391815851145148,0.8367011309362641,0.2884322375,0.6331500392831797
0.015,1.794375,1.0,1987.495751572626,0.15560034402945036,1.3384833555491444,0.8447411483340933,0.28841675,0.6346588584699984
0.0155,1.79399375,1.0,2034.6589395419385,0.16033675844706868,1.3378117377995786,0.8521875771600801,0.2884007375,0.6361072378980508
0.016,1.7936,1.0,2079.461667844308,0.16504660605568985,1.3371648051376186,0.8590954470547887,0.2883842,0.6374996625526521
0.0165,1.7931937500000001,1.0,2121.9733300974553,0.1697300347816859,1.3365408665214231,0.8655138954476593,0.2883671375,0.6388400674777094
0.017,1.792775,1.0,2162.27560238303,0.17438719255142893,1.3359382309091514,0.8714867950170888,0.28834955,0.640132350171013
0.0175,1.7923437500000001,1.0,2200.460156035796,0.1790182271522062,1.335355219864169,0.8770533792585891,0.2883314375,0.641380346013568
0.018000000000000002,1.7919,1.0,2236.610637860184,0.18362328477570453,1.3347903381588941,0.8822488324073808,0.2883128,0.6425874664395833
0.0185,1.79144375,1.0,2270.8277568777444,0.18820251342418798,1.3342420077844612,0.8871046931454772,0.2882936375,0.6437572711486357
0.019,1.790975,1.0,2303.1765688279065,0.19275605635840135,1.3337090849436746,0.8916494018901502,0.28827395,0.6448923680677787
0.0195,1.79049375,1.0,2333.7284456714597,0.19728405683908948,1.3331904258393388,0.8959085487633361,0.2882537375,0.6459953447991074
0.02,1.79,1.0,2362.560556203568,0.20178665812699711,1.3326848866742578,0.8999051970416986,0.288233,0.6470687697019653
0.0205,1.78949375,1.0,2389.7532262503837,0.20626400312097481,1.3321913445313327,0.9036601711804494,0.2882117375,0.6481151486558209
0.021,1.788975,1.0,2415.3798474544988,0.21071623325826336,1.3317087898673006,0.9071923244731475,0.28818995000000003,0.6491367306274587
0.021500000000000002,1.78844375,1.0,2439.52524776757,0.21514349201695254,1.3312361429845059,0.9105187172906228,0.2881676375,0.6501358978977934
0.022,1.7879,1.0,2462.2469756199916,0.21954591768562023,1.3307726227173307,0.913654882795289,0.2881448,0.6511143879486557
0.0225,1.78734375,1.0,2483.6055933107277,0.2239236485528444,1.3303174479001563,0.9166149312194698,0.28812143749999997,0.6520739273365037
0.023,1.786775,1.0,2503.6644279302723,0.22827682290720297,1.3298698373673647,0.9194116999069176,0.28809755,0.6530162321276414
0.0235,1.78619375,1.0,2522.489335813414,0.23260557903727377,1.3294290099533375,0.9220568857609526,0.28807313749999996,0.6539430082945277
0.024,1.7856,1.0,2540.1384477963957,0.2369100528551355,1.3289942790240905,0.924561178274135,0.2880482,0.6548557537290143
0.0245,1.78499375,1.0,2556.677960648734,0.24119038387425643,1.3285649006771059,0.9269343373078334,0.2880227375,0.6557560779433786
0.025,1.784375,1.0,2572.160352859551,0.2454467074256805,1.3281402769562631,0.9291853171840003,0.28799675,0.6566452762725349
0.025500000000000002,1.78374375,1.0,2586.630988736445,0.24967915644588587,1.3277198905036054,0.9313223352774895,0.2879702375,0.6575244686489314
0.026000000000000002,1.7831000000000001,1.0,2600.1365262649815,0.2538878638713507,1.3273032239611755,0.9333529312876494,0.2879432,0.6583947690836116
0.0265,1.78244375,1.0,2612.7248067178325,0.2580729626385531,1.3268897599710168,0.9352840322718845,0.2879156375,0.6592572857974842
0.027,1.781775,1.0,2624.444750199664,0.26223458568397134,1.3264789811751723,0.9371220106451884,0.28788755,0.6601131213355278
0.0275,1.7810937500000001,1.0,2635.340973202085,0.26637286437765745,1.3260704190950134,0.9388727427024853,0.2878589375,0.6609632710178646
0.028,1.7804,1.0,2645.454596594382,0.27048792996505877,1.3256636453482562,0.9405416534514048,0.2878298,0.6618086418956799
0.0285,1.77969375,1.0,2654.8395434647696,0.2745799170326667,1.3252581203543288,0.9421337370743635,0.2878001375,0.662650367166993
0.029,1.778975,1.0,2663.5271946503653,0.27864895266441975,1.3248535188332877,0.943653637494904,0.28776995,0.6634891304261186
0.029500000000000002,1.7782437500000001,1.0,2671.549458483237,0.2826951639442565,1.3244495155051903,0.9451056521371893,0.2877392375,0.6643256118891814
0.03,1.7775,1.0,2678.9387245908406,0.2867186779561154,1.3240457850900935,0.9464937622127055,0.287708,0.6651604884099009
0.0305,1.77674375,1.0,2685.727820042134,0.2907196217839352,1.323642002308054,0.947821660000081,0.2876762375,0.6659944334886276
0.031,1.775975,1.0,2691.9499678399147,0.2946981225116542,1.3232378418791289,0.9490927734492071,0.28764395,0.6668281172746279
0.0315,1.7751937500000001,1.0,2697.638747758542,0.2986543072232112,1.3228329785233754,0.950310288401118,0.2876111375,0.6676622065616257
0.032,1.7744,1.0,2702.8213810765797,0.3025882985569464,1.3224271479642735,0.9514771747702315,0.2875778,0.6684972393355373
0.0325,1.77359375,1.0,2707.5326454315436,0.306500226639609,1.3220200193556875,0.9525961924414028,0.2875439375,0.6693338875451615
0.033,1.772775,1.0,2711.795924790184,0.31039021411560896,1.321611368110634,0.9536699242134485,0.28750955,0.6701726017283363
0.0335,1.7719437500000002,1.0,2715.632771319734,0.31425838217826063,1.321200988109455,0.9547007814437445,0.2874746375,0.6710137922114467
0.034,1.7711000000000001,1.0,2719.0649068198995,0.3181048520208784,1.3207886732324927,0.9556910158828311,0.2874392,0.6718578671101307
0.0345,1.7702437500000001,1.0,2722.1142052963246,0.3219297448367768,1.3203742173600888,0.9566427321212941,0.2874032375,0.6727052323051996
0.035,1.7693750000000001,1.0,2724.80267647501,0.32573318181927013,1.3199574143725852,0.957557898926949,0.28736675,0.6735562914158477
0.035500000000000004,1.76849375,1.0,2727.152450260026,0.3295152841616729,1.319538058150324,0.958438359582869,0.2873297375,0.6744114457701536
0.036000000000000004,1.7676,1.0,2729.1796951236106,0.3332761671011304,1.3191159977236646,0.959285845637766,0.2872922,0.6752709821327489
0.0365,1.76669375,1.0,2730.905865796023,0.337015952470396,1.3186910348506207,0.9601019776498368,0.2872541375,0.6761352815875016
0.037,1.765775,1.0,2732.357891556626,0.3407347686995738,1.318262922281476,0.960888273148378,0.28721555,0.6770048223879312
0.0375,1.76484375,1.0,2733.5484230466054,0.3444327300110957,1.317831543122691,0.9616461671956689,0.2871764375,0.6778798156768144
0.038,1.7639,1.0,2734.4901610129523,0.34810995062739364,1.3173967804807263,0.9623770087224879,0.28713679999999997,0.6787604711111915
0.0385,1.76294375,1.0,2735.1958502955754,0.3517665447708995,1.3169585174620426,0.9630820666397718,0.28709663750000003,0.6796469968375767
0.039,1.761975,1.0,2735.678274116681,0.3554026266640454,1.3165166371731005,0.9637625354526332,0.28705595,0.6805395994663006
0.0395,1.7609937500000001,1.0,2735.950248674225,0.35901831052926314,1.3160710227203607,0.9644195404221959,0.2870147375,0.6814384840449784
0.04,1.76,1.0,2736.0246180372924,0.36261371058898473,1.3156215572102838,0.9650541423161192,0.286973,0.6823438540311082
0.0405,1.7589937500000001,1.0,2735.9142493449353,0.3661889410656422,1.3151681237493305,0.9656673417846099,0.2869307375,0.683255911263797
0.041,1.757975,1.0,2735.6320283079212,0.3697441161816674,1.314710605443961,0.966260083395085,0.28688795,0.6841748559346157
0.0415,1.75694375,1.0,2735.190855013176,0.3732793501594923,1.3142488854006364,0.966833259355404,0.2868446375,0.6851008865575818
0.042,1.7559,1.0,2734.5998578445724,0.3767947507375792,1.3137828810723833,0.9673877147507333,0.28680079999999997,0.6860341312050847
0.0425,1.75484375,1.0,2733.8695339654337,0.38029043227848314,1.313312497561347,0.9679242489104902,0.2867564375,0.6869747413006088
0.043000000000000003,1.753775,1.0,2733.012717810126,0.3837665132008948,1.3128376187895612,0.9684436171737475,0.28671155,0.6879229090244809
0.043500000000000004,1.75269375,1.0,2732.0361360866823,0.3872231003031841,1.312358184182948,0.96894653738407,0.28666613750000003,0.6888787142025881
0.044,1.7516,1.0,2730.9465189302805,0.39066030038372074,1.3118741331674297,0.9694336896829537,0.2866202,0.689842235526353
0.0445,1.75049375,1.0,2729.750598481524,0.3940782202408747,1.3113854051689293,0.9699057188592531,0.2865737375,0.6908135505350184
0.045,1.7493750000000001,1.0,2728.455107545419,0.39747696667301574,1.3108919396133691,0.9703632365299022,0.28652675,0.6917927355976954
0.0455,1.74824375,1.0,2727.066778331309,0.4008566464785137,1.3103936759266714,0.9708068231655776,0.2864792375,0.69277986589518
0.046,1.7471,1.0,2725.5923412752763,0.4042173664557384,1.3098905535347587,0.9712370299737255,0.2864312,0.6937750154015334
0.0465,1.7459437500000001,1.0,2724.03852394272,0.40755923340305966,1.3093825118635534,0.9716543806502695,0.28638263750000004,0.6947782568654282
0.047,1.744775,1.0,2722.412050012867,0.4108823541188474,1.3088694903389781,0.9720593730103295,0.28633355,0.6957896617912624
0.0475,1.74359375,1.0,2720.719638345203,0.4141868354014713,1.3083514283869553,0.9724524805073708,0.28628393750000003,0.6968093004200395
0.048,1.7424,1.0,2718.959696082821,0.41747276890281904,1.3078283410783367,0.9728341570727455,0.2862338,0.6978370932045894
0.0485,1.74119375,1.0,2717.1399609182386,0.42074026764521993,1.3073001585224762,0.9732048316232375,0.2861831375,0.6988731268241741
0.049,1.739975,1.0,2715.274047286656,0.4239894517504394,1.3067667571979267,0.9735649098309808,0.28613195,0.6999175914485597
0.0495,1.73874375,1.0,2713.3647291903667,0.42722041982651354,1.306228112254789,0.9739147823659164,0.2860802375,0.7009704823497078
0.05,1.7375,1.0,2711.414777914461,0.4304332704814784,1.3056841988431638,0.9742548216963273,0.286028,0.7020317939337153
0.0505,1.73624375,1.0,2709.4269618120475,0.43362810232337,1.3051349921131512,0.974585383097346,0.2859752375,0.7031015197324846
0.051000000000000004,1.734975,1.0,2707.404046103978,0.4368050139602246,1.3045804672148524,0.9749068055948896,0.28592195,0.7041796523953514
0.051500000000000004,1.73369375,1.0,2705.348792691518,0.439964104000078,1.3040205992983678,0.975219412849689,0.2858681375,0.7052661836806802
0.052000000000000005,1.7324,1.0,2703.263959983196,0.44310547105096654,1.3034553635137978,0.9755235139857111,0.2858138,0.7063611044474134
0.0525,1.73109375,1.0,2701.1523027352096,0.44622921372092605,1.3028847350112431,0.9758194043669232,0.28575893750000003,0.707464404646585
0.053,1.729775,1.0,2699.0165719052347,0.44933543061799275,1.3023086889408044,0.9761073663260447,0.28570355000000003,0.7085760733127933
0.0535,1.72844375,1.0,2696.8595145206127,0.4524242203502027,1.3017272004525824,0.9763876698486368,0.2856476375,0.7096960985556351
0.054,1.7271,1.0,2694.683873559501,0.45549568152559194,1.3011402446966776,0.9766605732156302,0.2855912,0.7108244675511006
0.0545,1.7257437500000001,1.0,2692.4923878460845,0.4585499127521966,1.3005477968231902,0.9769263236071408,0.2855342375,0.7119611665329285
0.055,1.724375,1.0,2690.287791959247,0.46158701263805263,1.2999498319822216,0.9771851576702169,0.28547675,0.7131061807839192
0.0555,1.72299375,1.0,2688.0728161555476,0.4646070797911962,1.2993463253238717,0.9774373020529517,0.2854187375,0.7142594946272154
0.056,1.7216,1.0,2685.849596475152,0.4676101921762359,1.298737257402961,0.9776829723050507,0.2853602,0.7154210811203987
0.0565,1.72019375,1.0,2683.6200521174796,0.4705964664723077,1.2981226107303936,0.9779223787206113,0.28530113749999997,0.7165909087094842
0.057,1.718775,1.0,2681.385485710653,0.47356600060630094,1.2975023734427886,0.978155721523079,0.28524155,0.7177689342981746
0.0575,1.71734375,1.0,2679.147054784084,0.4765188849620816,1.2968765349884264,0.9783831921628029,0.2851814375,0.7189551115218931
0.058,1.7159,1.0,2676.905914960886,0.4794552099235158,1.296245084815588,0.978604974347532,0.2851208,0.720149393248103
0.0585,1.71444375,1.0,2674.663219949141,0.48237506587446943,1.2956080123725542,0.9788212444151114,0.2850596375,0.7213517315725378
0.059000000000000004,1.7129750000000001,1.0,2672.4201215346607,0.4852785431988086,1.2949653071076062,0.9790321716853789,0.28499795,0.7225620778154196
0.059500000000000004,1.71149375,1.0,2670.177769577645,0.4881657322803992,1.2943169584690244,0.9792379187925759,0.2849357375,0.7237803825176741
0.06,1.71,1.0,2667.9373120103146,0.4910367235031073,1.29366295590509,0.9794386419994925,0.284873,0.7250065954371337
0.0605,1.7084937500000001,1.0,2665.6998948382793,0.49389160725079895,1.2930032888640839,0.9796344914944906,0.2848097375,0.7262406655447393
0.061,1.7069750000000001,1.0,2663.466662143531,0.49673047390734015,1.292337946794287,0.9798256116724553,0.28474595,0.7274825410207291
0.0615,1.7054437500000001,1.0,2661.2387560900975,0.49955341385659685,1.29166691914398,0.9800121414006631,0.2846816375,0.728732169250826
0.062,1.7039,1.0,2659.0173169327536,0.502360517482435,1.290990195361444,0.9801942142704867,0.2846168,0.7299894968224128
0.0625,1.70234375,1.0,2656.8034830271577,0.505151875168721,1.2903077648949595,0.9803719588357876,0.2845514375,0.7312544695207046
0.063,1.7007750000000001,1.0,2654.598390843142,0.5079275772993203,1.2896196171928078,0.9805454988387974,0.28448555,0.732527032324909
0.0635,1.69919375,1.0,2652.3983088365376,0.5106876822445485,1.2889257865729307,0.9807149533547085,0.28441913750000003,0.7338070467258078
0.064,1.6976,1.0,2650.203097039484,0.5134322860013119,1.2882262742794879,0.9808804381823384,0.2843522,0.735094434996701
0.0645,1.69599375,1.0,2648.019413370193,0.5161615192422954,1.2875210188250799,0.9810420642098955,0.2842847375,0.7363892338449876
0.065,1.694375,1.0,2645.847280188132,0.5188754630978318,1.2868100198820327,0.9811999377732395,0.28421675,0.7376913663752169
0.0655,1.69274375,1.0,2643.6867198585073,0.5215741986982539,1.286093277122672,0.9813541613843172,0.2841482375,0.7390007550548787
0.066,1.6911,1.0,2641.537754753272,0.5242578071738945,1.2853707902193237,0.9815048338945193,0.2840792,0.7403173217142818
0.0665,1.6894437500000001,1.0,2639.400407251907,0.5269263696550863,1.2846425588443133,0.9816520506499236,0.2840096375,0.7416409875464338
0.067,1.687775,1.0,2637.2746997414647,0.5295799672721622,1.2839085826699668,0.9817959036388837,0.28393955,0.7429716731069217
0.0675,1.68609375,1.0,2635.1606546182275,0.5322186811554548,1.28316886136861,0.9819364816323906,0.2838689375,0.7443092983137911
0.068,1.6844000000000001,1.0,2633.0582942877872,0.5348425924352971,1.2824233946125692,0.9820738703176081,0.2837978,0.7456537824474269
0.0685,1.68269375,1.0,2630.967641165997,0.5374517822420216,1.2816721820741692,0.982208152424959,0.2837261375,0.7470050441504339
0.069,1.680975,1.0,2628.8887176796084,0.5400463317059613,1.2809152234257368,0.9823394078491179,0.28365395,0.748363001427514
0.0695,1.67924375,1.0,2626.821546267127,0.5426263219574489,1.2801525183395972,0.9824677137642391,0.28358123749999997,0.7497275716453498
0.07,1.6775,1.0,2624.7661493795513,0.545191834126817,1.2793840664880765,0.9825931447337327,0.283508,0.7510986715324811
0.07050000000000001,1.67574375,1.0,2622.7225494809472,0.5477429493443987,1.2786098675435005,0.9827157728148816,0.2834342375,0.7524762171791872
0.07100000000000001,1.673975,1.0,2620.690769049252,0.5502797487405267,1.2778299211781947,0.9828356676585768,0.28335995,0.7538601240373665
0.07150000000000001,1.67219375,1.0,2618.6708305771112,0.5528023134455335,1.2770442270644853,0.9829528966044251,0.2832851375,0.7552503069204143
0.07200000000000001,1.6704,1.0,2616.6627565725607,0.5553107245897523,1.276252784874698,0.9830675247714771,0.2832098,0.7566466800031053
0.0725,1.66859375,1.0,2614.666569559772,0.5578050633035154,1.2754555942811585,0.9831796151448045,0.2831339375,0.7580491568214727
0.073,1.6667750000000001,1.0,2612.682292079768,0.560285410717156,1.274652654956193,0.9832892286581372,0.28305755,0.7594576502726863
0.0735,1.66494375,1.0,2610.7099466913373,0.5627518479610067,1.2738439665721266,0.9833964242727725,0.2829806375,0.7608720726149363
0.074,1.6631,1.0,2608.7495559714316,0.5652044561654003,1.2730295288012858,0.9835012590529388,0.2829032,0.7622923354673081
0.0745,1.6612437500000001,1.0,2606.8009666814805,0.5676432871350717,1.2722093429514498,0.9836037866501809,0.2828252375,0.7637183469704718
0.075,1.659375,1.0,2604.8639378591697,0.570068436035038,1.2713834111492441,0.9837040614908336,0.28274675,0.7651500132429857
0.0755,1.65749375,1.0,2602.9383251818062,0.5724799988300946,1.270551734625576,0.9838021362796698,0.2826677375,0.7665872413619004
