Time [s],Phi [rad],STIM [ ],Fsee [N],Gamma [ ],Lcerel [ ],q [ ],Lmtc [m],fisomrel [ ]
0.0,1.8,1.0,17.968162055766793,3.7494235140778367e-05,1.3793396337522423,0.005000370787894856,0.288653,0.5411398031400341
0.0005,1.79999375,1.0,18.286695513820373,0.00564649323093682,1.3793012825366797,0.013017020066617,0.2886527375,0.5412325799299422
0.001,1.799975,1.0,21.648781368755305,0.011224030177152606,1.3789351983112164,0.03575199064264871,0.28865195,0.5421177151812473
0.0015,1.79994375,1.0,31.143108269452455,0.016770281551897876,1.378039913802262,0.07079793262462183,0.2886506375,0.5442787741466144
0.002,1.7999,1.0,53.742956049231836,0.022285422841584447,1.3763577226411883,0.11495018148606909,0.2886488,0.5483254611235281
0.0025,1.79984375,1.0,97.38979801608444,0.027769628548686268,1.3739221242325863,0.16482741846967244,0.28864643749999996,0.5541525669942293
0.003,1.7997750000000001,1.0,161.3113118328207,0.0332230721991976,1.371201132444875,0.21754095896251804,0.28864354999999997,0.5606177272692678
0.0035,1.79969375,1.0,238.0827309019885,0.03864592634242832,1.3685724368402814,0.2708719829766769,0.2886401375,0.5668187461786249
0.004,1.7996,1.0,321.89193743392093,0.044038362561732367,1.366144835091191,0.323166672052631,0.2886362,0.5725062491583056
0.0045000000000000005,1.7994937500000001,1.0,409.70820077862464,0.04940055147970764,1.3639124779066816,0.37327264714908365,0.2886317375,0.5777031518616678
0.005,1.799375,1.0,499.863040717079,0.05473266274938967,1.3618487918811482,0.42047025697562856,0.28862675,0.5824791193053366
0.0055,1.79924375,1.0,591.2440719691917,0.0600348651003829,1.3599299734235646,0.46437997204284287,0.2886212375,0.5868954535437247
0.006,1.7991000000000001,1.0,682.9724458726015,0.06530732628532093,1.3581381574741132,0.5048695252497344,0.2886152,0.5909982785747683
0.006500000000000001,1.79894375,1.0,774.3320107011011,0.07055021309262934,1.356459560090676,0.5419740951992819,0.2886086375,0.5948232845024293
0.007,1.798775,1.0,864.7365903543913,0.07576369157973628,1.3548831144178406,0.575834689722037,0.28860155,0.5983991552968555
0.0075,1.79859375,1.0,953.6773017137552,0.0809479264331206,1.3534001032551297,0.6066536213587201,0.2885939375,0.6017486193216316
0.008,1.7984,1.0,1040.7859108930618,0.08610308187192973,1.3520023535580856,0.6346626121658334,0.2885858,0.6048926756682669
0.0085,1.79819375,1.0,1125.7395798096625,0.09122932101151077,1.3506832206427641,0.6601029690729355,0.2885771375,0.6078484654324567
0.009000000000000001,1.797975,1.0,1208.2841765942808,0.09632680560574455,1.349436788618457,0.6832121384925947,0.28856795,0.6106311567602671
0.0095,1.79774375,1.0,1288.2669667803366,0.10139569777378557,1.3482571650731112,0.7042156366748126,0.2885582375,0.6132555707118615
0.01,1.7975,1.0,1365.5561534395615,0.10643615786093912,1.3471393845950907,0.7233234269361831,0.288548,0.6157342081088701
0.0105,1.79724375,1.0,1440.041671182342,0.11144834454472392,1.3460791635290972,0.7407279467409511,0.2885372375,0.6180778462085472
0.011,1.796975,1.0,1511.6771486319603,0.11643241650265876,1.3450722182198322,0.7566034296735207,0.28852595000000003,0.620297079760346
0.0115,1.79669375,1.0,1580.4551522423076,0.12138853176555729,1.3441144914548786,0.7711066050559279,0.2885141375,0.6224018391924435
0.012,1.7964,1.0,1646.391527338468,0.12631684768139434,1.3432022496984561,0.784377814883617,0.28850180000000003,0.6244011983479547
0.0125,1.79609375,1.0,1709.4935136147221,0.13121751946282514,1.3423323645262069,0.7965424404492614,0.2884889375,0.6263027812432915
0.013000000000000001,1.7957750000000001,1.0,1769.7986534980498,0.13609070208198337,1.3415017753378453,0.8077120647818806,0.28847555,0.6281139586769765
0.0135,1.79544375,1.0,1827.3586468906321,0.1409365496669526,1.340707627546719,0.8179859360653755,0.2884616375,0.6298415578172394
0.014,1.7951000000000001,1.0,1882.2597925304083,0.14575521680352332,1.3399470014508854,0.8274522000221517,0.2884472,0.6314924623869634
0.0145,1.79474375,1.0,1934.5537928333229,0.15054685497870718,1.3392176359675896,0.8361894042051334,0.2884322375,0.6330720518130099
0.015,1.794375,1.0,1984.306489777529,0.1553116153516122,1.3385173414489722,0.8442673898849256,0.28841675,0.6345854895992347
0.0155,1.79399375,1.0,2031.601152381838,0.1600496489575807,1.3378439419674777,0.8517482911471531,0.2884007375,0.6360378535582767
0.016,1.7936,1.0,2076.5260396073154,0.1647611058163589,1.337195387169183,0.8586874791675044,0.2883842,0.6374338994637267
0.0165,1.7931937500000001,1.0,2119.175391024167,0.1694461362018443,1.3365697200480118,0.8651343533150928,0.2883671375,0.6387781363099585
0.017,1.792775,1.0,2159.616874084252,0.1741048871060062,1.3359653915101477,0.8711331348861101,0.28834955,0.6400741572303354
0.0175,1.7923437500000001,1.0,2197.928894343846,0.17873750552081386,1.3353808524617745,0.8767233605482699,0.2883314375,0.641325522327849
0.018000000000000002,1.7919,1.0,2234.1996952892787,0.18334413843823663,1.334814553809076,0.8819404332640205,0.2883128,0.6425357607067261
0.0185,1.79144375,1.0,2268.507297483459,0.18792493083752218,1.3342651380300135,0.8868161532916654,0.2882936375,0.6437079639597452
0.019,1.790975,1.0,2300.9569596128345,0.19248003057521315,1.333731053673732,0.8913790398597268,0.28827395,0.6448456116512139
0.0195,1.79049375,1.0,2331.614235388536,0.197009580159096,1.3332112136519458,0.8956548634575673,0.2882537375,0.6459511705886394
0.02,1.79,1.0,2360.5488613365073,0.2015137219300338,1.332704545179387,0.8996668504386653,0.288233,0.6470270587276059
0.0205,1.78949375,1.0,2387.8357201227313,0.20599259822888957,1.3322099754707868,0.9034359654343119,0.2882117375,0.6480756766508267
0.021,1.788975,1.0,2413.554405750849,0.21044635139652637,1.3317264317408766,0.9069811623863449,0.28818995000000003,0.649099408432607
0.021500000000000002,1.78844375,1.0,2437.772290451238,0.21487512144334064,1.3312530001324778,0.910319637312151,0.2881676375,0.6501002866812267
0.022,1.7879,1.0,2460.5752335017332,0.21927905174747656,1.3307886243608416,0.9134669587474213,0.2881448,0.651080631356703
0.0225,1.78734375,1.0,2482.0207960391704,0.22365828028810336,1.3303325517992686,0.9164373265667062,0.28812143749999997,0.6520421084878303
0.023,1.786775,1.0,2502.1651355082313,0.22801294436734318,1.3298840688680245,0.9192436654972014,0.28809755,0.6529862917955246
0.0235,1.78619375,1.0,2521.066830137057,0.23234318128731815,1.3294424619873741,0.9218977506602013,0.28807313749999996,0.6539147456623009
0.024,1.7856,1.0,2538.78667519231,0.2366491283501504,1.3290070175775828,0.9244103257057461,0.2880482,0.6548290254614291
0.0245,1.78499375,1.0,2555.3823970525323,0.2409309218458278,1.3285770699079438,0.9267912153578017,0.2880227375,0.655730577585173
0.025,1.784375,1.0,2570.910527229002,0.24518869773711355,1.328151981124369,0.9290494139426827,0.28799675,0.6566207821560963
0.025500000000000002,1.78374375,1.0,2585.4377093339126,0.24942259346582615,1.327731033766603,0.9311931499479518,0.2879702375,0.6575011782725564
0.026000000000000002,1.7831000000000001,1.0,2599.0053756177067,0.2536327410018522,1.3273137595058095,0.9332300115310763,0.2879432,0.6583727769074397
0.0265,1.78244375,1.0,2611.6560813229594,0.2578192723150781,1.3268996900131522,0.9351669695492317,0.2879156375,0.6592365837669164
0.027,1.781775,1.0,2623.433410358983,0.2619823193753906,1.3264883569597947,0.9370104360553204,0.28788755,0.6600935993931558
0.0275,1.7810937500000001,1.0,2634.3818858398595,0.2661220141526763,1.3260792920169004,0.9387663165389774,0.2878589375,0.6609448192530516
0.028,1.7804,1.0,2644.5468854845926,0.27023848861682165,1.3256720268556332,0.9404400566489062,0.2878298,0.6617912338129583
0.0285,1.77969375,1.0,2653.9671811694984,0.27433187079190924,1.3252661611829644,0.942036692270899,0.2878001375,0.6626336874658734
0.029,1.778975,1.0,2662.6926228057737,0.27840229560722224,1.3248611987509384,0.9435608672676772,0.28776995,0.6634732192158905
0.029500000000000002,1.7782437500000001,1.0,2670.754681274423,0.2824498901276984,1.3244568182054834,0.9450169000873737,0.2877392375,0.6643105010203249
0.03,1.7775,1.0,2678.183975847227,0.2864747807665156,1.3240527103962705,0.9464087925443595,0.287708,0.6651461762909148
0.0305,1.77674375,1.0,2685.0115541072914,0.29047709393685217,1.3236485661729713,0.9477402557573484,0.2876762375,0.6659808852492979
0.031,1.775975,1.0,2691.2688524454356,0.294456956051886,1.3232440763852575,0.9490147349240857,0.28764395,0.6668152649293424
0.0315,1.7751937500000001,1.0,2696.9876586755026,0.29841449352479527,1.3228389318828007,0.9502354316936159,0.2876111375,0.6676499491733814
0.032,1.7744,1.0,2702.1989036894356,0.30234983229642937,1.3224328342318448,0.9514053255601785,0.2875778,0.6684855465855222
0.0325,1.77359375,1.0,2706.9222590855766,0.30626308966396837,1.3220255903128144,0.9525272009611843,0.2875439375,0.6693224463765415
0.033,1.7727755737405644,1.0,2711.236487789533,0.31015440432749736,1.3216167291253997,0.9536036266974585,0.2875095740971037,0.6701616056973191
0.0335,1.7719543610237738,1.0,2715.5659082748957,0.3140238960663707,1.3212063894980397,0.9546370640254884,0.2874750831629985,0.6710027275052093
0.034,1.7711331483069832,1.0,2720.045903390488,0.3178716846599428,1.3207947102591737,0.9556298105524461,0.2874405922288933,0.6718455161662398
0.0345,1.7703119355901926,1.0,2724.661576990406,0.32169788988756814,1.320381830237241,0.9565840130507841,0.2874061012947881,0.6726896774675883
0.035,1.769490722873402,1.0,2729.397991577998,0.3255026315286011,1.319967888260681,0.9575016791277574,0.28737161036068287,0.673534918628828
0.035500000000000004,1.7686695101566117,1.0,2734.24016482393,0.32928602936239604,1.3195530231579329,0.9583846878640565,0.2873371194265777,0.674380948311944
0.036000000000000004,1.767848297439821,1.0,2739.1730665107825,0.3330482031683074,1.3191373737574357,0.9592347995232469,0.28730262849247246,0.6752274766301238
0.0365,1.7670270847230305,1.0,2744.1816159055575,0.33678927272568954,1.318721078887629,0.9600536644227,0.2872681375583673,0.676074215155312
0.037,1.76620587200624,1.0,2749.250679558976,0.340509357813897,1.3183042773769518,0.9608428310469737,0.2872336466242621,0.6769208769245425
0.0375,1.7653846592894493,1.0,2754.367640074289,0.3442085758106181,1.3178870847943,0.9616037506871484,0.28719915569015686,0.6777672236000685
0.038,1.7645634465726587,1.0,2759.5241564879475,0.34788704371717466,1.3174695776315126,0.9623377834288824,0.2871646647560517,0.6786130971889954
0.0385,1.7637422338558681,1.0,2764.707969712726,0.35154488279790835,1.3170518674884724,0.9630462126586727,0.28713017382194644,0.6794582695219138
0.039,1.7629210211390776,1.0,2769.913964926428,0.3551822062926667,1.3166340010871596,0.9637302386696899,0.28709568288784126,0.6803026446286244
0.0395,1.7620998084222872,1.0,2775.1370080328534,0.35879912744129744,1.316216025149555,0.9643909921006024,0.28706119195373603,0.6811461270364032
0.04,1.7612785957054966,1.0,2780.371945524756,0.362395759483648,1.3157979863976388,0.9650295387262796,0.28702670101963085,0.6819886217703979
0.0405,1.760457382988706,1.0,2785.6136043942784,0.36597221565956595,1.3153799315533912,0.9656468838702074,0.28699221008552567,0.6828300343538849
0.041,1.7596361702719154,1.0,2790.8567920919163,0.36952860920889896,1.3149619073387928,0.966243976472161,0.28695771915142043,0.6836702708083855
0.0415,1.7588149575551248,1.0,2796.0962965345802,0.3730650533714945,1.314543960475824,0.9668217128413951,0.28692322821731525,0.6845092376536457
0.042,1.7579937448383343,1.0,2801.3268861608244,0.3765816613872001,1.314126137686465,0.9673809401226694,0.28688873728321,0.6853468419074746
0.0425,1.7571725321215437,1.0,2806.549100390117,0.3800785310745993,1.3137084337880287,0.9679224527080987,0.28685424634910484,0.6861830949306824
0.043000000000000003,1.756351319404753,1.0,2811.7534980502433,0.38355579387667454,1.313290933000916,0.9684470151043512,0.2868197554149996,0.6870178293986468
0.043500000000000004,1.7555301066879627,1.0,2816.9375728139735,0.3870135601115929,1.3128736571866704,0.9689553428115666,0.2867852644808944,0.687851003311983
0.044,1.7547088939711721,1.0,2822.1002658441744,0.3904519357834522,1.3124566151897508,0.9694481121045679,0.28675077354678924,0.6886826008423598
0.0445,1.7538876812543815,1.0,2827.2405150368013,0.3938710268963506,1.3120398158546152,0.969925964177238,0.286716282612684,0.6895126062545214
0.045,1.753066468537591,1.0,2832.357255067718,0.39727093945438596,1.311623268025722,0.9703895073080471,0.2866817916785788,0.6903410039061512
0.0455,1.7522452558208004,1.0,2837.449417440748,0.4006517794616562,1.3112069805475297,0.9708393188715283,0.28664730074447364,0.6911677782477343
0.046,1.7514240431040098,1.0,2842.5159305381926,0.4040136529222593,1.3107909622644964,0.9712759472080593,0.2866128098103684,0.6919929138224119
0.0465,1.7506028303872192,1.0,2847.555719672655,0.4073566658402932,1.3103752220210807,0.9716999133631975,0.28657831887626317,0.6928163952658318
0.047,1.7497816176704286,1.0,2852.567707140758,0.41068092421985575,1.3099597686617406,0.9721117127068344,0.286543827942158,0.6936382073059957
0.0475,1.748960404953638,1.0,2857.5508122784036,0.41398653406504504,1.3095446110309343,0.9725118164415382,0.2865093370080528,0.6944583347630982
0.048,1.7481391922368477,1.0,2862.503951517826,0.4172736013799589,1.3091297579731207,0.9729006730086376,0.2864748460739476,0.6952767625493617
0.0485,1.747317979520057,1.0,2867.426038446855,0.4205422321686953,1.3087152183327577,0.9732787093998754,0.2864403551398424,0.6960934756688704
0.049,1.7464967668032665,1.0,2872.3174421280555,0.42379251252317707,1.3083009880330136,0.9736463290961835,0.2864058642057372,0.6969084846233022
0.0495,1.745675554086476,1.0,2877.1775166650336,0.42702456027666713,1.3078870720023328,0.9740039210983921,0.286371373271632,0.697721782186959
0.05,1.7448543413696853,1.0,2882.0053010516062,0.4302384934437556,1.307473477945685,0.9743518564885805,0.2863368823375268,0.6985333557397462
0.0505,1.7440331286528947,1.0,2886.801074345138,0.43343440934439115,1.3070602025879208,0.974690486153055,0.28630239140342156,0.6993432142431921
0.051000000000000004,1.7432119159361041,1.0,2891.565117515059,0.43661240529852263,1.3066472426538918,0.9750201450188121,0.2862679004693164,0.7001513666223381
0.051500000000000004,1.7423907032193136,1.0,2896.297713419573,0.4397725786260988,1.3062345948684484,0.9753411529207785,0.28623340953521115,0.7009578217658077
0.052000000000000005,1.7415694905025232,1.0,2900.9991467832097,0.4429150266470684,1.3058222559564416,0.975653815414559,0.28619891860110597,0.7017625885258696
0.0525,1.7407482777857326,1.0,2905.669704173837,0.4460398466813802,1.3054102226427229,0.9759584245385614,0.2861644276670008,0.7025656757185027
0.053,1.739927065068942,1.0,2910.3096739807243,0.44914713604898304,1.3049984916521424,0.9762552595290697,0.28612993673289555,0.703367092123463
0.0535,1.7391058523521514,1.0,2914.919346392333,0.4522369920698256,1.304587059709552,0.9765445874915453,0.28609544579879037,0.7041668464843427
0.054,1.7382846396353608,1.0,2919.4990133744495,0.4553095120638567,1.3041759235398016,0.9768266640311953,0.28606095486468514,0.7049649475086377
0.0545,1.7374634269185703,1.0,2924.0489686486244,0.4583647933510251,1.3037650798677431,0.9771017338455991,0.28602646393057995,0.705761403867805
0.055,1.7366422142017797,1.0,2928.5695076707757,0.46140293325127957,1.3033545254182268,0.9773700312819796,0.2859919729964747,0.706556224197329
0.0555,1.735821001484989,1.0,2933.0609276102755,0.46442402908456887,1.302944256916104,0.9776317808615086,0.28595748206236954,0.7073494170967779
0.056,1.7349997887681985,1.0,2937.5235273286917,0.4674281781708418,1.3025342710862255,0.9778871977728525,0.28592299112826436,0.7081409911298667
0.0565,1.7341785760514081,1.0,2941.957607359347,0.47041547783004706,1.3021245646534423,0.9781364883370036,0.2858885001941591,0.7089309548245153
0.057,1.7333573633346175,1.0,2946.3634317961614,0.47338602130253754,1.3017151346758526,0.9783798501010635,0.28585400926005394,0.7097193160316713
0.0575,1.732536150617827,1.0,2950.740895177507,0.47633983521483686,1.3013059814555596,0.9786174669721344,0.28581951832594876,0.710506076336422
0.058,1.7317149379010364,1.0,2955.09153646974,0.47927711116092503,1.3008970909328479,0.9788495290309213,0.2857850273918435,0.7112912648856807
0.0585,1.7308937251842458,1.0,2959.415747270901,0.4821979360631027,1.3004884591093773,0.9790762102645991,0.2857505364577383,0.7120748913969136
0.059000000000000004,1.7300725124674552,1.0,2963.7139209676475,0.48510239684367046,1.3000800819868075,0.9792976778112499,0.2857160455236331,0.7128569655446139
0.059500000000000004,1.7292512997506646,1.0,2967.986452712664,0.487990580424929,1.2996719555667988,0.9795140922832758,0.28568155458952793,0.7136374969603653
0.06,1.728430087033874,1.0,2972.233739402195,0.4908625737291788,1.299264075851011,0.9797256080731026,0.2856470636554227,0.7144164952329093
0.0605,1.7276088743170837,1.0,2976.4561796543076,0.4937184636787207,1.2988564388411041,0.9799323736422758,0.2856125727213175,0.7151939699082059
0.061,1.726787661600293,1.0,2980.6541737867137,0.4965583371958552,1.2984490405387379,0.9801345317949702,0.28557808178721233,0.7159699304894988
0.0615,1.7259664488835025,1.0,2984.828123795745,0.4993822812028829,1.2980418769455724,0.9803322199368684,0.2855435908531071,0.7167443864373735
0.062,1.725145236166712,1.0,2988.978433335332,0.5021903826221045,1.2976349440632675,0.9805255703202947,0.28550909991900186,0.7175173471698202
0.0625,1.7243240234499213,1.0,2993.1055076964435,0.5049827283758206,1.2972282378934832,0.9807147102764336,0.2854746089848967,0.7182888220622927
0.063,1.7235028107331307,1.0,2997.2097537864356,0.5077594053863317,1.2968217544378795,0.9808997624354024,0.2854401180507915,0.7190588204477653
0.0635,1.7226815980163401,1.0,3001.2915801096087,0.5105205005759386,1.2964154896981162,0.9810808449349047,0.28540562711668627,0.7198273516167921
0.064,1.7218603852995495,1.0,3005.351396747437,0.5132661008669419,1.296009439675853,0.9812580716181295,0.2853711361825811,0.7205944248175623
0.0645,1.721039172582759,1.0,3009.38961533929,0.5159962931816421,1.2956036003727505,0.981431552221533,0.2853366452484759,0.7213600492559542
0.065,1.7202179598659686,1.0,3013.406649063569,0.5187111644423399,1.295197967790468,0.9816013925530852,0.28530215431437067,0.7221242340955927
0.0655,1.719396747149178,1.0,3017.4029126195223,0.5214108015713359,1.2947925379306655,0.9817676946615325,0.2852676633802655,0.722886988457899
0.066,1.7185755344323874,1.0,3021.378822208504,0.5240952914909308,1.2943873067950034,0.9819305569971913,0.28523317244616025,0.7236483214221447
0.0665,1.7177543217155968,1.0,3025.334795516977,0.5267647211234252,1.2939822703851411,0.982090074564755,0.2851986815120551,0.7244082420255031
0.067,1.7169331089988062,1.0,3029.2712516981055,0.5294191773911197,1.293577424702739,0.9822463390685604,0.28516419057794984,0.7251667592630984
0.0675,1.7161118962820157,1.0,3033.188611355639,0.5320587472163149,1.2931727657494567,0.9823994390507428,0.28512969964384466,0.7259238820880554
0.068,1.715290683565225,1.0,3037.087296526522,0.5346835175213113,1.292768289526954,0.9825494600226699,0.2850952087097395,0.7266796194115483
0.0685,1.7144694708484345,1.0,3040.967165957052,0.5372935366465216,1.2923639968999006,0.982696482380674,0.28506071777563424,0.727433971035443
0.069,1.7136482581316441,1.0,3044.8287629709635,0.53988890165317,1.2919598828411494,0.9828405866171538,0.28502622684152906,0.7281869477403774
0.0695,1.7128270454148535,1.0,3048.6729676588993,0.54246973327553,1.2915559394417384,0.9829818518403661,0.2849917359074238,0.7289385656130274
0.07,1.712005832698063,1.0,3052.500018435829,0.5450361080826094,1.2911521643297408,0.9831203520599596,0.28495724497331865,0.7296888303766187
0.07050000000000001,1.7111846199812724,1.0,3056.310154598673,0.5475881026434161,1.2907485551332303,0.9832561588534132,0.2849227540392134,0.7304377477293972
0.07100000000000001,1.7103634072644818,1.0,3060.1036163182416,0.550125793526958,1.2903451094802803,0.9833893414624476,0.28488826310510823,0.7311853233446559
