Time [s],Phi [rad],STIM [ ],Fsee [N],Gamma [ ],Lcerel [ ],q [ ],Lmtc [m],fisomrel [ ]
0.0,1.8,1.0,18.117082516533515,0.0003930039301965095,1.3793229845723745,0.005039985470533146,0.288653,0.5411800809155172
0.0005,1.79999375,1.0,18.548396741933395,0.00600000879778803,1.3792723237743958,0.014037942265319434,0.2886527375,0.5413026288863836
0.001,1.799975,1.0,22.17423312057761,0.011575562801220254,1.3788818903711126,0.03763228822021839,0.28865195,0.5422465342755491
0.0015,1.79994375,1.0,32.247003664267936,0.0171198423559861,1.3779467952955244,0.07335358729889706,0.2886506375,0.5445032523145503
0.002,1.7999,1.0,55.99312603915344,0.02263302288572311,1.3762134560373196,0.11796518746173752,0.2886488,0.548671669312678
0.0025,1.79984375,1.0,101.06572424870667,0.02811527883160787,1.3737468749709205,0.16810006347346929,0.28864643749999996,0.5545703872750993
0.003,1.7997750000000001,1.0,166.0263168179438,0.03356678365726506,1.3710261083540343,0.22091238083998155,0.28864354999999997,0.561031973595856
0.0035,1.79969375,1.0,243.3727607880533,0.03898770985084105,1.3684105211322626,0.27422187486345384,0.2886401375,0.5671992599459653
0.004,1.7996,1.0,327.4982608796177,0.044378228934831926,1.3659970836562372,0.3264078926906914,0.2886362,0.5728511950099787
0.0045000000000000005,1.7994937500000001,1.0,415.4992478000204,0.049738511471653285,1.363777089782514,0.3763477529769125,0.2886317375,0.5780173117007803
0.005,1.799375,1.0,505.7600750304569,0.05506872705453816,1.3617239040068259,0.42334613979886,0.28862675,0.5827672744581016
0.0055,1.79924375,1.0,597.1859473299339,0.06036904434783393,1.3598142182357702,0.46704184614170324,0.2886212375,0.5871611235822116
0.006,1.7991000000000001,1.0,688.9123459243298,0.06563963105122854,1.3580304554885025,0.5073153286464075,0.2886152,0.5912442376999216
0.006500000000000001,1.79894375,1.0,780.2304497444045,0.07088065391675905,1.3563590901455695,0.5442101125568933,0.2886086375,0.595051654561932
0.007,1.798775,1.0,870.554114660414,0.07609227882680486,1.35478932473392,0.577872304119755,0.28860155,0.5986114000473504
0.0075,1.79859375,1.0,959.3980471895419,0.08127467054651745,1.3533122638371817,0.6085067261053896,0.2885939375,0.6019465695862427
0.008,1.7984,1.0,1046.3864358064525,0.08642799330343993,1.351920024652135,0.6363463434770827,0.2885858,0.605077475283293
0.0085,1.79819375,1.0,1131.2002948488546,0.0915524098995477,1.3506060251021632,0.6616325456809097,0.2885771375,0.6080210942667772
0.009000000000000001,1.797975,1.0,1213.5971575344483,0.09664808243516038,1.3493642842014113,0.6846021717089792,0.28856795,0.610792719784552
0.0095,1.79774375,1.0,1293.4200691972358,0.10171517259230128,1.3481890537104113,0.7054798969744478,0.2885582375,0.6134068331513021
0.01,1.7975,1.0,1370.528518137314,0.10675384022988904,1.347075543436044,0.7244746783413583,0.288548,0.6158755329992818
0.0105,1.79724375,1.0,1444.8358761531986,0.11176424467917695,1.346019218188534,0.7417776692488024,0.2885372375,0.618210142360318
0.011,1.796975,1.0,1516.3097865882014,0.11674654500695848,1.3450156784722094,0.7575619193507658,0.28852595000000003,0.6204214974756411
0.0115,1.79669375,1.0,1584.9278224518428,0.12170089875732429,1.3440611019086068,0.7719831978644714,0.2885141375,0.6225189992137604
0.012,1.7964,1.0,1650.6839518309494,0.12662746218013304,1.3431520454248844,0.7851809704931862,0.28850180000000003,0.6245110769155551
0.0125,1.79609375,1.0,1713.6055469361518,0.13152639106948977,1.342285163727691,0.7972796007754488,0.2884889375,0.6264058249104204
0.013000000000000001,1.7957750000000001,1.0,1773.7507947450424,0.13639784140313804,1.3414571875781045,0.8083897643250311,0.28847555,0.6282110620256733
0.0135,1.79544375,1.0,1831.1683903398018,0.14124196721064802,1.3406653270924562,0.8186100058708183,0.2884616375,0.6299334659342788
0.014,1.7951000000000001,1.0,1885.9050208463652,0.1460589208953313,1.339907120801909,0.8280279869302836,0.2884472,0.6315789197326416
0.0145,1.79474375,1.0,1938.0312511239179,0.1508488548604994,1.3391801072376248,0.8367215892649608,0.2884322375,0.6331532361424532
0.015,1.794375,1.0,1987.626041687632,0.15561192064794435,1.3384819677116269,0.8447600918426744,0.28841675,0.6346618543815854
0.0155,1.79399375,1.0,2034.785175723355,0.16034827039247038,1.3378104088188587,0.8522051391488525,0.2884007375,0.6361101010638889
0.016,1.7936,1.0,2079.581798808014,0.16505805336963075,1.3371635541281193,0.8591117613591621,0.2883842,0.6375023525755574
0.0165,1.7931937500000001,1.0,2122.087634483871,0.16974141771082277,1.3365396881709901,0.8655290743342183,0.2883671375,0.6388425965745304
0.017,1.792775,1.0,2162.3867842932395,0.1743985115474436,1.3359370954790524,0.8715009319139838,0.28834955,0.6401347827841137
0.0175,1.7923437500000001,1.0,2200.56783791243,0.17902948228802526,1.3353541297601872,0.8770665664204775,0.2883314375,0.6413826774642459
0.018000000000000002,1.7919,1.0,2236.724076096161,0.1836344775902353,1.3347891991000964,0.8822611278933772,0.2883128,0.6425898984882525
0.0185,1.79144375,1.0,2270.9389144310994,0.18821364354071216,1.334240900067143,0.8871161928695648,0.2882936375,0.6437596324053132
0.019,1.790975,1.0,2303.2811314003047,0.19276712374415497,1.3337080502897936,0.8916601826793594,0.28827395,0.6448945700630888
0.0195,1.79049375,1.0,2333.8259465496503,0.1972950618052628,1.3331894673965161,0.8959186706887212,0.2882537375,0.6459973814286541
0.02,1.79,1.0,2362.654482996757,0.20179760132873473,1.3326839690157777,0.8999147054675241,0.288233,0.6470707167088938
0.0205,1.78949375,1.0,2389.840945530102,0.20627488420283452,1.3321904924090517,0.9036691199832975,0.2882117375,0.6481169539318614
0.021,1.788975,1.0,2415.474659008791,0.21072705468207986,1.3317078737487797,0.9072007305752162,0.28818995000000003,0.6491386686641059
0.021500000000000002,1.78844375,1.0,2439.6219565750125,0.21515425308096892,1.3312352131697303,0.9105266320660539,0.2881676375,0.6501378621058781
0.022,1.7879,1.0,2462.3419186602423,0.21955661810112873,1.3307717141010384,0.9136623500351151,0.2881448,0.6511163046896075
0.0225,1.78734375,1.0,2483.696677243952,0.2239342884441865,1.330316579971839,0.9166219879475701,0.28812143749999997,0.6520757557261085
0.023,1.786775,1.0,2503.7511613844117,0.22828740281176937,1.3298690142112668,0.9194183771046494,0.28809755,0.6530179638497675
0.0235,1.78619375,1.0,2522.569388627748,0.2326160993024032,1.3294282530405062,0.9220632148355251,0.28807313749999996,0.6539445985289549
0.024,1.7856,1.0,2540.2089884089805,0.23692051462104652,1.328993614371203,0.9245671891963616,0.2880482,0.654857148287539
0.0245,1.78499375,1.0,2556.746185306821,0.24120078817757745,1.3285642599282566,0.9269400405792503,0.2880227375,0.6557574205924652
0.025,1.784375,1.0,2572.2253448178817,0.24545705341395105,1.3281396684077045,0.929190734656256,0.28799675,0.6566465498000056
0.025500000000000002,1.78374375,1.0,2586.692248731495,0.2496894437721223,1.3277193185055847,0.931327486613527,0.2879702375,0.6575256641525355
0.026000000000000002,1.7831000000000001,1.0,2600.193977845271,0.2538980926940461,1.3273026889179342,0.9333578341577788,0.2879432,0.6583958859282206
0.0265,1.78244375,1.0,2612.7788007047916,0.25808313362167745,1.326889258340791,0.9352887025308034,0.2879156375,0.6592583315733662
0.027,1.781775,1.0,2624.495973024898,0.2622446999507284,1.326478506354006,0.937126462608385,0.28788755,0.6601141099772232
0.0275,1.7810937500000001,1.0,2635.3889402695645,0.2663829213013397,1.3260699753738299,0.9388769904426171,0.2878589375,0.6609641937490752
0.028,1.7804,1.0,2645.5108072449807,0.27049793378120823,1.3256631263647844,0.9405456956636471,0.2878298,0.6618097197905435
0.0285,1.77969375,1.0,2654.8954585756524,0.2745898654058276,1.325257605012798,0.9421375964924363,0.2878001375,0.6626514361649831
0.029,1.778975,1.0,2663.5773855403713,0.27865884419069137,1.3248530570037975,0.9436573315020137,0.28776995,0.6634900872298708
0.029500000000000002,1.7782437500000001,1.0,2671.5916326872407,0.28270499815129324,1.324449128023711,0.9451091932382157,0.2877392375,0.6643264136627987
0.03,1.7775,1.0,2678.973747232913,0.2867284553031269,1.3240454637584655,0.9464971584615673,0.287708,0.6651611524794675
0.0305,1.77674375,1.0,2685.759731244561,0.290729343661686,1.3236417098939892,0.9478249153866508,0.2876762375,0.66599503704367
0.031,1.775975,1.0,2691.9742669056764,0.2947077858896115,1.323237619475186,0.949095900197486,0.28764395,0.6668285757525984
0.0315,1.7751937500000001,1.0,2697.6562335808244,0.2986639130016927,1.3228328186482716,0.9503132931129941,0.2876111375,0.6676625357258041
0.032,1.7744,1.0,2702.8448478100477,0.3025978553053171,1.3224269336108603,0.9514800525492895,0.2875778,0.6684976801093683
0.0325,1.77359375,1.0,2707.561511219323,0.30650973424257844,1.3220197559150408,0.9525989506444738,0.2875439375,0.66933442857276
0.033,1.772775,1.0,2711.82783517225,0.3103996712555704,1.3216110771129028,0.9536725712569423,0.28750955,0.6701731985914492
0.0335,1.7719437500000002,1.0,2715.6656211367012,0.31426778778638675,1.3212006887565353,0.9547033250149225,0.2874746375,0.6710144054283398
0.034,1.7711000000000001,1.0,2719.0968420136705,0.3181142052771213,1.3207883823980275,0.955693462992615,0.2874392,0.6718584621124262
0.0345,1.7702437500000001,1.0,2722.1436244307224,0.32193904516986777,1.3203739495894689,0.956645089152773,0.2874032375,0.6727057794146827
0.035,1.7693750000000001,1.0,2724.8282319976947,0.3257424289067199,1.3199571818829485,0.9575601716799679,0.28736675,0.6735567658211792
0.035500000000000004,1.76849375,1.0,2727.173049526778,0.32952447792977146,1.3195378708305558,0.9584405533150308,0.2873297375,0.674411827503428
0.036000000000000004,1.7676,1.0,2729.20056821511,0.33328531368111625,1.3191158079843799,0.9592879607891,0.2872922,0.6752713682859579
0.0365,1.76669375,1.0,2730.925572312503,0.3370250495105533,1.3186908557722683,0.9601040188036208,0.2872541375,0.6761356455584799
0.037,1.765775,1.0,2732.3743028961408,0.34074381359712214,1.3182627731868586,0.960890245199453,0.28721555,0.6770051250108744
0.0375,1.76484375,1.0,2733.5612145546065,0.3444417221794989,1.3178314269389835,0.9616480735990389,0.2871764375,0.6778800511796226
0.038,1.7639,1.0,2734.4992895535615,0.34811888984192624,1.3173966975815559,0.9623788525631046,0.28713679999999997,0.6787606389168443
0.0385,1.76294375,1.0,2735.201554448506,0.35177543116864696,1.3169584656674884,0.9630838506552865,0.28709663750000003,0.6796471015360701
0.039,1.761975,1.0,2735.681074251781,0.3554114607439037,1.3165166117496938,0.9637642620545148,0.28705595,0.6805396507860128
0.0395,1.7609937500000001,1.0,2735.950946916885,0.35902709315193926,1.3160710163810851,0.9644212117153336,0.2870147375,0.6814384968234305
0.04,1.76,1.0,2736.024298138376,0.3626224429769963,1.3156215601145749,0.9650557601170261,0.286973,0.6823438481850823
0.0405,1.7589937500000001,1.0,2735.914276468627,0.3661976248033177,1.3151681235030757,0.9656689076383292,0.2869307375,0.6832559117587693
0.041,1.757975,1.0,2735.634048750395,0.36975275321514606,1.3147105870995004,0.9662615985908949,0.28688795,0.6841748927534688
0.0415,1.75694375,1.0,2735.190016646912,0.3732879281264074,1.3142488930131375,0.9668347276747505,0.2868446375,0.6851008713010767
0.042,1.7559,1.0,2734.599666793674,0.37680327889148,1.3137828828073437,0.9673891370854353,0.28680079999999997,0.6860341277331404
0.0425,1.75484375,1.0,2733.873519790902,0.3802989204028958,1.3133124613606775,0.9679256261211292,0.2867564375,0.6869748136355676
0.043000000000000003,1.753775,1.0,2733.0186346732976,0.3837749596668084,1.3128375650421138,0.9684449524762672,0.28671155,0.6879230162580396
0.043500000000000004,1.75269375,1.0,2732.042075543102,0.38723150368937154,1.3123581302206269,0.9689478336319561,0.28666613750000003,0.688878821699853
0.044,1.7516,1.0,2730.950909962723,0.39066865947673896,1.3118740932651918,0.9694349493876077,0.2866202,0.6898423148916277
0.0445,1.75049375,1.0,2729.7522074395697,0.3940865340350645,1.3113853905447825,0.9699069442089701,0.2865737375,0.6908135795767643
0.045,1.7493750000000001,1.0,2728.453037998421,0.39748523437050187,1.3108919584283745,0.970364429407554,0.28652675,0.6917926982926336
0.0455,1.74824375,1.0,2727.0604708452047,0.4008648674892048,1.3103937332849416,0.9708079851650933,0.2864792375,0.6927797523515197
0.046,1.7471,1.0,2725.5815731197613,0.40422554039732705,1.3098906514834587,0.9712381624154531,0.2864312,0.6937748218212931
0.0465,1.7459437500000001,1.0,2724.023408738312,0.4075673601010224,1.3093826493929008,0.9716554845953028,0.28638263750000004,0.6947779855058336
0.047,1.744775,1.0,2722.3930373262237,0.4108904336064445,1.3088696633822419,0.972060449273865,0.28633355,0.6957893209251933
0.0475,1.74359375,1.0,2720.697513240343,0.41419486791974724,1.3083516298204572,0.9724535296711682,0.28628393750000003,0.6968089042954967
0.048,1.7424,1.0,2718.942313752301,0.4174807641291198,1.307828499383358,0.9728351763358746,0.2862338,0.6978367824215241
0.0485,1.74119375,1.0,2717.1284139247455,0.42074821427399145,1.3073002637188464,0.9732058199476424,0.2861831375,0.6988729206579318
0.049,1.739975,1.0,2715.2668447231376,0.4239973509117509,1.3067668228378295,0.9735658693635091,0.28613195,0.6999174630292848
0.0495,1.73874375,1.0,2713.3605551787173,0.4272282725525501,1.3062281503076327,0.9739157150417272,0.2860802375,0.7009704080330545
0.05,1.7375,1.0,2711.4124914369886,0.43044107770654105,1.3056842196955816,0.9742557292503172,0.286028,0.7020317532815799
0.0505,1.73624375,1.0,2709.4255965228313,0.43363586488387584,1.3051350045690013,0.9745862670748076,0.2859752375,0.7031014954932255
0.051000000000000004,1.734975,1.0,2707.4028101216236,0.4368127325947063,1.3045804784952177,0.974907667361459,0.28592195,0.7041796304834955
0.051500000000000004,1.73369375,1.0,2705.3470683754695,0.43997177934918463,1.304020615041556,0.9752202536006311,0.2858681375,0.7052661531561033
0.052000000000000005,1.7324,1.0,2703.261303695044,0.44311310365746265,1.303455387775342,0.9755243347545904,0.2858138,0.7063610574939948
0.0525,1.73109375,1.0,2701.1484445872857,0.44623680402969235,1.3028847702639013,0.975820206033702,0.28575893750000003,0.7074643365503309
0.053,1.729775,1.0,2699.011415497807,0.4493429789760258,1.3023087360745589,0.9761081496246489,0.28570355000000003,0.7085759824394219
0.0535,1.72844375,1.0,2696.8531366696293,0.45243172700661505,1.3017272587746405,0.9763884353740254,0.2856476375,0.7096959863276184
0.054,1.7271,1.0,2694.676524016803,0.455503146631612,1.3011403119314717,0.9766613214304015,0.2855912,0.7108243384241579
0.0545,1.7257437500000001,1.0,2692.484489013835,0.4585573363611687,1.300547869112378,0.9769270548477077,0.2855342375,0.7119610279719673
0.055,1.724375,1.0,2690.2799386003517,0.46159439470543706,1.299949903884685,0.9771858721525795,0.28547675,0.7131060432384193
0.0555,1.72299375,1.0,2688.0657751017707,0.4646144201745691,1.2993463898157178,0.9774379998780934,0.2854187375,0.714259371506047
0.056,1.7216,1.0,2685.8384641249677,0.46761748272792475,1.2987373594108695,0.9776836558637956,0.2853602,0.7154208867736638
0.0565,1.72019375,1.0,2683.6038160705084,0.4706037043195354,1.2981227595663354,0.9779230487588717,0.28530113749999997,0.7165906257288042
0.057,1.718775,1.0,2681.36604683059,0.47357319138141124,1.29750255171341,0.9781563779964155,0.28524155,0.7177685960587048
0.0575,1.71734375,1.0,2679.126041440448,0.4765260334843711,1.2968767277786983,0.9783838350821559,0.2851814375,0.7189547465032291
0.058,1.7159,1.0,2676.8846834710007,0.47946232019923396,1.2962452796888062,0.9786056037792994,0.2851208,0.7201490250704752
0.0585,1.71444375,1.0,2674.6428550243963,0.48238214109681865,1.2956081993703388,0.9788218604811603,0.2850596375,0.7213513790338841
0.059000000000000004,1.7129750000000001,1.0,2672.4014367308123,0.48528558574794406,1.2949654787499016,0.9790327745629984,0.28499795,0.7225617549293409
0.059500000000000004,1.71149375,1.0,2670.161307747092,0.4881727437234291,1.2943171097540997,0.9792385087143824,0.2849357375,0.7237800985522742
0.06,1.71,1.0,2667.923345756338,0.49104370459409274,1.293663084309539,0.9794392192532971,0.284873,0.725006354954747
0.0605,1.7084937500000001,1.0,2665.688426969468,0.49389855793075377,1.2930033943428243,0.9796350564231311,0.2848097375,0.7262404684425492
0.061,1.7069750000000001,1.0,2663.457426127699,0.4967373933042312,1.2923380317805613,0.9798261646736028,0.28474595,0.7274823825722818
0.0615,1.7054437500000001,1.0,2661.231216506833,0.4995603002853439,1.2916669885493555,0.9800126829266109,0.2846816375,0.7287320401484381
0.062,1.7039,1.0,2659.010669923182,0.5023673684449107,1.290990256575812,0.9801947448279207,0.2846168,0.7299893832204818
0.0625,1.70234375,1.0,2656.79665674016,0.5051586873537506,1.2903078277865363,0.9803724789855478,0.2845514375,0.7312543530799196
0.063,1.7007750000000001,1.0,2654.590045877033,0.5079343465826823,1.2896196941081337,0.980546009195634,0.28448555,0.7325268902573694
0.0635,1.69919375,1.0,2652.3917048190187,0.510694435702525,1.2889258474672098,0.9807154546565581,0.28441913750000003,0.7338069345196256
0.064,1.6976,1.0,2650.2024996283753,0.5134390442840975,1.28822627979037,0.9808809301719783,0.2843522,0.7350944248667197
0.0645,1.69599375,1.0,2648.0232949576807,0.5161682618982185,1.2875209830042194,0.9810425463434549,0.2842847375,0.7363892995289777
0.065,1.694375,1.0,2645.851640262203,0.518882140140955,1.2868099796289931,0.9812004085905227,0.28421675,0.7376914400038793
0.0655,1.69274375,1.0,2643.6908186323844,0.5215808056803501,1.2860932392665454,0.9813546212082728,0.2841482375,0.7390008241261965
0.066,1.6911,1.0,2641.5417161760834,0.5242643502299053,1.2853707536168868,0.9815052833802806,0.2840792,0.7403173883294965
0.0665,1.6894437500000001,1.0,2639.4043390882325,0.5269328544373911,1.2846425225005407,0.9816524904017346,0.2840096375,0.7416410535220956
0.067,1.687775,1.0,2637.2786935989066,0.529586398950579,1.28390854573803,0.9817963342127627,0.28393955,0.7429717399774138
0.0675,1.68609375,1.0,2635.1647859742725,0.5322250644172399,1.2831688231498775,0.9819369035386378,0.2838689375,0.7443093673339076
0.068,1.6844000000000001,1.0,2633.062622516568,0.5348489314851448,1.2824233545566068,0.9820742840231643,0.2837978,0.7456538545950037
0.0685,1.68269375,1.0,2630.9722095645675,0.5374580808020648,1.2816721397787412,0.9822085583556275,0.2837261375,0.7470051201290347
0.069,1.680975,1.0,2628.893553494244,0.5400525930157708,1.2809151786368032,0.982339806391653,0.28365395,0.748363081669174
0.0695,1.67924375,1.0,2626.8266607187807,0.5426325487740341,1.2801524709513161,0.9824681052683155,0.28358123749999997,0.7497276563133672
0.07,1.6775,1.0,2624.7715376892347,0.5451980287246256,1.2793840165428032,0.9825935295137994,0.283508,0.7510987605242687
0.07050000000000001,1.67574375,1.0,2622.7281908949412,0.5477491135153163,1.2786098152317875,0.9827161511519076,0.2834342375,0.7524763101291748
0.07100000000000001,1.673975,1.0,2620.6966268637216,0.5502858837938774,1.2778298668387922,0.9828360398016966,0.28335995,0.7538602203199586
0.07150000000000001,1.67219375,1.0,2618.6768521625495,0.5528084202080799,1.27704417118434,0.9829532627724886,0.2832851375,0.755250405653004
0.07200000000000001,1.6704,1.0,2616.6688733977303,0.5553168034056947,1.2762527280889546,0.9830678851545114,0.2832098,0.7566467800491393
0.0725,1.66859375,1.0,2614.6726972154356,0.5578111140344929,1.2754555373731589,0.9831799699053894,0.2831339375,0.7580492567935724
0.073,1.6667750000000001,1.0,2612.688330302144,0.5602914327422457,1.274652598857476,0.983289577932704,0.28305755,0.759457748535824
0.0735,1.66494375,1.0,2610.7157793849515,0.562757840176724,1.2738439123624288,0.9833967681728276,0.2829806375,0.7608721672896634
0.074,1.6631,1.0,2608.755051231886,0.565210416985699,1.2730294777085407,0.9835015976662175,0.2829032,0.7622924244330405
0.0745,1.6612437500000001,1.0,2606.803761818553,0.5676492047477789,1.2722093169536597,0.9836041203975082,0.2828252375,0.7637183921033867
0.075,1.659375,1.0,2604.863293422427,0.5700743093647133,1.2713834171454312,0.9837043907349787,0.28274675,0.7651500028650156
0.0755,1.65749375,1.0,2602.935071494215,0.5724858319829825,1.2705517649108442,0.9838024610278758,0.2826677375,0.7665871891059544
