Time [s],Phi [rad],STIM [ ],Fsee [N],Gamma [ ],Lcerel [ ],q [ ],Lmtc [m],fisomrel [ ]
0.0,1.8,1.0,17.971610835244068,7.34778150398519e-05,1.3793392474029351,0.005001416453712524,0.288653,0.5411407378181594
0.0005,1.79999375,1.0,18.302094423069164,0.005682274971419155,1.379299572842939,0.013117681469627732,0.2886527375,0.5412367156924875
0.001,1.799975,1.0,21.690951562852558,0.011259611210363644,1.37893089636564,0.035940122611876076,0.28865195,0.5421281115418772
0.0015,1.79994375,1.0,31.242540365300307,0.01680566300365956,1.3780314593250087,0.07105505833644574,0.2886506375,0.5442991573998861
0.002,1.7999,1.0,53.95657151099366,0.022320605831347727,1.3763438988114984,0.11525444719774769,0.2886488,0.5483586410311245
0.0025,1.79984375,1.0,97.74817812076842,0.02780461418971802,1.3739048946183938,0.1651582788694545,0.28864643749999996,0.5541936536365044
0.003,1.7997750000000001,1.0,161.77712205853652,0.033257861598440325,1.3711837283756785,0.21788219665070827,0.28864354999999997,0.5606589278990133
0.0035,1.79969375,1.0,238.60876074333922,0.03868052060062706,1.3685562562588325,0.27121131866687986,0.2886401375,0.5668567792489598
0.004,1.7996,1.0,322.45141024798795,0.04407276277348373,1.3661300330117605,0.32349519774854574,0.2886362,0.5725408129043597
0.0045000000000000005,1.7994937500000001,1.0,410.2874249086526,0.04943475873353209,1.3638988934184744,0.37358447384801624,0.2886317375,0.5777346791097253
0.005,1.799375,1.0,500.45398951707784,0.05476667812804907,1.3618362436237514,0.42076197316951436,0.28862675,0.5825080765314197
0.0055,1.79924375,1.0,591.84007470668,0.06006868967897777,1.359918336375536,0.46465004371688656,0.2886212375,0.5869221656271253
0.006,1.7991000000000001,1.0,683.5689881513633,0.06534096113460182,1.3581273198966917,0.5051177114999347,0.2886152,0.5910230317079486
0.006500000000000001,1.79894375,1.0,774.9259317794874,0.07058365932031688,1.356449426362354,0.542201005243834,0.2886086375,0.5948463215750917
0.007,1.798775,1.0,865.3019740539048,0.07579694979688834,1.354873985532068,0.5760416867569055,0.28860155,0.5984198163028879
0.0075,1.79859375,1.0,954.2533707751579,0.08098099831429517,1.3533912460717314,0.6068416954707752,0.2885939375,0.6017685816322351
0.008,1.7984,1.0,1041.3685548897122,0.08613596862308177,1.3519937782608236,0.6348333369626448,0.2885858,0.6049119262298157
0.0085,1.79819375,1.0,1126.3031037397539,0.0912620232076139,1.3506752457209554,0.6602581002189284,0.2885771375,0.6078663011433276
0.009000000000000001,1.797975,1.0,1208.8307905705458,0.09635932451812605,1.349429321819524,0.6833531284018072,0.28856795,0.6106477967243227
0.0095,1.79774375,1.0,1288.7945270190924,0.10142803422696868,1.3482501857702693,0.7043438849233762,0.2885582375,0.6132710717824391
0.01,1.7975,1.0,1366.0524757439873,0.10646831252186291,1.3471330070001535,0.7234402914836002,0.288548,0.6157483273310951
0.0105,1.79724375,1.0,1440.5112676906872,0.11148031849489982,1.3460732874273678,0.7408345550598564,0.2885372375,0.6180908154630564
0.011,1.796975,1.0,1512.1360266731317,0.11646421117090816,1.3450666139095055,0.7567007377929169,0.28852595000000003,0.620309413153789
0.0115,1.79669375,1.0,1580.9156799483408,0.12142014890660068,1.344108990723729,0.7711955005166913,0.2885141375,0.6224139110430378
0.012,1.7964,1.0,1646.8312518727114,0.12634828744096416,1.3431971036660229,0.7844592713592693,0.28850180000000003,0.6244124618471083
0.0125,1.79609375,1.0,1709.905009629799,0.13124878251298536,1.342327638532373,0.796617246957042,0.2884889375,0.6263130991608704
0.013000000000000001,1.7957750000000001,1.0,1770.1879023212282,0.13612178934159647,1.34149738165324,0.8077808610552628,0.28847555,0.628123527818818
0.0135,1.79544375,1.0,1827.745363448102,0.14096746307276892,1.3407033317346522,0.8180492358148107,0.2884616375,0.6298508920437103
0.014,1.7951000000000001,1.0,1882.6340906470189,0.14578595699478647,1.3399429046613978,0.8275105826179238,0.2884472,0.6315013442932775
0.0145,1.79474375,1.0,1934.9076980909765,0.1505774225880808,1.3392138150811828,0.8362433756639641,0.2884322375,0.6330803177872103
0.015,1.794375,1.0,1984.6407998774853,0.15534201133308356,1.3385137776417133,0.8443173676815168,0.28841675,0.6345931835036247
0.0155,1.79399375,1.0,2031.9191961052425,0.16007987406114738,1.33784059124865,0.8517946382042381,0.2884007375,0.6360450730381462
0.016,1.7936,1.0,2076.8361083382956,0.16479116177530015,1.3371921559944229,0.8587305046661983,0.2883842,0.6374408480096709
0.0165,1.7931937500000001,1.0,2119.4734445264053,0.1694760237438102,1.3365666454886207,0.8651743716492355,0.2883671375,0.6387847357925291
0.017,1.792775,1.0,2159.900636439005,0.17413460702369468,1.3359624919005002,0.871170421517045,0.28834955,0.6400803700127753
0.0175,1.7923437500000001,1.0,2198.1979295964666,0.17876705867197065,1.3353781273993177,0.8767581567179807,0.2883314375,0.6413313509634153
0.018000000000000002,1.7919,1.0,2234.455471896066,0.18337352574565519,1.3348119841543298,0.881972950128625,0.2883128,0.6425412476614822
0.0185,1.79144375,1.0,2268.7525101216124,0.1879541533866379,1.3342626932015011,0.8868465775525084,0.2882936375,0.6437131758089258
0.019,1.790975,1.0,2301.191107793174,0.19250908914859968,1.333728735676733,0.8914075473564239,0.28827395,0.6448505452283462
0.0195,1.79049375,1.0,2331.8378928767625,0.19703847568266225,1.3332090141109658,0.8956816101258162,0.2882537375,0.6459558447550963
0.02,1.79,1.0,2360.762471481091,0.2015424553387767,1.3327024573599804,0.8996919773209373,0.288233,0.6470314887328776
0.0205,1.78949375,1.0,2388.0395888024814,0.20602117046689414,1.3322079942795577,0.9034596003336578,0.2882117375,0.6480798741605656
0.021,1.788975,1.0,2413.748695128416,0.2104747634169657,1.3317245537254792,0.9070034213182837,0.28818995000000003,0.6491033815549481
0.021500000000000002,1.78844375,1.0,2437.956575257651,0.21490337412658767,1.3312512276900668,0.9103406266142118,0.2881676375,0.6501040311027537
0.022,1.7879,1.0,2460.7503252813704,0.21930714605461102,1.3307869481560224,0.9134867725682329,0.2881448,0.6510841675051817
0.0225,1.78734375,1.0,2482.186471565423,0.22368621697948143,1.3303309726041908,0.9164560523857284,0.28812143749999997,0.6520454353902085
0.023,1.786775,1.0,2502.3217004918674,0.228040724267028,1.3298825825312017,0.919261382041826,0.28809755,0.6529894188218905
0.0235,1.78619375,1.0,2521.215126562293,0.2323708052830798,1.3294410594336856,0.9219145288212265,0.28807313749999996,0.6539176924719733
0.024,1.7856,1.0,2538.9280873530624,0.23667659739346586,1.3290056848082725,0.9244262293474923,0.2880482,0.6548318219510192
0.0245,1.78499375,1.0,2555.5170464303665,0.24095823653664356,1.3285758050025083,0.9268063048357927,0.2880227375,0.6557332282109491
0.025,1.784375,1.0,2571.042617007137,0.24521585961657322,1.3281507440166143,0.9290637384213761,0.28799675,0.6566233711777504
0.025500000000000002,1.78374375,1.0,2585.565787795398,0.24944960313674808,1.3277298376016813,0.9312067629868782,0.2879702375,0.6575036783978814
0.026000000000000002,1.7831000000000001,1.0,2599.12829799946,0.25365959914518244,1.3273126144949103,0.9332429618735779,0.2879432,0.6583751670679407
0.0265,1.78244375,1.0,2611.773014309837,0.25784597968989054,1.3268986034335017,0.9351793015820424,0.2879156375,0.6592388490855425
0.027,1.781775,1.0,2623.543835895884,0.2620088768188868,1.326487333154656,0.9370221902192559,0.28788755,0.6600957311529356
0.0275,1.7810937500000001,1.0,2634.485604322184,0.2661484225801854,1.326078332395574,0.9387775296963983,0.2878589375,0.660946814866459
0.028,1.7804,1.0,2644.6439596648456,0.2702647489889791,1.3256711304357334,0.9404507624794279,0.2878298,0.6617930956655342
0.0285,1.77969375,1.0,2654.058576249458,0.2743579836606526,1.325265318704744,0.9420469205324715,0.2878001375,0.6626354351017261
0.029,1.778975,1.0,2662.779311909789,0.27842826226980616,1.324860400962313,0.9435706457720527,0.28776995,0.6634748720873891
0.029500000000000002,1.7782437500000001,1.0,2670.8365031084245,0.2824757112637627,1.3244560663467262,0.9450262557877309,0.2877392375,0.664312056794671
0.03,1.7775,1.0,2678.2609573947907,0.286500457089845,1.3240520039962695,0.9464177502107058,0.287708,0.6651476361798524
0.0305,1.77674375,1.0,2685.0839115492336,0.29050262619537603,1.323647903049229,0.9477488381643182,0.2876762375,0.6659822539918268
0.031,1.775975,1.0,2691.3369918699004,0.2944823450276786,1.3232434526438908,0.9490229630204738,0.28764395,0.6668165507744157
0.0315,1.7751937500000001,1.0,2697.052176602038,0.2984397400340757,1.3228383419185408,0.9502433247556078,0.2876111375,0.6676511638625235
0.032,1.7744,1.0,2702.260903998023,0.3023749369393161,1.3224322678359706,0.9514129009004572,0.2875778,0.6684867112823755
0.0325,1.77359375,1.0,2706.9846529742454,0.30628805277534654,1.322025020818966,0.9525344726636288,0.2875439375,0.6693236159647469
0.033,1.772775,1.0,2711.2679123205276,0.31017922717319873,1.3216161834200322,0.9536106144203386,0.28750955,0.6701627250074369
0.0335,1.7719437500000002,1.0,2715.129767108996,0.31404857979719586,1.3212055720987022,0.9546437491842354,0.2874746375,0.6710044019539076
0.034,1.7711000000000001,1.0,2718.5894626286668,0.31789623031166114,1.320793003314509,0.9556361394657258,0.2874392,0.6718490083688056
0.0345,1.7702437500000001,1.0,2721.666389006013,0.32172229838091776,1.3203782935269852,0.9565898997973089,0.2874032375,0.6726969038161253
0.035,1.7693750000000001,1.0,2724.3800665712497,0.32552690366928877,1.319961259195664,0.9575070081416767,0.28736675,0.6735484458352204
0.035500000000000004,1.76849375,1.0,2726.750131972593,0.3293101658410975,1.319541716780078,0.9583893162939128,0.2873297375,0.6744039899146697
0.036000000000000004,1.7676,1.0,2728.7963250363637,0.333072204560667,1.31911948273976,0.959238559376938,0.2872922,0.6752638894639922
0.0365,1.76669375,1.0,2730.5384763749366,0.33681313949232045,1.3186943735342436,0.9600563645186152,0.2872541375,0.6761284957832144
0.037,1.765775,1.0,2731.9964957409948,0.3405330903003811,1.3182662056230607,0.9608442587894475,0.28721555,0.6769981580302922
0.0375,1.76484375,1.0,2733.1903595011177,0.34423217664600425,1.3178347954805298,0.9616036764721945,0.2871764375,0.6778732231564087
0.038,1.7639,1.0,2734.1333720734156,0.34791050655798833,1.3174000207025693,0.9623359691831493,0.28713679999999997,0.6787539121747722
0.0385,1.76294375,1.0,2734.8473622812826,0.35156821168108227,1.3169616818873078,0.963042405878164,0.28709663750000003,0.6796406001759219
0.039,1.761975,1.0,2735.3432600913416,0.35520540446922677,1.3165196789765854,0.9637241864064057,0.28705595,0.6805334592492326
0.0395,1.7609937500000001,1.0,2735.6320264720935,0.3588221973763626,1.3160739119122424,0.9643824410223358,0.2870147375,0.6814326601036098
0.04,1.76,1.0,2735.7246491092706,0.3624187028564305,1.3156242806361187,0.965018235162997,0.286973,0.6823383720437901
0.0405,1.7589937500000001,1.0,2735.632138344282,0.36599503336337125,1.3151706850900549,0.9656325738485438,0.2869307375,0.6832507629459996
0.041,1.757975,1.0,2735.365523334202,0.3695513013511255,1.3147130252158907,0.9662264057393907,0.28688795,0.6841699992329787
0.0415,1.75694375,1.0,2734.9358484336053,0.37308761927363404,1.3142512009554663,0.9668006268800837,0.2868446375,0.6850962458483646
0.042,1.7559,1.0,2734.354169798862,0.37660409958483765,1.3137851122506221,0.9673560841570812,0.28680079999999997,0.6860296662304353
0.0425,1.75484375,1.0,2733.631552214019,0.380100854738677,1.3133146590431983,0.9678935784950279,0.2867564375,0.6869704222852181
0.043000000000000003,1.753775,1.0,2732.7790661385766,0.38357799718909286,1.3128397412750348,0.9684138678137693,0.28671155,0.6879186743589583
0.043500000000000004,1.75269375,1.0,2731.799148588444,0.3870356103814987,1.3123603373563835,0.9689176715558091,0.28666613750000003,0.688874424893515
0.044,1.7516,1.0,2730.7125172224905,0.39047384393379286,1.3118762596366986,0.969405668396062,0.2866202,0.689838005979026
0.0445,1.75049375,1.0,2729.5249819314195,0.39389280372667446,1.311387455886353,0.9698785055691892,0.2865737375,0.690809478050461
0.045,1.7493750000000001,1.0,2728.2417884949796,0.39729259380323767,1.3108938790120792,0.9703367971253959,0.28652675,0.6917888902832355
0.0455,1.74824375,1.0,2726.868183066297,0.40067331820657687,1.3103954819206098,0.9707811258391532,0.2864792375,0.6927762908267614
0.046,1.7471,1.0,2725.4094112856474,0.40403508097978647,1.3098922175186778,0.9712120451005278,0.2864312,0.6937717267900398
0.0465,1.7459437500000001,1.0,2723.870717443761,0.40737798616596077,1.3093840387130158,0.9716300806746261,0.28638263750000004,0.6947752442271147
0.047,1.744775,1.0,2722.2573436942635,0.4107021378081941,1.3088708984103565,0.9720357323395075,0.28633355,0.6957868881223828
0.0475,1.74359375,1.0,2720.5745293154537,0.41400763994958084,1.3083527495174325,0.9724294754120436,0.28628393750000003,0.6968067023757638
0.048,1.7424,1.0,2718.827510020531,0.41729459663321533,1.307829544940977,0.9728117621703612,0.2862338,0.6978347297877266
0.0485,1.74119375,1.0,2717.021517318206,0.420563111902192,1.3073012375877222,0.9731830231807819,0.2861831375,0.6988710120441783
0.049,1.739975,1.0,2715.161777921144,0.423813289799605,1.3067677803644009,0.9735436685364922,0.28613195,0.6999155897012077
0.0495,1.73874375,1.0,2713.2535132045878,0.42704523436854885,1.3062291261777461,0.9738940890145719,0.2860802375,0.7009685021696876
0.05,1.7375,1.0,2711.301938713862,0.43025904965211786,1.3056852279344904,0.9742346571574559,0.286028,0.7020297876997407
0.0505,1.73624375,1.0,2709.3122637207225,0.43345483969340637,1.3051360385413666,0.974565728284404,0.2859752375,0.7030994833650562
0.051000000000000004,1.734975,1.0,2707.2895363974426,0.43663270790836156,1.3045815123145816,0.9748876414603028,0.28592195,0.7041776223091912
0.051500000000000004,1.73369375,1.0,2705.236112625838,0.43979275264990675,1.3040216280898485,0.9752007213922649,0.2858681375,0.7052641889464217
0.052000000000000005,1.7324,1.0,2703.1541573467193,0.4429350729795403,1.303456366420028,0.9755052783830933,0.2858138,0.7063591635177094
0.0525,1.73109375,1.0,2701.0462275305117,0.44605976731548425,1.3028857042504738,0.9758016086189001,0.28575893750000003,0.707462532400174
0.053,1.729775,1.0,2698.914876634543,0.4491669340759606,1.3023096185265386,0.9760899952128088,0.28570355000000003,0.7085742810788862
0.0535,1.72844375,1.0,2696.7626544839095,0.4522566716791912,1.301728086193576,0.9763707088915713,0.2856476375,0.7096943941389093
0.054,1.7271,1.0,2694.591945927077,0.4553290783508066,1.3011410856719872,0.976644008711384,0.2855912,0.7108228524244161
0.0545,1.7257437500000001,1.0,2692.4061937041174,0.4583842516096246,1.3005485856676187,0.9769101419337843,0.2855342375,0.7119596545063587
0.055,1.724375,1.0,2690.2076452769124,0.4614222879059017,1.2999505657806742,0.9771693458307974,0.28547675,0.7131047770658592
0.0555,1.72299375,1.0,2687.9972378154553,0.46444328299596027,1.2993470175807278,0.9774218482931617,0.2854187375,0.7142581730405722
0.056,1.7216,1.0,2685.773667196314,0.46744733255054993,1.2987379531620336,0.9776678688614959,0.2853602,0.7154197555502508
0.0565,1.72019375,1.0,2683.5466169491333,0.4704345318931652,1.2981232839146177,0.9779076120867743,0.28530113749999997,0.7165896287881512
0.057,1.718775,1.0,2681.3228633515832,0.4734049756558401,1.2975029477439715,0.9781412755498204,0.28524155,0.7177678446544891
0.0575,1.7173493890966824,1.0,2679.351493017888,0.4763587573804245,1.2968772060655311,0.978369067056239,0.28518167434206065,0.7189538409398092
0.058,1.7159237624878183,1.0,2677.940605149743,0.479295970608768,1.2962463202947339,0.978591186024799,0.28512179802448834,0.72014705903007
0.0585,1.7144981358789542,1.0,2677.054493962499,0.4822167083548229,1.2956106211792988,0.9788078277225009,0.2850619217069161,0.7213468132844041
0.059000000000000004,1.7130725092700898,1.0,2676.645133349648,0.485121063422706,1.2949705471556323,0.9790191856232715,0.28500204538934376,0.7225522203785297
0.059500000000000004,1.7116468826612257,1.0,2676.6766784796782,0.4880091271971854,1.2943264262342526,0.9792254394687209,0.2849421690717715,0.7237626110337151
0.06,1.7102212560523615,1.0,2677.1134326897472,0.4908809910568502,1.2936785861140512,0.9794267620093525,0.2848822927541992,0.7249773216136857
0.0605,1.7087956294434972,1.0,2677.931154188364,0.49373674302330134,1.2930272501647968,0.9796233134763351,0.28482241643662687,0.7261958885869184
0.061,1.707370002834633,1.0,2679.0799441336053,0.49657647934762433,1.2923728777950472,0.979815261224285,0.28476254011905455,0.7274174117660792
0.0615,1.7059443762257687,1.0,2680.53565069046,0.49940028895309496,1.2917156924840274,0.980002753270442,0.2847026638014823,0.7286414373678711
0.062,1.7045187496169045,1.0,2682.2778152600586,0.5022082596734239,1.2910558841130888,0.9801859302466636,0.28464278748391,0.7298675775610595
0.0625,1.7030931230080402,1.0,2684.2860003924475,0.5050004793423214,1.2903936425635822,0.9803649275627434,0.2845829111663377,0.73109544757224
0.063,1.701667496399176,1.0,2686.539779142498,0.5077770357934982,1.2897291577168593,0.9805398756444461,0.2845230348487654,0.7323246657164519
0.0635,1.7002418697903119,1.0,2689.018725226686,0.5105380168606647,1.2890626194542707,0.980710900159042,0.2844631585311931,0.7335548534254959
0.064,1.6988162431814475,1.0,2691.7024039782723,0.5132835103775314,1.2883942176571679,0.9808781222290776,0.28440328221362077,0.7347856352739479
0.0645,1.6973906165725834,1.0,2694.5703641023442,0.5160136041778087,1.2877241422069021,0.981041658635077,0.2843434058960485,0.7360166390028775
0.065,1.695964989963719,1.0,2697.6117978630014,0.5187283811597373,1.2870524945917572,0.9812016172492086,0.2842835295784762,0.7372476573617641
0.0655,1.6945393633548549,1.0,2700.8022894007386,0.5214279338521984,1.2863795005761105,0.981358108955338,0.28422365326090393,0.7384782578117906
0.066,1.6931137367459907,1.0,2704.1306761478245,0.5241123465901005,1.2857052644832274,0.9815112342367989,0.2841637769433316,0.7397082329291106
0.0665,1.6916881101371264,1.0,2707.587520912033,0.5267817026735132,1.285029874732415,0.9816610892380658,0.2841039006257593,0.7409374059630863
0.067,1.6902624835282622,1.0,2711.1633710763813,0.5294360854025062,1.284353419742981,0.9818077667859743,0.284044024308187,0.7421656016596687
0.0675,1.6888368569193979,1.0,2714.848756424695,0.5320755780771494,1.283675987934233,0.9819513565298411,0.2839841479906147,0.743392646267656
0.068,1.6874112303105337,1.0,2718.6341871396085,0.5347002639975126,1.2829976677254784,0.982091945074746,0.2839242716730424,0.7446183675444507
0.0685,1.6859856037016696,1.0,2722.510151974776,0.5373102264636653,1.2823185475360246,0.9822296161083544,0.28386439535547014,0.7458425947613183
0.069,1.6845599770928052,1.0,2726.4671165992704,0.5399055487756774,1.2816387157851794,0.9823644505216328,0.28380451903789783,0.7470651587081472
0.0695,1.683134350483941,1.0,2730.496919495691,0.5424863123477138,1.2809582481929198,0.9824965258117877,0.2837446427203255,0.7482859144526967
0.07,1.6817087238750767,1.0,2734.5963193760913,0.5450525936961834,1.280277175600926,0.9826259145390206,0.2836847664027532,0.7495047985879073
0.07050000000000001,1.6802830972662126,1.0,2738.7499935003348,0.5476044871904863,1.2795956384114158,0.982752693033665,0.28362489008518094,0.7507215528740844
0.07100000000000001,1.6788574706573485,1.0,2742.954246606525,0.5501420709464122,1.2789136711869586,0.9828769293257078,0.2835650137676086,0.7519361097736388
0.07150000000000001,1.677431844048484,1.0,2747.205373042005,0.5526654230797514,1.2782313084901242,0.9829986892501912,0.28350513745003636,0.7531484023465349
0.07200000000000001,1.67600621743962,1.0,2751.499656446801,0.5551746217062938,1.2775485848834822,0.9831180365335865,0.28344526113246404,0.7543583642512005
0.0725,1.6745805908307556,1.0,2755.8333694641096,0.5576697449418293,1.276865534929602,0.983235032876231,0.2833853848148917,0.7555659297453613
0.073,1.6731549642218915,1.0,2760.2027734769385,0.5601508709021481,1.276182193191053,0.9833497380310282,0.2833255084973194,0.756771033686798
0.0735,1.6717293376130273,1.0,2764.6041183709735,0.5626180777030401,1.2754985942304053,0.983462209878609,0.28326563217974715,0.7579736115340258
