Time [s],Phi [rad],STIM [ ],Fsee [N],Gamma [ ],Lcerel [ ],q [ ],Lmtc [m],fisomrel [ ]
0.0,1.8,1.0,18.205855169361925,0.0004968041876741455,1.3793130924059196,0.005063775574187211,0.288653,0.5412040112546503
0.0005,1.79999375,1.0,18.668192709854075,0.006103226817908625,1.3792591358377113,0.014347072307543497,0.2886527375,0.5413345276901544
0.001,1.799975,1.0,22.371067089758473,0.011678201849865831,1.378862084108142,0.03819030362659156,0.28865195,0.5422943916621018
0.0015,1.79994375,1.0,32.616479644303254,0.01722190568062401,1.3779159854008705,0.07410618336444401,0.2886506375,0.5445775126865086
0.002,1.7999,1.0,56.70578883641714,0.02273451371579932,1.3761683713805557,0.11884923242365458,0.2886488,0.5487798353727689
0.0025,1.79984375,1.0,102.19258597999267,0.02821620037863303,1.3736937925746964,0.16905720498893057,0.28864643749999996,0.5546969049462367
0.003,1.7997750000000001,1.0,167.44882923951405,0.03366713911386936,1.37097379317747,0.22189677294893273,0.28864354999999997,0.561155755023979
0.0035,1.79969375,1.0,244.9549914194813,0.03908750239264137,1.3683624353117922,0.2751988376641859,0.2886401375,0.5673122329437681
0.004,1.7996,1.0,329.16727391821547,0.04447746171939916,1.3659533424913588,0.32735234373200267,0.2886362,0.572953288008298
0.0045000000000000005,1.7994937500000001,1.0,417.21118690923805,0.049837187614597704,1.3637372475270846,0.37724332583215897,0.2886317375,0.5781097409484068
0.005,1.799375,1.0,507.5071483765536,0.05516684974359046,1.3616870443168543,0.42418320979033974,0.28862675,0.5828523022108989
0.0055,1.79924375,1.0,598.933329555498,0.060466616610979955,1.3597802867278097,0.4678164969266744,0.2886212375,0.5872389836800225
0.006,1.7991000000000001,1.0,690.6615728469812,0.06573665604401907,1.3579988271681813,0.5080268871048682,0.2886152,0.5913164532723426
0.006500000000000001,1.79894375,1.0,781.9628079934239,0.07097713465596467,1.3563296545537824,0.544860573584552,0.2886086375,0.5951185500178001
0.007,1.798775,1.0,872.269004304624,0.0761882183878917,1.3547617372590823,0.5784649198096787,0.28860155,0.5986738194417023
0.0075,1.79859375,1.0,961.0902554519955,0.08137007204138359,1.353286330978338,0.6090455901699425,0.2885939375,0.6020050010965057
0.008,1.7984,1.0,1048.0296182763375,0.0865228594369318,1.3518959113480304,0.6368360586075237,0.2885858,0.6051315930374334
0.0085,1.79819375,1.0,1132.8066191706469,0.09164674409213443,1.350583352740328,0.6620773922176972,0.2885771375,0.6080717882058381
0.009000000000000001,1.797975,1.0,1215.1669459741302,0.09674188766426507,1.3493428922276451,0.6850063916383936,0.28856795,0.6108403815370661
0.0095,1.79774375,1.0,1294.9312179183294,0.10180845129160239,1.348169105773159,0.705847635962027,0.2885582375,0.6134511281413226
0.01,1.7975,1.0,1371.9901315160173,0.10684659572910006,1.3470567995296752,0.7248095402389093,0.288548,0.6159170213654939
0.0105,1.79724375,1.0,1446.255700724183,0.1118564803102832,1.346001484211062,0.7420829535927927,0.2885372375,0.6182492759047904
0.011,1.796975,1.0,1517.6715156176006,0.116838263123074,1.3449990754697319,0.7578407482436849,0.28852595000000003,0.6204580290976731
0.0115,1.79669375,1.0,1586.2202060025372,0.12179210165285775,1.3440456889664336,0.7722383391934773,0.2885141375,0.6225528185701914
0.012,1.7964,1.0,1651.9339990400742,0.12671815385507282,1.3431374371265368,0.7854147034492428,0.28850180000000003,0.6245430460530359
0.0125,1.79609375,1.0,1714.8251300145223,0.13161657498983761,1.3422711753906937,0.7974940389802054,0.2884889375,0.626436360002146
0.013000000000000001,1.7957750000000001,1.0,1774.9186981491532,0.13648751937935724,1.3414440208905596,0.8085869397567996,0.28847555,0.6282397340500228
0.0135,1.79544375,1.0,1832.271182022207,0.14133114134583674,1.3406530907577903,0.8187916879415286,0.2884616375,0.6299600502460609
0.014,1.7951000000000001,1.0,1886.9483379514952,0.14614759420495718,1.339895713478749,0.828195670752453,0.2884472,0.6316036478277174
0.0145,1.79474375,1.0,1939.0407334516728,0.1509370315166934,1.3391692192111604,0.8368765312184744,0.2884322375,0.6331767880729969
0.015,1.794375,1.0,1988.606360468693,0.15569960380558756,1.3384715269105332,0.8449034892293692,0.28841675,0.6346843924453196
0.0155,1.79399375,1.0,2035.7162708263045,0.16043546132547443,1.3378006077720233,0.8523381420033261,0.2884007375,0.6361312161634303
0.016,1.7936,1.0,2080.4563456427686,0.16514475418758176,1.337154447936304,0.8592353521099046,0.2883842,0.6375219331529531
0.0165,1.7931937500000001,1.0,2122.915524138258,0.16982763146272806,1.3365311545013814,0.8656440767350491,0.2883671375,0.6388609121491307
0.017,1.792775,1.0,2163.19036083931,0.1744842426896349,1.3359288899308814,0.871608048107404,0.28834955,0.6401523625950438
0.0175,1.7923437500000001,1.0,2201.3489885832596,0.17911473388713928,1.3353462226776622,0.8771664837900721,0.2883314375,0.6413995884433157
0.018000000000000002,1.7919,1.0,2237.468868005558,0.18371925107407813,1.3347817211945823,0.8823545043639662,0.2883128,0.6426058646492123
0.0185,1.79144375,1.0,2271.6360090731246,0.18829794026928842,1.3342339539345,0.8872036116204226,0.2882936375,0.643774438894485
0.019,1.790975,1.0,2303.928655656211,0.19285094569533956,1.333701643515499,0.8917421445952644,0.28827395,0.644908205086272
0.0195,1.79049375,1.0,2334.4468808136844,0.19737841416486152,1.3331833640238613,0.8959955703317382,0.2882537375,0.6460103505667829
0.02,1.79,1.0,2363.258437571401,0.20188048777113918,1.3326780688557036,0.8999869294240291,0.288233,0.6470832350205349
0.0205,1.78949375,1.0,2390.4296730383057,0.206357307809605,1.3321847737992585,0.9037370349840949,0.2882117375,0.6481290690559167
0.021,1.788975,1.0,2416.031394607282,0.21080901557569137,1.3317024946427587,0.9072647058547779,0.28818995000000003,0.6491500479839625
0.021500000000000002,1.78844375,1.0,2440.1384956477264,0.21523575236483072,1.3312302471744373,0.910586985069789,0.2881676375,0.6501483525406926
0.022,1.7879,1.0,2462.8198371906215,0.2196376576929127,1.3307671406293293,0.9137193500228037,0.2881448,0.6511259524231425
0.0225,1.78734375,1.0,2484.152112237558,0.22401487334732148,1.330312240422915,0.9166758541153328,0.28812143749999997,0.6520848974068698
0.023,1.786775,1.0,2504.1968019794867,0.2283675376743965,1.3298647850210583,0.9194693155488473,0.28809755,0.6530268609789891
0.0235,1.78619375,1.0,2523.0072773787665,0.23269578686454806,1.3294241129411826,0.9221114315950555,0.28807313749999996,0.6539532965973055
0.024,1.7856,1.0,2540.6390194880028,0.23699975710818647,1.328989562700711,0.9246128759263635,0.2880482,0.6548656493430964
0.0245,1.78499375,1.0,2557.1494420237595,0.24127958459572207,1.3285604728170666,0.9269834022829646,0.2880227375,0.6557653561933217
0.025,1.784375,1.0,2572.59772364139,0.24553540551756514,1.3281361818076731,0.9292319363843478,0.28799675,0.656653846264929
0.025500000000000002,1.78374375,1.0,2587.0174931303322,0.24976735260366162,1.3277162817406767,0.9313666984384459,0.2879702375,0.657532011103525
0.026000000000000002,1.7831000000000001,1.0,2600.5070151499485,0.25397556474457034,1.3272997737234813,0.93339513674776,0.2879432,0.6584019710476976
0.0265,1.78244375,1.0,2613.10441330728,0.2581601738509278,1.326886233352266,0.9353241846212608,0.2879156375,0.6592646378978569
0.027,1.781775,1.0,2624.8378063967048,0.26232131059846486,1.3264753377735374,0.9371602352522715,0.28788755,0.6601207073522151
0.0275,1.7810937500000001,1.0,2635.736094171855,0.26645910566291214,1.3260667641338024,0.9389091768509795,0.2878589375,0.6609708715794365
0.028,1.7804003241352453,1.0,2645.844754909058,0.2705736897200004,1.3256601895795674,0.9405764391988322,0.2878298136136803,0.6618158192697711
0.0285,1.7797031707790822,1.0,2655.6081778687044,0.2746651934454604,1.3252552912573397,0.942167035349123,0.2878005331727215,0.6626562356795381
0.029,1.779006017422919,1.0,2665.242519437204,0.27873374736512313,1.3248517456744928,0.943685598885985,0.28777125273176263,0.6634928039930952
0.029500000000000002,1.7783088640667557,1.0,2674.7468952066115,0.2827794798043662,1.3244495536233971,0.9451364612470897,0.2877419722908037,0.6643255330152371
0.03,1.7776117107105924,1.0,2684.0982054293686,0.286802520536319,1.3240489196317358,0.9465236620427722,0.2877126918498449,0.6651540104767375
0.0305,1.7769145573544292,1.0,2693.295870139769,0.2908029953638556,1.3236498408709718,0.947850917958551,0.28768341140888604,0.665978254158784
0.031,1.776217403998266,1.0,2702.339327592743,0.29478103008985007,1.3232523145125688,0.9491216789889606,0.2876541309679272,0.6667982817674342
0.0315,1.7755202506421028,1.0,2711.2280341666788,0.2987367505171763,1.3228563377279898,0.9503391508991967,0.2876248505269683,0.6676141109338973
0.032,1.7748230972859396,1.0,2719.961464265923,0.30267028244870825,1.3224619076886983,0.9515063155346782,0.28759557008600944,0.6684257592148133
0.0325,1.7741259439297763,1.0,2728.542756746678,0.30658173636202724,1.3220689884148176,0.9526259407613493,0.2875662896450506,0.6692333121857656
0.033,1.773428790573613,1.0,2736.9683948675392,0.31047126055045293,1.3216776047068672,0.9537006243291971,0.28753700920409175,0.6700367303254224
0.0335,1.7727316372174498,1.0,2745.2409512037407,0.31433897473406597,1.3212877261627123,0.9547327749326531,0.2875077287631329,0.6708360874272769
0.034,1.7720344838612867,1.0,2753.3631894330424,0.3181849978891484,1.32089932097204,0.9557246414116544,0.28747844832217406,0.6716314598204196
0.0345,1.7713373305051234,1.0,2761.3379086347118,0.32200944899198225,1.320512357324538,0.9566783255944635,0.28744916788121516,0.6724229234766187
0.035,1.7706401771489602,1.0,2769.1679422619077,0.3258124470188495,1.320126803409893,0.9575957936331905,0.2874198874402563,0.6732105540132773
0.035500000000000004,1.7699430237927969,1.0,2776.856157135708,0.3295941109460321,1.3197426274177926,0.9584788863400618,0.28739060699929747,0.6739944266963223
0.036000000000000004,1.7692458704366336,1.0,2784.4054524623966,0.33335455974981215,1.319359797537924,0.9593293286229044,0.2873613265583386,0.6747746164430362
0.0365,1.7685487170804706,1.0,2791.818758872923,0.3370939124064716,1.3189782819599745,0.9601487381076489,0.2873320461173798,0.6755511978248183
0.037,1.7678515637243073,1.0,2799.0990374843323,0.3408122878922925,1.3185980488736313,0.9609386330262517,0.2873027656764209,0.6763242450698828
0.0375,1.767154410368144,1.0,2806.24927898466,0.34450980518355684,1.3182190664685816,0.9617004394401082,0.28727348523546203,0.6770938320658944
0.038,1.7664572570119808,1.0,2813.272502738899,0.34818658325654667,1.3178413029345128,0.9624354978616878,0.2872442047945032,0.6778600323625359
0.0385,1.7657601036558175,1.0,2820.169478691075,0.3518427178257724,1.3174647468247864,0.9631450665724034,0.28721492435354434,0.6786228779447521
0.039,1.7650629502996544,1.0,2826.9453488076224,0.3554783365632126,1.3170893477867602,0.9638303329947442,0.2871856439125855,0.6793824793372673
0.0395,1.7643657969434912,1.0,2833.6063903778536,0.35909358193239094,1.3167150456625172,0.9644924176147938,0.28715636347162665,0.6801389663615742
0.04,1.7636686435873279,1.0,2840.155277805889,0.36268856296701785,1.3163418127553577,0.9651323732737603,0.28712708303066775,0.6808924027508108
0.0405,1.7629714902311646,1.0,2846.5947075751033,0.36626338870080366,1.3159696213685823,0.9657511932996596,0.2870978025897089,0.6816428519521516
0.041,1.7622743368750013,1.0,2852.927397600282,0.36981816816745866,1.3155984438054917,0.9663498154983224,0.28706852214875006,0.6823903771286731
0.0415,1.761577183518838,1.0,2859.1560865962488,0.3733530104006933,1.3152282523693868,0.9669291258366962,0.2870392417077912,0.6831350411611677
0.042,1.760880030162675,1.0,2865.283533464139,0.3768680244342179,1.3148590193635679,0.9674899618451124,0.2870099612668323,0.683876906649912
0.0425,1.7601828768065118,1.0,2871.312516694279,0.3803633193017428,1.3144907170913358,0.9680331157626402,0.28698068082587347,0.684616035916382
0.043000000000000003,1.7594857234503485,1.0,2877.245833785968,0.38383900403697835,1.314123317855991,0.9685593374473509,0.2869514003849146,0.6853524910049236
0.043500000000000004,1.7587885700941852,1.0,2883.086300684545,0.3872951876736349,1.3137567939608343,0.9690693370712735,0.2869221199439558,0.6860863336843703
0.044,1.758091416738022,1.0,2888.8367512353548,0.3907319792454228,1.3133911177091662,0.9695637876179731,0.28689283950299693,0.686817625449616
0.0445,1.757394263381859,1.0,2894.500036654827,0.39414948778605247,1.3130262614042871,0.9700433271990367,0.2868635590620381,0.6875464275231342
0.045,1.7566971100256956,1.0,2900.0790250181562,0.3975478223292342,1.3126621973494983,0.9705085612042585,0.28683427862107924,0.6882728008564521
0.0455,1.7559999566695323,1.0,2905.576600764705,0.40092709190867837,1.3122988978480998,0.9709600642989801,0.28680499818012034,0.6889968061315757
0.046,1.755302803313369,1.0,2910.995664219727,0.4042874055580953,1.3119363352033924,0.9713983822808349,0.2867757177391615,0.6897185037623623
0.0465,1.7546056499572058,1.0,2916.339131133417,0.4076288723111954,1.3115744817186767,0.9718240338070564,0.28674643729820265,0.6904379538958482
0.047,1.7539084966010428,1.0,2921.6099322369905,0.41095160120168894,1.3112133096972536,0.9722375120025291,0.2867171568572438,0.6911552164135246
0.0475,1.7532113432448795,1.0,2926.804074231924,0.41425563186746733,1.31085285234857,0.9726392813936351,0.2866878764162849,0.6918702301873664
0.048,1.7525141898887162,1.0,2931.931828925972,0.4175411516845238,1.3104930176848875,0.97302979414748,0.28665859597532606,0.6925831822988908
0.0485,1.751817036532553,1.0,2936.99555254128,0.42080826734401766,1.3101337834265794,0.9734094753913882,0.2866293155343672,0.6932941211017716
0.049,1.7511198831763897,1.0,2941.9967110075777,0.4240570763961108,1.3097751351870273,0.9737787295845299,0.28660003509340837,0.6940030791449585
0.0495,1.7504227298202264,1.0,2946.9367781656824,0.4272876763909649,1.309417058579612,0.9741379422753359,0.2865707546524495,0.6947100888390972
0.05,1.7497255764640633,1.0,2951.817235582875,0.43050016487874193,1.3090595392177156,0.974487481156691,0.2865414742114907,0.6954151824570578
0.0505,1.7490284231079,1.0,2956.639572372787,0.4336946394096037,1.3087025627147186,0.9748276970530827,0.28651219377053183,0.6961183921344554
0.051000000000000004,1.7483312697517368,1.0,2961.405285020053,0.43687119753371206,1.3083461146840027,0.9751589248446647,0.28648291332957293,0.6968197498701525
0.051500000000000004,1.7476341163955735,1.0,2966.115877209549,0.44002993680122887,1.307990180738949,0.9754814843327987,0.2864536328886141,0.6975192875267526
0.052000000000000005,1.7469369630394103,1.0,2970.772859659814,0.44317095476231594,1.307634746492939,0.9757956810512519,0.28642435244765524,0.6982170368310752
0.0525,1.7462398096832472,1.0,2975.3777499616003,0.44629434896713516,1.3072797975593538,0.9761018070269244,0.2863950720066964,0.6989130293746255
0.053,1.745542656327084,1.0,2979.932072420574,0.44940021696584836,1.3069253195515744,0.976400141493644,0.2863657915657375,0.6996072966140432
0.0535,1.7448455029709207,1.0,2984.4373579052885,0.4524886563086174,1.3065712980829827,0.9766909515623141,0.28633651112477865,0.7002998698715401
0.054,1.7441483496147574,1.0,2988.895143698544,0.4555597645456041,1.3062177187669597,0.9769744928504296,0.2863072306838198,0.700990780335329
0.0545,1.7434511962585941,1.0,2993.3069733546095,0.4586136392269703,1.3058645672168867,0.9772510100737513,0.28627795024286096,0.7016800590600338
0.055,1.742754042902431,1.0,2997.6743965603778,0.46165037790287794,1.3055118290461447,0.9775207376027122,0.2862486698019021,0.7023677369670895
0.0555,1.7420568895462678,1.0,3001.99896900094,0.46467007812348876,1.3051594898681156,0.9777838999859365,0.28621938936094327,0.7030538448451258
0.056,1.7413597361901045,1.0,3006.2822522305064,0.4676728374389646,1.30480753529618,0.9780407124430746,0.2861901089199844,0.7037384133503441
0.0565,1.7406625828339413,1.0,3010.525813546775,0.47065875339946744,1.3044559509437197,0.9782913813289864,0.2861608284790255,0.704421473006873
0.057,1.739965429477778,1.0,3014.7312258714455,0.473627923555159,1.3041047224241156,0.9785361045711648,0.2861315480380667,0.7051030542071162
0.0575,1.7392682761216147,1.0,3018.9000676334235,0.4765804454562011,1.3037538353507494,0.9787750720821432,0.28610226759710783,0.705783187212085
0.058,1.7385711227654517,1.0,3023.0316939920112,0.4795163771995017,1.3034032945861271,0.9790084638389066,0.286072987156149,0.7064618649052417
0.0585,1.7378739694092884,1.0,3027.128133721636,0.48243583754446967,1.3030530819097348,0.9792364565759775,0.2860437067151901,0.7071391248246544
0.059000000000000004,1.7371768160531251,1.0,3031.191667715165,0.4853389442387423,1.3027031769821382,0.9794592198016785,0.28601442627423124,0.7078150084340571
0.059500000000000004,1.7364796626969619,1.0,3035.222980658059,0.48822578399988154,1.3023535732829175,0.9796769145575552,0.2859851458332724,0.7084895303668733
0.06,1.7357825093407986,1.0,3039.2227598584855,0.49109644354544923,1.302004264291652,0.9798896956508831,0.28595586539231355,0.7091627051966134
0.0605,1.7350853559846355,1.0,3043.1916952037554,0.4939510095930073,1.3016552434879223,0.9800977119442168,0.2859265849513547,0.7098345474369971
0.061,1.7343882026284723,1.0,3047.1304791186076,0.4967895688601177,1.301306504351308,0.9803011066293432,0.28589730451039586,0.7105050715420768
0.0615,1.733691049272309,1.0,3051.0398065235277,0.49961220806434226,1.3009580403613887,0.9805000174865887,0.28586802406943695,0.7111742919063544
0.062,1.7329938959161457,1.0,3054.920374795198,0.5024190139232428,1.3006098449977448,0.9806945771303687,0.2858387436284781,0.7118422228648975
0.0625,1.7322967425599824,1.0,3058.772883726355,0.5052100731543814,1.300261911739956,0.9808849132418104,0.28580946318751926,0.7125088786934529
0.063,1.7315995892038192,1.0,3062.598035488122,0.5079854724753198,1.2999142340676024,0.9810711487892184,0.2857801827465604,0.7131742736085567
0.0635,1.7309024358476561,1.0,3066.396534592104,0.5107452986036198,1.2995668054602636,0.981253402237103,0.2857509023056016,0.7138384217676421
0.064,1.7302052824914929,1.0,3070.169087854184,0.5134896382568436,1.2992196193975196,0.981431787744451,0.28572162186464267,0.7145013372691438
0.0645,1.7295081291353296,1.0,3073.916404359128,0.5162185781525529,1.2988726693589505,0.9816064153528588,0.2856923414236838,0.7151630341526003
0.065,1.7288109757791663,1.0,3077.6391954255073,0.5189322050083096,1.298525948824136,0.9817773911651239,0.285663060982725,0.7158235263987541
0.0655,1.728113822423003,1.0,3081.338174572394,0.5216306055416756,1.2981794512726563,0.9819448175148399,0.28563378054176614,0.7164828279296479
0.066,1.72741666906684,1.0,3085.0140574866887,0.5243138664702128,1.2978331701840908,0.9821087931275099,0.2856045001008073,0.7171409526087194
0.0665,1.7267195157106767,1.0,3088.667561991148,0.5269820745114832,1.2974870990380198,0.9822694132736645,0.28557521965984844,0.7177979142408909
0.067,1.7260223623545135,1.0,3092.299408013595,0.5296353163830485,1.2971412313140234,0.9824267699144275,0.28554593921888954,0.7184537265726596
0.0675,1.7253252089983502,1.0,3095.9103175573905,0.5322736788024707,1.296795560491681,0.9825809518399593,0.2855166587779307,0.7191084032921842
0.068,1.724628055642187,1.0,3099.501014671973,0.5348972484873117,1.2964500800505727,0.9827320448011717,0.28548737833697185,0.7197619580293655
0.0685,1.7239309022860239,1.0,3103.07067472653,0.5375060593368732,1.2961047966898964,0.9828801289394625,0.285458097896013,0.7204143793916936
0.069,1.7232337489298606,1.0,3106.621256984214,0.54010025509234,1.2957596933766122,0.983025287449761,0.2854288174550541,0.7210657008092229
0.0695,1.7225365955736973,1.0,3110.153212436616,0.542679917692881,1.2954147659618436,0.983167597493199,0.28539953701409526,0.721715931287338
0.07,1.721839442217534,1.0,3113.6668678457445,0.5452451243397838,1.2950700113651596,0.9833071334336311,0.2853702565731364,0.7223650777836881
0.07050000000000001,1.7211422888613708,1.0,3117.1625509915802,0.5477959522343359,1.29472542650613,0.9834439671899576,0.28534097613217757,0.7230131472282517
