Time [s],Phi [rad],STIM [ ],Fsee [N],Gamma [ ],Lcerel [ ],q [ ],Lmtc [m],fisomrel [ ]
0.0,1.8,1.0,19.039416686077463,0.0010571850127136261,1.3792213581264616,0.0052869452838982455,0.288653,0.5414258977701594
0.0005,1.79999375,1.0,19.65533114423504,0.006660464349632222,1.379152037249344,0.01610131038754527,0.2886527375,0.5415935352349237
0.001,1.799975,1.0,23.775774037852255,0.012232313721031488,1.3787231952406476,0.041271914489371446,0.28865195,0.5426299151362065
0.0015,1.79994375,1.0,35.00921990617547,0.017772909420812263,1.3777205469366651,0.07821749032435342,0.2886506375,0.5450484324676867
0.002,1.7999,1.0,61.00137390458529,0.02328242676077469,1.375902424078121,0.12364973488026275,0.2886488,0.5494176261868382
0.0025,1.79984375,1.0,108.6941018491009,0.028761040064831336,1.3733930852302612,0.1742361706351099,0.28864643749999996,0.5554132777494482
0.003,1.7997750000000001,1.0,175.46260812396582,0.034208922680127325,1.3706831377744328,0.2272110152091768,0.28864354999999997,0.5618431485003217
0.0035,1.79969375,1.0,253.77179357513228,0.03962624698058753,1.3680972807561247,0.28046415378072576,0.2886401375,0.5679349231503403
0.004,1.7996,1.0,338.40751607718107,0.045013184372703456,1.3657131573337897,0.3324362102112031,0.2886362,0.5735136688550726
0.0045000000000000005,1.7994937500000001,1.0,426.6954616859206,0.050369905313876556,1.3635179841208855,0.38205912951079585,0.2886317375,0.5786182245557641
0.005,1.799375,1.0,517.1079081972808,0.055696579277689506,1.3614856105005348,0.428682110786728,0.28862675,0.5833168156921416
0.0055,1.79924375,1.0,608.5823263041992,0.06099337482693233,1.3595938027101018,0.47197717343316936,0.2886212375,0.5876667635602308
0.006,1.7991000000000001,1.0,700.2671442663071,0.06626045950150922,1.3578258551974483,0.511847882177669,0.2886152,0.5917112798221136
0.006500000000000001,1.79894375,1.0,791.4823773960252,0.07149800006438498,1.3561684802293357,0.5483525418048398,0.2886086375,0.5954847375354761
0.007,1.798775,1.0,881.6354889213325,0.07670616204108344,1.3546115346149408,0.5816464091976861,0.28860155,0.5990135826468006
0.0075,1.79859375,1.0,970.2778017602612,0.08188511051808016,1.3531459298418371,0.6119387637543096,0.2885939375,0.6023212762632151
0.008,1.7984,1.0,1057.0155943699679,0.08703500910872954,1.3517643773836034,0.6394647035919938,0.2885858,0.6054267308798655
0.0085,1.79819375,1.0,1141.5428762327044,0.09215602068402745,1.3504603258688954,0.664465586911662,0.2885771375,0.6083468111985575
0.009000000000000001,1.797975,1.0,1223.650907513297,0.09724830773552313,1.349227517140765,0.6871769513997904,0.28856795,0.6110973892592368
0.0095,1.79774375,1.0,1303.1564464679775,0.1023120309760328,1.3480607320499751,0.707822007778774,0.2885582375,0.6136917308827661
0.01,1.7975,1.0,1379.9333324978945,0.1073473505093237,1.3469551090715335,0.7266076073769818,0.288548,0.616142067248598
0.0105,1.79724375,1.0,1453.9172135235444,0.1123544260746881,1.3459059397884858,0.7437226666265094,0.2885372375,0.6184600791423611
0.011,1.796975,1.0,1525.0611174690307,0.11733341611320873,1.3449091066880765,0.7593382641420059,0.28852595000000003,0.6206559570268912
0.0115,1.79669375,1.0,1593.3380189115617,0.1222844776620214,1.3439609143516091,0.7736082174761219,0.2885141375,0.6227388054796079
0.012,1.7964,1.0,1658.756853230967,0.12720776721735164,1.343057801136746,0.7866700766965549,0.28850180000000003,0.6247172993597603
0.0125,1.79609375,1.0,1721.3659474452274,0.13210344169278992,1.342196238452101,0.7986464402840054,0.2884889375,0.6265999183330131
0.013000000000000001,1.7957750000000001,1.0,1781.200393858689,0.13697165570317238,1.341373276616915,0.8096465956151637,0.28847555,0.62839376917038
0.0135,1.79544375,1.0,1838.297796819328,0.1418125624425497,1.3405862857127935,0.8197677794858775,0.2884616375,0.630105172144016
0.014,1.7951000000000001,1.0,1892.722647367807,0.14662631510497265,1.339832635821341,0.8290963693787913,0.2884472,0.6317403687204075
0.0145,1.79474375,1.0,1944.5495348809511,0.1514130660633262,1.3391098525121854,0.8377091662472125,0.2884322375,0.6333051911006502
0.015,1.794375,1.0,1993.8718262125776,0.1561729680846923,1.3384154914997994,0.8456744579898818,0.28841675,0.6348053415591492
0.0155,1.79399375,1.0,2040.7595031002434,0.1609061711332442,1.337747559774227,0.8530531504473932,0.2884007375,0.6362454906459023
0.016,1.7936,1.0,2085.282850665027,0.1656128241686379,1.337104226494941,0.8598995416361512,0.2883842,0.6376299122424983
0.0165,1.7931937500000001,1.0,2127.5260494119348,0.17029307615052944,1.3364836608214155,0.8662620541893625,0.2883671375,0.6389628380109014
0.017,1.792775,1.0,2167.5764239668383,0.174947075123133,1.3358841294327544,0.8721839589468878,0.28834955,0.6402482512602063
0.0175,1.7923437500000001,1.0,2205.529871576006,0.17957496984010635,1.3353039261337754,0.8777039639282855,0.2883314375,0.6414900418344252
0.018000000000000002,1.7919,1.0,2241.464043452055,0.1841769063552579,1.3347416298154278,0.8828568156837958,0.2883128,0.6426914581266299
0.0185,1.79144375,1.0,2275.4510056299164,0.18875302922782314,1.33419595862978,0.8876737202347814,0.2882936375,0.6438554248581708
0.019,1.790975,1.0,2307.5701141685636,0.19330348301703756,1.3336656307289003,0.8921827169502196,0.28827395,0.6449848433363684
0.0195,1.79049375,1.0,2337.906968985927,0.19782841225870562,1.333149368502282,0.8964090422101717,0.2882537375,0.64608258375807
0.02,1.79,1.0,2366.519354783008,0.2023279591478897,1.332646225281667,0.9003755218099018,0.288233,0.6471507933860281
0.0205,1.7894939505107053,1.0,2393.5492195381953,0.20680226936980475,1.3321545743551422,0.9041026120793257,0.2882117459214496,0.6481930444354411
0.021,1.788983689431791,1.0,2419.395216318999,0.2112514826601285,1.3316739312765342,0.9076090635790486,0.28819031495613523,0.6492104697435231
0.021500000000000002,1.7884734283528767,1.0,2444.284305589257,0.21567573875453855,1.3312038115996705,0.9109118566414464,0.2881688839908208,0.6502041938196748
0.022,1.7879631672739624,1.0,2468.250392411291,0.22007517738871255,1.3307437308783783,0.914026392797371,0.28814745302550643,0.651175333178096
0.0225,1.7874529061950482,1.0,2491.3290608879956,0.22444993829832818,1.3302932046664844,0.9169666633295307,0.288126022060192,0.6521249966554332
0.023,1.7869426451161339,1.0,2513.5550991434093,0.22880016039747897,1.329851770964576,0.919745401705197,0.2881045910948776,0.6530542384934084
0.0235,1.7864323840372196,1.0,2534.9605308718637,0.23312598200529364,1.3294190073679255,0.9223742176194852,0.28808316012956325,0.6539640229104932
0.024,1.7859221229583053,1.0,2555.574862130404,0.23742753929738925,1.3289945270950831,0.9248637103992545,0.2880617291642488,0.6548552332317685
0.0245,1.785411861879391,1.0,2575.4275698950187,0.2417049678230209,1.3285779542717373,0.9272235676366724,0.2880402981989344,0.6557287243832912
0.025,1.7849016008004768,1.0,2594.549181003548,0.24595840313144368,1.3281689130235765,0.9294626546636418,0.28801886723362,0.6565853460616207
0.025500000000000002,1.7843913397215625,1.0,2612.9573340244206,0.2501879728846875,1.327767156365344,0.9315891131873199,0.28799743626830565,0.6574256734954598
0.026000000000000002,1.7838810786426482,1.0,2630.704033675788,0.25439382416141704,1.3273721259413722,0.9336103726685832,0.2879760053029912,0.6582509284331197
0.0265,1.783370817563734,1.0,2647.8133484222626,0.25857608830244755,1.3269835316713448,0.935533295154388,0.2879545743376768,0.659061766631807
0.027,1.7828605564848197,1.0,2664.3068674526126,0.2627348948845732,1.3266011126407142,0.9373641974770235,0.2879331433723624,0.6598587794064015
0.0275,1.7823502954059054,1.0,2680.2067925652104,0.266870373484588,1.3262246079349331,0.9391088984194897,0.28791171240704805,0.6606425547758265
0.028,1.7818400343269911,1.0,2695.535903199821,0.27098265367928603,1.3258537566394537,0.9407727645718301,0.2878902814417336,0.6614136775636341
0.0285,1.7813297732480768,1.0,2710.3175229786198,0.27507186504546144,1.3254882978397289,0.9423607514113378,0.2878688504764192,0.6621727294942473
0.029,1.7808195121691626,1.0,2724.575487756862,0.2791381371599083,1.3251279706212107,0.9438774401560408,0.2878474195111048,0.6629202892848634
0.029500000000000002,1.7803092510902483,1.0,2738.3341151822206,0.2831815995994207,1.3247725140693518,0.9453270708724473,0.28782598854579045,0.6636569327330124
0.03,1.779798990011334,1.0,2751.6181757642635,0.2872023819407927,1.3244216672696048,0.9467135722591247,0.287804557580476,0.6643832327997763
0.0305,1.7792887289324197,1.0,2764.4434506999646,0.2912006065482864,1.3240752543413201,0.9480405971001461,0.28778312661516164,0.6650995839400787
0.031,1.7787784678535055,1.0,2776.838475782705,0.29517640796643024,1.3237329873020938,0.9493115268969304,0.2877616956498472,0.6658066101162704
0.0315,1.7782682067745912,1.0,2788.823314766379,0.2991299132601888,1.3233946579992797,0.9505295123508751,0.28774026468453284,0.6665047677854876
0.032,1.777757945695677,1.0,2800.4125244704574,0.3030612447076039,1.3230601104445971,0.9516974898952608,0.2877188337192184,0.667194403825015
0.0325,1.7772476846167629,1.0,2811.620903532459,0.30697052458671753,1.3227291886497659,0.9528181943934264,0.28769740275390404,0.6678758634995658
0.033,1.7767374235378486,1.0,2822.463479598042,0.3108578751755716,1.3224017366265057,0.9538941754285464,0.2876759717885896,0.668549490498129
0.0335,1.7762271624589343,1.0,2832.955497051765,0.31472341875220794,1.322077598386536,0.9549278120911215,0.28765454082327524,0.6692156269692641
0.034,1.77571690138002,1.0,2843.112405285879,0.31856727759466846,1.321756617941577,0.9559213264187147,0.28763310985796087,0.6698746135548408
0.0345,1.7752066403011058,1.0,2852.9498475097935,0.32238957398099516,1.321438639303348,0.9568767956250512,0.28761167889264644,0.6705267894222328
0.035,1.7746963792221915,1.0,2862.483650098669,0.3261904301892298,1.3211235064835687,0.957796163240291,0.287590247927332,0.6711724922949536
0.035500000000000004,1.7741861181432772,1.0,2871.7263427107146,0.32996996401824674,1.3208110942419322,0.9586812514212213,0.28756881696201764,0.6718119955717285
0.036000000000000004,1.773675857064363,1.0,2880.6901791369623,0.33372829475029064,1.320501281033802,0.9595337686800196,0.28754738599670326,0.6724455639530993
0.0365,1.7731655959854487,1.0,2889.3949008372865,0.3374655520155047,1.3201938803298665,0.9603553133533058,0.28752595503138884,0.6730735937477779
0.037,1.7726553349065344,1.0,2897.8493732769007,0.34118185069110835,1.3198888030277547,0.9611473922253113,0.2875045240660744,0.673696280923056
0.0375,1.77214507382762,1.0,2906.062557741686,0.34487730565432084,1.3195859600250945,0.9619114208804523,0.28748309310076003,0.6743138206468071
0.038,1.7716348127487058,1.0,2914.043506835805,0.34855203178236144,1.3192852622195146,0.9626487302363561,0.28746166213544566,0.6749264073004331
0.0385,1.7711245516697915,1.0,2921.801360156054,0.3522061439524495,1.318986620508643,0.9633605725399779,0.28744023117013123,0.6755342344913107
0.039,1.7706142905908773,1.0,2929.3453401420625,0.3558397570418043,1.318689945790108,0.964048126876305,0.28741880020481686,0.6761374950647259
0.0395,1.770104029511963,1.0,2936.6847481020836,0.35945298592764524,1.318395148961538,0.9647125042341146,0.28739736923950243,0.6767363811153062
0.04,1.7695937684330487,1.0,2943.828960415622,0.3630459454871916,1.3181021409205615,0.965354752168776,0.28737593827418806,0.6773310839979438
0.0405,1.7690835073541344,1.0,2950.787424911032,0.36661875059766263,1.3178108325648068,0.9659758590980982,0.28735450730887363,0.6779217943382154
0.041,1.7685732462752202,1.0,2957.5696574202975,0.3701715161362777,1.317521134791902,0.9665767582636798,0.28733307634355926,0.6785087020422921
0.0415,1.768062985196306,1.0,2964.1787635692585,0.37370434277449655,1.317233014976351,0.9671583337380727,0.28731164537824483,0.6790918820440508
0.042,1.7675527241173916,1.0,2970.628262906567,0.37721735819219016,1.31694635004873,0.9677214183500269,0.28729021441293046,0.6796715918073595
0.0425,1.7670424630384773,1.0,2976.9263989480196,0.38071067716125817,1.3166610635243952,0.9682668015964142,0.287268783447616,0.6802479937742314
0.043000000000000003,1.766532201959563,1.0,2983.0781372885626,0.3841844066763108,1.3163771078567912,0.9687952318852283,0.28724735248230165,0.6808211914036107
0.043500000000000004,1.7660219408806488,1.0,2989.0884781551854,0.3876386537319583,1.3160944354993622,0.969307418088393,0.2872259215169872,0.6813912877753174
0.044,1.7655116798017345,1.0,2994.962455029705,0.3910735253228109,1.3158129989055534,0.9698040320249129,0.28720449055167285,0.6819583855940081
0.0445,1.7650014187228202,1.0,3000.7051333203376,0.39448912844347883,1.3155327505288086,0.9702857107643256,0.2871830595863585,0.6825225871929995
0.045,1.764491157643906,1.0,3006.3216090842857,0.3978855700885723,1.3152536428225727,0.9707530587651054,0.28716162862104405,0.6830839945379392
0.0455,1.7639808965649917,1.0,3011.817007800444,0.40126295725270145,1.3149756282402902,0.9712066498613516,0.2871401976557296,0.6836427092303397
0.046,1.7634706354860776,1.0,3017.196483191752,0.40462139693047666,1.3146986592354057,0.9716470291098914,0.28711876669041525,0.6841988325109629
0.0465,1.7629603744071634,1.0,3022.4652160978703,0.4079609961165081,1.3144226882613634,0.9720747145088592,0.2870973357251009,0.6847524652630659
0.047,1.762450113328249,1.0,3027.6284133979148,0.411281861805406,1.3141476677716082,0.9724901985978418,0.28707590475978645,0.6853037080154952
0.0475,1.7619398522493348,1.0,3032.6913069839984,0.4145841009917805,1.3138735502195844,0.9728939499487949,0.2870544737944721,0.6858526609456442
0.048,1.7614295911704205,1.0,3037.656510575838,0.41786780910104493,1.3136003108246406,0.9732864146954423,0.28703304282915765,0.6863993783504108
0.0485,1.7609193300915063,1.0,3042.5277022399273,0.4211330902866924,1.3133279157687796,0.9736680181706874,0.2870116118638433,0.6869439323979354
0.049,1.760409069012592,1.0,3047.3131997962864,0.4243800697008709,1.3130562914702755,0.9740391654325293,0.28699018089852885,0.6874864743969322
0.0495,1.7598988079336777,1.0,3052.0155176144785,0.4276088458315907,1.3127854145008149,0.9744002427396135,0.2869687499332145,0.6880270550878618
0.05,1.7593885468547634,1.0,3056.6371822590595,0.430819517166862,1.3125152614320845,0.9747516184709027,0.28694731896790004,0.6885657250383797
0.0505,1.7588782857758491,1.0,3061.1807321083375,0.43401218219469506,1.3122458088357714,0.9750936441134165,0.28692588800258567,0.6891025346444354
0.051000000000000004,1.7583680246969349,1.0,3065.6487169836346,0.43718693940310005,1.311977033283562,0.9754266551868959,0.28690445703727124,0.6896375341313368
0.051500000000000004,1.7578577636180206,1.0,3070.0436977922823,0.44034388728008717,1.3117089113471434,0.9757509721099487,0.28688302607195687,0.6901707735547791
0.052000000000000005,1.7573475025391063,1.0,3074.368246181258,0.4434831243136666,1.3114414195982023,0.9760669010118607,0.28686159510664244,0.6907023028018384
0.0525,1.756837241460192,1.0,3078.6249442045555,0.4466047489918486,1.3111745346084254,0.9763747344939265,0.28684016414132807,0.6912321715919321
0.053,1.7563269803812778,1.0,3082.816384001154,0.4497088598026434,1.3109082329494994,0.9766747523438526,0.2868187331760137,0.6917604294777417
0.0535,1.7558167193023635,1.0,3086.9451674863167,0.45279555523406123,1.3106424911931114,0.9769672222065036,0.28679730221069927,0.6922871258461024
0.054,1.7553064582234492,1.0,3091.01390605484,0.45586493377411225,1.310377285910948,0.9772524002140102,0.28677587124538484,0.6928123099188574
0.0545,1.754796197144535,1.0,3095.02522029599,0.4589170939108067,1.3101125936746958,0.9775305315780248,0.28675444028007047,0.6933360307536768
0.055,1.7542859360656207,1.0,3098.9817397209886,0.46195213413215475,1.309848391056042,0.9778018511467016,0.2867330093147561,0.693858337244841
0.0555,1.7537756749867064,1.0,3102.8861025025335,0.4649701529261666,1.309584654626673,0.9780665839287755,0.28671157834944166,0.6943792781239913
0.056,1.7532654139077921,1.0,3106.73679922925,0.46797120950533305,1.3093213963670012,0.9783249440431657,0.28669014738412724,0.6948988321095937
0.0565,1.7527551528288778,1.0,3110.5391508365747,0.4709554364251948,1.309058570082073,0.9785771401399679,0.28666871641881286,0.6954170926620676
0.057,1.7522448917499636,1.0,3114.2964490536033,0.4739229442525776,1.3087961469688558,0.9788233713092187,0.2866472854534985,0.6959341186772603
0.0575,1.7517346306710493,1.0,3118.0098230724393,0.47687382193639427,1.3085341166947304,0.9790638277095401,0.28662585448818406,0.6964499325108497
0.058,1.751224369592135,1.0,3121.680406024967,0.47980815842555746,1.3082724689270773,0.979298691885879,0.28660442352286963,0.696964556446442
0.0585,1.7507141085132207,1.0,3125.3093348936163,0.4827260426689797,1.3080111933332772,0.9795281391347466,0.28658299255755526,0.6974780126958244
0.059000000000000004,1.7502038474343067,1.0,3128.8977504249196,0.4856275636155738,1.3077502795807108,0.9797523378491472,0.2865615615922409,0.6979903233992167
0.059500000000000004,1.7496935863553924,1.0,3132.4467970455025,0.48851281021425236,1.3074897173367583,0.9799714498444806,0.28654013062692646,0.6985015106255117
0.06,1.7491833252764781,1.0,3135.9576227807256,0.491381871413928,1.3072294962688005,0.9801856306666047,0.2865186996616121,0.6990115963725099
0.0605,1.7486730641975639,1.0,3139.4313791746044,0.4942348361635134,1.3069696060442177,0.9803950298831664,0.28649726869629766,0.6995206025671485
0.061,1.7481628031186496,1.0,3142.8692212136384,0.49707179341192126,1.306710036330391,0.9805997913592324,0.2864758377309833,0.7000285510657216
0.0615,1.7476525420397353,1.0,3146.2723072515364,0.4998928321080642,1.3064507767947007,0.9808000535181782,0.2864544067656689,0.7005354636540961
0.062,1.747142280960821,1.0,3149.641798937254,0.5026980412008548,1.3061918171045273,0.98099594958873,0.2864329758003545,0.7010413620479201
0.0625,1.7466320198819067,1.0,3152.9788611453664,0.5054875096392059,1.3059331469272513,0.9811876078389943,0.28641154483504006,0.7015462678928217
0.063,1.7461217588029925,1.0,3156.2846619081715,0.50826132637203,1.3056747559302535,0.981375151798251,0.2863901138697257,0.7020502027646045
0.0635,1.7456114977240782,1.0,3159.5603723506906,0.5110195803482399,1.3054166337809143,0.9815587004672384,0.2863686829044113,0.7025531881694351
0.064,1.745101236645164,1.0,3162.80716662779,0.5137623605167481,1.3051587701466143,0.981738368517605,0.2863472519390969,0.7030552455440238
0.0645,1.7445909755662496,1.0,3166.0262218639837,0.5164897558264674,1.3049011546947342,0.981914266481165,0.28632582097378245,0.7035563962557965
0.065,1.7440807144873354,1.0,3169.21871809543,0.5192018552263102,1.3046437770926544,0.9820865009295463,0.2863043900084681,0.7040566616030647
0.0655,1.743570453408421,1.0,3172.3858382138733,0.5218987476651895,1.3043866270077558,0.9822551746447852,0.2862829590431537,0.704556062815183
0.066,1.7430601923295068,1.0,3175.526104511826,0.5245804663550154,1.3041297165522387,0.982420384162857,0.2862615280778393,0.7050545775186701
0.0665,1.7425499312505925,1.0,3178.6427989834174,0.5272471606471122,1.3038730177265119,0.9825822283879991,0.28624009711252485,0.7055522611536448
0.067,1.7420396701716783,1.0,3181.73670216633,0.5298989166694853,1.303616523648125,0.9827407996291997,0.2862186661472105,0.7060491280861849
0.0675,1.741529409092764,1.0,3184.808299421344,0.5325358136596996,1.3033602299342741,0.9828961866921936,0.2861972351818961,0.7065451878004603
0.068,1.7410191480138497,1.0,3187.8580773850667,0.5351579308553203,1.3031041322021553,0.9830484753521186,0.2861758042165817,0.7070404497512066
0.0685,1.7405088869349354,1.0,3190.886523950997,0.5377653474939122,1.3028482260689642,0.9831977484780042,0.2861543732512673,0.7075349233637804
0.069,1.7399986258560212,1.0,3193.8941282500164,0.5403581428130405,1.302592507151897,0.9833440861513167,0.2861329422859529,0.7080286180342131
0.0695,1.7394883647771069,1.0,3196.881380632735,0.54293639605027,1.3023369710681494,0.983487565778888,0.2861115113206385,0.7085215431292635
0.07,1.7389781036981926,1.0,3199.8487726509356,0.5455001864431659,1.3020816134349174,0.9836282622005269,0.2860900803553241,0.7090137079864706
