Time [s],Phi [rad],STIM [ ],Fsee [N],Gamma [ ],Lcerel [ ],q [ ],Lmtc [m],fisomrel [ ]
0.0,1.8,1.0,17.968100479540208,2.6947531876506662e-05,1.379339640650652,0.0050001920288950666,0.288653,0.5411397864510021
0.0005,1.79999375,1.0,18.28306625651881,0.005636005686333744,1.3793016855868137,0.012987630022502372,0.2886527375,0.5412316049457971
0.001,1.799975,1.0,21.637275755362378,0.011213601459382744,1.3789363727709796,0.035696940544128176,0.28865195,0.5421148768851187
0.0015,1.79994375,1.0,31.114869396641772,0.016759911330984426,1.3780423173471634,0.07072263142162796,0.2886506375,0.5442729792563348
0.002,1.7999,1.0,53.68133713199409,0.02227511078941982,1.3763617153276206,0.11486103477139015,0.2886488,0.5483158776647037
0.0025,1.79984375,1.0,97.28572623774663,0.027759374338974074,1.3739271335631393,0.16473045463987518,0.28864643749999996,0.5541406211264482
0.003,1.7997750000000001,1.0,161.17562875178794,0.033212875507495535,1.3712062066966955,0.21744093791057703,0.28864354999999997,0.560605714636002
0.0035,1.79969375,1.0,237.9292744542974,0.03863578684611103,1.3685771604996155,0.270772508262818,0.2886401375,0.5668076427233439
0.004,1.7996,1.0,321.72858173065487,0.044028279939976024,1.3661491594501842,0.32307035830372777,0.2886362,0.5724961512561338
0.0045000000000000005,1.7994937500000001,1.0,409.5389788612941,0.04939052541346829,1.3639164484643873,0.37318122353276606,0.2886317375,0.5776939366615655
0.005,1.799375,1.0,499.69031660801556,0.05472269292130789,1.3618524609203129,0.42038472583715714,0.28862675,0.582470652187224
0.0055,1.79924375,1.0,591.0697927573527,0.06002495119538376,1.3599333773610305,0.46430078493711285,0.2886212375,0.5868876398644197
0.006,1.7991000000000001,1.0,682.7979021050529,0.06529746798955555,1.358141329362399,0.5047967543594778,0.2886152,0.5909910338090998
0.006500000000000001,1.79894375,1.0,774.1414674677516,0.07054040986805928,1.3564628120418896,0.5419077427027064,0.2886086375,0.5948158916810858
0.007,1.798775,1.0,864.5681391837479,0.07575394358813753,1.354885834867195,0.575774024383703,0.28860155,0.5983929981205803
0.0075,1.79859375,1.0,953.5291148009222,0.08093823330004613,1.353402382092733,0.6065982820319361,0.2885939375,0.6017434831989221
0.008,1.7984,1.0,1040.624768488242,0.08609344293666393,1.3520047256599101,0.634612469909038,0.2885858,0.6048873504881742
0.0085,1.79819375,1.0,1125.579369559679,0.09121973607551931,1.3506854882830341,0.6600574426836966,0.2885771375,0.607843393838297
0.009000000000000001,1.797975,1.0,1208.139860371168,0.09631727481808652,1.3494387602736049,0.6831706794390057,0.28856795,0.6106267628139226
0.0095,1.79774375,1.0,1288.1126351768962,0.10138622002031726,1.348259207057034,0.7041780313261092,0.2885582375,0.613251035395427
0.01,1.7975,1.0,1365.3973478181479,0.10642673300851038,1.347141425445133,0.7232892491854787,0.288548,0.6157296898594424
0.0105,1.79724375,1.0,1439.8970361184936,0.11143897286046328,1.3460809735531463,0.7406967318490915,0.2885372375,0.6180738512261048
0.011,1.796975,1.0,1511.5443095289347,0.11642309758702357,1.3450738407520522,0.7565748892041398,0.28852595000000003,0.6202935090198576
0.0115,1.79669375,1.0,1580.3256312689596,0.12137926508926476,1.3441160386507123,0.7710805117119451,0.2885141375,0.6223984436968798
0.012,1.7964,1.0,1646.259886780037,0.126307632535396,1.343203790402471,0.7843539456774332,0.28850180000000003,0.6243978260630638
0.0125,1.79609375,1.0,1709.3747854727555,0.13120835629885927,1.3423337282137133,0.7965204983316211,0.2884889375,0.626299803977358
0.013000000000000001,1.7957750000000001,1.0,1769.691395869196,0.13608159057034763,1.3415029861038537,0.8076918631846624,0.28847555,0.628111321690533
0.0135,1.79544375,1.0,1827.26228086271,0.14092748954055428,1.3407086980923066,0.8179673050043496,0.2884616375,0.6298392316461909
0.014,1.7951000000000001,1.0,1882.146990745766,0.14574620634954097,1.3399482361754058,0.8274350943964557,0.2884472,0.6314897854631075
0.0145,1.79474375,1.0,1934.4444460921175,0.15053789514086421,1.3392188165843775,0.8361736011925415,0.2884322375,0.633069497688439
0.015,1.794375,1.0,1984.2136700279946,0.15530270651269917,1.3385183309778494,0.8442527184955854,0.28841675,0.6345833532907245
0.0155,1.79399375,1.0,2031.5213672720408,0.16004079050218117,1.3378447825769195,0.8517346569887001,0.2884007375,0.6360360423646492
0.016,1.7936,1.0,2076.4504797289233,0.16475229714644557,1.3371961746026853,0.8586748152256372,0.2883842,0.6374322061011333
0.0165,1.7931937500000001,1.0,2119.087812454723,0.1694373756028534,1.336570623502461,0.8651226206079468,0.2883671375,0.6387761970509076
0.017,1.792775,1.0,2159.5303086874446,0.174096175462116,1.3359662761117022,0.8711222124571425,0.28834955,0.6400722618483276
0.0175,1.7923437500000001,1.0,2197.8551330566283,0.17872884356462648,1.3353815996201852,0.8767131445754128,0.2883314375,0.641323924222595
0.018000000000000002,1.7919,1.0,2234.1363513856695,0.1833355255969297,1.3348151902151058,0.8819308689035432,0.2883128,0.6425344017896127
0.0185,1.79144375,1.0,2268.4565427161424,0.18791636724557045,1.3342656440836593,0.8868071799381022,0.2882936375,0.6437068851573227
0.019,1.790975,1.0,2300.899880687102,0.192471513417932,1.3337316187559154,0.8913706531302886,0.28827395,0.6448444089367231
0.0195,1.79049375,1.0,2331.554109868134,0.19700110933794973,1.3332118049693709,0.8956470075664409,0.2882537375,0.6459499139957078
0.02,1.79,1.0,2360.5012672485595,0.20150529915858018,1.332705010375502,0.899659448349908,0.288233,0.6470260716550927
0.0205,1.78949375,1.0,2387.8050213272477,0.2059842239336225,1.332210273808315,0.9034289719863986,0.2882117375,0.6480750445669783
0.021,1.788975,1.0,2413.533471042677,0.21043802471687584,1.3317266341018148,0.9069745604229136,0.28818995000000003,0.6490989803172216
0.021500000000000002,1.78844375,1.0,2437.7587787499306,0.2148668425621394,1.3312531300900075,0.9103134019645187,0.2881676375,0.6501000121351168
0.022,1.7879,1.0,2460.552355759844,0.21927081768282292,1.3307888433805615,0.9134610937846576,0.2881448,0.6510801693078775
0.0225,1.78734375,1.0,2481.9841861776317,0.22365009004671849,1.330332900766267,0.9164318125753592,0.28812143749999997,0.6520413733142335
0.023,1.786775,1.0,2502.1279709642245,0.22800480027640208,1.329884421693402,0.9192384543616903,0.28809755,0.652985549502582
0.0235,1.78619375,1.0,2521.0358485828147,0.2323350843450738,1.3294427550090409,0.9218928094047772,0.28807313749999996,0.6539141300129244
0.024,1.7856,1.0,2538.7620613039517,0.2366410782259337,1.3290072495602578,0.9244056348726389,0.2880482,0.6548285387015123
0.0245,1.78499375,1.0,2555.362780056108,0.24092291789218187,1.3285772541941268,0.9267867595883006,0.2880227375,0.6557301914102303
0.025,1.784375,1.0,2570.8959386761367,0.2451807393170184,1.328152117757722,0.9290451768886501,0.28799675,0.6566204962089355
0.025500000000000002,1.78374375,1.0,2585.4129266876485,0.2494146765549982,1.3277312652229303,0.9311891389227773,0.2879702375,0.6575006945005655
0.026000000000000002,1.7831000000000001,1.0,2598.970442715247,0.2536248657080546,1.3273140849075862,0.9332262118544131,0.2879432,0.6583720976438441
0.0265,1.78244375,1.0,2611.6224284767422,0.2578114415124317,1.3269000027309397,0.9351633521069661,0.2879156375,0.6592359318064784
0.027,1.781775,1.0,2623.407541637137,0.26197453445589003,1.3264885968035398,0.9370069805082271,0.28788755,0.6600930999912488
0.0275,1.7810937500000001,1.0,2634.365325698901,0.2661142750261901,1.3260794452359357,0.9387630104960557,0.2878589375,0.6609445006206136
0.028,1.7804,1.0,2644.5361341372127,0.27023079371109243,1.3256721261386761,0.9404368949224288,0.2878298,0.6617910276030429
0.0285,1.77969375,1.0,2653.9610584816514,0.2743242209983575,1.3252662176223102,0.9420336679735076,0.2878001375,0.6626335703879973
0.029,1.778975,1.0,2662.681860344342,0.2783946873757458,1.324861297797387,0.9435579827684653,0.28776995,0.6634730140095582
0.029500000000000002,1.7782437500000001,1.0,2670.71815355266,0.2824423201305891,1.3244571538615109,0.9450141726204775,0.2877392375,0.6643098064671169
0.03,1.7775,1.0,2678.1454284872425,0.2864672514325471,1.3240530641193333,0.9464061849933054,0.287708,0.6651454452642578
0.0305,1.7767496854122713,1.0,2685.2591703736794,0.2904696077070287,1.3236489774259237,0.9477377672894572,0.2876764867873154,0.6659800363876083
0.031,1.7759993667630496,1.0,2692.372908994654,0.29444951394083596,1.3232449752807405,0.9490124141869741,0.2876449734040481,0.6668134118487037
0.0315,1.7752490481138279,1.0,2699.477890827572,0.298407095120771,1.3228411391832426,0.9502333724034496,0.28761346002078075,0.6676454044989355
0.032,1.774498729464606,1.0,2706.5651156342356,0.30234247623363597,1.3224375506328883,0.9514036613521987,0.28758194663751346,0.6684758480289019
0.0325,1.7737484108153843,1.0,2713.6255367193653,0.3062557822662329,1.3220342911291363,0.9525260918405313,0.2875504332542461,0.66930457696733
0.033,1.7729980921661626,1.0,2720.6502601209936,0.3101471380202659,1.3216314403626868,0.9536032827524142,0.28751891987097883,0.6701314303897432
0.0335,1.7722477735169408,1.0,2727.6322835101723,0.314016666575497,1.321229060421777,0.9546376742268953,0.28748740648771154,0.6709562842491786
0.034,1.771497454867719,1.0,2734.5647445910568,0.31786449128700406,1.3208272118176059,0.9556315442394279,0.2874558931044442,0.6717790183588682
0.0345,1.7707471362184972,1.0,2741.4439108153224,0.3216907327041273,1.320425926384379,0.9565870175211352,0.28742437972117685,0.6725995717497213
0.035,1.7699968175692755,1.0,2748.266034040878,0.3254955113762071,1.3200252359563016,0.9575060813226826,0.28739286633790956,0.6734178837726833
0.035500000000000004,1.7692464989200538,1.0,2755.0273509405242,0.3292789478525836,1.3196251723675794,0.9583905959097823,0.28736135295464227,0.6742338940975612
0.036000000000000004,1.7684961802708319,1.0,2761.727386819284,0.33304115369734405,1.319225737601586,0.9592422989517988,0.2873298395713749,0.6750476034844497
0.0365,1.7677458616216102,1.0,2768.3604336404433,0.3367822568763422,1.3188269808897919,0.9600628284707549,0.28729832618810763,0.6758589166348861
0.037,1.7669955429723885,1.0,2774.921931023884,0.34050238417862705,1.3184289409081305,0.9608537201691016,0.28726681280484034,0.6766677601789743
0.0375,1.7662452243231668,1.0,2781.4119691218048,0.34420164970477285,1.3180316143041615,0.9616164093941567,0.287235299421573,0.6774741463746463
0.038,1.765494905673945,1.0,2787.8306432208296,0.34788016755535395,1.3176349977254442,0.9623522453102439,0.2872037860383057,0.6782780874360875
0.0385,1.7647445870247231,1.0,2794.1780536883116,0.35153805183094466,1.3172390878195384,0.9630624970238761,0.28717227265503836,0.6790795955338879
0.039,1.7639942683755014,1.0,2800.454305920547,0.35517541663211943,1.3168438812340035,0.9637483592095777,0.2871407592717711,0.6798786827951935
0.0395,1.7632439497262797,1.0,2806.6595102896085,0.3587923760594525,1.3164493746163994,0.9644109572820188,0.28710924588850373,0.6806753613038574
0.04,1.7624936310770578,1.0,2812.7937820919565,0.36238904421351825,1.3160555646142853,0.9650513521555171,0.28707773250523644,0.681469643100591
0.0405,1.761743312427836,1.0,2818.8572414957735,0.3659655351948911,1.315662447875221,0.9656705446278784,0.2870462191219691,0.6822615401831102
0.041,1.7609929937786144,1.0,2824.850013489973,0.3695219631041453,1.315270021046766,0.9662694794218735,0.2870147057387018,0.6830510645062873
0.0415,1.7602426751293927,1.0,2830.7722278321994,0.37305844204185523,1.31487828077648,0.9668490489144019,0.28698319235543446,0.6838382279822965
0.042,1.7594923564801708,1.0,2836.6240189982336,0.37657508610859525,1.3144872237119227,0.9674100965804726,0.28695167897216717,0.6846230424807624
0.0425,1.758742037830949,1.0,2842.4067012362234,0.3800719796855489,1.3140968360336787,0.967953414482789,0.2869201655888999,0.6854055407960217
0.043000000000000003,1.7579917191817274,1.0,2848.1211903742433,0.3835492721351381,1.3137071075506928,0.9684797630392781,0.28688865220563253,0.6861857483168945
0.043500000000000004,1.7572414005325057,1.0,2853.76864576362,0.3870070724870191,1.3133180259739434,0.9689898556728178,0.28685713882236524,0.6869636945146407
0.044,1.7564910818832837,1.0,2859.3503030193747,0.3904454858692988,1.3129295784107735,0.9694843677702465,0.2868256254390979,0.6877394099351262
0.0445,1.755740763234062,1.0,2864.8674061376523,0.3938646174100842,1.312541751968526,0.9699639397097641,0.2867941120558306,0.6885129249886618
0.045,1.7549904445848403,1.0,2870.321207315763,0.3972645722374823,1.3121545337545444,0.9704291790201631,0.28676259867256326,0.6892842699505198
0.0455,1.7542401259356186,1.0,2875.7129667771806,0.40064545547959995,1.3117679108761713,0.9708806623865578,0.286731085289296,0.6900534749614404
0.046,1.753489807286397,1.0,2881.043952598821,0.40400737226454414,1.3113818704407503,0.9713189375149098,0.2866995719060287,0.6908205700281245
0.0465,1.752739488637175,1.0,2886.3154405431733,0.40735042772042185,1.3109963995556242,0.9717445248665607,0.28666805852276134,0.6915855850237199
0.047,1.7519891699879533,1.0,2891.5287138936933,0.41067472697534,1.310611485328136,0.9721579192729934,0.28663654513949405,0.6923485496882944
0.0475,1.7512388513387316,1.0,2896.685063293428,0.4139803751574056,1.3102271148656293,0.9725595914401526,0.28660503175622676,0.6931094936292974
0.048,1.7504885326895097,1.0,2901.7857865879123,0.41726747739472553,1.3098432752754468,0.9729499893508468,0.2865735183729594,0.6938684463220145
0.0485,1.749738214040288,1.0,2906.832188671978,0.42053613881540675,1.3094599536649316,0.9733295395730311,0.28654200498969207,0.6946254371100076
0.049,1.7489878953910662,1.0,2911.8255813393425,0.42378646454755625,1.3090771371414267,0.9736986484810957,0.2865104916064248,0.6953804952055476
0.0495,1.7482375767418445,1.0,2916.7672831364544,0.42701855971928104,1.3086948128122757,0.9740577033967001,0.2864789782231575,0.6961336496900321
0.05,1.7474872580926226,1.0,2921.658592568948,0.43023252886243635,1.3083129680189682,0.9744070736018668,0.28644746483989014,0.6968849290540009
0.0505,1.746736939443401,1.0,2926.4972458937223,0.433428392184059,1.3079316214297163,0.9747471039125465,0.28641595145662285,0.6976343001392407
0.051000000000000004,1.7459866207941792,1.0,2931.289623304322,0.43660636261594,1.3075507158475712,0.9750781401988637,0.2863844380733555,0.6983818787680055
0.051500000000000004,1.7452363021449575,1.0,2936.0366095925565,0.4397665341799902,1.3071702424370677,0.9754005024901198,0.2863529246900882,0.6991276854628605
0.052000000000000005,1.7444859834957356,1.0,2940.7390940705623,0.4429090008981207,1.306790192362741,0.9757144965434249,0.28632141130682087,0.6998717406569911
0.0525,1.7437356648465139,1.0,2945.3979704876238,0.4460338567922424,1.3064105567891258,0.976020414604364,0.2862898979235536,0.700614064694445
0.053,1.7429853461972922,1.0,2950.0141369478333,0.4491411958842663,1.306031326880757,0.9763185361207649,0.2862583845402863,0.7013546778303674
0.0535,1.7422350275480705,1.0,2954.5884958294187,0.45223111219610346,1.3056524938021699,0.9766091284128371,0.28622687115701895,0.7020936002312326
0.054,1.7414847088988488,1.0,2959.1219537070274,0.45530369974966484,1.3052740487178993,0.9768924473027014,0.28619535777375166,0.702830851975069
0.0545,1.7407343902496268,1.0,2963.615421273761,0.4583590525668614,1.30489598279248,0.9771687377060925,0.2861638443904843,0.703566453051683
0.055,1.7399840716004051,1.0,2968.069813267095,0.461397264669604,1.3045182871904468,0.9774382341888102,0.286132331007217,0.7043004233628717
0.0555,1.7392337529511834,1.0,2972.4860483944417,0.4644184300798039,1.3041409530763353,0.9777011614902961,0.2861008176239497,0.7050327827226354
0.056,1.7384834343019615,1.0,2976.865049262465,0.4674226428193718,1.3037639716146796,0.9779577350165322,0.2860693042406824,0.7057635508573856
0.0565,1.7377331156527398,1.0,2981.207742306307,0.47040999691021884,1.3033873339700153,0.9782081613043033,0.2860377908574151,0.706492747406143
0.057,1.736982797003518,1.0,2985.5150577217837,0.473380586374256,1.303011031306877,0.9784526384587002,0.28600627747414775,0.707220391920736
0.0575,1.7362324783542964,1.0,2989.7879293990027,0.4763345052333942,1.3026350547897998,0.9786913565656186,0.28597476409088046,0.7079465038659913
0.058,1.7354821597050747,1.0,2994.027294857225,0.4792718475095445,1.3022593955833186,0.9789244980808659,0.2859432507076131,0.7086711026199201
0.0585,1.7347318410558528,1.0,2998.2340951821884,0.4821927072246178,1.3018840448519684,0.9791522381973868,0.2859117373243458,0.709394207473899
0.059000000000000004,1.733981522406631,1.0,3002.409274964569,0.48509717840052513,1.3015089937602842,0.9793747451919953,0.2858802239410785,0.7101158376328474
0.059500000000000004,1.7332312037574094,1.0,3006.5537822406595,0.4879853550591775,1.3011342334728004,0.9795921807529149,0.2858487105578112,0.7108360122153984
0.06,1.7324808851081874,1.0,3010.6685684342615,0.49085733122248587,1.3007597551540526,0.9798047002893282,0.2858171971745439,0.7115547502540636
0.0605,1.7317305664589657,1.0,3014.7545883006537,0.49371320091236115,1.3003855499685757,0.9800124532240603,0.28578568379127656,0.7122720706953964
0.061,1.730980247809744,1.0,3018.8127998725613,0.4965530581507145,1.3000116090809042,0.9802155832704326,0.2857541704080092,0.712987992400149
0.0615,1.7302299291605223,1.0,3022.842933081479,0.49937695899661677,1.2996379342909397,0.9804142263343268,0.2857226570247419,0.713702513819702
0.062,1.7294796105113006,1.0,3026.845732595368,0.5021850002402022,1.2992645186390137,0.9806085159041326,0.28569114364147463,0.714415650139539
0.0625,1.7287292918620787,1.0,3030.8232649199035,0.5049773174545814,1.2988913437856704,0.9807985827870935,0.2856596302582073,0.7151274381696308
0.063,1.727978973212857,1.0,3034.7759753391633,0.5077539934581203,1.2985184054185457,0.9809845497186054,0.28562811687494,0.7158378878391862
0.0635,1.7272286545636353,1.0,3038.7043108169955,0.5105151110691846,1.2981456992252758,0.9811665349448248,0.2855966034916727,0.7165470090353042
0.064,1.7264783359144134,1.0,3042.6087199750204,0.51326075310614,1.297773220893497,0.9813446524200159,0.28556509010840536,0.717254811603038
0.0645,1.7257280172651916,1.0,3046.4896530706437,0.5159910023873526,1.297400966110845,0.9815190119938259,0.285533576725138,0.7179613053454593
0.065,1.72497769861597,1.0,3050.3475619754045,0.5187059417311882,1.2970289305649565,0.9816897195890711,0.2855020633418707,0.7186665000237189
0.0655,1.7242273799667482,1.0,3054.182900153843,0.5214056539560127,1.2966571099434672,0.9818568773705854,0.28547054995860344,0.7193704053571098
0.066,1.7234770613175265,1.0,3057.9961226424675,0.5240902218801916,1.2962854999340137,0.9820205839056336,0.2854390365753361,0.7200730310231238
0.0665,1.7227267426683046,1.0,3061.787686030071,0.5267597283220911,1.2959140962242315,0.982180934316375,0.2854075231920688,0.7207743866575136
0.067,1.721976424019083,1.0,3065.5580484369666,0.5294142561000769,1.2955428945017573,0.9823380204248212,0.2853760098088015,0.7214744818543468
0.0675,1.7212261053698612,1.0,3069.3076694960596,0.5320538880325149,1.295171890454227,0.9824919308907081,0.28534449642553417,0.7221733261660643
0.068,1.7204757867206393,1.0,3073.0370103336722,0.5346787069377708,1.2948010797692768,0.982642751342678,0.2853129830422668,0.7228709291035347
0.0685,1.7197254680714176,1.0,3076.7465335506754,0.5372887956342105,1.294430458134543,0.9827905645031367,0.28528146965899953,0.723567300136107
0.069,1.7189751494221959,1.0,3080.4367032042073,0.5398842369401999,1.2940600212376612,0.9829354503071367,0.28524995627573224,0.7242624486916653
0.0695,1.7182248307729742,1.0,3084.107984789805,0.5424651136741049,1.293689764766268,0.983077486015607,0.2852184428924649,0.724956384156678
0.07,1.7174745121237522,1.0,3087.7608452243635,0.5450315086542912,1.2933196844079995,0.9832167463232396,0.2851869295091976,0.7256491158762487
0.07050000000000001,1.7167241934745305,1.0,3091.395752828257,0.5475835046991246,1.2929497758504918,0.983353303461316,0.28515541612593026,0.7263406531541666
0.07100000000000001,1.7159738748253088,1.0,3095.0131773096473,0.5501211846269711,1.2925800347813807,0.9834872272957424,0.28512390274266297,0.7270310052529529
