Time [s],Phi [rad],STIM [ ],Fsee [N],Gamma [ ],Lcerel [ ],q [ ],Lmtc [m],fisomrel [ ]
0.0,1.8,1.0,17.967376466432544,2.5998176767221423e-05,1.3793397217630232,0.005000178787597543,0.288653,0.5411395902192352
0.0005,1.79999375,1.0,18.282087884930466,0.005635061656355772,1.3793017942475152,0.012984988524740473,0.2886527375,0.5412313420938
0.001,1.799975,1.0,21.63562792579859,0.011212662724666374,1.3789365410022199,0.03569199214289855,0.28865195,0.5421144703229368
0.0015,1.79994375,1.0,31.11172104641637,0.016758977861827406,1.3780425853858067,0.07071586293765467,0.2886506375,0.5442723330191807
0.002,1.7999,1.0,53.67517394266071,0.022274182556287266,1.3763621148063787,0.11485302132431816,0.2886488,0.5483149188088974
0.0025,1.79984375,1.0,97.27575264615936,0.027758451312495002,1.3739276137668668,0.16472173707040927,0.28864643749999996,0.5541394759649774
0.003,1.7997750000000001,1.0,161.16285436005273,0.03321195765846525,1.3712066845411244,0.2174319437294583,0.28864354999999997,0.560604583392813
0.0035,1.79969375,1.0,237.9149582936042,0.03863487414548848,1.3685776012538928,0.2707635617184067,0.2886401375,0.5668066066770612
0.004,1.7996,1.0,321.71343020285735,0.04402737235888254,1.3661495605976899,0.3230616949325785,0.2886362,0.5724952145220619
0.0045000000000000005,1.7994937500000001,1.0,409.52334803420837,0.04938962292318583,1.3639168152614585,0.3731729992133001,0.2886317375,0.577693085363385
0.005,1.799375,1.0,499.67441733824023,0.05472179549327922,1.361852798687568,0.42037703093414647,0.28862675,0.5824698727103776
0.0055,1.79924375,1.0,591.0537846667957,0.06002405880122263,1.3599336900484935,0.4642936603980534,0.2886212375,0.5868869220920758
0.006,1.7991000000000001,1.0,682.7819069446832,0.06529658060102242,1.3581416200539649,0.5047902066943963,0.2886152,0.5909903698505149
0.006500000000000001,1.79894375,1.0,774.1246436978886,0.07053952744104229,1.356463099187969,0.5419017659565863,0.2886086375,0.5948152388944778
0.007,1.798775,1.0,864.5517443619675,0.0757530661221863,1.354886099654112,0.5757685756124619,0.28860155,0.5983923988274604
0.0075,1.79859375,1.0,953.5136485157818,0.08093736077422779,1.3534026199454805,0.6065933203520811,0.2885939375,0.6017429471162955
0.008,1.7984,1.0,1040.6091997437973,0.0860925753002956,1.35200495484983,0.6346079653786293,0.2885858,0.6048868359731158
0.0085,1.79819375,1.0,1125.5635912260834,0.09121887329875121,1.3506857116206992,0.6600533554469736,0.2885771375,0.6078428943401908
0.009000000000000001,1.797975,1.0,1208.1246385803208,0.09631641687439339,1.3494389682413053,0.6831669641076058,0.28856795,0.6106262993445537
0.0095,1.79774375,1.0,1288.0986800372045,0.10138536693823261,1.3482593917055505,0.7041746466573678,0.2885582375,0.6132506252834181
0.01,1.7975,1.0,1365.3823043950576,0.10642588475105383,1.3471416187780116,0.7232861778437815,0.288548,0.6157292618373139
0.0105,1.79724375,1.0,1439.8760987705127,0.11143812925438461,1.3460812355794611,0.7406939711617431,0.2885372375,0.6180732728947498
0.011,1.796975,1.0,1511.5204562499634,0.11642225864660699,1.3450741321099116,0.7565723891421343,0.28852595000000003,0.6202928678207631
0.0115,1.79669375,1.0,1580.3026112979583,0.12137843075665965,1.344116313642953,0.7710782244641982,0.2885141375,0.622397840193829
0.012,1.7964,1.0,1646.2436820819048,0.126306803194279,1.3432039800644133,0.7843518197759766,0.28850180000000003,0.6243974109309496
0.0125,1.79609375,1.0,1709.3590438462338,0.13120753156022427,1.3423339090224182,0.7965185477597051,0.2884889375,0.6262994092265008
0.013000000000000001,1.7957750000000001,1.0,1769.6738690660832,0.1360807703193796,1.3415031839567408,0.8076900803846508,0.28847555,0.6281108907761749
0.0135,1.79544375,1.0,1827.2438457693743,0.1409266738104537,1.340708902893918,0.8179656695148638,0.2884616375,0.6298387866352765
0.014,1.7951000000000001,1.0,1882.141231322237,0.14574539559944327,1.3399482992188538,0.8274335372301178,0.2884472,0.631489648782553
0.0145,1.79474375,1.0,1934.4399899911639,0.15053708900360424,1.3392188646976082,0.836172158470624,0.2884322375,0.633069393600975
0.015,1.794375,1.0,1984.1997748888377,0.1553019045465105,1.3385184791125557,0.8442514179753895,0.28841675,0.6345830334799815
0.0155,1.79399375,1.0,2031.4986197423018,0.16003999275173597,1.337845022246071,0.8517334831840527,0.2884007375,0.6360355259679586
0.016,1.7936,1.0,2076.422494419479,0.16475150338511096,1.337196466250123,0.8586737440010725,0.2883842,0.6374315789171865
0.0165,1.7931937500000001,1.0,2119.065974088248,0.1694365866466769,1.3365708487884431,0.865121607847254,0.2883671375,0.6387757134752136
0.017,1.792775,1.0,2159.519354382015,0.17409539165159693,1.335966388053718,0.8711212391750467,0.28834955,0.6400720219966153
0.0175,1.7923437500000001,1.0,2197.8492567965254,0.17872806432229743,1.3353816591437795,0.8767122232944207,0.2883314375,0.6413237969067784
0.018000000000000002,1.7919,1.0,2234.131679170423,0.1833347505812049,1.3348152371564597,0.8819300053953903,0.2883128,0.6425343015556877
0.0185,1.79144375,1.0,2268.4512164774187,0.18791559635074576,1.3342656971895903,0.8868063740917346,0.2882936375,0.6437067719462919
0.019,1.790975,1.0,2300.894302225665,0.19247074678975837,1.33373167398314,0.8913698993031858,0.28827395,0.6448442913916173
0.0195,1.79049375,1.0,2331.548211550538,0.19700034695620322,1.3332118629780607,0.8956463016602826,0.2882537375,0.6459497907228638
0.02,1.79,1.0,2360.495491789458,0.2015045410516268,1.3327050668265534,0.8996587855246833,0.288233,0.6470259518748043
0.0205,1.78949375,1.0,2387.7995736492626,0.2059834701048627,1.3322103267502272,0.9034283483931541,0.2882117375,0.6480749323995767
0.021,1.788975,1.0,2413.52831200579,0.21043727514474458,1.3317266839706912,0.9069739730871564,0.28818995000000003,0.6490988748144426
0.021500000000000002,1.78844375,1.0,2437.753619808998,0.21486609720010613,1.3312531797095548,0.9103128486834476,0.2881676375,0.65009990730966
0.022,1.7879,1.0,2460.5472250205326,0.21927007659526754,1.3307888924997575,0.9134605719999961,0.2881448,0.6510800656848976
0.0225,1.78734375,1.0,2481.977691292081,0.2236493529799621,1.3303329626761038,0.9164313224653833,0.28812143749999997,0.6520412428878439
0.023,1.786775,1.0,2502.1213435142236,0.22800406729780853,1.329884484612048,0.9192379914094494,0.28809755,0.6529854171308787
0.0235,1.78619375,1.0,2521.029901369488,0.2323343554905906,1.3294428112576306,0.9218923702453398,0.28807313749999996,0.653914011832491
0.024,1.7856,1.0,2538.7571803340675,0.236640353500092,1.3290072955628935,0.9244052171677954,0.2880482,0.6548284421759911
0.0245,1.78499375,1.0,2555.358917712428,0.2409221972680965,1.3285772904778774,0.9267863619152245,0.2880227375,0.6557301153769661
0.025,1.784375,1.0,2570.8926079543858,0.24518002273638778,1.328152148952624,0.9290447986409502,0.28799675,0.6566204309240271
0.025500000000000002,1.78374375,1.0,2585.410033682005,0.249413964155744,1.327731292242089,0.9311887790201009,0.2879702375,0.6575006380272018
0.026000000000000002,1.7831000000000001,1.0,2598.966881428019,0.25362415722216114,1.3273141180812822,0.9332258706478272,0.2879432,0.6583720283950014
0.0265,1.78244375,1.0,2611.618543208047,0.2578107369227718,1.3269000388347805,0.9351630278790569,0.2879156375,0.6592358565364127
0.027,1.781775,1.0,2623.4035857647746,0.2619738337529639,1.3264886334808037,0.9370066718150069,0.28788755,0.6600930236219307
0.0275,1.7810937500000001,1.0,2634.3614605355656,0.2661135782081256,1.3260794809975722,0.9387627161402899,0.2878589375,0.6609444262511286
0.028,1.7804,1.0,2644.532427961684,0.27023010078364473,1.325672160363306,0.9404366139297587,0.2878298,0.6617909565188047
0.0285,1.77969375,1.0,2653.957485727773,0.27432353197490944,1.3252662505562247,0.9420333995710656,0.2878001375,0.6626335020698191
0.029,1.778975,1.0,2662.6783009313212,0.27839400227730765,1.3248613305545487,0.9435577263657032,0.28776995,0.6634729461426283
0.029500000000000002,1.7782437500000001,1.0,2670.7319273430962,0.28244163893155616,1.324457027292828,0.945013905682894,0.2877392375,0.664310068368307
0.03,1.7775,1.0,2678.1588925457345,0.28646657420264976,1.3240529405684816,0.9464059296502358,0.287708,0.665145700602424
0.0305,1.77674375,1.0,2684.9892052163614,0.2904689342624359,1.3236487709924132,0.9477375115962101,0.2876762375,0.6659804624843766
0.031,1.775975,1.0,2691.2516164770936,0.2944488441659795,1.3232442341628115,0.949012100292827,0.28764395,0.6668149396699539
0.0315,1.7751937500000001,1.0,2696.975214245064,0.2984064289683454,1.3228390456778647,0.9502329006758895,0.2876111375,0.6676497148782066
0.032,1.7744,1.0,2702.189390848259,0.3023418137245986,1.3224329211357615,0.9514028940990349,0.2875778,0.668485367882206
0.0325,1.77359375,1.0,2706.923812435732,0.3062551234898041,1.3220255761346897,0.9525248566705369,0.2875439375,0.6693224754946465
0.033,1.772775,1.0,2711.204659852503,0.3101464802865567,1.3216167602943032,0.9536013789923596,0.28750955,0.6701615417659335
0.0335,1.7719437500000002,1.0,2715.055830906188,0.3140160060634182,1.3212062459315554,0.9546348804879795,0.2874746375,0.6710030216025419
0.034,1.7711000000000001,1.0,2718.512535851384,0.3178638339342597,1.32079370395652,0.9556276119302555,0.2874392,0.6718475749421446
0.0345,1.7702437500000001,1.0,2721.5924611076457,0.32169008240627583,1.3203789664745755,0.9565816908476897,0.2874032375,0.672695528828708
0.035,1.7693750000000001,1.0,2724.313416635259,0.32549486998666133,1.3199618655911,0.9574990979840521,0.28736675,0.6735472084421645
0.035500000000000004,1.76849375,1.0,2726.693323406873,0.3292783151826107,1.3195422334114717,0.9583816877180416,0.2873297375,0.6744029370740068
0.036000000000000004,1.7676,1.0,2728.7502015034174,0.33304053650131854,1.319119902041069,0.9592311975747022,0.2872922,0.6752630361010793
0.0365,1.76669375,1.0,2730.502158835633,0.3367816524499795,1.3186947035852699,0.9600492569171294,0.2872541375,0.6761278249575797
0.037,1.765775,1.0,2731.9673804897607,0.3405017815357882,1.3182664701494529,0.9608373948975372,0.28721555,0.6769976211052533
0.0375,1.76484375,1.0,2733.164118699304,0.3442010422659392,1.317835033838996,0.9615970477383449,0.2871764375,0.6778727400017995
0.038,1.7639,1.0,2734.1106834406205,0.3478795531476272,1.3174002267592775,0.9623295654065391,0.28713679999999997,0.6787534950674721
0.0385,1.76294375,1.0,2734.822096388422,0.3515374286628376,1.3169619113206255,0.9630362197866583,0.28709663750000003,0.6796401363902296
0.039,1.761975,1.0,2735.312048324445,0.35517478513912165,1.3165199623773742,0.9637182096636339,0.28705595,0.6805328871703622
0.0395,1.7609937500000001,1.0,2735.5990094415315,0.3587917452630898,1.3160742116889328,0.9643766615509859,0.2870147375,0.6814320558202159
0.04,1.76,1.0,2735.6930865088802,0.36238842049085024,1.315624567202484,0.9650126420603031,0.286973,0.6823377952112394
0.0405,1.7589937500000001,1.0,2735.6044081288765,0.36596492227851113,1.3151709368652105,0.9656271573165548,0.2869307375,0.6832502568734232
0.041,1.757975,1.0,2735.343121255956,0.36952136208218067,1.3147132286242948,0.9662211570201206,0.28688795,0.6841695909721695
0.0415,1.75694375,1.0,2734.9193879042373,0.373057851357967,1.3142513504269198,0.966795538195183,0.2868446375,0.6850959462846214
0.042,1.7559,1.0,2734.3433820428327,0.37657450156197836,1.313785210220268,0.9673511486517026,0.28680079999999997,0.6860294701754535
0.0425,1.75484375,1.0,2733.625286679063,0.38007142415032286,1.3133147159515224,0.9678887901855772,0.2867564375,0.6869703085721202
0.043000000000000003,1.753775,1.0,2732.775291128959,0.3835487305791087,1.3128397755678651,0.9684092215392635,0.28671155,0.6879186059395657
0.043500000000000004,1.75269375,1.0,2731.803588476723,0.38700653230444415,1.3123602970164794,0.9689131611430248,0.28666613750000003,0.6888745052543903
0.044,1.7516,1.0,2730.714468949456,0.39044493035104827,1.3118762419001804,0.9694012923111712,0.2866202,0.6898380412570797
0.0445,1.75049375,1.0,2729.517465212955,0.3938640385706406,1.3113875242102175,0.9698742610348297,0.2865737375,0.6908093423668087
0.045,1.7493750000000001,1.0,2728.2274870774622,0.39726397946400893,1.3108940090367027,0.9703326775184524,0.28652675,0.6917886324779547
0.0455,1.74824375,1.0,2726.8494520965214,0.4006448567105694,1.310395652260481,0.9707771250189289,0.2864792375,0.6927759536281588
0.046,1.7471,1.0,2725.3882773775076,0.4040067739897381,1.3098924097623967,0.9712081573828706,0.2864312,0.693771346848389
0.0465,1.7459437500000001,1.0,2723.848878816716,0.40734983498093136,1.3093842374232956,0.9716263008077336,0.28638263750000004,0.6947748521492534
0.047,1.744775,1.0,2722.2361703783295,0.4106741433635653,1.3088710911240218,0.9720320554812931,0.28633355,0.6957865085071946
0.0475,1.74359375,1.0,2720.555063416439,0.41397980281705604,1.3083529267454206,0.9724258971089569,0.28628393750000003,0.6968063538505527
0.048,1.7424,1.0,2718.810466039606,0.41726691702081986,1.3078297001683366,0.9728082783375622,0.2862338,0.6978344250455103
0.0485,1.74119375,1.0,2717.007282519559,0.42053558965427285,1.307301367273615,0.9731796300835778,0.2861831375,0.6988707578819096
0.049,1.739975,1.0,2715.150412742066,0.4237859243968313,1.3067678839421002,0.9735403627729462,0.28613195,0.6999153870589483
0.0495,1.73874375,1.0,2713.2447517016194,0.42701802492791135,1.3062292060546374,0.9738908674992134,0.2860802375,0.7009683461707474
0.05,1.7375,1.0,2711.2951890392123,0.4302319949269292,1.3056852894920714,0.9742315171060123,0.286028,0.7020296676918001
0.0505,1.73624375,1.0,2709.306608622943,0.43342793807330104,1.3051360901352471,0.9745626671994881,0.2859752375,0.7030993829622907
0.051000000000000004,1.734975,1.0,2707.281264646308,0.43660595144400566,1.3045815878095166,0.9748846579256564,0.28592195,0.7041774756614596
0.051500000000000004,1.73369375,1.0,2705.2190536109983,0.4397661286894188,1.3040217838439248,0.9751978150262854,0.2858681375,0.705263886952672
0.052000000000000005,1.7324,1.0,2703.131883379656,0.4429085922293707,1.303456569866629,0.9755024456969172,0.2858138,0.7063587697856497
0.0525,1.73109375,1.0,2701.021648917293,0.44603343756234537,1.3028859288349497,0.9757988463131099,0.28575893750000003,0.7074620985771358
0.053,1.729775,1.0,2698.890242608252,0.44914076018682697,1.3023098437062075,0.9760873001777173,0.28570355000000003,0.7085738469334452
0.0535,1.72844375,1.0,2696.7395541775995,0.45223065560129944,1.301728297437723,0.976368078207088,0.2856476375,0.7096939876445569
0.054,1.7271,1.0,2694.5714706182434,0.45530321930424683,1.3011412729868161,0.9766414395755854,0.2855912,0.7108224926781884
0.0545,1.7257437500000001,1.0,2692.3878761244832,0.45835854679415317,1.3005487533108078,0.9769076323212948,0.2855342375,0.7119593331738496
0.055,1.724375,1.0,2690.190652032105,0.4613967335695025,1.2999507213670185,0.9771668939155612,0.28547675,0.7131044794368789
0.0555,1.72299375,1.0,2687.9816767651737,0.4644178751287788,1.2993471601127684,0.9774194517987989,0.2854187375,0.7142579009324637
0.056,1.7216,1.0,2685.762825788844,0.4674220669704661,1.2987380525053782,0.9776655238848351,0.2853602,0.7154195662796361
0.0565,1.72019375,1.0,2683.5359715688332,0.47040940459304853,1.2981233815021682,0.9779053190358782,0.28530113749999997,0.7165894432452573
0.057,1.718775,1.0,2681.3029835375364,0.47337998349501,1.297503130060459,0.978139037510047,0.28524155,0.7177674987379773
0.0575,1.71734375,1.0,2679.0657280658293,0.47633389917483454,1.296877281137571,0.9783668713832558,0.2851814375,0.7189536988021799
0.058,1.7159,1.0,2676.826068442448,0.4792712471310063,1.2962458176908245,0.9785890049471163,0.2851208,0.7201480086119094
0.0585,1.71444375,1.0,2674.584002550915,0.48219211149184044,1.2956087397781129,0.9788056150640414,0.2850596375,0.7213503602257525
0.059000000000000004,1.7129750000000001,1.0,2672.3402254835564,0.48509658248078663,1.2949660410527009,0.9790168717277277,0.28499795,0.7225606971482665
0.059500000000000004,1.71149375,1.0,2670.099745397838,0.4879847756963301,1.2943176755194117,0.9792229381529726,0.2849357375,0.7237790365970992
0.06,1.71,1.0,2667.8630969395836,0.4908567784926264,1.293663638235447,0.9794239710230574,0.284873,0.7250053175329099
0.0605,1.7084937500000001,1.0,2665.6308138577438,0.493712678223831,1.293003924258008,0.9796201209345847,0.2848097375,0.726239478218774
0.061,1.7069750000000001,1.0,2663.4034290071936,0.49655256224409966,1.2923385286442972,0.9798115326788884,0.28474595,0.7274814562183911
0.0615,1.7054437500000001,1.0,2661.181474352654,0.4993765179075877,1.2916674464515157,0.9799983455083499,0.2846816375,0.7287311883942993
0.062,1.7039,1.0,2658.9654809731524,0.5021846325684507,1.2909906727368654,0.9801806933885342,0.2846168,0.7299886109060794
0.0625,1.70234375,1.0,2656.7559790664463,0.5049769935808442,1.2903082025575479,0.9803587052370043,0.2845514375,0.7312536592085643
0.063,1.7007750000000001,1.0,2654.553497954566,0.5077536882989239,1.289620030970765,0.9805325051496089,0.28448555,0.7325262680500417
0.0635,1.69919375,1.0,2652.3585660899703,0.510514804076845,1.2889261530337186,0.9807022126149921,0.28441913750000003,0.7338063714704599
0.064,1.6976,1.0,2650.171711061329,0.5132604282687634,1.28822656380361,0.9808679427180168,0.2843522,0.7350939027996288
0.0645,1.69599375,1.0,2647.993459601218,0.5159906482288343,1.287521258337641,0.9810298063327528,0.2842847375,0.7363887946554194
0.065,1.694375,1.0,2645.8243375931784,0.5187055513112135,1.2868102316930135,0.9811879103056395,0.28421675,0.7376909789419641
0.0655,1.69274375,1.0,2643.664870079812,0.5214052248700565,1.286093478926929,0.9813423576293843,0.2841482375,0.7390003868478536
0.066,1.6911,1.0,2641.5155812716403,0.5240897562595187,1.2853709950965893,0.9814932476081356,0.2840792,0.7403169488443317
0.0665,1.6894437500000001,1.0,2639.3769945561194,0.5267592328337557,1.284642775259196,0.9816406760144227,0.2840096375,0.7416405946834912
0.067,1.687775,1.0,2637.2505645899832,0.529413698916047,1.2839088058527641,0.9817847319252365,0.28393955,0.7429712690027344
0.0675,1.68609375,1.0,2635.135752146515,0.532053288050188,1.2831690917393468,0.9819255081484569,0.2838689375,0.7443088822816116
0.068,1.6844000000000001,1.0,2633.0324052910664,0.5346780886154946,1.282423634205185,0.9820630910808247,0.2837978,0.7456533509003058
0.0685,1.68269375,1.0,2630.9405505603995,0.5372881793102083,1.2816724328868303,0.9821975634250308,0.2837261375,0.7470045935957081
0.069,1.680975,1.0,2628.8602144935594,0.5398836388325712,1.2809154874208342,0.9823290050507313,0.28365395,0.7483625284665663
0.0695,1.67924375,1.0,2626.7914236322235,0.5424645458808248,1.2801527974437488,0.9824574931095212,0.28358123749999997,0.7497270729733478
0.07,1.6775,1.0,2624.734204522044,0.5450309791532109,1.2793843625921257,0.9825831021444749,0.283508,0.751098143938111
0.07050000000000001,1.67574375,1.0,2622.688583713163,0.5475830173479711,1.2786101825025167,0.9827059041945444,0.2834342375,0.7524756575443697
0.07100000000000001,1.673975,1.0,2620.654587760887,0.5501207391633474,1.2778302568114732,0.9828259688940877,0.28335995,0.7538595293369605
0.07150000000000001,1.67219375,1.0,2618.6322432267198,0.5526442232975813,1.2770445851555472,0.9829433635677893,0.2832851375,0.7552496742219094
0.07200000000000001,1.6704,1.0,2616.621576679305,0.5551535484489147,1.2762531671712902,0.9830581533212113,0.2832098,0.7566460064662984
0.0725,1.66859375,1.0,2614.6226146947206,0.5576487933155893,1.2754560024952544,0.9831704011272036,0.2831339375,0.7580484396981327
0.073,1.6667750000000001,1.0,2612.635383857943,0.5601300365958467,1.274653090763991,0.9832801679083918,0.28305755,0.7594568869062083
0.0735,1.66494375,1.0,2610.6599107630846,0.5625973569879288,1.273844431614052,0.9833875126159407,0.2829806375,0.760871260439977
0.074,1.6631,1.0,2608.6962220146693,0.5650508331900774,1.273030024681989,0.983492492304788,0.2829032,0.7622914720094148
0.0745,1.6612437500000001,1.0,2606.7443442280382,0.567490543900534,1.2722098696043536,0.983595162205524,0.2828252375,0.7637174326848879
0.075,1.659375,1.0,2604.80430403066,0.5699165678175406,1.2713839660176978,0.983695575793092,0.28274675,0.7651490528970187
0.0755,1.65749375,1.0,2602.8761280625135,0.5723289836393388,1.2705523135585732,0.9837937848524643,0.2826677375,0.7665862424365545
