Time [s],Phi [rad],STIM [ ],Fsee [N],Gamma [ ],Lcerel [ ],q [ ],Lmtc [m],fisomrel [ ]
0.0,1.8,1.0,18.28319090259182,0.0005731507540623506,1.3793044943241242,0.00508478383106619,0.288653,0.5412248105405628
0.0005,1.79999375,1.0,18.767903718711928,0.00617914514043449,1.3792481912200947,0.014577613953935638,0.2886527375,0.54136099954173
0.001,1.799975,1.0,22.52756173997076,0.011753694330633826,1.3788463990550865,0.038603314273745366,0.28865195,0.5423322892952619
0.0015,1.79994375,1.0,32.902730218556556,0.017296974708236483,1.3778922353002978,0.07466153906923913,0.2886506375,0.5446347528690828
0.002,1.7999,1.0,57.2461452130497,0.02280916166554422,1.3761343757557767,0.11950051438729288,0.2886488,0.548861388312539
0.0025,1.79984375,1.0,103.0429911235188,0.02829042961152651,1.373653926556304,0.16976154262107584,0.28864643749999996,0.5547919106156131
0.003,1.7997750000000001,1.0,168.50675000132006,0.033740951980187506,1.3709350303787953,0.22262082484124748,0.28864354999999997,0.5612474593044714
0.0035,1.79969375,1.0,246.12546487346626,0.039160901227714116,1.368326963127884,0.2759171373886757,0.2886401375,0.5673955619674438
0.004,1.7996,1.0,330.3992140837276,0.04455044884535133,1.3659211271387266,0.32804651648480865,0.2886362,0.5730284716630227
0.0045000000000000005,1.7994937500000001,1.0,418.48669307398114,0.04990976536223043,1.3637076155646723,0.37790122767468953,0.2886317375,0.5781784769778715
0.005,1.799375,1.0,508.79141913702614,0.05523902032865931,1.3616599892631236,0.4247982348747334,0.28862675,0.5829147071626191
0.0055,1.79924375,1.0,600.2419157687042,0.06053838244568353,1.3597549083736602,0.4683852830769987,0.2886212375,0.5872972126947047
0.006,1.7991000000000001,1.0,691.9596576127067,0.06580801928255355,1.3579753819722662,0.5085494277962506,0.2886152,0.5913699805542415
0.006500000000000001,1.79894375,1.0,783.2558156245104,0.07104809763510135,1.3563077054901473,0.5453381331150388,0.2886086375,0.5951684279602885
0.007,1.798775,1.0,873.5430322882042,0.07625878330830171,1.3547412594905208,0.5789000490772985,0.28860155,0.5987201492827774
0.0075,1.79859375,1.0,962.329968352533,0.08144024101712401,1.3532673470349585,0.6094414045903433,0.2885939375,0.6020477727005171
0.008,1.7984,1.0,1049.2564885817644,0.08659263512281339,1.3518779196476687,0.637195568074826,0.2885858,0.6051719695932043
0.0085,1.79819375,1.0,1133.9973698945732,0.09171612822439745,1.3505665563383042,0.6624040313458338,0.2885771375,0.6081093417637199
0.009000000000000001,1.797975,1.0,1216.3153878921555,0.0968108823888279,1.3493272508189251,0.6853033163980536,0.28856795,0.6108752290666192
0.0095,1.79774375,1.0,1296.0519133765065,0.1018770593167479,1.348154319534722,0.7061176613516631,0.2885582375,0.6134839597873554
0.01,1.7975,1.0,1373.0727688083339,0.10691481899097499,1.3470429220941962,0.7250554385869661,0.288548,0.6159477366846993
0.0105,1.79724375,1.0,1447.2907385310427,0.11192432060007489,1.3459885618054703,0.7423072386663101,0.2885372375,0.6182777904967546
0.011,1.796975,1.0,1518.6660028029155,0.11690572267308348,1.3449869548018853,0.758045590497972,0.28852595000000003,0.6204846971190112
0.0115,1.79669375,1.0,1587.1963268293948,0.12185918367593071,1.3440340519292997,0.7724256113245112,0.2885141375,0.6225783517637371
0.012,1.7964,1.0,1652.8680024534451,0.12678485947343562,1.3431265257857223,0.7855863185356374,0.28850180000000003,0.6245669237953444
0.0125,1.79609375,1.0,1715.704957440738,0.13168290577974928,1.342261087061184,0.7976516395735964,0.2884889375,0.6264583810066857
0.013000000000000001,1.7957750000000001,1.0,1775.7492388636192,0.13655347751849245,1.341434660191638,0.8087319091131565,0.28847555,0.6282601174101425
0.0135,1.79544375,1.0,1833.0785318182018,0.14139673014480686,1.3406441349160656,0.8189251693542504,0.2884616375,0.6299795068472108
0.014,1.7951000000000001,1.0,1887.741773149977,0.1462128161250396,1.3398870404020025,0.828318753315691,0.2884472,0.6316224482358659
0.0145,1.79474375,1.0,1939.795733971777,0.15100188716327884,1.3391610778148928,0.8369903120234302,0.2884322375,0.6331943982635212
0.015,1.794375,1.0,1989.3180889088687,0.15576409496361276,1.338463948320181,0.8450088710319948,0.28841675,0.6347007515545722
0.0155,1.79399375,1.0,2036.3876047805304,0.16049959022608423,1.3377935424564154,0.8524359023770074,0.2884007375,0.6361464371005929
0.016,1.7936,1.0,2081.1081002309147,0.1652085241586733,1.337147662806473,0.859326127510504,0.2883842,0.6375365225259338
0.0165,1.7931937500000001,1.0,2123.5509720075693,0.1698910448219656,1.3365246055999478,0.8657284914061055,0.2883671375,0.6388749675567589
0.017,1.792775,1.0,2163.7905698627815,0.17454729971893954,1.3359227620204814,0.8716867243179205,0.28834955,0.6401654909328157
0.0175,1.7923437500000001,1.0,2201.912128041294,0.17917743635257355,1.3353405232517153,0.8772399301400985,0.2883314375,0.6414117776315875
0.018000000000000002,1.7919,1.0,2237.984988252743,0.18378160108835964,1.3347765399423934,0.8824231993749186,0.2883128,0.6426169269904307
0.0185,1.79144375,1.0,2272.1436851191047,0.18835994131821648,1.3342288959159745,0.8872678591265347,0.2882936375,0.6437852204553212
0.019,1.790975,1.0,2304.4472000561154,0.19291260103868718,1.3336965135507757,0.8918022682812717,0.28827395,0.6449191225894675
0.0195,1.790497550488026,1.0,2335.1123837960336,0.19743972342416294,1.333178539820775,0.8960519983915185,0.2882538971204971,0.6460206014122969
0.02,1.7900197979082306,1.0,2364.5779676867032,0.20194145164903496,1.3326741216999498,0.9000400947244732,0.28823383151214566,0.64709160953816
0.0205,1.7895420453284354,1.0,2392.9183364447545,0.20641792864571457,1.3321824187156102,0.903787362444448,0.2882137659037943,0.6481340583426245
0.021,1.7890642927486402,1.0,2420.1752776525555,0.21086929656175368,1.3317028022067467,0.9073126585245098,0.2881937002954429,0.6491493973475506
0.021500000000000002,1.788586540168845,1.0,2446.383774026133,0.21529569624309455,1.3312347326323835,0.91063307635622,0.2881736346870915,0.6501388772256169
0.022,1.7881087875890498,1.0,2471.5807756813815,0.21969726699941405,1.3307776719323106,0.9137641175628181,0.28815356907874007,0.6511037364510228
0.0225,1.7876310350092546,1.0,2495.805217220022,0.22407414814038928,1.3303310820463192,0.9167198630149783,0.2881335034703887,0.6520452048281502
0.023,1.7871532824294591,1.0,2519.0842160997013,0.22842647362662685,1.3298945542877147,0.9195131444085921,0.28811343786203725,0.6529642316687183
0.0235,1.786675529849664,1.0,2541.478201927717,0.23275439012595542,1.3294673802296935,0.9221556037412143,0.28809337225368586,0.6538623895554292
0.024,1.7861977772698687,1.0,2563.0212514312816,0.23705803391622554,1.3290491168437581,0.9246579069475314,0.2880733066453345,0.6547406846439503
0.0245,1.7857200246900735,1.0,2583.7420224399493,0.24133753869481003,1.3286393842623407,0.9270298099072342,0.2880532410369831,0.6555999844122116
0.025,1.7852422721102783,1.0,2603.670325005634,0.24559303815908173,1.3282378026178738,0.9292802395945351,0.2880331754286317,0.6564411509330029
0.025500000000000002,1.7847645195304829,1.0,2622.837051153886,0.24982466600641354,1.32784399204279,0.9314173758260184,0.2880131098202803,0.6572650410760429
0.026000000000000002,1.7842867669506877,1.0,2641.2741078346608,0.25403255593417823,1.3274575726695212,0.9334487239516295,0.2879930442119289,0.6580725067008457
0.0265,1.7838090143708925,1.0,2659.014353071681,0.25821684163974856,1.3270781646305,0.9353811795876009,0.2879729786035775,0.658864394840381
0.027,1.7833312617910972,1.0,2676.0915353120045,0.2623776568204976,1.326705388058159,0.9372210863473404,0.2879529129952261,0.6596415478755351
0.0275,1.782853509211302,1.0,2692.5316783796748,0.26651513072185334,1.3263389414023459,0.9389742973212273,0.2879328473868747,0.6604046407027943
0.028,1.7823757566315068,1.0,2708.369670682978,0.2706293987644165,1.3259784484116648,0.9406462019281078,0.2879127817785233,0.6611544999079196
0.0285,1.7818980040517114,1.0,2723.634977948627,0.27472059305935354,1.3256235888110148,0.942241783180849,0.28789271617017187,0.6618918316640152
0.029,1.7814202514719162,1.0,2738.34827034038,0.278788840505841,1.3252741277200395,0.9437656574214492,0.2878726505618205,0.6626171614667329
0.029500000000000002,1.780942498892121,1.0,2752.5306961253095,0.2828342680030552,1.324929830258382,0.9452220968453848,0.2878525849534691,0.6633310121436831
0.03,1.7804647463123258,1.0,2766.203854171993,0.28685700245017265,1.324590461545686,0.9466150595745784,0.28783251934511767,0.6640339039335412
0.0305,1.7799869937325306,1.0,2779.389767671751,0.2908571707463697,1.3242557867015947,0.9479482167453833,0.2878124537367663,0.6647263545616388
0.031,1.7795092411527353,1.0,2792.1108590828285,0.2948348997908227,1.3239255708457516,0.9492249769403681,0.2877923881284149,0.6654088793120344
0.0315,1.77903148857294,1.0,2804.389926298211,0.2987903164827082,1.3235995790978,0.950448508253221,0.28777232252006346,0.6660819910960674
0.032,1.7785537359931447,1.0,2816.2470038964566,0.3027235451070656,1.3232776044622652,0.9516217608395895,0.2877522569117121,0.666746143026592
0.0325,1.7780759834133495,1.0,2827.699464798822,0.3066347089344322,1.3229594664469517,0.9527474850522948,0.2877321913033607,0.6674017316081003
0.033,1.7775982308335543,1.0,2838.7748369293226,0.310523940447023,1.322644896409767,0.9538282370945336,0.28771212569500926,0.6680493329742689
0.0335,1.777120478253759,1.0,2849.4865132805307,0.31439135965732284,1.3223337543423246,0.9548664133357821,0.2876920600866579,0.6686892564144833
0.034,1.7766427256739639,1.0,2859.8480856123138,0.3182370865778165,1.3220259002362387,0.955864251796697,0.2876719944783065,0.6693218098757655
0.0345,1.7761649730941684,1.0,2869.873334028519,0.32206124122098884,1.321721194083123,0.9568238444894047,0.28765192886995505,0.6699472999927598
0.035,1.7756872205143732,1.0,2879.576216987731,0.3258639435993246,1.3214194958745917,0.9577471486583434,0.28763186326160367,0.6705660321164646
0.035500000000000004,1.775209467934578,1.0,2888.9708617483448,0.32964531372530853,1.3211206656022585,0.9586359970311377,0.2876117976532523,0.6711783103417172
0.036000000000000004,1.7747317153547828,1.0,2898.0715552490524,0.3334054716114255,1.3208245632577371,0.9594921071769965,0.28759173204490085,0.6717844375334255
0.0365,1.7742539627749876,1.0,2906.8927354233797,0.3371445372701602,1.3205310488326418,0.9603170900595888,0.28757166643654947,0.6723847153515516
0.037,1.7737762101951922,1.0,2915.4489829488653,0.3408626307139975,1.3202399823185864,0.9611124578620213,0.2875516008281981,0.6729794442748452
0.0375,1.773298457615397,1.0,2923.745528051574,0.34455985947956547,1.3199513070123527,0.961879636592529,0.28753153521984665,0.673568753638671
0.038,1.7728207050356017,1.0,2931.8046675694936,0.348236357335075,1.3196648171898233,0.9626199581303709,0.28751146961149526,0.6741530760554746
0.0385,1.7723429524558065,1.0,2939.6356713904074,0.35189223883050486,1.319380422652984,0.9633346824422121,0.2874914040031439,0.6747326072257696
0.039,1.7718651998760113,1.0,2947.246587099127,0.3555276166516136,1.3190980446389837,0.9640249965031681,0.28747133839479244,0.6753075188379374
0.0395,1.7713874472962161,1.0,2954.6455365801553,0.3591426034841597,1.3188176043849722,0.9646920186806787,0.28745127278644106,0.675877981933123
0.04,1.7709096947164207,1.0,2961.8407125648905,0.3627373120139018,1.3185390231280985,0.9653368034355814,0.2874312071780897,0.6764441669151683
0.0405,1.7704319421366255,1.0,2968.8403753162947,0.3663118549265984,1.3182622221055118,0.9659603456530224,0.28741114156973824,0.6770062435601463
0.041,1.7699541895568303,1.0,2975.6528494519657,0.36986634490800807,1.3179871225543618,0.9665635846359588,0.28739107596138685,0.6775643810255016
0.0415,1.769476436977035,1.0,2982.2865209033503,0.37340089464388926,1.3177136457117975,0.9671474077907952,0.28737101035303547,0.678118747858796
0.042,1.7689986843972398,1.0,2988.749834013761,0.37691561682000063,1.3174417128149685,0.9677126540318483,0.2873509447446841,0.6786695120060557
0.0425,1.7685209318174446,1.0,2995.0512887730856,0.3804106241221007,1.317171245101024,0.9682601169287628,0.28733087913633265,0.6792168408197263
0.043000000000000003,1.7680431792376492,1.0,3001.198397076543,0.38388602655950427,1.3169021728319306,0.9687905479224533,0.28731081352798127,0.6797608828265345
0.043500000000000004,1.767565426657854,1.0,3007.1933605957383,0.3873419226002651,1.316634472656515,0.9693046606088299,0.2872907479196299,0.680301692364575
0.044,1.7670876740780588,1.0,3013.0512170390894,0.39077844540794665,1.3163680103770108,0.9698031278547847,0.28727068231127845,0.6808395472260573
0.0445,1.7666099214982636,1.0,3018.776325320965,0.39419569976348195,1.3161027447103317,0.9702865905515311,0.28725061670292706,0.6813745369470499
0.045,1.7661321689184684,1.0,3024.3730722278474,0.39759379044780396,1.3158386343733914,0.9707556567643933,0.2872305510945757,0.6819067507562218
0.0455,1.765654416338673,1.0,3029.8458713421664,0.40097282224184566,1.3155756380831038,0.9712109037335235,0.28721048548622424,0.6824362775779396
0.046,1.7651766637588777,1.0,3035.1991620041213,0.40433289992654003,1.3153137145563827,0.9716528797340095,0.28719041987787286,0.6829632060352553
0.0465,1.7646989111790825,1.0,3040.4374083102225,0.40767412828282,1.3150528225101414,0.9720821058065053,0.2871703542695215,0.6834876244527848
0.047,1.7642211585992873,1.0,3045.565098150726,0.41099661209161853,1.3147929206612938,0.9724990773685579,0.2871502886611701,0.6840096208594783
0.0475,1.763743406019492,1.0,3050.586742284193,0.4143004561338687,1.3145339677267538,0.9729042657159074,0.28713022305281866,0.68452928299128
0.048,1.7632656534396969,1.0,3055.5068734501915,0.4175857651905034,1.3142759224234348,0.9732981194222365,0.2871101574444673,0.6850466982936836
0.0485,1.7627879008599014,1.0,3060.3300455195326,0.4208526440424556,1.3140187434682509,0.9736810656451264,0.2870900918361159,0.6855619539241736
0.049,1.7623101482801062,1.0,3065.0608326823667,0.4241011974706583,1.3137623895781154,0.9740535113453129,0.28707002622776445,0.686075136754563
0.0495,1.761832395700311,1.0,3069.7038286743814,0.4273315302560444,1.3135068194699424,0.9744158444257472,0.28704996061941307,0.6865863333732173
0.05,1.7613546431205158,1.0,3074.260811453627,0.4305437330000703,1.3132520161382943,0.9747684347702821,0.2870298950110617,0.6870955815857582
0.0505,1.7608768905407206,1.0,3078.7356033978836,0.43373791117694044,1.3129979451647902,0.9751116358491918,0.28700982940271025,0.687602953834882
0.051000000000000004,1.7603991379609254,1.0,3083.1353018481336,0.4369141869519892,1.3127445442535537,0.9754457850826395,0.28698976379435887,0.688108577932516
0.051500000000000004,1.75992138538113,1.0,3087.462074107427,0.440072656532343,1.312491793448003,0.9757712044983355,0.2869696981860075,0.6886124968993963
0.052000000000000005,1.7594436328013348,1.0,3091.7180968956122,0.44321341612512816,1.3122396727915555,0.9760882017587972,0.28694963257765604,0.6891147536193315
0.0525,1.7589658802215395,1.0,3095.9055560658317,0.44633656193747095,1.3119881623276297,0.9763970709268535,0.28692956696930466,0.6896153908400147
0.053,1.7584881276417443,1.0,3100.0266463301787,0.4494421901764979,1.3117372420996434,0.9766980931839582,0.2869095013609533,0.6901144511738149
0.0535,1.7580103750619491,1.0,3104.083570993984,0.4525303970493353,1.3114868921510145,0.9769915375046082,0.28688943575260184,0.6906119770985404
0.054,1.7575326224821537,1.0,3108.0785416995627,0.4556012787631094,1.311237092525161,0.9772776612898985,0.28686937014425046,0.6911080109581771
0.0545,1.7570548699023585,1.0,3112.0137781775975,0.45865493152494674,1.310987823265501,0.9775567109630156,0.2868493045358991,0.6916025949636018
0.055,1.7565771173225633,1.0,3115.891508008543,0.4616914515419735,1.3107390644154522,0.9778289225292597,0.28682923892754764,0.69209577119327
0.0555,1.756099364742768,1.0,3119.7139663923035,0.4647109350213161,1.3104907960184329,0.9780945221029851,0.28680917331919625,0.6925875815938773
0.056,1.7556216121629729,1.0,3123.4833959265247,0.4677134781701009,1.310242998117861,0.9783537264036716,0.28678910771084487,0.6930780679809979
0.0565,1.7551438595831776,1.0,3127.202046394423,0.4706991771954543,1.3099956507571542,0.9786067432231785,0.28676904210249343,0.6935672720396955
0.057,1.7546661070033822,1.0,3130.8721745607754,0.4736681283045025,1.3097487339797307,0.9788537718660711,0.28674897649414205,0.6940552353251086
0.0575,1.754188354423587,1.0,3134.496043976947,0.476620427704372,1.3095022278290085,0.9790950035647836,0.28672891088579067,0.6945419992630119
0.058,1.7537106018437918,1.0,3138.0746221591316,0.47955615670000956,1.3092561233911917,0.9793306212140771,0.28670884527743923,0.6950275833707016
0.0585,1.7532328492639966,1.0,3141.607512121963,0.48247538667328055,1.3090104233427746,0.979560800255219,0.28668877966908785,0.6955119842650486
0.059000000000000004,1.7527550966842014,1.0,3145.1008290251348,0.4853782655091195,1.308765075219896,0.9797857125568684,0.28666871406073646,0.6959953071570534
0.059500000000000004,1.7522773441044062,1.0,3148.555526643802,0.4882648798175316,1.3085200703644426,0.980005520534413,0.286648648452385,0.6964775707344368
0.06,1.7517995915246107,1.0,3151.9725617960676,0.49113531620852174,1.3082754001183015,0.9802203803111034,0.28662858284403364,0.6969587936285113
0.0605,1.7513218389448155,1.0,3155.3528942776406,0.4939896612920953,1.308031055823359,0.980430442010352,0.28660851723568226,0.6974389944143708
0.061,1.7508440863650203,1.0,3158.6974867983618,0.4968280016782573,1.307787028821502,0.9806358500322884,0.2865884516273308,0.6979181916110709
0.0615,1.750366333785225,1.0,3162.007304920888,0.49965042397701276,1.3075433104546177,0.9808367433155261,0.28656838601897944,0.6983964036818069
0.062,1.74988858120543,1.0,3165.283317000192,0.5024570147983669,1.3072998920645922,0.981033255585043,0.28654832041062805,0.6988736490340881
0.0625,1.7494108286256347,1.0,3168.526494125108,0.5052478607523248,1.3070567649933127,0.9812255155870083,0.28652825480227667,0.6993499460199029
0.063,1.7489330760458393,1.0,3171.7378100620067,0.5080230484488915,1.3068139205826657,0.9814136473113378,0.28650818919392523,0.6998253129358856
0.0635,1.748455323466044,1.0,3174.918241199382,0.5107826644980721,1.3065713501745382,0.9815977702027036,0.28648812358557385,0.7002997680234716
0.064,1.7479775708862488,1.0,3178.0687664944953,0.5135267955098718,1.3063290451108167,0.9817779993606769,0.28646805797722247,0.7007733294690537
0.0645,1.7474998183064536,1.0,3181.190367421534,0.5162555280942956,1.3060869967333881,0.9819544457296446,0.28644799236887103,0.701246015404129
0.065,1.7470220657266584,1.0,3184.284027921722,0.5189689488613488,1.3058451963841393,0.9821272162790855,0.28642792676051965,0.7017178439054441
0.0655,1.746544313146863,1.0,3187.3507343545184,0.5216671444210363,1.3056036354049567,0.9822964141747673,0.2864078611521682,0.7021888329951349
0.066,1.7460665605670678,1.0,3190.3914754513353,0.5243502013833634,1.3053623051377274,0.98246213894138,0.2863877955438168,0.7026590006408592
0.0665,1.7455888079872726,1.0,3193.407242269886,0.5270182063583351,1.3051211969243381,0.9826244866170956,0.28636772993546544,0.7031283647559288
0.067,1.7451110554074774,1.0,3196.3990281511165,0.5296712459559564,1.3048803021066755,0.982783549900505,0.28634766432711406,0.7035969431994333
0.0675,1.7446333028276821,1.0,3199.367828677163,0.5323094067862326,1.3046396120266261,0.9829394182903644,0.2863275987187627,0.7040647537763607
0.068,1.744155550247887,1.0,3202.314641631362,0.5349327754591687,1.304399118026077,0.9830921782185458,0.28630753311041124,0.7045318142377119
0.0685,1.7436777976680915,1.0,3205.238341604156,0.537541385431309,1.3041588292743462,0.9832419107166541,0.28628746750205986,0.704998107699168
0.069,1.7432000450882963,1.0,3208.141384027865,0.5401353761458565,1.303918724903873,0.983388699215928,0.2862674018937085,0.705463675551033
0.0695,1.742722292508501,1.0,3211.024626392302,0.5427148370472525,1.303678797478322,0.9835326218961788,0.28624733628535703,0.7059285330424756
0.07,1.7422445399287059,1.0,3213.8884771025123,0.5452798450823372,1.3034390433383445,0.983673753760209,0.28622727067700565,0.706392688067316
