Time [s],Phi [rad],STIM [ ],Fsee [N],Gamma [ ],Lcerel [ ],q [ ],Lmtc [m],fisomrel [ ]
0.0,1.8,1.0,17.96775052827396,1.0418737242227638e-05,1.3793396798560602,0.005000028921153694,0.288653,0.5411396916030031
0.0005,1.79999375,1.0,18.277168707249455,0.005619569605160164,1.3793023406292948,0.012941675859344248,0.2886527375,0.5412300203862832
0.001,1.799975,1.0,21.619067651057804,0.01119725757162966,1.3789382320399264,0.03561075644331098,0.28865195,0.5421103836047669
0.0015,1.79994375,1.0,31.070489057597214,0.016743659119511662,1.378046096974211,0.07060468840455193,0.2886506375,0.5442638665898134
0.002,1.7999,1.0,53.58470467528301,0.022258949740017263,1.3763679813842176,0.11472136969082777,0.2886488,0.5483008373366367
0.0025,1.79984375,1.0,97.12255914962631,0.027743303940270154,1.373934992749595,0.16457851826814965,0.28864643749999996,0.5541218788181135
0.003,1.7997750000000001,1.0,160.96287956927299,0.03319689525102383,1.371214167354905,0.21728419433827603,0.28864354999999997,0.5605868684789688
0.0035,1.79969375,1.0,237.6886505542304,0.03861989622625328,1.3685845703944537,0.2706166087876491,0.2886401375,0.5667902247038776
0.004,1.7996,1.0,321.4724425142059,0.04401247845393714,1.3661559421890554,0.3229194041102631,0.2886362,0.5724803124988682
0.0045000000000000005,1.7994937500000001,1.0,409.27365201102634,0.04937481256124224,1.3639226756429097,0.3730379276559007,0.2886317375,0.5776794839059488
0.005,1.799375,1.0,499.4195372064068,0.05470706820561175,1.3618582141456304,0.42025066120410637,0.28862675,0.5824573751764514
0.0055,1.79924375,1.0,590.7965227592533,0.06000941412223746,1.3599387157492702,0.4641766621512074,0.2886212375,0.5868753855381572
0.006,1.7991000000000001,1.0,682.5242319149121,0.06528201806720452,1.358146303437138,0.5046826868669807,0.2886152,0.5909796726221732
0.006500000000000001,1.79894375,1.0,773.8875779909698,0.07052504687290058,1.3564671457287316,0.5418032503809186,0.2886086375,0.5948060395918726
0.007,1.798775,1.0,864.2915511226826,0.07573866643251306,1.354890302278438,0.5756790566925545,0.28860155,0.5983828869538231
0.0075,1.79859375,1.0,953.2484811885428,0.08092304170854674,1.3534066981981507,0.6065119906539769,0.2885939375,0.6017337553210498
0.008,1.7984,1.0,1040.359389221768,0.0860783366734717,1.352008632584054,0.6345339823134042,0.2885858,0.6048785796757161
0.0085,1.79819375,1.0,1125.3248101607824,0.09120471467892563,1.3506890916874759,0.6599861072444796,0.2885771375,0.6078353347302716
0.009000000000000001,1.797975,1.0,1207.8902467105183,0.09630233762539948,1.3494421707853923,0.6831058677506445,0.28856795,0.6106191622346706
0.0095,1.79774375,1.0,1287.876095407427,0.10137136683999418,1.348262336986612,0.7041190468992226,0.2885582375,0.6132440836627024
0.01,1.7975,1.0,1365.168109141084,0.10641196311011425,1.3471443716569957,0.7232355460753261,0.288548,0.615723167177518
0.0105,1.79724375,1.0,1439.6654718335678,0.11142428543746338,1.3460838716353385,0.7406478317596273,0.2885372375,0.618067454699919
0.011,1.796975,1.0,1511.3160480078154,0.11640849230258933,1.3450766289656488,0.7565302666194579,0.28852595000000003,0.6202873729008416
0.0115,1.79669375,1.0,1580.1182529217222,0.12136474214864043,1.3441185160256701,0.7710396334680714,0.2885141375,0.622393006786641
0.012,1.7964,1.0,1646.0698227655128,0.12629319152505328,1.3432060149957137,0.7843164493345751,0.28850180000000003,0.6243929568582971
0.0125,1.79609375,1.0,1709.1814506561202,0.13119399582424035,1.3423359489197986,0.7964861392961184,0.2884889375,0.626294955603256
0.013000000000000001,1.7957750000000001,1.0,1769.4966533731138,0.13606731016605908,1.3415051845270047,0.8076603171096408,0.28847555,0.6281065336134454
0.0135,1.79544375,1.0,1827.080500186626,0.14091328934517994,1.3407107175997086,0.8179382312190961,0.2884616375,0.6298348434715932
0.014,1.7951000000000001,1.0,1881.9957943973625,0.14573208703833956,1.339949891223559,0.8274081808986743,0.2884472,0.631486197248375
0.0145,1.79474375,1.0,1934.2963846636665,0.15052385475485267,1.3392204152568339,0.8361487429877094,0.2884322375,0.6330660391357819
0.015,1.794375,1.0,1984.0571588717137,0.15528874400403395,1.3385199995578108,0.8442297609847624,0.28841675,0.634579750954655
0.0155,1.79399375,1.0,2031.3606368132182,0.16002690540681128,1.3378464760701136,0.8517134066970038,0.2884007375,0.636032393517239
0.016,1.7936,1.0,2076.303892560595,0.16473849042611055,1.3371977022750043,0.8586550555677394,0.2883842,0.6374289208560509
0.0165,1.7931937500000001,1.0,2118.964644534071,0.16942364789784528,1.3365718941257805,0.8651041883970254,0.2883671375,0.6387734696574758
0.017,1.792775,1.0,2159.4132372385475,0.1740825249439636,1.3359674724791992,0.8711050393367704,0.28834955,0.6400696984564367
0.0175,1.7923437500000001,1.0,2197.730886596751,0.17871526868641352,1.3353828581920173,0.8766971565899713,0.2883314375,0.64132123224156
0.018000000000000002,1.7919,1.0,2234.0087611615795,0.18332202624714325,1.3348164721209912,0.8819159534992909,0.2883128,0.6425316645295075
0.0185,1.79144375,1.0,2268.3252415126776,0.18790294278588032,1.3342669532569527,0.8867932467391306,0.2882936375,0.6437040942612061
0.019,1.790975,1.0,2300.7836952989637,0.1924581658201303,1.3337327690145793,0.8913575752165345,0.28827395,0.6448419607329767
0.0195,1.79049375,1.0,2331.4499337406587,0.19698783796797822,1.3332128295300616,0.8956347219278971,0.2882537375,0.6459477367237567
0.02,1.79,1.0,2360.393263872297,0.201492101622028,1.3327060660439922,0.8996479258835176,0.288233,0.6470238316885546
0.0205,1.78949375,1.0,2387.6881304201725,0.20597109917488352,1.3322114097969628,0.9034181629342691,0.2882117375,0.6480726377573802
0.021,1.788975,1.0,2413.413682478702,0.21042497301914878,1.331727792029566,0.9069643969809205,0.28818995000000003,0.6490965305969036
0.021500000000000002,1.78844375,1.0,2437.636625351106,0.2148538631098028,1.3312543049957042,0.9103038332639565,0.2881676375,0.6500975300440466
0.022,1.7879,1.0,2460.4443728428832,0.2192579128323301,1.330789877167148,0.9134520441356874,0.2881448,0.6510779884047931
0.0225,1.78734375,1.0,2481.892907112997,0.2236372598414434,1.3303337708540028,0.9164232387902914,0.28812143749999997,0.6520395402849972
0.023,1.786775,1.0,2502.0397471534784,0.2279920416056054,1.3298852592656139,0.9192303450956165,0.28809755,0.6529837873700852
0.0235,1.78619375,1.0,2520.9448571069765,0.232322395593279,1.3294436156113267,0.9218851410168276,0.28807313749999996,0.6539123218524758
0.024,1.7856,1.0,2538.6704387743384,0.23662845927292697,1.3290081131004874,0.9243983727861033,0.2880482,0.6548267267667631
0.0245,1.78499375,1.0,2555.2723901457007,0.24091036810966654,1.3285781033450619,0.9267798723774444,0.2880227375,0.6557284119966895
0.025,1.784375,1.0,2570.8141228512986,0.24516826024805344,1.328152884034911,0.9290386280667403,0.28799675,0.6566188925368949
0.025500000000000002,1.78374375,1.0,2585.349131193081,0.24940227094765507,1.327731861042972,0.9311828923747758,0.2879702375,0.6574994491623408
0.026000000000000002,1.7831000000000001,1.0,2598.9205521813956,0.2536125323906956,1.327314549644258,0.9332202532616544,0.2879432,0.6583711275228845
0.0265,1.78244375,1.0,2611.5726699563447,0.2577991767593993,1.3269004651137815,0.9351576814220856,0.2879156375,0.6592349678201319
0.027,1.781775,1.0,2623.350817835097,0.2619623362359903,1.3264891227265556,0.9370015887789017,0.28788755,0.6600920049146815
0.0275,1.7810937500000001,1.0,2634.3012855677725,0.2661021430026929,1.3260800377575934,0.9387578807213953,0.2878589375,0.660943268418388
0.028,1.7804,1.0,2644.4679461440574,0.2702187281003343,1.3256727558236554,0.9404320068342409,0.2878298,0.6617897197519953
0.0285,1.77969375,1.0,2653.889464397181,0.2743122212391327,1.3252668775862002,0.9420290057593703,0.2878001375,0.6626322013562622
0.029,1.778975,1.0,2662.617813504148,0.2783827569036834,1.3248618872217164,0.943553520126288,0.28776995,0.6634717928276301
0.029500000000000002,1.7782437500000001,1.0,2670.6830983077193,0.28243046150358053,1.3244574759889944,0.9450098716310658,0.2877392375,0.6643091399070506
0.03,1.7775,1.0,2678.115893155758,0.2864554614484182,1.3240533351468255,0.9464020636539086,0.287708,0.665144885141005
0.0305,1.77674375,1.0,2684.9472003514657,0.29045788314779064,1.323649155954001,0.9477338087448366,0.2876762375,0.6659796678898686
0.031,1.775975,1.0,2691.2084107164096,0.29443785301129183,1.3232446296693112,0.9490085534114711,0.28764395,0.6668141243301973
0.0315,1.7751937500000001,1.0,2696.9312662671687,0.298395497448516,1.3228394475515475,0.9502295005029888,0.2876111375,0.6676488874509299
0.032,1.7744,1.0,2702.1478250052146,0.3023309428690572,1.322433300859501,0.951399629449357,0.2875778,0.6684845870435157
0.0325,1.77359375,1.0,2706.8844458470408,0.3062443112883698,1.3220259354524828,0.952521719817384,0.2875439375,0.6693217375508718
0.033,1.772775,1.0,2711.1742560090465,0.310135732150857,1.3216170375854044,0.953598357445242,0.28750955,0.6701609730063411
0.0335,1.7719437500000002,1.0,2715.039317693437,0.31400532729190916,1.3212063964293836,0.9546319644053952,0.2874746375,0.6710027133062808
0.034,1.7711000000000001,1.0,2718.500276156971,0.317853217319935,1.3207938156176051,0.9556248036131456,0.2874392,0.6718473464971237
0.0345,1.7702437500000001,1.0,2721.5779262120677,0.3216795228433429,1.3203790987832529,0.956578989964443,0.2874032375,0.6726952584911694
0.035,1.7693750000000001,1.0,2724.2931965208813,0.32548436447054147,1.319962049559511,0.9574965017486347,0.28736675,0.6735468330410619
0.035500000000000004,1.76849375,1.0,2726.6671347452816,0.32926786280993925,1.3195424715795636,0.9583791910546795,0.2873297375,0.6744024517118106
0.036000000000000004,1.7676,1.0,2728.720893550951,0.33303013846994467,1.3191201684765952,0.9592287932700769,0.2872922,0.6752624938503492
0.0365,1.76669375,1.0,2730.4674519240366,0.33677130412113876,1.318695019001085,0.9600469415914642,0.2872541375,0.6761271838772258
0.037,1.765775,1.0,2731.9312461297172,0.34049148498285553,1.3182667984498642,0.9608351612272624,0.28721555,0.676996954733653
0.0375,1.76484375,1.0,2733.136475205339,0.344190806669298,1.3178352849400612,0.9615948850402882,0.2871764375,0.677872231017443
0.038,1.7639,1.0,2734.095094660638,0.34786938277715596,1.3174003683360735,0.9623274680621571,0.28713679999999997,0.678753208482541
0.0385,1.76294375,1.0,2734.8191030679104,0.351527326903119,1.316961938502298,0.9630341848812519,0.28709663750000003,0.6796400814440865
0.039,1.761975,1.0,2735.320536721048,0.35516475264387704,1.316519885303132,0.9637162352905789,0.28705595,0.6805330427541206
0.0395,1.7609937500000001,1.0,2735.611464564629,0.3587817735961197,1.3160740986029726,0.9643747494804272,0.2870147375,0.6814322837765253
0.04,1.76,1.0,2735.7039833912177,0.3623785033565367,1.3156244682662168,0.9650107928170001,0.286973,0.6823379943611859
0.0405,1.7589937500000001,1.0,2735.610213307808,0.36595505552181784,1.3151708841572622,0.9656253702440845,0.2869307375,0.6832503628173775
0.041,1.757975,1.0,2735.3422934711275,0.3695115436886528,1.3147132361405056,0.9662194303411518,0.28688795,0.684169575886385
0.0415,1.75694375,1.0,2734.9123780920836,0.3730480814537314,1.314251414080344,0.9667938690680267,0.2868446375,0.6850958187133422
0.042,1.7559,1.0,2734.3326327087825,0.37656478241374336,1.313785307841175,0.9673495332233313,0.28680079999999997,0.6860292748183006
0.0425,1.75484375,1.0,2733.612523802974,0.38006175554046584,1.3133148318738108,0.9678872249192217,0.2867564375,0.686970076938411
0.043000000000000003,1.753775,1.0,2732.7603625747865,0.3835391097534948,1.3128399111816254,0.9684077040603313,0.28671155,0.6879183353694922
0.043500000000000004,1.75269375,1.0,2731.791269255263,0.3869969670310948,1.3123604089464511,0.9689116872546887,0.28666613750000003,0.6888742822793553
0.044,1.7516,1.0,2730.711274533173,0.3904354334352041,1.3118762709297682,0.9693998574963164,0.2866202,0.6898379835170338
0.0445,1.75049375,1.0,2729.526411403118,0.39385461502776103,1.3113874428930565,0.9698728622559364,0.2865737375,0.6908095038537101
0.045,1.7493750000000001,1.0,2728.242713983854,0.3972546178707038,1.3108938705977962,0.9703313156736634,0.28652675,0.6917889069665841
0.0455,1.74824375,1.0,2726.866216402629,0.40063554802597084,1.3103954998054672,0.9707758005957081,0.2864792375,0.692776255422558
0.046,1.7471,1.0,2725.402951744215,0.40399751155550034,1.3098922762775493,0.9712068704675865,0.2864312,0.6937716106617315
0.0465,1.7459437500000001,1.0,2723.8589510654974,0.40734061452123055,1.3093841457755226,0.9716250510952378,0.28638263750000004,0.6947750329807084
0.047,1.744775,1.0,2722.2402424748607,0.41066496298509986,1.3088710540608672,0.972030842284433,0.28633355,0.6957865815157169
0.0475,1.74359375,1.0,2720.5528502777165,0.41397066300904656,1.308352946895063,0.9724247193679648,0.28628393750000003,0.6968063142255436
0.048,1.7424,1.0,2718.802794185846,0.4172578206550088,1.30782977003959,0.9728071346292801,0.2862338,0.6978342878742766
0.0485,1.74119375,1.0,2716.9964023888306,0.42052654192272365,1.3073014663970914,0.9731785184236472,0.2861831375,0.6988705636167005
0.049,1.739975,1.0,2715.142338585923,0.42377692971359116,1.3067679575268636,0.9735392787924373,0.28613195,0.6999152430956519
0.0495,1.73874375,1.0,2713.240193915996,0.42700908578446173,1.3062292476071193,0.9738898100421186,0.2860802375,0.7009682650190612
0.05,1.7375,1.0,2711.293986739813,0.43022311182061934,1.3056853004571478,0.974230485361891,0.286028,0.7020296463151252
0.0505,1.73624375,1.0,2709.307730898782,0.43341910950734797,1.3051360798962393,0.9745616606936792,0.2859752375,0.7030994028876145
0.051000000000000004,1.734975,1.0,2707.2757099211685,0.4365971800836387,1.3045816385066598,0.974883681440648,0.28592195,0.7041773771830308
0.051500000000000004,1.73369375,1.0,2705.2290923350843,0.4397574246493873,1.3040216921872123,0.9751968555289025,0.2858681375,0.7052640646671682
0.052000000000000005,1.732402609840432,1.0,2703.2746214574804,0.4428999426702569,1.3034564447736057,0.9755015080871773,0.2858139096132981,0.7063590118793482
0.0525,1.7311106873407134,1.0,2701.8312443711948,0.4460248333929774,1.3028861809012444,0.975797954824406,0.28575964886830996,0.7074616116679167
0.053,1.7298187648409948,1.0,2700.9059796014362,0.4491321958063975,1.3023111860155678,0.9760864975190864,0.2857053881233218,0.7085712589600152
0.0535,1.7285268423412763,1.0,2700.4546206231325,0.4522221287375189,1.301731861659618,0.9763674318985092,0.2856511273783336,0.7096871290160112
0.054,1.7272349198415577,1.0,2700.439144549365,0.45529472968781176,1.3011485542151329,0.9766410373624539,0.28559686663334544,0.7108085085909923
0.0545,1.7259429973418392,1.0,2700.8260465371013,0.45835009552393213,1.3005615698056625,0.9769075788216192,0.2855426058883572,0.7119347664411858
0.055,1.7246510748421207,1.0,2701.5842120435136,0.4613883223248673,1.2999711934972924,0.9771673085915646,0.28548834514336907,0.7130653159177613
0.0555,1.7233591523424023,1.0,2702.6871168041316,0.46440950477497206,1.2993776690055925,0.9774204657872296,0.2854340843983809,0.7141996533825827
0.056,1.7220672298426838,1.0,2704.090119236535,0.46741374446633166,1.2987814059327696,0.977667289918604,0.2853798236533927,0.7153369625919566
0.0565,1.7207753073429652,1.0,2705.774218507127,0.47040113442275144,1.2981825798754298,0.9779079962379061,0.28532556290840455,0.7164768783763804
0.057,1.7194833848432467,1.0,2707.720435591695,0.47337176766803685,1.2975813664301805,0.9781427911926861,0.28527130216341634,0.7176190381171768
0.0575,1.7181914623435282,1.0,2709.9098036397686,0.4763257372259931,1.296977941193628,0.9783718728618338,0.2852170414184282,0.7187630817742157
0.058,1.7168995398438096,1.0,2712.323359021133,0.47926313612042554,1.2963724797623788,0.9785954313666826,0.28516278067344003,0.7199086519116658
0.0585,1.715607617344091,1.0,2714.942133056846,0.48218405737513953,1.2957651577330396,0.9788136492588086,0.2851085199284518,0.7210553937217801
0.059000000000000004,1.7143156948443725,1.0,2717.7471444336547,0.48508859401394033,1.2951561507022173,0.9790267018860244,0.2850542591834636,0.7222029550467155
0.059500000000000004,1.713023772344654,1.0,2720.719392302323,0.4879768390606334,1.2945456342665187,0.9792347577379451,0.28499999843847545,0.7233509863983871
0.06,1.7117318498449354,1.0,2723.8507470939708,0.4908488792872385,1.2939336848698568,0.9794379728855898,0.2849457376934873,0.7244993268457516
0.0605,1.7104399273452169,1.0,2727.1164135537833,0.4937048142342863,1.293320530459918,0.9796365065700762,0.2848914769484991,0.7256475331974245
0.061,1.7091480048454986,1.0,2730.5076254037244,0.49654473211232536,1.2927062528678588,0.9798305032825158,0.28483721620351093,0.7267954385588555
0.0615,1.70785608234578,1.0,2734.0157223884175,0.4993687210509039,1.292090932838772,0.9800201019904137,0.2847829554585227,0.7279428793156123
0.062,1.7065641598460615,1.0,2737.6320290455014,0.5021768691795702,1.291474651117751,0.9802054364535429,0.28472869471353457,0.7290896930988052
0.0625,1.705272237346343,1.0,2741.3478529113613,0.5049692646278724,1.2908574884498893,0.9803866354604442,0.2846744339685464,0.7302357187902503
0.063,1.7039803148466244,1.0,2745.1544828719784,0.5077459955253588,1.2902395255802799,0.9805638230525038,0.2846201732235582,0.7313807965272132
0.0635,1.7026883923469058,1.0,2749.043187658197,0.5105071500015775,1.2896208432540162,0.980737118736342,0.28456591247857005,0.7325247677067366
0.064,1.7013964698471873,1.0,2753.005214484954,0.5132528161860769,1.2890015222161915,0.9809066376852104,0.28451165173358184,0.7336674749895542
0.0645,1.7001045473474687,1.0,2757.0324202577585,0.5159830812057282,1.2883816374922004,0.9810724905711874,0.2844573909885937,0.7348087728230777
0.065,1.6988126248477502,1.0,2761.123693431799,0.5186980227674961,1.2877612003621413,0.981234780279696,0.28440313024360553,0.7359486338205983
0.0655,1.6975207023480317,1.0,2765.263320392944,0.5213977436451747,1.2871403539573172,0.9813936143148637,0.2843488694986173,0.7370867893152635
0.066,1.696228779848313,1.0,2769.447981263636,0.5240823263656601,1.2865191291544038,0.981549089506361,0.28429460875362916,0.7382231780248791
0.0665,1.6949368573485946,1.0,2773.6743468280033,0.526751853455849,1.2858975568300766,0.9817012993091045,0.28424034800864095,0.7393577391536772
0.067,1.693644934848876,1.0,2777.9390782840437,0.5294064074426376,1.285275667861011,0.981850333945694,0.2841860872636528,0.7404904123930296
0.0675,1.6923530123491575,1.0,2782.238827015592,0.5320460708529225,1.2846534931238838,0.9819962805418797,0.28413182651866464,0.7416211379221016
0.068,1.6910610898494391,1.0,2786.570234386682,0.5346709262136002,1.2840310634953696,0.9821392232554476,0.28407756577367643,0.7427498564084483
0.0685,1.6897691673497206,1.0,2790.9299315562844,0.5372810560515671,1.2834084098521445,0.9822792433988822,0.2840233050286883,0.7438765090085423
0.069,1.688477244850002,1.0,2795.3145393143163,0.5398765428937194,1.2827855630708844,0.9824164195561528,0.28396904428370007,0.745001037368249
0.0695,1.6871853223502835,1.0,2799.720667939051,0.5424574692669539,1.282162554028265,0.9825508276939382,0.2839147835387119,0.7461233836232347
0.07,1.685893399850565,1.0,2804.144917075204,0.5450239176981668,1.281539413600962,0.9826825412675971,0.28386052279372376,0.7472434903993193
0.07050000000000001,1.6846014773508464,1.0,2808.583875633485,0.5475759707142546,1.2809161726656506,0.982811631322159,0.28380626204873555,0.7483613008127628
0.07100000000000001,1.6833095548511279,1.0,2813.0353798483325,0.5501137049007011,1.2802928508340974,0.9829381657146801,0.28375200130374734,0.7494767786074441
0.07150000000000001,1.6820176323514093,1.0,2817.4994883871527,0.5526371911455485,1.279669447773378,0.9830622088663739,0.2836977405587592,0.7505899234124163
0.07200000000000001,1.6807257098516908,1.0,2821.969369306529,0.5551465349987335,1.2790460247503075,0.9831838279574422,0.283643479813771,0.751700625226565
0.0725,1.6794337873519722,1.0,2826.444076164486,0.5576418123399668,1.278422590266274,0.9833030839197516,0.2835892190687828,0.752808868716258
0.073,1.678141864852254,1.0,2830.92265950588,0.5601230990489595,1.2777991528226664,0.9834200357576115,0.28353495832379466,0.7539146386830639
