Time [s],Phi [rad],STIM [ ],Fsee [N],Gamma [ ],Lcerel [ ],q [ ],Lmtc [m],fisomrel [ ]
0.0,1.8,1.0,17.966429685064856,1.006645583584881e-05,1.3793398278349527,0.005000027005776851,0.288653,0.5411393336037897
0.0005,1.79999375,1.0,18.27585134837204,0.005619219299774234,1.3793024869631607,0.012940700482431997,0.2886527375,0.5412296664016624
0.001,1.799975,1.0,21.617559744743474,0.011196909231179605,1.378938386050604,0.03560892939955717,0.28865195,0.542110011407409
0.0015,1.79994375,1.0,31.06843232808238,0.01674331273297642,1.3780462721998696,0.07060219031803625,0.2886506375,0.5442634441192031
0.002,1.7999,1.0,53.58151366323861,0.022258605296436456,1.3763681883992422,0.11471841183429946,0.2886488,0.5483003404370934
0.0025,1.79984375,1.0,97.11797013685997,0.027742961428745525,1.373935213881657,0.16457529865629916,0.28864643749999996,0.5541213514645391
0.003,1.7997750000000001,1.0,160.95731707865463,0.03319655466071796,1.3712143755629733,0.21728087016831613,0.28864354999999997,0.560586375559285
0.0035,1.79969375,1.0,237.682601343832,0.03861955754638958,1.3685847567252367,0.27061330015680746,0.2886401375,0.5667897867021623
0.004,1.7996,1.0,321.4661651175564,0.04401214167379961,1.3661561084526612,0.3229161986502533,0.2886362,0.572479924243632
0.0045000000000000005,1.7994937500000001,1.0,409.26726830971745,0.04937447767017511,1.3639228254922158,0.3730348835123517,0.2886317375,0.5776791361153134
0.005,1.799375,1.0,499.41312010720543,0.05470673519302528,1.36185835050807,0.4202478121213816,0.28862675,0.5824570604833508
0.0055,1.79924375,1.0,590.7901161334016,0.06000908297757835,1.3599388409188955,0.464174023649437,0.2886212375,0.5868750982077872
0.006,1.7991000000000001,1.0,682.5178831218888,0.06528168878000117,1.358146418841047,0.5046802614460879,0.2886152,0.5909794090284863
0.006500000000000001,1.79894375,1.0,773.8808270900813,0.07052471943352774,1.3564672609708202,0.5418010375964982,0.2886086375,0.5948057776019171
0.007,1.798775,1.0,864.2856339839274,0.07573834082875226,1.3548903978590356,0.5756770325916243,0.28860155,0.5983826706232634
0.0075,1.79859375,1.0,953.2429531701225,0.08092271792907657,1.3534067832246752,0.6065101469795511,0.2885939375,0.6017335636823579
0.008,1.7984,1.0,1040.3594583334936,0.08607801477080936,1.3520086315665234,0.6345322590893624,0.2885858,0.6048785819600242
0.0085,1.79819375,1.0,1125.3185097284934,0.09120439448913868,1.350689180878138,0.6599845936645242,0.2885771375,0.6078351352519789
0.009000000000000001,1.797975,1.0,1207.8651350392395,0.09630201850546584,1.349442513909724,0.6831046343952354,0.28856795,0.610618397552463
0.0095,1.79774375,1.0,1287.862786779248,0.10137104979136985,1.3482625130969093,0.704117846695009,0.2885582375,0.6132436925109219
0.01,1.7975,1.0,1365.1721989193938,0.10641164850684356,1.3471443190923487,0.7232343421458509,0.288548,0.6157232835520077
0.0105,1.79724375,1.0,1439.675503073589,0.11142397300210662,1.3460837460871506,0.7406466980368402,0.2885372375,0.6180677318057546
0.011,1.796975,1.0,1511.3177420279285,0.11640818162737865,1.3450766082724241,0.7565292790169081,0.28852595000000003,0.6202874184413263
0.0115,1.79669375,1.0,1580.1008002928713,0.12136443270159727,1.3441187245249866,0.7710388338366505,0.2885141375,0.62239254920694
0.012,1.7964,1.0,1646.0461247135706,0.12629288343567927,1.3432062923771941,0.784315750501261,0.28850180000000003,0.6243923497216197
0.0125,1.79609375,1.0,1709.1655191090417,0.13119368973544393,1.34233613192029,0.7964854641279904,0.2884889375,0.6262945560645848
0.013000000000000001,1.7957750000000001,1.0,1769.4878415738674,0.13606700612603662,1.341505284005141,0.8076596667148169,0.28847555,0.6281063169533421
0.0135,1.79544375,1.0,1827.060985968695,0.14091298630659088,1.3407109344004917,0.8179376781510291,0.2884616375,0.629834372385025
0.014,1.7951000000000001,1.0,1881.971247354758,0.1457317852004695,1.3399501599303525,0.8274076924217029,0.2884472,0.6314856146789789
0.0145,1.79474375,1.0,1934.2860660915053,0.15052355531349734,1.3392205266724462,0.836148240428795,0.2884322375,0.6330657980997074
0.015,1.794375,1.0,1984.0607879064955,0.15528844703149408,1.338519960867589,0.8442292471622401,0.28841675,0.6345798344840752
0.0155,1.79399375,1.0,2031.3689236361906,0.1600266107402795,1.3378463887565972,0.8517129150005979,0.2884007375,0.6360325816458106
0.016,1.7936,1.0,2076.3006008706993,0.1647381968256732,1.3371977365802872,0.8586546359116811,0.2883842,0.637428847082689
0.0165,1.7931937500000001,1.0,2118.9394608167304,0.16942335431015226,1.3365721539302686,0.8651038651678824,0.2883671375,0.6387729119857767
0.017,1.792775,1.0,2159.389077766406,0.17408223305224743,1.3359677193718453,0.8711047371116385,0.28834955,0.6400691694517888
0.0175,1.7923437500000001,1.0,2197.7209467404805,0.17871497936846792,1.3353829588807133,0.8766968367134779,0.2883314375,0.6413210168763321
0.018000000000000002,1.7919,1.0,2234.00928505287,0.18332173907677218,1.3348164668573526,0.8819156273017629,0.2883128,0.6425316757690029
0.0185,1.79144375,1.0,2268.336830713613,0.18790265799511865,1.3342668377022426,0.8867929134277024,0.2882936375,0.64370434060122
0.019,1.790975,1.0,2300.787217131548,0.1924578810685796,1.333732734147303,0.8913572811139672,0.28827395,0.6448420349444054
0.0195,1.79049375,1.0,2331.449710292719,0.19698755378796487,1.3332128317276721,0.895634453993571,0.2882537375,0.6459477320536545
0.02,1.79,1.0,2360.4010162030336,0.20149181956875034,1.3327059902687854,0.8996476563202805,0.288233,0.6470239924721519
0.0205,1.78949375,1.0,2387.7069515449634,0.20597081969184255,1.3322112268845006,0.9034178853259587,0.2882117375,0.6480730252930322
0.021,1.788975,1.0,2413.4378215438546,0.21042469543814799,1.3317275586886743,0.9069641236714986,0.28818995000000003,0.6490970242552683
0.021500000000000002,1.78844375,1.0,2437.6680444511444,0.2148535880885731,1.3312540027951638,0.9103035603677135,0.2881676375,0.6500981684699669
0.022,1.7879,1.0,2460.464992103731,0.2192576369430833,1.3307896797645855,0.9134518050688565,0.2881448,0.6510784048509024
0.0225,1.78734375,1.0,2481.9088763283844,0.2236369843512055,1.3303336186315418,0.916423020285784,0.28812143749999997,0.6520398609750993
0.023,1.786775,1.0,2502.059943889976,0.22799176840781038,1.3298850675221368,0.9192301305236605,0.28809755,0.6529841907714136
0.0235,1.78619375,1.0,2520.9717483433064,0.2323221253872085,1.3294433612709462,0.9218849260820083,0.28807313749999996,0.6539128562324643
0.024,1.7856,1.0,2538.699975848144,0.23662819156371054,1.3290078347125454,0.9243981641766997,0.2880482,0.6548273108984772
0.0245,1.78499375,1.0,2555.3022658745126,0.24091010321162706,1.3285778226815104,0.9267796736896277,0.2880227375,0.6557290001335394
0.025,1.784375,1.0,2570.838041718072,0.24516799660526867,1.3281526600124165,0.9290384480281731,0.28799675,0.6566193613736461
0.025500000000000002,1.78374375,1.0,2585.356809905639,0.24940200459546516,1.3277317893270038,0.9311827439953008,0.2879702375,0.657499599057782
0.026000000000000002,1.7831000000000001,1.0,2598.9228453521673,0.2536122660328775,1.3273145282829824,0.9332201194153991,0.2879432,0.6583711721138035
0.0265,1.78244375,1.0,2611.5789516122413,0.2577989129424163,1.3269004067410248,0.9351575485255155,0.2879156375,0.659235089517068
0.027,1.781775,1.0,2623.364962985214,0.26196207606539873,1.3264889915771982,0.9370014516331416,0.28788755,0.6600922779939546
0.0275,1.7810937500000001,1.0,2634.321614377135,0.2661018861431418,1.3260798496675696,0.9387577417090474,0.2878589375,0.6609436595687985
0.028,1.7804,1.0,2644.4904631807676,0.2702184739169626,1.3256725478882059,0.9404318711868683,0.2878298,0.6617901516326666
0.0285,1.77969375,1.0,2653.9138153144686,0.2743119701281781,1.325266653115174,0.9420288738789301,0.2878001375,0.6626326670001692
0.029,1.778975,1.0,2662.6336439365737,0.27838250497699424,1.324861741533276,0.9435534036725141,0.28776995,0.6634720946682622
0.029500000000000002,1.7782437500000001,1.0,2670.6840739254094,0.2824302043402156,1.32445746702388,0.9450097761684765,0.2877392375,0.6643091584580607
0.03,1.7775,1.0,2678.114072680816,0.2864552040804982,1.3240533518522484,0.9464019751266709,0.287708,0.6651448506164634
0.0305,1.77674375,1.0,2684.9504826651514,0.2904576288890777,1.3236491258725032,0.9477337184553943,0.2876762375,0.6659797299807546
0.031,1.775975,1.0,2691.220507062765,0.2944376034571897,1.3232445189387663,0.9490084575794728,0.28764395,0.6668143526021861
0.0315,1.7751937500000001,1.0,2696.951677440555,0.2983952524760699,1.3228392609051598,0.9502293998633712,0.2876111375,0.6676492717417417
0.032,1.7744,1.0,2702.1718230269657,0.3023307006369539,1.3224330816258059,0.9513995288860982,0.2875778,0.668485037861245
0.0325,1.77359375,1.0,2706.9090416088416,0.30624407263107734,1.3220257109548266,0.9525216227968394,0.2875439375,0.6693221986098167
0.033,1.772775,1.0,2711.1916720463314,0.31013549314967576,1.3216168787463436,0.9535982709536072,0.28750955,0.6701612988056751
0.0335,1.7719437500000002,1.0,2715.045823251288,0.3140050844590204,1.32120633713909,0.9546318909096204,0.2874746375,0.6710028347630396
0.034,1.7711000000000001,1.0,2718.493783554049,0.3178529657965032,1.3207938747522223,0.9556247434123124,0.2874392,0.6718472255148453
0.0345,1.7702437500000001,1.0,2721.5692050841103,0.32167927096699966,1.3203791781703638,0.9565789339140748,0.2874032375,0.6726950962847013
0.035,1.7693750000000001,1.0,2724.2889319159653,0.32548411773632263,1.3199620883601992,0.9574964444835529,0.28736675,0.6735467538653701
0.035500000000000004,1.76849375,1.0,2726.669915722185,0.3292676238702849,1.319542446288413,0.9583791307334596,0.2873297375,0.6744025032526041
0.036000000000000004,1.7676,1.0,2728.729204587188,0.33302990713469927,1.31912009292169,0.9592287313390457,0.2872922,0.6752626476200636
0.0365,1.76669375,1.0,2730.483932382255,0.3367710852953784,1.3186948692267144,0.9600468767363043,0.2872541375,0.6761274882926256
0.037,1.765775,1.0,2731.951308700838,0.3404912761181352,1.3182666161701713,0.9608350970790073,0.28721555,0.6769973247180768
0.0375,1.76484375,1.0,2733.1486093552467,0.34419059736878227,1.3178351747187447,0.9615948295252958,0.2871764375,0.6778724544371972
0.038,1.7639,1.0,2734.0931674331005,0.34786916681313257,1.3174003858391194,0.962327424917107,0.28713679999999997,0.678753173052226
0.0385,1.76294375,1.0,2734.8023649158154,0.35152710221699873,1.31696209049798,0.9630341539091427,0.28709663750000003,0.6796397741937192
0.039,1.761975,1.0,2735.292740298801,0.3551645192203777,1.3165201376937854,0.9637162129263233,0.28705595,0.680532533272663
0.0395,1.7609937500000001,1.0,2735.5764389314472,0.35878152901745924,1.3160744166179366,0.9643747318214496,0.2870147375,0.6814316427284155
0.04,1.76,1.0,2735.6688534453556,0.3623782572560165,1.3156247872228966,0.9650107757272379,0.286973,0.6823373523294045
0.0405,1.7589937500000001,1.0,2735.579678483505,0.36595481462738877,1.3151711613979113,0.9656253511554402,0.2869307375,0.6832498055583283
0.041,1.757975,1.0,2735.3186267983883,0.3695113118229154,1.3147134510322263,0.9662194081741489,0.28688795,0.6841691445771254
0.0415,1.75694375,1.0,2734.895426116874,0.3730478595339357,1.314251568015087,0.9667938441572692,0.2868446375,0.6850955102042702
0.042,1.7559,1.0,2734.3198161780124,0.37656456845178904,1.3137854242357392,0.967349507247522,0.28680079999999997,0.6860290418915727
0.0425,1.75484375,1.0,2733.6015459422847,0.38006154926781466,1.3133149315834287,0.9678871995575781,0.2867564375,0.6869698777004828
0.043000000000000003,1.753775,1.0,2732.7503709728826,0.3835389126733519,1.3128400019474007,0.9684076801316058,0.28671155,0.6879181542779029
0.043500000000000004,1.75269375,1.0,2731.7760509899995,0.3869967693597401,1.312360547216901,0.9689116676873987,0.28666613750000003,0.6888740068314991
0.044,1.7516,1.0,2730.6883475960067,0.3904352300183186,1.3118764792811757,0.9693998431573858,0.2866202,0.689837569104523
0.0445,1.75049375,1.0,2729.494901147306,0.39385439906569025,1.3113877293088154,0.969872852617219,0.2865737375,0.6908089350634563
0.045,1.7493750000000001,1.0,2728.1974664520444,0.39725436636415506,1.3108942819772251,0.9703313109005638,0.28652675,0.6917880913069695
0.0455,1.74824375,1.0,2726.815977338334,0.40063528029085654,1.3103959566821612,0.9707757973526739,0.2864792375,0.692775351005631
0.046,1.7471,1.0,2725.35470366382,0.4039972429314368,1.3098927151658237,0.9712068661292885,0.2864312,0.6937707432626073
0.0465,1.7459437500000001,1.0,2723.8179144378,0.40734035637153787,1.3093845191704128,0.9716250437285459,0.28638263750000004,0.6947742962298868
0.047,1.744775,1.0,2722.209877219014,0.4106647226968017,1.3088713304381285,0.9720308306305918,0.28633355,0.6957860370962385
0.0475,1.74359375,1.0,2720.5348575465296,0.4139704439928705,1.3083531107111712,0.9724247028250493,0.28628393750000003,0.6968059920750771
0.048,1.7424,1.0,2718.7971184019075,0.4172576223453861,1.307829821731741,0.9728071132350015,0.2862338,0.6978341863922339
0.0485,1.74119375,1.0,2717.0009197051922,0.42052635983999065,1.3073014252420379,0.9731784930453953,0.2861831375,0.6988706442736359
0.049,1.739975,1.0,2715.1505178417774,0.42377675856232616,1.3067678829842622,0.973539252943109,0.28613195,0.6999153889328892
0.0495,1.73874375,1.0,2713.250165223367,0.42700892059803475,1.306229156700614,0.9738897842753086,0.2860802375,0.7009684425587719
0.05,1.7375,1.0,2711.304109880207,0.4302229480327583,1.3056852081332933,0.9742304601321753,0.286028,0.7020298263026313
0.0505,1.73624375,1.0,2709.316595086158,0.433418942952139,1.3051359990245002,0.9745616363595776,0.2859752375,0.7030995602656895
0.051000000000000004,1.734975,1.0,2707.2918590162913,0.4365970074418188,1.3045814911164353,0.9748836525068099,0.28592195,0.7041776634862528
0.051500000000000004,1.73369375,1.0,2705.234134436994,0.4397572435874398,1.3040216461512983,0.9751968327140965,0.2858681375,0.7052641539268327
0.052000000000000005,1.7324,1.0,2703.147648428075,0.44289975347464394,1.3034564258712895,0.9755014865441939,0.2858138,0.706359048461169
0.0525,1.73109375,1.0,2701.036622137973,0.4460246391890733,1.3028857920186092,0.9757979097620635,0.28575893750000003,0.70746236286116
0.053,1.729775,1.0,2698.89983114385,0.4491319849290353,1.3023097560572678,0.9760863863220559,0.28570355000000003,0.7085740159202654
0.0535,1.72844375,1.0,2696.740586864333,0.45222189626044523,1.3017282879941476,0.9763671874052682,0.2856476375,0.7096940058167114
0.054,1.7271,1.0,2694.5670487337825,0.4552944906896691,1.3011413134397567,0.9766405708868419,0.2855912,0.7108224149865376
0.0545,1.7257437500000001,1.0,2692.380601512747,0.45834986110962894,1.300548819888491,0.9769067848289786,0.2855342375,0.7119592055600621
0.055,1.724375,1.0,2690.1826278562953,0.46138810041324685,1.2999507948347462,0.9771660667340171,0.28547675,0.7131043388966964
0.0555,1.72299375,1.0,2687.9745082806066,0.46440930149344495,1.2993472257729186,0.9774186440795237,0.2854187375,0.7142577755805399
0.056,1.7216,1.0,2685.757621133058,0.46741355724314537,1.298738100197404,0.9776647348219897,0.2853602,0.7154194754159622
0.0565,1.72019375,1.0,2683.533342566207,0.47040096055527025,1.2981234056025983,0.977904547871214,0.28530113749999997,0.7165893974231781
0.057,1.718775,1.0,2681.303046514781,0.47337160432274156,1.2975031294828976,0.9781382835373047,0.28524155,0.7177674998338083
0.0575,1.71734375,1.0,2679.068104676137,0.4763255814384815,1.2968772593326976,0.978366133952089,0.2851814375,0.7189537400864356
0.058,1.7159,1.0,2676.8298864946137,0.4792629847954122,1.2962457826463942,0.9785882834665878,0.2851208,0.7201480748221472
0.0585,1.71444375,1.0,2674.58975914902,0.4821839072864557,1.2956086869183836,0.9788049090260971,0.2850596375,0.7213504598800672
0.059000000000000004,1.7129750000000001,1.0,2672.3490875435627,0.4850884418045342,1.2949659596430616,0.9790161805243025,0.28499795,0.722560850292882
0.059500000000000004,1.71149375,1.0,2670.1092343024693,0.48797668124256965,1.2943175883148244,0.9792222611377588,0.2849357375,0.723779200282352
0.06,1.71,1.0,2667.871559767816,0.49084871849348427,1.2936635604280673,0.9794233076419596,0.284873,0.7250054632548179
0.0605,1.7084937500000001,1.0,2665.637422001083,0.4937046464502001,1.293003863477187,0.9796194707101559,0.2848097375,0.72623959179669
0.061,1.7069750000000001,1.0,2663.408176787953,0.49654455800563935,1.2923384849565789,0.9798108951959813,0.28474595,0.7274815376699366
0.0615,1.7054437500000001,1.0,2661.1814161117727,0.4993685208704907,1.2916674469876552,0.9799977202619359,0.2846816375,0.7287311873970131
0.062,1.7039,1.0,2658.960049148531,0.5021766451546926,1.2909907227607011,0.9801800805264549,0.2846168,0.7299885180714438
0.0625,1.70234375,1.0,2656.74678550806,0.5049690330195163,1.290308287259917,0.9803581049849858,0.2845514375,0.731253502385885
0.063,1.7007750000000001,1.0,2654.5419199192024,0.507745768689411,1.289620137686137,0.9805319175841971,0.28448555,0.7325260709396144
0.0635,1.69919375,1.0,2652.3457466371583,0.5105069363888257,1.2889262712401954,0.9807016376746365,0.28441913750000003,0.7338061536582814
0.064,1.6976,1.0,2650.1585594476205,0.5132526203422095,1.2882266851229263,0.9808673802133838,0.2843522,0.7350936797928875
0.0645,1.69599375,1.0,2647.980651671798,0.5159829047740119,1.2875213765351636,0.9810292559563261,0.2842847375,0.7363885779187649
0.065,1.694375,1.0,2645.812316170805,0.5186978739086815,1.286810342677742,0.9811873716406555,0.28421675,0.7376907759345543
0.0655,1.69274375,1.0,2643.653845350412,0.5213976119706678,1.2860935807514953,0.9813418301581528,0.2841482375,0.7390002010611851
0.066,1.6911,1.0,2641.505531166531,0.5240822031844199,1.2853710879572577,0.981492730719786,0.2840792,0.7403167798408516
0.0665,1.6894437500000001,1.0,2639.3676651303113,0.5267517317743867,1.2846428614958632,0.9816401690121178,0.2840096375,0.7416404381359913
0.067,1.687775,1.0,2637.2405383129712,0.5294062819650176,1.2839088985681464,0.9817842373459825,0.28393955,0.7429711011282589
0.0675,1.68609375,1.0,2635.1244413523723,0.5320459379807616,1.283169196374941,0.9819250247978691,0.2838689375,0.7443086933175067
0.068,1.6844000000000001,1.0,2633.0196644581315,0.5346707840460679,1.2824237521170812,0.9820626173444142,0.2837978,0.7456531385207573
0.0685,1.68269375,1.0,2630.926497417386,0.5372809043853856,1.2816725629954016,0.9821970979903855,0.2837261375,0.7470043598711784
0.069,1.680975,1.0,2628.8452296015375,0.5398763832231638,1.2809156262107357,0.9823285468905159,0.28365395,0.7483622798170606
0.0695,1.67924375,1.0,2626.7761499719804,0.5424573047838517,1.2801529389639181,0.9824570414655227,0.28358123749999997,0.7497268201207882
0.07,1.6775,1.0,2624.719547086873,0.5450237532918982,1.279384498455783,0.9825826565126243,0.283508,0.7510979018578144
0.07050000000000001,1.67574375,1.0,2622.6755908456817,0.547575768427232,1.2786103029837934,0.9827054616075765,0.2834342375,0.7524754434670882
0.07100000000000001,1.673975,1.0,2620.644413625471,0.5501134799127746,1.2778303511915707,0.9828255295519731,0.28335995,0.7538593621070424
0.07150000000000001,1.67219375,1.0,2618.62585504522,0.5526369750017316,1.2770446444382006,0.9829429282513524,0.2832851375,0.7552495694773947
0.07200000000000001,1.6704,1.0,2616.6197238638983,0.5551463291866615,1.27625318437211,0.9830577226783035,0.2832098,0.7566459761615719
0.0725,1.66859375,1.0,2614.625829191035,0.5576416179601229,1.275455972641726,0.9831699756805268,0.2831339375,0.7580484921428593
0.073,1.6667750000000001,1.0,2612.6439804831793,0.5601229168146744,1.2746530108954752,0.9832797480628619,0.28305755,0.7594570268050063
0.0735,1.66494375,1.0,2610.6739875399444,0.5625903012428746,1.2738443007817846,0.9833870986656185,0.2829806375,0.7608714889328301
0.074,1.6631,1.0,2608.7156605000105,0.5650438467372819,1.2730298439490813,0.9834920844394035,0.2829032,0.7622917867128199
0.0745,1.6612437500000001,1.0,2606.768809837576,0.567483628790455,1.2722096420457922,0.9835947605166218,0.2828252375,0.7637178277337425
0.075,1.659375,1.0,2604.833246358904,0.5699097228949526,1.271383696720344,0.9836951802798171,0.28274675,0.7651495189872459
0.0755,1.65749375,1.0,2602.908781198085,0.5723222045433329,1.270552009621164,0.9837933954270133,0.2826677375,0.7665867668684617
