Time [s],Phi [rad],STIM [ ],Fsee [N],Gamma [ ],Lcerel [ ],q [ ],Lmtc [m],fisomrel [ ]
0.0,1.8,1.0,19.968262976379958,0.0014455398755444555,1.3791214727396992,0.005534892375849846,0.288653,0.5416674391188824
0.0005,1.79999375,1.0,20.678450354350986,0.007046640848731734,1.3790438367952034,0.01740060695224613,0.2886527375,0.5418551332511838
0.001,1.799975,1.0,25.096914381889057,0.012616324074298045,1.3785962671062861,0.043474574404434946,0.28865195,0.5429364366491889
0.0015,1.79994375,1.0,37.06056225511379,0.018154765780688944,1.377558250901086,0.08111325767796307,0.2886506375,0.5454393085985734
0.002,1.7999,1.0,64.41797023189076,0.023662141208467782,1.3756975183590792,0.12700314788556927,0.2886488,0.549908720340655
0.0025,1.79984375,1.0,113.60313457431397,0.029138624614568065,1.3731719500956383,0.17783618924644726,0.28864643749999996,0.5559397183093701
0.003,1.7997750000000001,1.0,181.34308726182192,0.03458438927916159,1.3704740570735208,0.23089315055706827,0.28864354999999997,0.5623372864651968
0.0035,1.79969375,1.0,260.15002779864574,0.0399996075087762,1.3679083238921805,0.2841038441232586,0.2886401375,0.5683783967182603
0.004,1.7996,1.0,345.0404604084141,0.04538445064263826,1.365542760660873,0.3359443614154107,0.2886362,0.5739110016850374
0.0045000000000000005,1.7994937500000001,1.0,433.4615201129064,0.05073908907573954,1.3633630480210808,0.38537816660348734,0.2886317375,0.5789773448113195
0.005,1.799375,1.0,523.9307006668945,0.05606369220374537,1.3613435957514124,0.43177989893532415,0.28862675,0.5836441511780608
0.0055,1.79924375,1.0,615.4089495850086,0.06135842854826582,1.359462757593706,0.47484033612084,0.2886212375,0.5879672382115071
0.006,1.7991000000000001,1.0,707.0491776977588,0.06662346555127781,1.3577044414956376,0.5144761042012219,0.2886152,0.5919883052751721
0.006500000000000001,1.79894375,1.0,798.1823345903692,0.07185896994519994,1.3560556247625482,0.5507538442526979,0.2886086375,0.5957410461573709
0.007,1.798775,1.0,888.2236773810541,0.07706510717376236,1.3545063626985787,0.5838337718355431,0.28860155,0.5992513992545401
0.0075,1.79859375,1.0,976.7286391218339,0.08224204223037918,1.353047747051542,0.6139277671731903,0.2885939375,0.6025423734114489
0.008,1.7984,1.0,1063.3103452778591,0.08738993873828897,1.3516725694758336,0.6412718883382809,0.2885858,0.605632665428141
0.0085,1.79819375,1.0,1147.6672875023246,0.09250895940919761,1.3503743603520306,0.6661074411598854,0.2885771375,0.6085389273211269
0.009000000000000001,1.797975,1.0,1229.5912746198608,0.09759926673109424,1.3491469708089168,0.6886693129808056,0.28856795,0.6112767626752469
0.0095,1.79774375,1.0,1308.9045624229361,0.10266102145279218,1.3479851990905323,0.7091796689113734,0.2885582375,0.6138593788709268
0.01,1.7975,1.0,1385.4837312064617,0.10769438349695896,1.3468842253587965,0.7278441678820012,0.288548,0.6162988973125884
0.0105,1.79724375,1.0,1459.25935043347,0.1126995121770877,1.345839468489054,0.7448505302947662,0.2885372375,0.6186067029183948
0.011,1.796975,1.0,1530.2052530311282,0.11767656667421506,1.3448466051946202,0.7603685025936483,0.28852595000000003,0.6207934275693423
0.0115,1.79669375,1.0,1598.2878145703605,0.12262570364683226,1.3439020728440567,0.7745508046223178,0.2885141375,0.6228678708340597
0.012,1.7964,1.0,1663.5141530516257,0.12754707953731653,1.3430023710597176,0.7875339379250621,0.28850180000000003,0.6248385632889406
0.0125,1.79609375,1.0,1725.913390015608,0.13244085006431303,1.342144223110462,0.7994396227765551,0.2884889375,0.6267134266330943
0.013000000000000001,1.7957750000000001,1.0,1785.5531348319669,0.1373071712750035,1.341324329318044,0.8103761147081018,0.28847555,0.6285003259425623
0.0135,1.79544375,1.0,1842.4732171604112,0.14214619636308198,1.3405400653608313,0.8204398695911422,0.2884616375,0.6302055608547219
0.014,1.7951000000000001,1.0,1896.7243797234225,0.14695807785689607,1.3397889779501726,0.8297166330886808,0.2884472,0.6318349823455903
0.0145,1.79474375,1.0,1948.380789440158,0.15174296828479336,1.339068613797416,0.8382825905490812,0.2884322375,0.6333943722496773
0.015,1.794375,1.0,1997.5223691924234,0.15650101901145783,1.3383766856162047,0.8462055293547392,0.28841675,0.634889090023572
0.0155,1.79399375,1.0,2044.2454965503828,0.16123238184616417,1.3377109301312236,0.853545777202828,0.2884007375,0.6363243867024995
0.016,1.7936,1.0,2088.615321561609,0.16593720536478684,1.3370695849022574,0.8603572281248784,0.2883842,0.6377043843552932
0.0165,1.7931937500000001,1.0,2130.708812005142,0.1706156380206363,1.3364509047472435,0.8666879532067444,0.2883671375,0.6390331272154379
0.017,1.792775,1.0,2170.613894727427,0.17526782812256994,1.335853158077619,0.8725808891594997,0.28834955,0.6403145925041132
0.0175,1.7923437500000001,1.0,2208.4164772276927,0.17989392266108045,1.3352747467355088,0.8780744765364992,0.2883314375,0.641552436866838
0.018000000000000002,1.7919,1.0,2244.2180876439334,0.18449407005207197,1.3347140139248246,0.8832031366880808,0.2883128,0.6427504109768251
0.0185,1.79144375,1.0,2278.0849920189676,0.1890684143057015,1.3341697441325113,0.8879978650446436,0.2882936375,0.6439112949821808
0.019,1.790975,1.0,2310.0904758686715,0.19361709943212613,1.3336407218455142,0.8924865143185071,0.28827395,0.6450378467040951
0.0195,1.79049375,1.0,2340.3142647507425,0.19814026944150284,1.3331257315507785,0.8966941541787592,0.2882537375,0.6461328028659397
0.02,1.79,1.0,2368.8361640726025,0.20263806744874396,1.3326236144581818,0.9006433989299782,0.288233,0.6471987599004301
0.0205,1.78949375,1.0,2395.738282460687,0.20711063684104394,1.3321332403456017,0.9043546764211315,0.2882117375,0.6482382355150855
0.021,1.788975,1.0,2421.098955421793,0.21155812030243634,1.331653561004254,0.9078464805658972,0.28818995000000003,0.6492535569936149
0.021500000000000002,1.78844375,1.0,2444.9777841380555,0.21598065694134255,1.3311837478664845,0.9111356090110106,0.2881676375,0.6502465725418011
0.022,1.7879,1.0,2467.4377179743983,0.22037838586618394,1.3307229723646394,0.9142373016308496,0.2881448,0.6512191184639603
0.0225,1.78734375,1.0,2488.54477713608,0.224751446185382,1.3302704059310648,0.9171654065375234,0.28812143749999997,0.6521730196624033
0.023,1.786775,1.0,2508.367790547677,0.22909997700735812,1.3298252199981064,0.919932526460844,0.28809755,0.6531100900931144
0.0235,1.78619375,1.0,2526.964736804768,0.23342411436992963,1.329386712700719,0.9225501699281413,0.28807313749999996,0.6540318670159884
0.024,1.7856,1.0,2544.410135134846,0.23772399948588674,1.3289540466490566,0.9250288194840693,0.2880482,0.6549401632436553
0.0245,1.78499375,1.0,2560.7525349296357,0.241999766795643,1.3285266482784304,0.9273781001319849,0.2880227375,0.6558362288614175
0.025,1.784375,1.0,2576.0396226831735,0.24625155011483787,1.328103967086537,0.9296068251558134,0.28799675,0.6567212588714177
0.025500000000000002,1.78374375,1.0,2590.3205244294804,0.2504794832591108,1.3276854525710726,0.9317230722902518,0.2879702375,0.6575964418791178
0.026000000000000002,1.7831000000000001,1.0,2603.6456826250355,0.2546837000441012,1.3272705542297334,0.933734255086916,0.2879432,0.6584629602492447
0.0265,1.78244375,1.0,2616.0667397498682,0.2588643342854484,1.3268587215602154,0.9356471864853672,0.2879156375,0.6593219902424157
0.027,1.781775,1.0,2627.6255105672067,0.26302151619398595,1.3264495052066843,0.9374681495452989,0.28788755,0.6601744915507367
0.0275,1.7810937500000001,1.0,2638.37775599288,0.2671553822006914,1.3260423351805297,0.939202917241935,0.2878589375,0.661021669866158
0.028,1.7804,1.0,2648.364003636895,0.27126606301799566,1.3256367905217943,0.9408568343618058,0.2878298,0.6618644153656412
0.0285,1.77969375,1.0,2657.618070720146,0.27535368667241816,1.3252325186243363,0.9424348455052319,0.2878001375,0.6627034720321132
0.029,1.778975,1.0,2666.1743706861043,0.2794183811904785,1.3248291668820131,0.9439415221732923,0.28776995,0.663539580174545
0.029500000000000002,1.7782437500000001,1.0,2674.067860495602,0.28346027459869616,1.3244263826886828,0.9453810957275701,0.2877392375,0.664373476452603
0.03,1.7775,1.0,2681.3339906789624,0.2874794949235906,1.324023813438203,0.9467574870449811,0.287708,0.6652058938933822
0.0305,1.77674375,1.0,2688.0086581445807,0.2914761701916814,1.3236211065244314,0.9480743332350322,0.2876762375,0.6660375619001997
0.031,1.775975,1.0,2694.122889601793,0.2954504263213782,1.3232179575765926,0.9493350171848886,0.28764395,0.6668691068240307
0.0315,1.7751937500000001,1.0,2699.707747386946,0.2994023906102054,1.3228140649910176,0.9505426842139206,0.2876111375,0.667701146186145
0.032,1.7744,1.0,2704.797760786801,0.30333219062966965,1.3224090982753485,0.9517002575158822,0.2875778,0.6685343537923364
0.0325,1.77359375,1.0,2709.416132976346,0.3072399485671408,1.3220028328426998,0.9528104707715634,0.2875439375,0.6693691825295801
0.033,1.772775,1.0,2713.586281185529,0.311125786609989,1.321595044106187,0.9538758724639852,0.28750955,0.6702060829283789
0.0335,1.7719437500000002,1.0,2717.3318156157043,0.3149898269455841,1.3211855074789247,0.9548988406464204,0.2874746375,0.6710455031425562
0.034,1.7711000000000001,1.0,2720.67651947425,0.31883219176129607,1.320773998374028,0.9558815963655904,0.2874392,0.671887888925826
0.0345,1.7702437500000001,1.0,2723.6443301276427,0.32265300324449486,1.3203602922046123,0.956826215876706,0.2874032375,0.6727336836051514
0.035,1.7693750000000001,1.0,2726.258741660311,0.32645238282145683,1.3199441696562895,0.9577346421486255,0.28736675,0.673583317292562
0.035500000000000004,1.76849375,1.0,2728.537768267827,0.330230445199194,1.3195254623140225,0.9586086983539253,0.2873297375,0.674437113944548
0.036000000000000004,1.7676,1.0,2730.509219390725,0.3339873223927742,1.3191039136128602,0.9594500881199158,0.2872922,0.6752955749902942
0.0365,1.76669375,1.0,2732.1874211211334,0.3377231301708848,1.3186793903617493,0.9602604180960852,0.2872541375,0.676158948210025
0.037,1.765775,1.0,2733.586766619595,0.34143798430221334,1.3182517593696355,0.9610411964062499,0.28721555,0.6770274797772056
0.0375,1.76484375,1.0,2734.7217084251533,0.3451320005554472,1.317820887445465,0.9617938397866783,0.2871764375,0.6779014142327073
0.038,1.7639,1.0,2735.606751158928,0.3488052946992738,1.3173866413981843,0.9625196801312216,0.28713679999999997,0.6787809944578456
0.0385,1.76294375,1.0,2736.256444621169,0.3524579825023805,1.3169488880367388,0.9632199704986638,0.28709663750000003,0.6796664616462844
0.039,1.761975,1.0,2736.6853772809413,0.3560901797334548,1.3165074941700754,0.9638958906318456,0.28705595,0.6805580552748077
0.0395,1.7609937500000001,1.0,2736.908170160347,0.35970200216118403,1.3160623266071396,0.9645485520330775,0.2870147375,0.681456013072965
0.04,1.76,1.0,2736.9394711106825,0.36329356555425574,1.3156132521568777,0.9651790026358859,0.286973,0.6823605709915788
0.0405,1.7589937500000001,1.0,2736.7840288427515,0.36686497100090193,1.3151602276829435,0.9657882363751431,0.2869307375,0.6832717821646531
0.041,1.757975,1.0,2736.462035232158,0.37041634612342883,1.3147030700265288,0.9663771842025446,0.28688795,0.6841899799613449
0.0415,1.75694375,1.0,2735.989153482039,0.3739478116204458,1.3142416372506533,0.9669467278308556,0.2868446375,0.6851154126850408
0.042,1.7559,1.0,2735.3727145640487,0.37745947530401597,1.313775863146298,0.9674977048833308,0.28680079999999997,0.6860481750854457
0.0425,1.75484375,1.0,2734.620057863449,0.3809514449862025,1.313305681504443,0.9680309076561605,0.2867564375,0.6869883607686114
0.043000000000000003,1.753775,1.0,2733.7385293133407,0.3844238284790685,1.3128310261160694,0.9685470860266936,0.28671155,0.6879360621784666
0.043500000000000004,1.75269375,1.0,2732.735479627046,0.38787673359467706,1.3123518307721576,0.9690469501468463,0.28666613750000003,0.6888913705780659
0.044,1.7516,1.0,2731.618262626563,0.39131026814509134,1.3118680292636882,0.9695311729395488,0.2866202,0.6898543760305591
0.0445,1.75049375,1.0,2730.3942336692267,0.3947245399423745,1.3113795553816419,0.9700003924144505,0.2865737375,0.6908251673798822
0.045,1.7493750000000001,1.0,2729.070748170849,0.3981196567985897,1.3108863429169992,0.9704552138176167,0.28652675,0.691803832231167
0.0455,1.74824375,1.0,2727.655160226335,0.4014957265258,1.310388325660741,0.9708962116286264,0.2864792375,0.6927904569308732
0.046,1.7471,1.0,2726.15482132753,0.4048528569360686,1.3098854374038476,0.9713239314172776,0.2864312,0.6937851265466393
0.0465,1.7459437500000001,1.0,2724.577079178161,0.4081911558414586,1.3093776119373,0.971738891571022,0.28638263750000004,0.694787924846854
0.047,1.744775,1.0,2722.9292766059325,0.4115107310540331,1.3088647830520783,0.9721415849032803,0.28633355,0.6957989342799509
0.0475,1.74359375,1.0,2721.2141575091714,0.4148116794740042,1.3083469263518652,0.9725324817309524,0.28628393750000003,0.6968181537288183
0.048,1.7424,1.0,2719.437784624836,0.4180941106014706,1.3078239872105302,0.9729120291115971,0.2862338,0.6978456406180209
0.0485,1.74119375,1.0,2717.609636562027,0.42135814040570113,1.3072958798342098,0.973280651300599,0.2861831375,0.698881512235073
0.049,1.739975,1.0,2715.732915905314,0.4246038684530548,1.3067625755202497,0.9736387543216231,0.28613195,0.6999257725133391
0.0495,1.73874375,1.0,2713.8108222819756,0.4278313943098905,1.3062240455659955,0.9739867251334,0.2860802375,0.7009784244808519
0.05,1.7375,1.0,2711.8465520859245,0.4310408175425672,1.3056802612687928,0.9743249326941616,0.286028,0.7020394702507736
0.0505,1.73624375,1.0,2709.8432982196355,0.43423223771744385,1.305131193925987,0.9746537289574086,0.2859752375,0.7031089110118038
0.051000000000000004,1.734975,1.0,2707.8042498546342,0.4374057544008794,1.3045768148349242,0.9749734498040086,0.28592195,0.7041867470185342
0.051500000000000004,1.73369375,1.0,2705.7325922103196,0.4405614671592329,1.3040170952929495,0.9752844159152277,0.2858681375,0.7052729775817528
0.052000000000000005,1.7324,1.0,2703.631506350621,0.44369947555886313,1.303452006597409,0.9755869335909255,0.2858138,0.706367601058693
0.0525,1.73109375,1.0,2701.5041689997447,0.4468198791661291,1.3028815200456476,0.9758812955168003,0.28575893750000003,0.7074706148432333
0.053,1.729775,1.0,2699.3537523750074,0.4499227775473898,1.3023056069350114,0.9761677814842771,0.28570355000000003,0.7085820153560407
0.0535,1.72844375,1.0,2697.1834240389776,0.45300827026900414,1.301724238562846,0.9764466590663423,0.2856476375,0.7097017980346645
0.054,1.7271,1.0,2694.9963467697285,0.4560764568973312,1.3011373862264968,0.9767181842523687,0.2855912,0.7108299573235769
0.0545,1.7257437500000001,1.0,2692.7937772126384,0.45912742657909045,1.3005450386222077,0.9769826020770069,0.2855342375,0.7119664533149734
0.055,1.724375,1.0,2690.5767422334807,0.4621612723299795,1.29994718653283,0.9772401476709192,0.28547675,0.7131112413617336
0.0555,1.72299375,1.0,2688.35136731934,0.4651781147098395,1.299343774029386,0.9774910460978969,0.2854187375,0.7142643652737368
0.056,1.7216,1.0,2686.1188292902098,0.468178045045649,1.2987347904342434,0.9777355128867874,0.2853602,0.715425781199645
0.0565,1.72019375,1.0,2683.880303069758,0.4711611546643866,1.2981202250697699,0.9779737546440334,0.28530113749999997,0.7165954445291766
0.057,1.718775,1.0,2681.636961669029,0.4741275348930308,1.2975000672583328,0.9782059694933711,0.28524155,0.7177733098893095
0.0575,1.71734375,1.0,2679.3899761723337,0.4770772770585601,1.2968743063223003,0.9784323474904227,0.2851814375,0.7189593311404752
0.058,1.7159,1.0,2677.140515726432,0.4800104724879532,1.2962429315840394,0.9786530710138015,0.2851208,0.7201534613727494
0.0585,1.71444375,1.0,2674.889747531807,0.48292721250818854,1.295605932365918,0.9788683151342424,0.2850596375,0.7213556529020293
0.059000000000000004,1.7129750000000001,1.0,2672.638836836249,0.48582758844624474,1.2949632979903036,0.9790782479631511,0.28499795,0.7225658572662097
0.059500000000000004,1.71149375,1.0,2670.3889469314804,0.48871169162910033,1.2943150177795641,0.9792830309818746,0.2849357375,0.7237840252213483
0.06,1.71,1.0,2668.141239151922,0.4915796133837338,1.293661081056067,0.9794828193529004,0.284873,0.7250101067378256
0.0605,1.7084937500000001,1.0,2665.8968728761824,0.49443144503712383,1.2930014771421798,0.9796777622141073,0.2848097375,0.7262440509964945
0.061,1.7069750000000001,1.0,2663.6570055309758,0.4972672779162489,1.2923361953602701,0.9798680029571136,0.28474595,0.7274858063848277
0.0615,1.7054437500000001,1.0,2661.4227925974074,0.5000872033480876,1.2916652250327059,0.9800536794907005,0.2846816375,0.7287353204930518
0.062,1.7039,1.0,2659.1953876205944,0.5028913126596185,1.2909885554818543,0.9802349244902104,0.2846168,0.72999254011028
0.0625,1.70234375,1.0,2656.976124383242,0.5056796961470852,1.2903061743518454,0.9804118654688296,0.2845514375,0.7312574143277932
0.063,1.7007750000000001,1.0,2654.7672230671897,0.5084524378351345,1.289618061096755,0.9805846242848827,0.28448555,0.7325299065260087
0.0635,1.69919375,1.0,2652.5677350555743,0.5112096310790567,1.2889242243547387,0.9807533204560156,0.28441913750000003,0.7338099253221064
0.064,1.6976,1.0,2650.3776985616055,0.5139513609631517,1.2882246636758639,0.9809180680387221,0.2843522,0.7350973955642066
0.0645,1.69599375,1.0,2648.1971517594097,0.5166777125717197,1.287519378610197,0.9810789769282272,0.2842847375,0.7363922414655809
0.065,1.694375,1.0,2646.0261327843928,0.5193887709890606,1.286808368707805,0.9812361530390515,0.28421675,0.7376943866044894
0.0655,1.69274375,1.0,2643.864679733842,0.5220846212994744,1.2860916335187544,0.9813896984764737,0.2841482375,0.7390037539240137
0.066,1.6911,1.0,2641.712830668143,0.5247653485872614,1.285369172593112,0.9815397116994099,0.2840792,0.7403202657318962
0.0665,1.6894437500000001,1.0,2639.5706236114834,0.5274310379367214,1.2846409854809449,0.9816862876751976,0.2840096375,0.7416438437003716
0.067,1.687775,1.0,2637.438096552143,0.5300817744321547,1.2839070717323195,0.9818295180267417,0.28393955,0.7429744088660063
0.0675,1.68609375,1.0,2635.3152874441757,0.532717643157861,1.283167430897303,0.9819694911724485,0.2838689375,0.7443118816295319
0.068,1.6844000000000001,1.0,2633.2081767408663,0.5353387275685615,1.282422007531792,0.9821062897314469,0.2837978,0.7456562808090319
0.0685,1.68269375,1.0,2631.1127424586366,0.5379451100942112,1.2816708387064184,0.982239997768616,0.2837261375,0.7470074573419095
0.069,1.680975,1.0,2629.028829342166,0.5405368727368832,1.2809139257392668,0.9823706947739844,0.28365395,0.7483653262938575
0.0695,1.67924375,1.0,2626.956398627562,0.5431140974862425,1.2801512688717869,0.9824984574831717,0.28358123749999997,0.7497298040482392
0.07,1.6775,1.0,2624.887962001759,0.5456768659845909,1.2793829373960948,0.9826233632214058,0.283508,0.7511006833288578
0.07050000000000001,1.67574375,1.0,2622.848631631629,0.548225259710377,1.2786086984221494,0.98274547280098,0.2834342375,0.7524782945265173
0.07100000000000001,1.673977556030158,1.0,2620.9364719458767,0.5507593588812192,1.2778287963293526,0.9828648667089805,0.28336005735326664,0.7538621171243083
0.07150000000000001,1.6722105498248732,1.0,2619.562813872398,0.5532792435773998,1.277043537202035,0.9829816256590709,0.28328584309264465,0.7552515258118133
0.07200000000000001,1.6704435436195884,1.0,2618.7325387883034,0.5557849936267747,1.276253238632346,0.9830958283339256,0.2832116288320227,0.7566458805648602
0.0725,1.6686765374143038,1.0,2618.3960461062848,0.5582766887127825,1.275458358537998,0.9832075572765442,0.28313741457140074,0.7580443007383667
0.073,1.666909531209019,1.0,2618.5136090506376,0.5607544073482191,1.2746592647091364,0.9833168884400842,0.2830632003107788,0.7594460724152952
0.0735,1.6651425250037342,1.0,2619.0484904594664,0.5632182277484502,1.2738562983237662,0.9834238942867339,0.2829889860501568,0.7608505352946567
0.074,1.6633755187984494,1.0,2619.9707290769015,0.5656682265023429,1.2730497385380586,0.9835286422751375,0.28291477178953484,0.7622571437637049
0.0745,1.6616085125931646,1.0,2621.2398314700695,0.5681044830483855,1.2722399628415455,0.9836312023318916,0.2828405575289129,0.7636651869643939
0.075,1.6598415063878798,1.0,2622.8194115232063,0.5705270763397958,1.271427310963333,0.9837316406686804,0.282766343268291,0.7650740269872901
