Time [s],Phi [rad],STIM [ ],Fsee [N],Gamma [ ],Lcerel [ ],q [ ],Lmtc [m],fisomrel [ ]
0.0,1.8,1.0,17.967280447099977,1.0005717668782105e-05,1.3793397325203487,0.0050000266821372584,0.288653,0.5411395641944845
0.0005,1.79999375,1.0,18.276602984382137,0.005619158902299917,1.37930240346985,0.012940530141999935,0.2886527375,0.541229868373709
0.001,1.799975,1.0,21.618219759003463,0.011196849172487616,1.3789383186390949,0.03560860730626634,0.28865195,0.5421101743207137
0.0015,1.79994375,1.0,31.068990890616252,0.016743253011165873,1.378046224611858,0.07060174748372744,0.2886506375,0.5442635588543385
0.002,1.7999,1.0,53.58189431057437,0.02225854590961839,1.3763681637046468,0.11471788684063722,0.2886488,0.54830039971171
0.0025,1.79984375,1.0,97.11809320309864,0.027742902375040353,1.3739352079513611,0.16457472848601945,0.28864643749999996,0.5541213656070545
0.003,1.7997750000000001,1.0,160.9572032958089,0.03319649593825747,1.3712143798219856,0.2172802835256132,0.28864354999999997,0.560586365476335
0.0035,1.79969375,1.0,237.68231501724193,0.038619499153315945,1.3685847655448693,0.2706127180779763,0.2886401375,0.5667897659701331
0.004,1.7996,1.0,321.4657550530667,0.04401208360826509,1.366156119313717,0.32291563610008556,0.2886362,0.5724798988811193
0.0045000000000000005,1.7994937500000001,1.0,409.26676628642974,0.04937441993034174,1.3639228372766266,0.3730343502846236,0.2886317375,0.5776791087644452
0.005,1.799375,1.0,499.41254425625465,0.054706677777059905,1.361858362744863,0.4202473138791045,0.28862675,0.5824570322436451
0.0055,1.79924375,1.0,590.7894897509407,0.060009025883681996,1.359938853156896,0.4641735627808738,0.2886212375,0.5868750701151096
0.006,1.7991000000000001,1.0,682.517212054074,0.06528163200636074,1.3581464310392788,0.5046798383279717,0.2886152,0.5909793811665406
0.006500000000000001,1.79894375,1.0,773.8805276788861,0.07052466297767812,1.3564672660819674,0.5418006466521641,0.2886086375,0.5948057659822954
0.007,1.798775,1.0,864.2848561607485,0.0757382846905945,1.3548904104233765,0.5756766811465779,0.28860155,0.5983826421859928
0.0075,1.79859375,1.0,953.2422192155933,0.0809226621076944,1.3534067945136583,0.6065098270438075,0.2885939375,0.6017335382384595
0.008,1.7984,1.0,1040.3499127608125,0.08607795911788801,1.352008772106104,0.6345320454615426,0.2885858,0.604878266455207
0.0085,1.79819375,1.0,1125.3170949940802,0.09120433930328255,1.350689200905544,0.659984335494475,0.2885771375,0.6078350904599203
0.009000000000000001,1.797975,1.0,1207.8864063328122,0.09630196446755732,1.3494422232598462,0.6831042300727879,0.28856795,0.6106190452908667
0.0095,1.79774375,1.0,1287.8702947488553,0.10137099579863253,1.3482624137454036,0.7041175724606482,0.2885582375,0.613243913176739
0.01,1.7975,1.0,1365.156211661822,0.10641159388385123,1.3471445245720395,0.7232342445550064,0.288548,0.6157228286340966
0.0105,1.79724375,1.0,1439.6586245106616,0.11142391847809732,1.3460839573347636,0.740646616478711,0.2885372375,0.6180672655469055
0.011,1.796975,1.0,1511.3144260823888,0.11640812765059852,1.3450766487782149,0.756529128539422,0.28852595000000003,0.6202873292984583
0.0115,1.79669375,1.0,1580.100549067503,0.12136437875329677,1.3441187275262803,0.7710386791195549,0.2885141375,0.6223925426201967
0.012,1.7964,1.0,1646.0503824267478,0.1262928300797043,1.3432062425412719,0.7843155863844096,0.28850180000000003,0.6243924588032579
0.0125,1.79609375,1.0,1709.1777088053432,0.131193637145736,1.3423359919011426,0.7964852757426928,0.2884889375,0.6262948617635868
0.013000000000000001,1.7957750000000001,1.0,1769.5031238962258,0.13606695408712377,1.3415051114801533,0.8076594786571819,0.28847555,0.6281066927070411
0.0135,1.79544375,1.0,1827.0787402316876,0.14091293503959945,1.340710737152564,0.8179374937478197,0.2884616375,0.6298348009851928
0.014,1.7951000000000001,1.0,1881.9773810971928,0.14573173364223715,1.3399500927865289,0.8274075668633998,0.2884472,0.631485760250097
0.0145,1.79474375,1.0,1934.2798239301878,0.15052350323735775,1.3392205940728295,0.8361481702043144,0.2884322375,0.6330656522859588
0.015,1.794375,1.0,1984.05532070125,0.15528839525003543,1.3385200191551077,0.8442291799079078,0.28841675,0.6345797086454896
0.0155,1.79399375,1.0,2031.3699503655048,0.16002655958387726,1.3378463779385497,0.851712831070557,0.2884007375,0.6360326049547279
0.016,1.7936,1.0,2076.305998406956,0.16473814614249024,1.3371976803283414,0.8586545437389437,0.2883842,0.6374289680522502
0.0165,1.7931937500000001,1.0,2118.9491389305017,0.16942330384545087,1.336572054087106,0.8651037654984793,0.2883671375,0.638773126299701
0.017,1.792775,1.0,2159.3979204656325,0.17408218259672786,1.3359676290055795,0.8711046457778249,0.28834955,0.6400693630751573
0.0175,1.7923437500000001,1.0,2197.729506397338,0.17871492933461525,1.3353828721731391,0.8766967519280378,0.2883314375,0.6413212023370403
0.018000000000000002,1.7919,1.0,2234.0162978390404,0.18332168958921416,1.3348163963985678,0.881915552118078,0.2883128,0.6425318262202715
0.0185,1.79144375,1.0,2268.3391586519374,0.1879026088906258,1.3342668144906484,0.8867928550923064,0.2882936375,0.6437043900837833
0.019,1.790975,1.0,2300.786700899554,0.19245783276895134,1.3337327392581642,0.8913572340266086,0.28827395,0.6448420240664612
0.0195,1.79049375,1.0,2331.435050377999,0.1969875044827828,1.333212975908156,0.8956344427520475,0.2882537375,0.6459474256582612
0.02,1.79,1.0,2360.380668065689,0.20149177039750701,1.3327061891620509,0.8996476595560122,0.288233,0.6470235704504644
0.0205,1.78949375,1.0,2387.6859890161277,0.2059707712869314,1.3322114306081712,0.9034178911425109,0.2882117375,0.6480725936647713
0.021,1.788975,1.0,2413.417589616483,0.21042464788972004,1.3317277542610395,0.9069641290252566,0.28818995000000003,0.6490966105004062
0.021500000000000002,1.78844375,1.0,2437.6460718910635,0.21485354094453704,1.3312542141351793,0.9103035700054887,0.2881676375,0.6500977219951684
0.022,1.7879,1.0,2460.4457225836027,0.21925759119004645,1.3307898642451133,0.9134518105291668,0.2881448,0.6510780156654961
0.0225,1.78734375,1.0,2481.8799649006564,0.22363693682524258,1.3303338942226905,0.9164230433369311,0.28812143749999997,0.6520392803816081
0.023,1.786775,1.0,2502.027543641539,0.22799172010200422,1.3298853751235094,0.9192301592262735,0.28809755,0.6529835436212421
0.0235,1.78619375,1.0,2520.943250994225,0.23232207766119092,1.329443630802167,0.921884947655171,0.28807313749999996,0.6539122899358591
0.024,1.7856,1.0,2538.6788217692997,0.236628145052668,1.3290080340903052,0.924398173468135,0.2880482,0.6548268925511243
0.0245,1.78499375,1.0,2555.2878808431415,0.24091005782630068,1.3285779578195651,0.9267796723573257,0.2880227375,0.6557287169487376
0.025,1.784375,1.0,2570.825783536523,0.2451679515319543,1.3281527748215887,0.9290384438102743,0.28799675,0.6566191210997823
0.025500000000000002,1.78374375,1.0,2585.3494647147313,0.24940196171949416,1.3277318579280168,0.9311827336289322,0.2879702375,0.6574994556729916
0.026000000000000002,1.7831000000000001,1.0,2598.9057866599405,0.253612220394879,1.3273146871878245,0.9332201231577263,0.2879432,0.65837084040541
0.0265,1.78244375,1.0,2611.5576072954573,0.25779886578036837,1.3269006050849683,0.9351575581116173,0.2879156375,0.6592346760047245
0.027,1.781775,1.0,2623.3461225797996,0.2619620292176879,1.3264891662595557,0.9370014577765905,0.28788755,0.6600919142702175
0.0275,1.7810937500000001,1.0,2634.3091447098186,0.2661018406587733,1.326079965041679,0.9387577396191508,0.2878589375,0.6609434196378106
0.028,1.7804,1.0,2644.48527904815,0.2702184300555604,1.3256725957614315,0.9404318601477637,0.2878298,0.661790052200291
0.0285,1.77969375,1.0,2653.913855047894,0.27431192735998494,1.3252666527489052,0.9420288568698956,0.2878001375,0.662632667759959
0.029,1.778975,1.0,2662.634860825184,0.27838246252398274,1.3248617303341934,0.9435533859239918,0.28776995,0.6634721178707711
0.029500000000000002,1.7782437500000001,1.0,2670.6888813811875,0.2824301654994895,1.3244574228473887,0.9450097558793213,0.2877392375,0.6643092498699963
0.03,1.7775,1.0,2678.1066197076557,0.2864551590224266,1.3240534202438385,0.9464019683914853,0.287708,0.6651447092738207
0.0305,1.77674375,1.0,2684.9375229050675,0.29045758108590247,1.3236492446452288,0.9477337177497587,0.2876762375,0.6659794848232552
0.031,1.775975,1.0,2691.2076738734822,0.2944375558855156,1.3232446364144155,0.9490084570186308,0.28764395,0.6668141104251031
0.0315,1.7751937500000001,1.0,2696.942609443147,0.2983952070435533,1.3228393438257813,0.9502293958800319,0.2876111375,0.6676491010144738
0.032,1.7744,1.0,2702.168152948431,0.30233065818230276,1.3224331151537094,0.9513995200502583,0.2875778,0.6684849689166925
0.0325,1.77359375,1.0,2706.910387243591,0.30624403292405117,1.3220256986725833,0.9525216096508279,0.2875439375,0.669322223834294
0.033,1.772775,1.0,2711.195629122891,0.31013545489108574,1.3216168426567858,0.9535982558610733,0.28750955,0.6701613728299753
0.0335,1.7719437500000002,1.0,2715.0504051462995,0.3140050477056937,1.3212062953807,0.954631876031543,0.2874746375,0.6710029203055055
0.034,1.7711000000000001,1.0,2718.5014288694388,0.3178529349901623,1.3207938051187091,0.955624727416852,0.2874392,0.6718473679765933
0.0345,1.7702437500000001,1.0,2721.569397187247,0.32167923562562223,1.3203791764216763,0.9565789246333478,0.2874032375,0.6726950998576798
0.035,1.7693750000000001,1.0,2724.2776138806557,0.32548407297162335,1.3199621913353154,0.9574964444258676,0.28736675,0.6735465437369356
0.035500000000000004,1.76849375,1.0,2726.6547427394567,0.3292675747363347,1.3195425842768396,0.9583791334482112,0.2873297375,0.67440222204617
0.036000000000000004,1.7676,1.0,2728.7160196303485,0.33302985752108377,1.3191202127850357,0.9592287321469722,0.2872922,0.6752624036735764
0.0365,1.76669375,1.0,2730.476761162324,0.336771037927198,1.318694934398691,0.9600468726118379,0.2872541375,0.6761273558310399
0.037,1.765775,1.0,2731.9523558127084,0.3404912325560048,1.3182666066565922,0.9608350865415445,0.28721555,0.6769973440283737
0.0375,1.76484375,1.0,2733.158255503087,0.3441905580088317,1.3178350870975268,0.9615948125387118,0.2871764375,0.6778726320462612
0.038,1.7639,1.0,2734.109967625159,0.3478691308870061,1.3174002332602817,0.9623274027968873,0.28713679999999997,0.6787534819079044
0.0385,1.76294375,1.0,2734.823047516877,0.35152706779185544,1.3169619026836439,0.9630341292365626,0.28709663750000003,0.6796401538493759
0.039,1.761975,1.0,2735.3130913878963,0.35516448532470724,1.3165199529064004,0.9637161891410737,0.28705595,0.68053290628868
0.0395,1.7609937500000001,1.0,2735.5957296959855,0.35878150008688886,1.3160742414673383,0.9643747103381153,0.2870147375,0.6814319957935163
0.04,1.76,1.0,2735.6820617529597,0.3623782235687765,1.315624667299957,0.9650107587289377,0.286973,0.6823375937238249
0.0405,1.7589937500000001,1.0,2735.585501306965,0.36595477252431297,1.3151711085295215,0.9656253388904296,0.2869307375,0.683249911824849
0.041,1.757975,1.0,2735.3220596006313,0.36951126585776334,1.314713419862566,0.9662193973855671,0.28688795,0.6841692071377813
0.0415,1.75694375,1.0,2734.9002955874043,0.37304781320680264,1.314251523797141,0.9667938324455974,0.2868446375,0.6850955988238996
0.042,1.7559,1.0,2734.328779845543,0.3765645242091058,1.3137853428312964,0.9673494930242544,0.28680079999999997,0.686029204796702
0.0425,1.75484375,1.0,2733.6160921742803,0.38006150850234777,1.3133147994630823,0.96788718200196,0.2867564375,0.6869701417009202
0.043000000000000003,1.753775,1.0,2732.7708193222365,0.38353887572420364,1.3128398161905492,0.9684076591502365,0.28671155,0.6879185248911459
0.043500000000000004,1.75269375,1.0,2731.801552851177,0.3869967355123483,1.312360315511747,0.968911643876518,0.28666613750000003,0.6888744684100827
0.044,1.7516,1.0,2730.716887130019,0.39043519750445677,1.311876219924726,0.96939981776767,0.2866202,0.6898380849664028
0.0445,1.75049375,1.0,2729.5254174648417,0.393854371338204,1.3113874519275366,0.9698728269488383,0.2865737375,0.6908094859122325
0.045,1.7493750000000001,1.0,2728.235738360158,0.39725436665126507,1.3108939340182286,0.9703312842727216,0.28652675,0.6917887812202466
0.0455,1.74824375,1.0,2726.8511846094025,0.4006352820152063,1.3103956365049443,0.9707757734045278,0.2864792375,0.6927759848172529
0.046,1.7471,1.0,2725.3812111058996,0.4039972319737679,1.3098924740406097,0.9712068466548365,0.2864312,0.6937712198118304
0.0465,1.7459437500000001,1.0,2723.837165495062,0.40734033448098744,1.3093843440034658,0.9716250279072672,0.28638263750000004,0.694774641854417
0.047,1.744775,1.0,2722.223215321511,0.4106646915748315,1.308871209037735,0.9720308177279102,0.28633355,0.6957862762358668
0.0475,1.74359375,1.0,2720.543526099745,0.4139704052932666,1.3083530317876408,0.9724246921881372,0.28628393750000003,0.6968061472811549
0.048,1.7424,1.0,2718.802260798763,0.4172575776742594,1.3078297748974057,0.972807104288841,0.2862338,0.6978342783374124
0.0485,1.74119375,1.0,2717.0035793589923,0.4205263107557764,1.3073014010112525,0.9731784852890802,0.2861831375,0.6988706917618668
0.049,1.739975,1.0,2715.151638238622,0.42377670657578415,1.306767872773404,0.973539245946371,0.28613195,0.6999154089096958
0.0495,1.73874375,1.0,2713.2505899919925,0.42700886717224923,1.3062291528280834,0.9738897776752561,0.2860802375,0.7009684501217932
0.05,1.7375,1.0,2711.304582878716,0.4302228945831383,1.3056852038195133,0.9742304536302302,0.286028,0.7020298347124447
0.0505,1.73624375,1.0,2709.3177605031947,0.43341889084641777,1.3051359883919165,0.9745616297185993,0.2859752375,0.703099580956914
0.051000000000000004,1.734975,1.0,2707.294261485788,0.43659695800005427,1.304581469189516,0.9748836455483924,0.28592195,0.7041777060789413
0.051500000000000004,1.73369375,1.0,2705.238219164399,0.4397571980820144,1.3040216088565344,0.9751968253160327,0.2858681375,0.7052642262381519
0.052000000000000005,1.7324,1.0,2703.153761327196,0.4428997131302647,1.303456370037195,0.9755014786380924,0.2858138,0.7063591565173755
0.0525,1.73109375,1.0,2701.0384889716306,0.44602459112801535,1.302885774960626,0.9757979036150509,0.28575893750000003,0.7074623958115467
0.053,1.729775,1.0,2698.8970826518826,0.4491319381398842,1.3023097811812558,0.9760863830486648,0.28570355000000003,0.7085739674813176
0.0535,1.72844375,1.0,2696.739534734722,0.45222186792229074,1.3017282976155213,0.9763671851198007,0.2856476375,0.7096939873024215
0.054,1.7271,1.0,2694.567260843172,0.45529447429199926,1.3011413114993053,0.9766405691316034,0.2855912,0.7108224187132601
0.0545,1.7257437500000001,1.0,2692.3816744946985,0.45834985106577436,1.30054881006849,0.9769067832504363,0.2855342375,0.7119592243826999
0.055,1.724375,1.0,2690.1841870627845,0.46138809206038034,1.299950780558959,0.9771660650752466,0.28547675,0.7131043662055843
0.0555,1.72299375,1.0,2687.9762077421246,0.46440929109258183,1.2993472102065944,0.9774186421732322,0.2854187375,0.714257805298243
0.056,1.7216,1.0,2685.7591435169675,0.46741354197914314,1.2987380862472793,0.9776647325840657,0.2853602,0.7154195019939833
0.0565,1.72019375,1.0,2683.5343991337572,0.4704009385368288,1.2981233959168963,0.9779045452947659,0.28530113749999997,0.7165894158385763
0.057,1.718775,1.0,2681.3033770769366,0.47337157458240325,1.297503126451328,0.9781382806871476,0.28524155,0.7177675055857309
0.0575,1.71734375,1.0,2679.067477548126,0.47632554393263093,1.2968772650864575,0.9783661309596468,0.2851814375,0.718953729192555
0.058,1.7159,1.0,2676.8280984496364,0.47926294040427636,1.2962457990581673,0.9785882805251784,0.2851208,0.7201480438150127
0.0585,1.71444375,1.0,2674.5866353711695,0.48218385781410394,1.2956087156023404,0.978804906386571,0.2850596375,0.7213504058033631
0.059000000000000004,1.7129750000000001,1.0,2672.344481579901,0.48508838997887815,1.2949660019548592,0.979016178491009,0.28499795,0.7225607706975956
0.059500000000000004,1.71149375,1.0,2670.1030280148007,0.48797663071536346,1.2943176453516068,0.9792222600648105,0.2849357375,0.7237790932228503
0.06,1.71,1.0,2667.863663283741,0.4908486738403242,1.2936636330284659,0.9794233079297824,0.284873,0.7250053272848296
0.0605,1.7084937500000001,1.0,2665.628706881264,0.49370458704071535,1.2930039436377125,0.979619470235852,0.2848097375,0.7262394420049368
0.061,1.7069750000000001,1.0,2663.3997992120085,0.49654449221245567,1.2923385620446588,0.9798108940846392,0.28474595,0.7274813939466237
0.0615,1.7054437500000001,1.0,2661.177306469638,0.49936847854969285,1.2916674848192207,0.9799977189522836,0.2846816375,0.7287311170256048
0.062,1.7039,1.0,2658.9616070857837,0.5021766318503752,1.2909907084130312,0.9801800787494063,0.2846168,0.7299885446979664
0.0625,1.70234375,1.0,2656.7530788683703,0.5049690379124507,1.2903082292777242,0.9803581023436977,0.2845514375,0.7312536097373481
0.063,1.7007750000000001,1.0,2654.5520990064306,0.5077457825338679,1.2896200438649326,0.9805319137858363,0.28448555,0.732526244233656
0.0635,1.69919375,1.0,2652.3590440747053,0.5105069515125747,1.2889261486262902,0.9807016325236549,0.28441913750000003,0.7338063795917694
0.064,1.6976,1.0,2650.1742900383015,0.5132526306465195,1.28822654001343,0.9808673736052493,0.2843522,0.7350939465302506
0.0645,1.69599375,1.0,2647.9982122583738,0.5159829057336505,1.2875212144779855,0.9810292478716738,0.2842847375,0.7363888750800518
0.065,1.694375,1.0,2645.831185497336,0.5186978625719156,1.2868101684715902,0.981187362139831,0.28421675,0.7376910945832207
0.0655,1.69274375,1.0,2643.673583924649,0.5213975869592634,1.2860933984458776,0.9813418193761217,0.2841482375,0.7390005336916082
0.066,1.6911,1.0,2641.525781122949,0.524082164693642,1.2853709008524807,0.9814927188613838,0.2840792,0.7403171203655727
0.0665,1.6894437500000001,1.0,2639.3881500945854,0.5267516815729995,1.284642672143033,0.9816401563476164,0.2840096375,0.7416407818726842
0.067,1.687775,1.0,2637.261063267693,0.5294062233952841,1.2839087087691683,0.9817842242069534,0.28393955,0.7429714447864273
0.0675,1.68609375,1.0,2635.1448925038376,0.5320458759584441,1.2831690071825195,0.9819250115733215,0.2838689375,0.7443090349849051
0.068,1.6844000000000001,1.0,2633.0400091046163,0.5346707250604276,1.28242356383472,0.9820626044771904,0.2837978,0.7456534776495405
0.0685,1.68269375,1.0,2630.9417129563,0.5372807886703155,1.2816724221250066,0.9821970838043247,0.2837261375,0.7470046129280359
0.069,1.680975,1.0,2628.855899681089,0.5398762235468089,1.2809155273845383,0.9823285320057723,0.28365395,0.7483624568694729
0.0695,1.67924375,1.0,2626.7838553895062,0.542457126153171,1.280152867568276,0.9824570268177248,0.28358123749999997,0.7497269476826275
0.07,1.6775,1.0,2624.725347743299,0.5450235728764169,1.2793844446879137,0.9825826427273029,0.283508,0.7510979976607975
0.07050000000000001,1.67574375,1.0,2622.6801448378983,0.5475756401035616,1.2786102607551448,0.9827054517225362,0.2834342375,0.7524755185011167
0.07100000000000001,1.673975,1.0,2620.648015197332,0.5501134042216204,1.2778303177816637,0.9828255233915756,0.28335995,0.7538594213052927
0.07150000000000001,1.67219375,1.0,2618.6287277693605,0.5526369416176081,1.2770446177791637,0.9829429250173181,0.2832851375,0.755249616580348
0.07200000000000001,1.6704,1.0,2616.6220519202157,0.55514632867854,1.2762531627593388,0.983057721667683,0.2832098,0.7566460142393568
0.0725,1.66859375,1.0,2614.6277574295277,0.5576416417914308,1.275455954733883,0.9831699762817663,0.2831339375,0.7580485236021842
0.073,1.6667750000000001,1.0,2612.6456144858876,0.5601229573432961,1.2746529957144899,0.9832797497520886,0.28305755,0.7594570533962258
0.0735,1.66494375,1.0,2610.6753936816012,0.5625903517211507,1.2738442877128533,0.9833871010031354,0.2829806375,0.760871511757143
0.074,1.6631,1.0,2608.7168660083344,0.5650439013120097,1.273029832740667,0.9834920870663815,0.2829032,0.7622918062296027
0.0745,1.6612437500000001,1.0,2606.7698028523323,0.567483682502888,1.272209632809625,0.9835947631519767,0.2828252375,0.7637178437680137
0.075,1.659375,1.0,2604.833975990218,0.569909771680801,1.2713836899314213,0.9836951827172651,0.28274675,0.7651495307372647
0.0755,1.65749375,1.0,2602.9091575842895,0.5723222452327638,1.270552006117749,0.9837933975322909,0.2826677375,0.7665867729134612
