Time [s],Phi [rad],STIM [ ],Fsee [N],Gamma [ ],Lcerel [ ],q [ ],Lmtc [m],fisomrel [ ]
0.0,1.8,1.0,18.015713591820607,0.00022622996051749369,1.379334310058637,0.005013308389309515,0.288653,0.5411526824373017
0.0005,1.79999375,1.0,18.395543436263594,0.005834170298183382,1.3792892128754566,0.01355170725695692,0.2886527375,0.5412617761362137
0.001,1.799975,1.0,21.89779218213237,0.011410654524459463,1.378909856049964,0.03674424818631804,0.28865195,0.5421789572327665
0.0015,1.79994375,1.0,31.695638723650728,0.016955859084237412,1.3779931026819383,0.07215047093323855,0.2886506375,0.5443916273114848
0.002,1.7999,1.0,54.899024065631636,0.022469959430559135,1.3762832334818176,0.1165483482015059,0.2886488,0.5485042353331249
0.0025,1.79984375,1.0,99.30410772688855,0.027953130033421855,1.3738304548579858,0.16656377409054673,0.28864643749999996,0.5543711448363247
0.003,1.7997750000000001,1.0,163.78346375322823,0.0334055443856602,1.371109050247185,0.21933078975403117,0.28864354999999997,0.5608356914050776
0.0035,1.79969375,1.0,240.86566664695437,0.03882737500410355,1.3684870358266237,0.2726511405569147,0.2886401375,0.5670194656495808
0.004,1.7996,1.0,324.8466554625137,0.04421879343983111,1.366066806249077,0.32488865453009935,0.2886362,0.5726884354674766
0.0045000000000000005,1.7994937500000001,1.0,412.76380836107404,0.0495799702835316,1.3638409228811716,0.3749067544623319,0.2886317375,0.5778692054750552
0.005,1.799375,1.0,502.9777226820435,0.05491107515737069,1.3617827376535805,0.42199874554216915,0.28862675,0.5826315393363539
0.0055,1.79924375,1.0,594.3837796274518,0.060212276753075715,1.359868735878437,0.4657948936060231,0.2886212375,0.5870360106417596
0.006,1.7991000000000001,1.0,686.1129136597294,0.06548374279888805,1.3580811565703677,0.506169697316399,0.2886152,0.5911284608074867
0.006500000000000001,1.79894375,1.0,777.4518792772723,0.07072564007194238,1.356406370913036,0.5431628090113648,0.2886086375,0.5949441925146663
0.007,1.798775,1.0,867.8127531426445,0.07593813449090112,1.3548334815859717,0.5769179819569984,0.28860155,0.598511480693807
0.0075,1.79859375,1.0,956.7049222410119,0.08112139083120855,1.3533535828145487,0.6076388178809269,0.2885939375,0.6018534614544704
0.008,1.7984,1.0,1043.7519302567111,0.08627557337020211,1.3519587249280505,0.6355577533009537,0.2885858,0.6049906120759596
0.0085,1.79819375,1.0,1128.6321869890614,0.09140084493034976,1.3506423059629704,0.6609161497435103,0.2885771375,0.6079399657811564
0.009000000000000001,1.797975,1.0,1211.0995544267037,0.09649736760845339,1.3493983483193581,0.6839511193225042,0.28856795,0.6107168182133434
0.0095,1.79774375,1.0,1290.9969462805873,0.1015653031506399,1.3482210645137085,0.7048877489267833,0.2885582375,0.6133357469035067
0.01,1.7975,1.0,1368.1847265778695,0.10660481146907483,1.3471056213782513,0.7239354868052047,0.288548,0.6158089528304147
0.0105,1.79724375,1.0,1442.5729532259556,0.11161605191118164,1.3460475007039003,0.7412860359964141,0.2885372375,0.6181477272212503
0.011,1.796975,1.0,1514.1269711753018,0.11659918338373094,1.3450423082046645,0.7571129801402771,0.28852595000000003,0.6203629003469302
0.0115,1.79669375,1.0,1582.8281041178848,0.12155436371942091,1.34408615651498,0.7715725643857556,0.2885141375,0.6224640207102956
0.012,1.7964,1.0,1648.667074394844,0.12648174911561752,1.3431756267193604,0.7848047361321643,0.28850180000000003,0.6244594681944331
0.0125,1.79609375,1.0,1711.6693648007729,0.13138149533053256,1.3423073815191018,0.7969342903139536,0.2884889375,0.626357323206429
0.013000000000000001,1.7957750000000001,1.0,1771.8919482450096,0.13625375830486322,1.3414781527502024,0.8080722882095865,0.28847555,0.628165405594099
0.0135,1.79544375,1.0,1829.3864793092985,0.14109869237917755,1.3406851065758536,0.81831760273736,0.2884616375,0.6298904915733395
0.014,1.7951000000000001,1.0,1884.197942979583,0.14591644983795218,1.3399257922977794,0.8277582075563691,0.2884472,0.6315384430188997
0.0145,1.79474375,1.0,1936.3952079730645,0.1507071829656637,1.3391977592177047,0.836472260752659,0.2884322375,0.6331150514722195
0.015,1.794375,1.0,1986.0612181609467,0.15547104345238863,1.3384986390670053,0.8445292651118445,0.28841675,0.6346258652735501
0.0155,1.79399375,1.0,2033.286547105784,0.1602081830403789,1.3378261886410134,0.851991095227931,0.2884007375,0.6360761041718317
0.016,1.7936,1.0,2078.1518755369857,0.16491875187169405,1.3371784472856392,0.8589129430478061,0.2883842,0.637470327442747
0.0165,1.7931937500000001,1.0,2120.724979543555,0.16960289782301313,1.3365537376865915,0.8653441035220073,0.2883671375,0.6388124414833705
0.017,1.792775,1.0,2161.085888333652,0.17426076877101515,1.335950382529579,0.871328588089355,0.28834955,0.6401063153004767
0.0175,1.7923437500000001,1.0,2199.325848968865,0.17889251259237915,1.3353667045003106,0.8769057491468392,0.2883314375,0.6413557828845706
0.018000000000000002,1.7919,1.0,2235.5247677322673,0.18349827525438447,1.334801243086651,0.8821108847166069,0.2883128,0.6425641824860755
0.0185,1.79144375,1.0,2269.788964898421,0.18807820500389294,1.3342523609592083,0.8869756095963139,0.2882936375,0.6437352015089131
0.019,1.790975,1.0,2302.184392027406,0.19263244522131742,1.3337189037706887,0.8915284442259974,0.28827395,0.6448714708740109
0.0195,1.79049375,1.0,2332.7816945509417,0.19716113912332478,1.333199733533382,0.8957950535226509,0.2882537375,0.6459755662413367
0.02,1.79,1.0,2361.657310095711,0.20166442992658196,1.3326937122595792,0.8997985670957193,0.288233,0.6470500440782536
0.0205,1.78949375,1.0,2388.890224121083,0.20614246071041262,1.3321997287371534,0.9035598698518569,0.2882117375,0.6480973859278115
0.021,1.788975,1.0,2414.538569253345,0.2105953725361363,1.3317169195223024,0.9070978981103405,0.28818995000000003,0.6491195322150329
0.021500000000000002,1.78844375,1.0,2438.732737945924,0.21502330913201953,1.3312437633297618,0.9104296602593384,0.2881676375,0.6501197999207167
0.022,1.7879049483647314,1.0,2461.7249804322246,0.21942640883583261,1.3307798533322506,0.9135708138675956,0.2881450078313187,0.6510991346603789
0.0225,1.7873660708248134,1.0,2483.8937303432763,0.22380480998534596,1.3303247827024878,0.9165355790755051,0.28812237497464216,0.6520584755502368
0.023,1.7868271932848956,1.0,2505.272984588419,0.22815865091832987,1.3298781446131922,0.9193368903624549,0.28809974211796563,0.65299875544183
0.0235,1.7862883157449778,1.0,2525.89439728239,0.23248806997255472,1.329439532237083,0.9219865305126657,0.28807710926128904,0.6539209011460838
0.024,1.78574943820506,1.0,2545.7878318955363,0.23679320459012695,1.3290085664025229,0.924495253583501,0.2880544764046125,0.6548257756178467
0.0245,1.7852105606651423,1.0,2564.978024240917,0.24107419157343443,1.3285849257032774,0.926872894632765,0.288031843547936,0.6557141154354965
0.025,1.7846716831252243,1.0,2583.489340850499,0.24533116561205606,1.3281683004184894,0.9291284525498155,0.2880092106912594,0.6565866281901789
0.025500000000000002,1.7841328055853065,1.0,2601.346536014275,0.24956426097566503,1.3277583847877579,0.9312701722524965,0.28798657783458287,0.6574440089327809
0.026000000000000002,1.7835939280453887,1.0,2618.5731234247523,0.25377361047065083,1.3273548916200675,0.9333056200172396,0.28796394497790634,0.6582869098610136
0.0265,1.783055050505471,1.0,2635.1852854170716,0.2579593408441917,1.3269576079339935,0.9352417553905519,0.28794131212122975,0.6591158246622479
0.027,1.7825161729655532,1.0,2651.229573861789,0.2621216011966415,1.3265660457562947,0.9370849470893147,0.2879186792645532,0.6599318168338574
0.0275,1.7819772954256352,1.0,2666.7236513363505,0.2662605195195492,1.326179990797407,0.9388410929977176,0.2878960464078767,0.660735375010853
0.028,1.7814384178857174,1.0,2681.6856586649837,0.27037622380446363,1.325799228767767,0.9405156315378764,0.2878734135512001,0.6615269851222203
0.0285,1.7808995403457997,1.0,2696.1341892623177,0.27446884204293376,1.325423545377811,0.942113583497466,0.2878507806945236,0.6623071304647189
0.029,1.780360662805882,1.0,2710.088264494856,0.2785385022265084,1.325052726337975,0.9436395895463314,0.28782814783784705,0.6630762917737549
0.029500000000000002,1.7798217852659641,1.0,2723.567310060792,0.2825853323467365,1.3246865573586954,0.9450979439333105,0.28780551498117046,0.6638349472913221
0.03,1.7792829077260461,1.0,2736.5911333882336,0.2866094603951669,1.3243248241504086,0.9464926247937921,0.28778288212449393,0.6645835728310157
0.0305,1.7787440301861284,1.0,2749.1799020509957,0.2906110143633486,1.3239673124235507,0.947827321445829,0.2877602492678174,0.6653226418401196
0.031,1.7782051526462106,1.0,2761.354123202661,0.2945901222428304,1.323613807888558,0.94910545900681,0.2877376164111408,0.6660526254587611
0.0315,1.7776662751062928,1.0,2773.1346240292896,0.2985469120251612,1.3232640962558668,0.950330220622831,0.2877149835544643,0.6667739925761406
0.032,1.777127397566375,1.0,2784.5295085657535,0.30248149949884184,1.3229180804492802,0.9515045781450052,0.28769235069778776,0.6674869684915569
0.0325,1.7765885200264573,1.0,2795.5691272831614,0.3063940248847117,1.32257546520852,0.9526312825556165,0.28766971784111117,0.668192185094091
0.033,1.7760496424865393,1.0,2806.266036216474,0.3102846091994703,1.3222361178510855,0.9537129115517314,0.28764708498443464,0.6688899373477721
0.0335,1.7755107649466215,1.0,2816.6321983774997,0.3141533726598708,1.3218999126645523,0.9547518706750227,0.2876244521277581,0.6695805045489591
0.034,1.7749718874067038,1.0,2826.679747744315,0.318000435482666,1.321566723936495,0.9557504063395076,0.2876018192710815,0.6702641647217795
0.0345,1.774433009866786,1.0,2836.4209806781246,0.32182591788460885,1.3212364259544893,0.9567106182450694,0.287579186414405,0.6709411946428122
0.035,1.7738941323268682,1.0,2845.868347691014,0.3256299400824524,1.3209088930061101,0.9576344706839744,0.28755655355772847,0.6716118698647735
0.035500000000000004,1.7733552547869502,1.0,2855.0344455638287,0.32941262229294943,1.320583999378933,0.958523802850714,0.2875339207010519,0.6722764647391846
0.036000000000000004,1.7728163772470324,1.0,2863.9320098149024,0.33317408473285304,1.3202616193605328,0.959380338253412,0.28751128784437535,0.6729352524380396
0.0365,1.7722774997071147,1.0,2872.5739075183455,0.3369144476189161,1.319941627238485,0.960205693314401,0.2874886549876988,0.673588504974459
0.037,1.771738622167197,1.0,2880.9731304735947,0.34063383116789153,1.3196238973003644,0.96100138523818,0.28746602213102224,0.6742364932223408
0.0375,1.7711997446272791,1.0,2889.1342196037817,0.3443323421586767,1.3193083795413478,0.9617688437285357,0.2874433892743457,0.6748793327636434
0.038,1.7706608670873614,1.0,2897.0764493196484,0.3480101143951903,1.3189948945394199,0.9625094060851791,0.2874207564176692,0.6755174019699758
0.0385,1.7701219895474434,1.0,2904.809212295212,0.35166726434064943,1.3186833511813154,0.9632243351246906,0.2873981235609926,0.6761508982137959
0.039,1.7695831120075256,1.0,2912.3395996963313,0.35530390444242266,1.3183736793187961,0.9639148208935361,0.28737549070431606,0.6767799755006773
0.0395,1.7690442344676078,1.0,2919.674767829477,0.3589201471478785,1.318065808803624,0.9645819845976238,0.28735285784763953,0.6774047872133182
0.04,1.76850535692769,1.0,2926.821935285829,0.3625161049043855,1.317759669487561,0.9652268833230699,0.28733022499096295,0.6780254861197574
0.0405,1.7679664793877723,1.0,2933.788380194683,0.36609189015931215,1.3174551912223693,0.9658505143849725,0.2873075921342864,0.6786422243812785
0.041,1.7674276018478543,1.0,2940.5814375846976,0.369647615360027,1.3171523038598103,0.9664538193371346,0.2872849592776099,0.6792551535599954
0.0415,1.7668887243079365,1.0,2947.2084968553977,0.37318339295389846,1.3168509372516466,0.9670376876724415,0.2872623264209333,0.6798644246261261
0.042,1.7663498467680188,1.0,2953.6769993578187,0.3766993353882952,1.3165510212496394,0.9676029602407366,0.28723969356425677,0.6804701879649565
0.0425,1.765810969228101,1.0,2959.9944360828836,0.3801955551105856,1.3162524857055513,0.9681504324084504,0.28721706070758024,0.6810725933834824
0.043000000000000003,1.7652720916881832,1.0,2966.1683454608583,0.38367216456813835,1.3159552604711438,0.9686808569819445,0.2871944278509037,0.6816717901167466
0.043500000000000004,1.7647332141482652,1.0,2972.202514694196,0.3871292650503496,1.315659308468612,0.9691949478209034,0.2871717949942271,0.6822678602586663
0.044,1.7641943366083475,1.0,2978.1040740319036,0.39056697130267054,1.315364563775223,0.9696933812115306,0.2871491621375506,0.6828609436060693
0.0445,1.7636554590684297,1.0,2983.8828227664276,0.39398540609376925,1.3150709376133933,0.9701767977844095,0.287126529280874,0.6834512253552845
0.045,1.763116581528512,1.0,2989.5425788114,0.39738467364266383,1.3147783935755628,0.9706458065689526,0.2871038964241975,0.6840387848787886
0.0455,1.7625777039885941,1.0,2995.087183926231,0.4007648781683725,1.3144868952541715,0.9711009857051054,0.28708126356752095,0.684623701254438
0.046,1.7620388264486762,1.0,3000.5205028571972,0.4041261238899133,1.3141964062416596,0.9715428843083286,0.28705863071084436,0.6852060532679402
0.0465,1.7614999489087584,1.0,3005.8464225087127,0.4074685150263045,1.3139068901304665,0.971972024204704,0.28703599785416783,0.68578591941524
0.047,1.7609610713688406,1.0,3011.0688511424355,0.41079215579656414,1.3136183105130326,0.9723889015463636,0.2870133649974913,0.6863633779048186
0.0475,1.7604221938289228,1.0,3016.1917176070747,0.41409715041971046,1.3133306309817974,0.9727939883165548,0.2869907321408148,0.686938506659913
0.048,1.759883316289005,1.0,3021.2189705970686,0.4173836031147616,1.3130438151292014,0.9731877337328514,0.2869680992841382,0.6875113833206452
0.0485,1.7593444387490873,1.0,3026.1545779408575,0.4206516181007356,1.312757826547684,0.9735705655562906,0.28694546642746166,0.6880820852460741
0.049,1.7588055612091693,1.0,3031.0025259180607,0.42390129959665074,1.3124726288296855,0.9739428913135572,0.2869228335707851,0.688650689516153
0.0495,1.7582666836692515,1.0,3035.7668186068067,0.4271327518215251,1.3121881855676458,0.9743050994387388,0.28690020071410854,0.6892172729336133
0.05,1.7577278061293338,1.0,3040.4514772596854,0.4303460789943769,1.3119044603540047,0.9746575603406298,0.286877567857432,0.6897819120257562
0.0505,1.757188928589416,1.0,3045.059489535751,0.43354137905677226,1.3116214258187504,0.9750006272842979,0.2868549350007555,0.6903446650851054
0.051000000000000004,1.7566500510494982,1.0,3049.5907807530557,0.43671873535280137,1.3113390810368941,0.9753346375605941,0.28683230214407895,0.6909055376884639
0.051500000000000004,1.7561111735095802,1.0,3054.0540950543354,0.4398782859664971,1.311057349332461,0.9756599144063635,0.28680966928740237,0.6914646856704824
0.052000000000000005,1.7555722959696625,1.0,3058.4513029705076,0.4430201262731982,1.3107762132998932,0.9759767656935779,0.28678703643072584,0.6920221468334798
0.0525,1.7550334184297447,1.0,3062.784283269625,0.4461443516482433,1.3104956555336316,0.976285485683159,0.28676440357404925,0.6925779588480243
0.053,1.754494540889827,1.0,3067.0549227308816,0.4492510574669712,1.3102156586281175,0.9765863557440554,0.2867417707173727,0.6931321592535818
0.0535,1.7539556633499092,1.0,3071.2651159241545,0.4523403391047206,1.3099362051777923,0.976879645028369,0.2867191378606962,0.69368478545915
0.054,1.7534167858099914,1.0,3075.416764997547,0.4554122919368302,1.3096572777770976,0.9771656111055629,0.28669650500401966,0.6942358747438693
0.0545,1.7528779082700734,1.0,3079.511779470465,0.45846701133863865,1.3093788590204745,0.9774445005585651,0.2866738721473431,0.6947854642576192
0.055,1.7523390307301556,1.0,3083.5520760346008,0.4615045926854847,1.309100931502364,0.9777165495443506,0.28665123929066655,0.6953335910215908
0.0555,1.7518001531902379,1.0,3087.539578360369,0.46452513135270707,1.3088234778172083,0.9779819843214079,0.28662860643399,0.69588029192884
0.056,1.75126127565032,1.0,3091.4762169110104,0.4675287227156445,1.308546480559448,0.9782410217462943,0.28660597357731343,0.6964256037448284
0.0565,1.7507223981104023,1.0,3095.363928763233,0.4705154621496356,1.3082699223235248,0.9784938697413416,0.2865833407206369,0.6969695631079337
0.057,1.7501835205704843,1.0,3099.2046574339765,0.47348544503001916,1.3079937857038801,0.978740727735403,0.2865607078639603,0.6975122065299502
0.0575,1.7496446430305665,1.0,3103.000352715049,0.47643876673213387,1.3077180532949548,0.9789817870794059,0.2865380750072838,0.6980535703965668
0.058,1.7491057654906488,1.0,3106.7529705128372,0.47937552263131844,1.3074427076911908,0.9792172314383417,0.28651544215060726,0.6985936909678222
0.0585,1.748566887950731,1.0,3110.4644726966562,0.4822958081029115,1.307167731487029,0.9794472371612043,0.28649280929393073,0.6991326043785475
0.059000000000000004,1.7480280104108132,1.0,3114.134873088569,0.4851996923884285,1.3068931239038692,0.9796719723776003,0.28647017643725414,0.6996703140960598
0.059500000000000004,1.7474891328708952,1.0,3117.7652696035107,0.48808726667472885,1.3066188749526197,0.9798915999642055,0.2864475435805776,0.7002068415905285
0.06,1.7469502553309775,1.0,3121.360141187608,0.4909586677556022,1.3063449459363088,0.9801062785870399,0.2864249107239011,0.7007422643471941
0.0605,1.7464113777910597,1.0,3124.9203063866553,0.4938139812153144,1.306071329348769,0.9803161583335196,0.2864022778672245,0.7012765986947622
0.061,1.745872500251142,1.0,3128.4465864201884,0.49665329263813096,1.3057980176838326,0.9805213835705263,0.28637964501054797,0.701809860907648
0.0615,1.7453336227112242,1.0,3131.93980512994,0.4994766876083176,1.3055250034353325,0.9807220932060107,0.28635701215387144,0.7023420672061227
0.062,1.7447947451713062,1.0,3135.4007889298205,0.50228425171014,1.3052522790971008,0.9809184209367185,0.28633437929719485,0.7028732337564594
0.0625,1.7442558676313884,1.0,3138.83036675719,0.5050760705278637,1.3049798371629706,0.9811104954828731,0.2863117464405183,0.7034033766710712
0.063,1.7437169900914706,1.0,3142.229370024915,0.5078522296457546,1.304707670126774,0.9812984408105947,0.2862891135838418,0.7039325120086517
0.0635,1.7431781125515529,1.0,3145.5986325752438,0.5106128146480781,1.3044357704823433,0.9814823763427848,0.2862664807271652,0.704460655774305
0.064,1.742639235011635,1.0,3148.9389906346782,0.5133579111191,1.3041641307235114,0.9816624171591504,0.2862438478704887,0.7049878239196767
0.0645,1.7421003574717173,1.0,3152.251282769961,0.5160876046430859,1.3038927433441108,0.9818386741860095,0.28622121501381215,0.7055140323430817
0.065,1.7415614799317993,1.0,3155.536349845413,0.5188019808043015,1.303621600837974,0.982011254376463,0.28619858215713556,0.7060392968896237
0.0655,1.7410226023918816,1.0,3158.795034981977,0.5215011251870124,1.3033506956989331,0.9821802608814948,0.28617594930045903,0.7065636333513179
0.066,1.7404837248519638,1.0,3162.028183516387,0.5241851233754844,1.3030800204208213,0.9823457932125145,0.2861533164437825,0.7070870574672021
0.0665,1.739944847312046,1.0,3165.2366429628864,0.526854060953983,1.3028095674974707,0.9825079473958297,0.2861306835871059,0.7076095849234527
0.067,1.7394059697721282,1.0,3168.4212629754625,0.529508023506774,1.3025393294227137,0.9826668161195056,0.2861080507304294,0.7081312313534909
0.0675,1.7388670922322103,1.0,3171.5828953111773,0.5321470966181229,1.3022692986903832,0.9828224888730327,0.28608541787375286,0.7086520123380864
0.068,1.7383282146922925,1.0,3174.722393795357,0.5347713658722955,1.3019994677943114,0.982975052080209,0.28606278501707627,0.7091719434054613
0.0685,1.7377893371523747,1.0,3177.8406142877484,0.5373809168535574,1.301729829228331,0.9831245892256062,0.28604015216039974,0.7096910400313845
0.069,1.737250459612457,1.0,3180.9384146495263,0.5399758351461742,1.3014603754862746,0.983271180974975,0.2860175193037232,0.7102093176392676
0.0695,1.7367115820725392,1.0,3184.015708691279,0.5425561772302399,1.3011911070235762,0.9834149038950886,0.2859948864470466,0.7107267763071194
0.07,1.7361727045326214,1.0,3187.07292826504,0.5451220279340673,1.3009220199390237,0.9835558335237804,0.2859722535903701,0.7112434244764599
