Time [s],Phi [rad],STIM [ ],Fsee [N],Gamma [ ],Lcerel [ ],q [ ],Lmtc [m],fisomrel [ ]
0.0,1.8,1.0,18.898537775352338,0.0009849908972127542,1.3792367188670207,0.005249251258837123,0.288653,0.5413887470120418
0.0005,1.79999375,1.0,19.49591207351859,0.006588675186030849,1.3791691480672899,0.015867277410238766,0.2886527375,0.5415521592918547
0.001,1.799975,1.0,23.562299652181906,0.012160927237333422,1.378744032661423,0.04086843686062996,0.28865195,0.54257958457705
0.0015,1.79994375,1.0,34.664011331124726,0.017701923359424793,1.3777483218241038,0.07768331403194914,0.2886506375,0.5449815221909227
0.002,1.7999,1.0,60.40469872322795,0.02321183887480952,1.3759387922487354,0.12302871788075914,0.2886488,0.5493304352122519
0.0025,1.79984375,1.0,107.8157096847111,0.028690848121498587,1.3734331767880565,0.17356792079592986,0.28864643749999996,0.5553178012563141
0.003,1.7997750000000001,1.0,174.39883616051296,0.03413912445783101,1.3707213324983722,0.22652642372801032,0.28864354999999997,0.5617528495874724
0.0035,1.79969375,1.0,252.60984203253955,0.0395568402715021,1.3681319585694947,0.2797866953946297,0.2886401375,0.5678535110962624
0.004,1.7996,1.0,337.1957418859761,0.044944166981749516,1.3657444669959466,0.3317826738058734,0.2886362,0.5734406405033512
0.0045000000000000005,1.7994937500000001,1.0,425.4555371083731,0.050301275050725,1.363546510029117,0.3814404554057836,0.2886317375,0.5785520887935238
0.005,1.799375,1.0,515.8574855600835,0.05562833398628024,1.3615117391159623,0.42810439470427814,0.28862675,0.5832565767900267
0.0055,1.79924375,1.0,607.3284721593204,0.06092551233425135,1.3596179516792042,0.4714430582774166,0.2886212375,0.587611380197875
0.006,1.7991000000000001,1.0,699.018655235127,0.066192977661357,1.3578482699493828,0.511357506231858,0.2886152,0.5916601265760002
0.006500000000000001,1.79894375,1.0,790.2471942113606,0.07143089674137351,1.3561893379891765,0.5479044500310953,0.2886086375,0.595437358108521
0.007,1.798775,1.0,880.4198325331047,0.07663943511696114,1.3546309838922541,0.5812382078173073,0.28860155,0.5989695958661091
0.0075,1.79859375,1.0,969.0864289472358,0.08181875788121976,1.3531640983969682,0.6115675684591689,0.2885939375,0.6022803558783693
0.008,1.7984,1.0,1055.8521133838092,0.08696902865140575,1.3517813764679942,0.6391274407488562,0.2885858,0.6053885942929953
0.0085,1.79819375,1.0,1140.4106004025318,0.09209041033537235,1.3504762443355904,0.6641591823791948,0.2885771375,0.6083112313661336
0.009000000000000001,1.797975,1.0,1222.552344705788,0.097183065411191,1.3492424341242486,0.6868984546699552,0.28856795,0.6110641652007969
0.0095,1.79774375,1.0,1302.092604429133,0.10224715458952367,1.3480747296928706,0.7075686641440944,0.2885582375,0.6136606586391425
0.01,1.7975,1.0,1378.9058692365136,0.10728283800574089,1.3469682463525865,0.7263768746160267,0.288548,0.616112997522356
0.0105,1.79724375,1.0,1452.9267129107643,0.11229027549982652,1.3459182778313175,0.7435122381271475,0.2885372375,0.6184328605300238
0.011,1.796975,1.0,1524.1046415610083,0.1172696253436097,1.3449207395319536,0.7591460776586062,0.28852595000000003,0.6206303681145735
0.0115,1.79669375,1.0,1592.4162157485364,0.12222104468476011,1.3439718825283467,0.7734324016889332,0.2885141375,0.6227147449933205
0.012,1.7964,1.0,1657.8697842872218,0.12714469005137496,1.3430681456833953,0.7865089621295047,0.28850180000000003,0.6246946665094282
0.0125,1.79609375,1.0,1720.5163050977903,0.13204071846473955,1.3422059645922864,0.7984985259918671,0.2884889375,0.6265786919561953
0.013000000000000001,1.7957750000000001,1.0,1780.3854426493817,0.13690928423662757,1.3413824475237062,0.8095105700930669,0.28847555,0.6283738026872577
0.0135,1.79544375,1.0,1837.5162138483593,0.14175054072666798,1.340594943376303,0.8196424697954631,0.2884616375,0.6300863665385619
0.014,1.7951000000000001,1.0,1891.9746820127332,0.14656464129448987,1.339840801048726,0.8289807260035902,0.2884472,0.6317226720107152
0.0145,1.79474375,1.0,1943.831556801791,0.15135173829683618,1.3391175851763935,0.8376022703323498,0.2884322375,0.6332884675514399
0.015,1.794375,1.0,1993.1864450332068,0.15611198447084723,1.33842278117638,0.8455754682140132,0.28841675,0.6347896083572833
0.0155,1.79399375,1.0,2040.1031027676377,0.16084552943651956,1.337754460506574,0.8529613385457878,0.2884007375,0.6362306263007433
0.016,1.7936,1.0,2084.6536893307125,0.16555252243515392,1.3371107698378293,0.859814251881301,0.2883842,0.6376158445769965
0.0165,1.7931937500000001,1.0,2126.9243743099137,0.17023311270805103,1.3364898558409997,0.8661826949402438,0.2883671375,0.6389495437375743
0.017,1.792775,1.0,2166.9987563117884,0.17488744815942298,1.3358900220354213,0.8721100120149721,0.28834955,0.6402356284982278
0.0175,1.7923437500000001,1.0,2204.9812663147613,0.1795156777211634,1.3353094738965665,0.8776349408327806,0.2883314375,0.6414781783010453
0.018000000000000002,1.7919,1.0,2240.9410633469283,0.18411794659644307,1.3347468758601977,0.8827923008258801,0.2883128,0.6426802586155529
0.0185,1.79144375,1.0,2274.953198938555,0.1886943998002455,1.3342009147076168,0.887613332802321,0.2882936375,0.6438448616345416
0.019,1.790975,1.0,2307.1001193385055,0.19324518234755425,1.333670277220126,0.8921261070427801,0.28827395,0.6449749556755237
0.0195,1.79049375,1.0,2337.4598481289754,0.19777043782398337,1.3331537600687493,0.8963559118735217,0.2882537375,0.6460732530358873
0.02,1.79,1.0,2366.1250547385016,0.20227031165556303,1.3326500745418295,0.9003255246123992,0.288233,0.6471426272554697
0.0205,1.78949375,1.0,2393.1648918021547,0.20674494548508096,1.332158214459243,0.9040555728355895,0.2882117375,0.6481853334414782
0.021,1.788975,1.0,2418.6439439695723,0.21119447973046374,1.3316772608089207,0.9075647286071236,0.28818995000000003,0.649203426856796
0.021500000000000002,1.78844375,1.0,2442.630697938659,0.21561905480963778,1.3312062945787928,0.9108699039721516,0.2881676375,0.6501989490796745
0.022,1.7879,1.0,2465.1972145653185,0.22001881114052957,1.3307443967567898,0.9139864411425573,0.2881448,0.6511739286160307
0.0225,1.78734375,1.0,2486.4090496728763,0.22439388713355476,1.330290741376556,0.9169282972178151,0.28812143749999997,0.6521301854621335
0.023,1.786775,1.0,2506.340745259452,0.22874442415978283,1.3298444439640547,0.9197081631153734,0.28809755,0.6530696517412105
0.0235,1.78619375,1.0,2525.0503581039447,0.23307055953706893,1.3294048010076058,0.9223376361710235,0.28807313749999996,0.6539938682179197
0.024,1.7856,1.0,2542.5894682122944,0.23737242858972896,1.3289711902493737,0.9248273140610841,0.2880482,0.6549041963836428
0.0245,1.78499375,1.0,2559.0115087984595,0.2416501666420788,1.328542989431523,0.927186882123911,0.2880227375,0.6558019901001216
0.025,1.784375,1.0,2574.3716094712513,0.24590390901843437,1.3281195762962186,0.9294252044108366,0.28799675,0.6566885958264987
0.025500000000000002,1.78374375,1.0,2588.726448006462,0.2501337910431115,1.3277003285856244,0.9315504045421099,0.2879702375,0.6575653528216641
0.026000000000000002,1.7831000000000001,1.0,2602.1222866396574,0.2543399446466186,1.3272847341171872,0.9335699539425536,0.2879432,0.6584333635645475
0.0265,1.78244375,1.0,2614.620111449206,0.2585225076792974,1.3268721547755566,0.9354907006612059,0.2879156375,0.659293987348165
0.027,1.781775,1.0,2626.2632333198853,0.262681612050407,1.326462127185493,0.9373189699662696,0.28788755,0.6601482127344482
0.0275,1.7810937500000001,1.0,2637.0888954549323,0.2668173874338831,1.3260542524803294,0.9390605973929562,0.2878589375,0.6609968891565485
0.028,1.7804,1.0,2647.1351141682585,0.2709299635036614,1.3256481317933992,0.9407209650161433,0.2878298,0.6618408617967757
0.0285,1.77969375,1.0,2656.440611686558,0.2750194699336775,1.3252433662580352,0.9423050426298301,0.2878001375,0.6626809716362934
0.029,1.778975,1.0,2665.0447524781393,0.2790860363978671,1.3248395570075708,0.9438174246907449,0.28776995,0.6635180554946593
0.029500000000000002,1.7782437500000001,1.0,2672.9874831098687,0.283129792570166,1.3244363051753392,0.9452623635079429,0.2877392375,0.664352946059229
0.03,1.7775,1.0,2680.3004287688264,0.2871508637491225,1.3240332930439278,0.946643808384735,0.287708,0.6651863042063393
0.0305,1.77674375,1.0,2687.0257787841956,0.29114938276026864,1.3236301100368422,0.9479654129048786,0.2876762375,0.6660189792013439
0.031,1.775975,1.0,2693.1946516869793,0.29512547632440156,1.3232264508556542,0.9492305809592062,0.28764395,0.6668515990665096
0.0315,1.7751937500000001,1.0,2698.8327890451455,0.29907926803324386,1.3228220624416884,0.9504424818535796,0.2876111375,0.6676846811253018
0.032,1.7744,1.0,2703.9662145543025,0.3030108814785184,1.3224166917362694,0.9516040642580184,0.2875778,0.6685187400823962
0.0325,1.77359375,1.0,2708.6212071659834,0.3069204402519478,1.322010085680722,0.95271807426455,0.2875439375,0.6693542880098664
0.033,1.772775,1.0,2712.8242756355357,0.31080806794525484,1.3216019912163703,0.953787071759557,0.28750955,0.670191834329291
0.0335,1.7719437500000002,1.0,2716.6021344900423,0.31467388815016223,1.3211921552845391,0.9548134452859512,0.2874746375,0.671031885789772
0.034,1.7711000000000001,1.0,2719.9816814158467,0.31851802445839267,1.3207803248265528,0.955799425550512,0.2874392,0.6718749464418726
0.0345,1.7702437500000001,1.0,2722.9735093370596,0.32234059122307945,1.3203663966391208,0.9567471117580549,0.2874032375,0.6727212114300559
0.035,1.7693750000000001,1.0,2725.6167406160007,0.32614172176720235,1.3199500090148975,0.957658444716793,0.28736675,0.6735714022046143
0.035500000000000004,1.76849375,1.0,2727.93212711834,0.32992153638546307,1.3195309686393866,0.9585352563466448,0.2873297375,0.6744258931134419
0.036000000000000004,1.7676,1.0,2729.9347949006697,0.33368015178184024,1.3191091342239853,0.9593792679143097,0.2872922,0.675284950429906
0.0365,1.76669375,1.0,2731.639948731069,0.33741768466031263,1.3186843644800923,0.9601920937442425,0.2872541375,0.676148838762499
0.037,1.765775,1.0,2733.0628633788356,0.3411342517248591,1.3182565181191048,0.9609752490650173,0.28721555,0.6770178210290303
0.0375,1.76484375,1.0,2734.218875347274,0.34482996967945834,1.3178254538524208,0.9617301571958989,0.2871764375,0.6778921584295369
0.038,1.7639,1.0,2735.1233750486267,0.34850495522808905,1.3173910303914378,0.9624581561357761,0.28713679999999997,0.6787721104179254
0.0385,1.76294375,1.0,2735.7917994219574,0.35215932507473,1.3169531064475541,0.9631605046101697,0.28709663750000003,0.6796579346723387
0.039,1.761975,1.0,2736.2396249931135,0.35579319592336,1.316511540732167,0.9638383876262916,0.28705595,0.6805498870642531
0.0395,1.7609937500000001,1.0,2736.4823613781705,0.3594066844779578,1.3160661919566747,0.9644929215810656,0.2870147375,0.681448221626296
0.04,1.76,1.0,2736.5241656313297,0.3629998991028664,1.31561702213577,0.9651251666503885,0.286973,0.6823529825833831
0.0405,1.7589937500000001,1.0,2736.387835439062,0.3665729627227213,1.3151638242658337,0.9657361107527143,0.2869307375,0.6832645531700725
0.041,1.757975,1.0,2736.087511190762,0.37012598960266385,1.3147064700915796,0.9663266917906941,0.28688795,0.6841831558753116
0.0415,1.75694375,1.0,2735.631514808484,0.37365908939591747,1.3142448842997914,0.9668977994614657,0.2868446375,0.6851089052659782
0.042,1.7559,1.0,2735.028179223959,0.3771723717557055,1.3137789915772526,0.967450274741989,0.28680079999999997,0.6860419146835537
0.0425,1.75484375,1.0,2734.2858460813227,0.3806659463352512,1.313308716610747,0.9679849130513998,0.2867564375,0.6869822962236178
0.043000000000000003,1.753775,1.0,2733.4128635650786,0.38413992278777803,1.3128339840870582,0.9685024671771189,0.28671155,0.6879301607149816
0.043500000000000004,1.75269375,1.0,2732.417584354612,0.38759441076650925,1.3123547186929696,0.9690036499845699,0.28666613750000003,0.6888856176984561
0.044,1.7516,1.0,2731.308363703402,0.39102951992466817,1.311870845115265,0.9694891369285175,0.2866202,0.6898487754052628
0.0445,1.75049375,1.0,2730.093557645216,0.39444535991547824,1.3113822880407282,0.9699595683823815,0.2865737375,0.6908197407350796
0.045,1.7493750000000001,1.0,2728.781521325043,0.39784204039216275,1.3108889721561425,0.9704155518003761,0.28652675,0.6917986192337284
0.0455,1.74824375,1.0,2727.374196220757,0.40121966395872005,1.3103908804466715,0.9708576671287329,0.2864792375,0.6927853996669008
0.046,1.7471,1.0,2725.8835898814323,0.4045783445959075,1.3098879043687,0.9712864598754175,0.2864312,0.6937802510394626
0.0465,1.7459437500000001,1.0,2724.31886859439,0.4079181909176442,1.3093799611490167,0.9717024494986007,0.28638263750000004,0.6947832896665591
0.047,1.744775,1.0,2722.6844493489457,0.4112393059523744,1.3088670111728464,0.9721061321975738,0.28633355,0.6957945453097985
0.0475,1.74359375,1.0,2720.9847467360796,0.41454179272854264,1.308349014825414,0.9724979799266001,0.28628393750000003,0.6968140467353209
0.048,1.7424,1.0,2719.224172404453,0.41782575427459334,1.307825932491944,0.9728784418025784,0.2862338,0.6978418217011008
0.0485,1.74119375,1.0,2717.407134552567,0.42109129361897085,1.3072977245576614,0.9732479454183542,0.2861831375,0.6988778969441445
0.049,1.739975,1.0,2715.53803745424,0.4243385137901197,1.3067643514077907,0.9736068980688134,0.28613195,0.6999222981675941
0.0495,1.73874375,1.0,2713.6212810204456,0.4275675178164843,1.3062257734275566,0.9739556878962987,0.2860802375,0.7009750500277256
0.05,1.7375,1.0,2711.661260394614,0.430778408726509,1.3056819510021842,0.9742946849613401,0.286028,0.7020361761208491
0.0505,1.73624375,1.0,2709.6623655835683,0.43397128954863834,1.305132844516898,0.9746242422441994,0.2859752375,0.7031056989701103
0.051000000000000004,1.734975,1.0,2707.628278845842,0.4371462535555339,1.3045784207660849,0.9749446959149837,0.28592195,0.7041836275626204
0.051500000000000004,1.73369375,1.0,2705.5626702339023,0.440303409710273,1.304018646612662,0.9752563686598653,0.2858681375,0.7052699697442772
0.052000000000000005,1.7324,1.0,2703.4686800431264,0.4434428648803996,1.303453493713052,0.975559568732358,0.2858138,0.7063647230655061
0.0525,1.73109375,1.0,2701.348799511878,0.44656471519098706,1.3028829396147419,0.9758545898941818,0.28575893750000003,0.70746787273703
0.053,1.729775,1.0,2699.205516443653,0.4496690567671089,1.3023069618652192,0.9761417129676369,0.28570355000000003,0.7085794030861636
0.0535,1.72844375,1.0,2697.0413150913823,0.4527559857338386,1.301725538011971,0.9764212065137329,0.2856476375,0.7096992975490646
0.054,1.7271,1.0,2694.8586760526905,0.4558255982162495,1.3011386456024845,0.9766933274691886,0.2855912,0.7108275386629505
0.0545,1.7257437500000001,1.0,2692.6600761764216,0.45887799033941523,1.300546262184247,0.9769583217451212,0.2855342375,0.7119641080582841
0.055,1.724375,1.0,2690.447988480084,0.46191325822840906,1.2999483653047457,0.9772164247900335,0.28547675,0.7131089864509275
0.0555,1.72299375,1.0,2688.224882079225,0.4649314980083046,1.2993449325114677,0.9774678621195035,0.2854187375,0.714262153634263
0.056,1.7216,1.0,2685.9932221267068,0.4679328058041751,1.2987359413519006,0.9777128498148085,0.2853602,0.7154235884712812
0.0565,1.72019375,1.0,2683.755469764725,0.47091727774109426,1.2981213693735312,0.9779515949925451,0.28530113749999997,0.716593268886641
0.057,1.718775,1.0,2681.5140820866714,0.4738850099441354,1.2975011941238472,0.9781842962471524,0.28524155,0.7177711718586893
0.0575,1.71734375,1.0,2679.2671104252627,0.4768360669761407,1.2968754335333006,0.9784111435752016,0.2851814375,0.7189571969528534
0.058,1.7159,1.0,2677.01377184016,0.4797705393826913,1.2962440948632172,0.9786323210088002,0.2851208,0.7201512635799527
0.0585,1.71444375,1.0,2674.762852237545,0.4826885803144431,1.2956070975246732,0.978848005660485,0.2850596375,0.7213534562915764
0.059000000000000004,1.7129750000000001,1.0,2672.5148684865244,0.48559027627390633,1.294964436752645,0.979058366042897,0.28499795,0.7225637150867186
0.059500000000000004,1.71149375,1.0,2670.2703365857546,0.48847571376359095,1.2943161077821081,0.9792635640302888,0.2849357375,0.723781979272929
0.06,1.71,1.0,2668.029771665358,0.4913449792860069,1.2936621058480395,0.979463755169782,0.284873,0.7250081874645882
0.0605,1.7084937500000001,1.0,2665.793687989873,0.49419815934366446,1.293002426185415,0.979659088975694,0.2848097375,0.7262422775811878
0.061,1.7069750000000001,1.0,2663.5625989613127,0.49703534043907355,1.2923370640292104,0.9798497092079836,0.28474595,0.7274841868456037
0.0615,1.7054437500000001,1.0,2661.3370171225624,0.4998566090747443,1.2916660146144023,0.9800357541357833,0.2846816375,0.72873385178237
0.062,1.7039,1.0,2659.1174541623886,0.5026620517531867,1.2909892731759667,0.9802173567869248,0.2846168,0.7299912082159523
0.0625,1.70234375,1.0,2656.904420919165,0.5054517549769107,1.2903068349488798,0.9803946451842994,0.2845514375,0.7312561912690174
0.063,1.7007750000000001,1.0,2654.6984273866924,0.5082258052484265,1.2896186951681177,0.9805677425698458,0.28448555,0.7325287353607045
0.0635,1.69919375,1.0,2652.4999827198676,0.5109842890702443,1.2889248490686567,0.980736767616893,0.28441913750000003,0.7338087742048914
0.064,1.6976,1.0,2650.3095952404774,0.5137272929448737,1.2882252918854726,0.9809018346315503,0.2843522,0.7350962408084634
0.0645,1.69599375,1.0,2648.1277724444594,0.5164549033748252,1.2875200188535418,0.9810630537437822,0.2842847375,0.7363910674695757
0.065,1.694375,1.0,2645.9550210088255,0.5191672068626086,1.2868090252078404,0.9812205310887683,0.28421675,0.7376931857759197
0.0655,1.69274375,1.0,2643.791846799223,0.5218642899107342,1.2860923061833447,0.9813743689791082,0.2841482375,0.7390025266029827
0.066,1.6911,1.0,2641.638754878575,0.5245462390217117,1.2853698570150305,0.9815246660683972,0.2840792,0.740319020112312
0.0665,1.6894437500000001,1.0,2639.4962495155187,0.5272131406980514,1.2846416729378742,0.9816715175066586,0.2840096375,0.7416425957497712
0.067,1.687775,1.0,2637.364834193536,0.5298650814422632,1.283907749186852,0.981815015088102,0.28393955,0.7429731822437995
0.0675,1.68609375,1.0,2635.2450116210443,0.5325021477568573,1.2831680809969401,0.9819552473916255,0.2838689375,0.7443107076036682
0.068,1.6844000000000001,1.0,2633.137283741502,0.5351244261443437,1.2824226636031144,0.982092299914477,0.2837978,0.7456550991177362
0.0685,1.68269375,1.0,2631.042151743827,0.5377320031072325,1.2816714922403512,0.9822262551994452,0.2837261375,0.7470062833517022
0.069,1.680975,1.0,2628.9572430031335,0.5403249275818494,1.280914588753441,0.9823571918078444,0.28365395,0.7483641384741235
0.0695,1.67924375,1.0,2626.8848594628653,0.5429033174025281,1.2801519317103502,0.9824851879904626,0.28358123749999997,0.7497286197670895
0.07,1.6775,1.0,2624.825558346701,0.5454672600563851,1.2793835158178266,0.9826103181704631,0.283508,0.7510996527081322
0.07050000000000001,1.67574375,1.0,2622.779169956794,0.5480168326097147,1.2786093425156109,0.9827326539329487,0.2834342375,0.7524771500734025
0.07100000000000001,1.673975,1.0,2620.745524922099,0.5505521121288108,1.277829413243444,0.9828522644783902,0.28335995,0.7538610240331748
0.07150000000000001,1.67219375,1.0,2618.724454194877,0.5530731756799679,1.2770437294410668,0.9829692167165769,0.2832851375,0.7552511861523756
0.07200000000000001,1.6704,1.0,2616.715789047085,0.55558010032948,1.2762522925482203,0.9830835753562478,0.2832098,0.7566475473911114
0.0725,1.66859375,1.0,2614.7193610668087,0.5580729631436414,1.2754551040046451,0.9831954029906376,0.2831339375,0.7580500181051981
0.073,1.6667750000000001,1.0,2612.735002155004,0.5605518411887462,1.2746521652500826,0.9833047601791429,0.28305755,0.7594585080466879
0.0735,1.66494375,1.0,2610.7625445221197,0.5630168115310887,1.2738434777242735,0.9834117055253122,0.2829806375,0.7608729263643983
0.074,1.6631,1.0,2608.8018206845427,0.565467951236963,1.2730290428669584,0.9835162957513462,0.2829032,0.7622931816044407
0.0745,1.6612437500000001,1.0,2606.852663461504,0.5679053373726635,1.2722088621178786,0.9836185857692862,0.2828252375,0.7637191817107454
0.075,1.659375,1.0,2604.9149059720044,0.5703290470044841,1.2713829369167748,0.9837186287490557,0.28274675,0.7651508340255925
0.0755,1.65749375,1.0,2602.988381631266,0.572739157198719,1.270551268703388,0.9838164761835175,0.2826677375,0.7665880452901377
