Time [s],Phi [rad],STIM [ ],Fsee [N],Gamma [ ],Lcerel [ ],q [ ],Lmtc [m],fisomrel [ ]
0.0,1.8,1.0,17.969086893001347,5.873526077631777e-05,1.3793395301437703,0.005000906683548272,0.288653,0.541140053795611
0.0005,1.79999375,1.0,18.294762305329325,0.005667615111222796,1.379300386815782,0.013076368855663885,0.2886527375,0.5412347466881318
0.001,1.799975,1.0,21.672697299513228,0.011245033580390968,1.3789327580403,0.035862989879702024,0.28865195,0.5421236125126644
0.0015,1.79994375,1.0,31.20079667640421,0.016791167142659574,1.378035007051845,0.07094967970888816,0.2886506375,0.5442906040921922
0.002,1.7999,1.0,53.867983049762856,0.022306191280678,1.3763496283644086,0.11512977497186272,0.2886488,0.5483448891261848
0.0025,1.79984375,1.0,97.60030202209488,0.027790280493271168,1.3739120001303244,0.16502272495086037,0.28864643749999996,0.5541767096892228
0.003,1.7997750000000001,1.0,161.58534327060835,0.03324360830269936,1.3711908907689063,0.21774240038684323,0.28864354999999997,0.560641972609011
0.0035,1.79969375,1.0,238.3924300841404,0.03866634725461384,1.3685629083888509,0.2710723078694619,0.2886401375,0.5668411433671925
0.004,1.7996,1.0,322.22147944061976,0.04405866892873971,1.3661361147796802,0.3233606197452023,0.2886362,0.572526611779467
0.0045000000000000005,1.7994937500000001,1.0,410.0494855347905,0.049420743944089025,1.3639044726266765,0.3734567394994281,0.2886317375,0.5777217308746827
0.005,1.799375,1.0,500.21132402250805,0.05475274195031376,1.3618413955066504,0.42064247864430254,0.28862675,0.5824961878118616
0.0055,1.79924375,1.0,591.5954018534287,0.06005483167242346,1.3599231129425222,0.46453941655831704,0.2886212375,0.5869112014341977
0.006,1.7991000000000001,1.0,683.3241956290063,0.06532718086056091,1.3581317665496508,0.5050160492263033,0.2886152,0.5910128755995739
0.006500000000000001,1.79894375,1.0,774.6852557296185,0.07056995634360376,1.3564535324090172,0.5421080259811835,0.2886086375,0.5948369873505539
0.007,1.798775,1.0,865.0790107101885,0.0757833239723323,1.3548775852210484,0.5759568065916233,0.28860155,0.5984116693484616
0.0075,1.79859375,1.0,954.0243272428047,0.08096744873314489,1.3533947673441271,0.6067645884714903,0.2885939375,0.6017606454521374
0.008,1.7984,1.0,1041.1264345282784,0.08612249479241571,1.3519973414731954,0.634763432395316,0.2885858,0.6049039272825341
0.0085,1.79819375,1.0,1126.061055299036,0.09124862492863108,1.3506786709164318,0.660194644711997,0.2885771375,0.6078586408299903
0.009000000000000001,1.797975,1.0,1208.5994302360305,0.09634600135780702,1.3494324820176151,0.6832954307066194,0.28856795,0.6106407541805137
0.0095,1.79774375,1.0,1288.5796845562036,0.10141478610298864,1.3482530278336522,0.7042913417138973,0.2885582375,0.613264759581293
0.01,1.7975,1.0,1365.8464517008063,0.10645513874671016,1.3471356542075539,0.7233924379103039,0.288548,0.6157424667662423
0.0105,1.79724375,1.0,1440.3131216072225,0.1114672187277517,1.3460757667296266,0.7407909205607269,0.2885372375,0.6180853433753224
0.011,1.796975,1.0,1511.9392189490304,0.11645118474184162,1.3450690174321533,0.7566609280649853,0.28852595000000003,0.6203041237513018
0.0115,1.79669375,1.0,1580.7207827927014,0.12140719535439683,1.344111318557215,0.7711591198741423,0.2885141375,0.6224088024260677
0.012,1.7964,1.0,1646.6426067080422,0.12633540649518238,1.3431993112688605,0.7844259473410589,0.28850180000000003,0.6244076299253183
0.0125,1.79609375,1.0,1709.7262818533625,0.13123597388196437,1.3423296911345595,0.7965866521291165,0.2884889375,0.626308617881751
0.013000000000000001,1.7957750000000001,1.0,1770.016301590435,0.13610905257009445,1.3414993185539232,0.807752734070984,0.28847555,0.6281193093979786
0.0135,1.79544375,1.0,1827.5835227367397,0.14095479796184676,1.3407051294748336,0.8180233205836929,0.2884616375,0.6298469858084723
0.014,1.7951000000000001,1.0,1882.4798060233375,0.1457733628531874,1.3399445932970813,0.8274866707002573,0.2884472,0.6314976833165881
0.0145,1.79474375,1.0,1934.7605521379232,0.15056489893584293,1.3392154036785229,0.8362212747448818,0.2884322375,0.6330768810816861
0.015,1.794375,1.0,1984.502277719703,0.1553295579015399,1.338515254277015,0.8442968999171562,0.28841675,0.6345899956051274
0.0155,1.79399375,1.0,2031.7858626861064,0.16006749051336414,1.33784199593804,0.8517756623624129,0.2884007375,0.6360420464942644
0.016,1.7936,1.0,2076.7112565014268,0.16477884810940288,1.3371934570256743,0.8587128725687583,0.2883842,0.6374380501883762
0.0165,1.7931937500000001,1.0,2119.352051178203,0.1694637789987406,1.3365678976909203,0.8651579761984883,0.2883671375,0.6387820479716653
0.017,1.792775,1.0,2159.781900225384,0.17412243062434185,1.3359637051766378,0.8711551543242667,0.28834955,0.6400777704208713
0.0175,1.7923437500000001,1.0,2198.0854461506074,0.17875495042917125,1.3353792667256865,0.8767439085468757,0.2883314375,0.6413289140642245
0.018000000000000002,1.7919,1.0,2234.348807204514,0.18336148492438928,1.3348130557412174,0.8819596337253395,0.2883128,0.6425389595192232
0.0185,1.79144375,1.0,2268.6659613479687,0.18794218137681978,1.334263556098338,0.8868340781922762,0.2882936375,0.6437113363025933
0.019,1.790975,1.0,2301.1144489238836,0.19249718451238615,1.3337294945636409,0.8913958214072559,0.28827395,0.6448489300328342
0.0195,1.79049375,1.0,2331.763727689364,0.19702663731410563,1.3332097434706471,0.8956706112587604,0.2882537375,0.6459542948221477
0.02,1.79,1.0,2360.6890311631782,0.20153068276499556,1.3327031751528793,0.8996816509392038,0.288233,0.6470299656989558
0.0205,1.78949375,1.0,2387.970883791249,0.20600946384807317,1.3322086619438585,0.9034498846941648,0.2882117375,0.648078459596528
0.021,1.788975,1.0,2413.678950211746,0.210463121334342,1.331725227876271,0.9069942803470069,0.28818995000000003,0.6491019553266457
0.021500000000000002,1.78844375,1.0,2437.904215761629,0.21489179944987213,1.3312517312743701,0.9103319808022069,0.2881676375,0.6501029672440449
0.022,1.7879,1.0,2460.706417997963,0.21929563700672192,1.3307873684876865,0.9134786012019224,0.2881448,0.6510832807684679
0.0225,1.78734375,1.0,2482.1435462863,0.22367477207267455,1.3303313817566647,0.9164483338294698,0.28812143749999997,0.6520445734270812
0.023,1.786775,1.0,2502.2763221743044,0.22802934271551334,1.3298830133217496,0.9192540894274877,0.28809755,0.6529885125056198
0.0235,1.78619375,1.0,2521.1679701916523,0.23235948700302145,1.3294415054233857,0.9219076306539626,0.28807313749999996,0.6539167554348639
0.024,1.7856,1.0,2538.87890242669,0.2366653420442493,1.3290061483579754,0.9244196983130455,0.2880482,0.6548308493069194
0.0245,1.78499375,1.0,2555.4682043080943,0.24094704455284527,1.3285762638248833,0.9268001119822803,0.2880227375,0.6557322667438799
0.025,1.784375,1.0,2571.004737692684,0.24520473258707365,1.3281510987780882,0.9290578444610865,0.28799675,0.656622628733206
0.025500000000000002,1.78374375,1.0,2585.5315570136027,0.24943853890791645,1.3277301572907876,0.9312011583099307,0.2879702375,0.6575030102109556
0.026000000000000002,1.7831000000000001,1.0,2599.0929842876853,0.2536485962763556,1.3273129434361783,0.9332376340195203,0.2879432,0.6583744804181924
0.0265,1.78244375,1.0,2611.7345033308843,0.2578350374533731,1.3268989612874575,0.9351742355213224,0.2879156375,0.6592381030267263
0.027,1.781775,1.0,2623.5026594266587,0.261997995199951,1.3264877149178222,0.9370173686076494,0.28788755,0.6600949362491673
0.0275,1.7810937500000001,1.0,2634.4449268801745,0.26613760225213934,1.326078708748047,0.9387729331466821,0.2878589375,0.6609460322104794
0.028,1.7804,1.0,2644.6041242010165,0.27025398725692,1.325671498289566,0.9404463755537631,0.2878298,0.6617923316384858
0.0285,1.77969375,1.0,2654.0288420238176,0.27434728608211056,1.3252655927927148,0.9420427204477181,0.2878001375,0.662634866534451
0.029,1.778975,1.0,2662.751777649937,0.2784176259883089,1.324860654355142,0.9435666303666465,0.28776995,0.6634743471044291
0.029500000000000002,1.7782437500000001,1.0,2670.8061701142965,0.28246513423611275,1.3244563450744966,0.9450224197187593,0.2877392375,0.6643114800411326
0.03,1.7775,1.0,2678.225751913533,0.2864899380861199,1.324052327048427,0.9464140852324121,0.287708,0.665146968541133
0.0305,1.77674375,1.0,2685.0447032658117,0.29049216479892825,1.3236482623745822,0.9477453333809608,0.2876762375,0.6659815123147754
0.031,1.775975,1.0,2691.297608902367,0.29447194163513557,1.3232438131506106,0.9490196051158591,0.28764395,0.6668158075888175
0.0315,1.7751937500000001,1.0,2697.012899812777,0.29842939149560843,1.3228387010721734,0.9502401042684818,0.2876111375,0.6676504243942343
0.032,1.7744,1.0,2702.219035586436,0.302364639689176,1.3224326503187671,0.95140981225124,0.2875778,0.6684859247717336
0.0325,1.77359375,1.0,2706.9585264090833,0.30627782228315337,1.3220252592857231,0.9525314933491393,0.2875439375,0.6693231262179936
0.033,1.772775,1.0,2711.251474040666,0.310169059594035,1.3216163333395543,0.9536077437910847,0.28750955,0.6701624175038925
0.0335,1.7719437500000002,1.0,2715.1181638520725,0.3140384719383154,1.3212056778467733,0.9546409856089118,0.2874746375,0.6710041853284275
0.034,1.7711000000000001,1.0,2718.5790475077024,0.3178861796324889,1.3207930981738927,0.9556334803995856,0.2874392,0.6718488142984542
0.0345,1.7702437500000001,1.0,2721.6547264884553,0.3217123029930498,1.3203783996874248,0.956587341845376,0.2874032375,0.6726966869060099
0.035,1.7693750000000001,1.0,2724.3659364544696,0.3255169623364927,1.3199613877538823,0.957504547117154,0.28736675,0.67354818350322
0.035500000000000004,1.76849375,1.0,2726.7335324477635,0.32930027797931183,1.3195418677397779,0.9583869472721235,0.2873297375,0.6744036822747905
0.036000000000000004,1.7676,1.0,2728.778474934548,0.33306237023800167,1.319119645011624,0.9592362767451124,0.2872922,0.6752635592080838
0.0365,1.76669375,1.0,2730.52181668814,0.3368033594290566,1.3186945249359334,0.960054162021821,0.2872541375,0.6761281880607772
0.037,1.765775,1.0,2731.9846905108616,0.3405233658689711,1.3182663128792187,0.9608421295729387,0.28721555,0.6769979403261075
0.0375,1.76484375,1.0,2733.173834834148,0.34422250001544413,1.3178349455822986,0.961601623868478,0.2871764375,0.6778729188989072
0.038,1.7639,1.0,2734.1181367138465,0.3479008903547701,1.3174001590690338,0.962333987058363,0.28713679999999997,0.678753632088495
0.0385,1.76294375,1.0,2734.8330681257494,0.3515586531806045,1.316961811688865,0.9630404907133635,0.28709663750000003,0.6796403377898994
0.039,1.761975,1.0,2735.329740895288,0.35519590139730955,1.3165198017297972,0.963722334836981,0.28705595,0.6805332114570468
0.0395,1.7609937500000001,1.0,2735.619297977945,0.3588127479092479,1.316074027479836,0.9643806498229937,0.2870147375,0.6814324271450125
0.04,1.76,1.0,2735.7129091025386,0.36240930562078194,1.3156243872269864,0.9650165012342083,0.286973,0.6823381574859355
0.0405,1.7589937500000001,1.0,2735.6217666445123,0.36598568743627424,1.3151707792592542,0.9656308942043019,0.2869307375,0.6832505736642681
0.041,1.757975,1.0,2735.357081728355,0.36954200626008715,1.3147131018646445,0.9662247774961413,0.28688795,0.6841698453913708
0.0415,1.75694375,1.0,2734.9300805594316,0.3730783749965833,1.314251253331163,0.9667990472467008,0.2868446375,0.6850961408794427
0.042,1.7559,1.0,2734.3520009853833,0.37659490655012506,1.3137851319468146,0.9673545504257803,0.28680079999999997,0.6860296268147965
0.0425,1.75484375,1.0,2733.6340892867624,0.38009171382507495,1.3133146359996049,0.9678920880331193,0.2867564375,0.6869704683304692
0.043000000000000003,1.753775,1.0,2732.780537643184,0.38356890237031294,1.3128397279076427,0.9684124221038412,0.28671155,0.6879187010289289
0.043500000000000004,1.75269375,1.0,2731.805768559245,0.3870265894934311,1.3123602772087137,0.9689162685793701,0.28666613750000003,0.6888745447133149
0.044,1.7516,1.0,2730.7211711132786,0.3904648872665379,1.3118761809936297,0.9694043071271423,0.2866202,0.6898381624006018
0.0445,1.75049375,1.0,2729.5327688758457,0.3938839017158494,1.3113873851063447,0.9698771849519684,0.2865737375,0.6908096186117124
0.045,1.7493750000000001,1.0,2728.2465864095184,0.3972837388675817,1.3108938353908133,0.9703355159447379,0.28652675,0.6917889767729271
0.0455,1.74824375,1.0,2726.868648165962,0.4006645047479508,1.31039547769099,0.97077988271791,0.2864792375,0.6927762991995603
0.046,1.7471,1.0,2725.4049774486975,0.4040263053831728,1.3098922578508299,0.971210838497614,0.2864312,0.6937716470794477
0.0465,1.7459437500000001,1.0,2723.861595440005,0.40736924679946374,1.3093841217142868,0.9716289088837405,0.28638263750000004,0.694775080456248
0.047,1.744775,1.0,2722.244520293345,0.4106934350230397,1.3088710151253153,0.972034593488414,0.28633355,0.6957866582125549
0.0475,1.74359375,1.0,2720.559766290937,0.4139989760801167,1.3083528839278702,0.9724283674623145,0.28628393750000003,0.6968064380528234
0.048,1.7424,1.0,2718.813343065548,0.4172859759969109,1.307829673965906,0.9728106829175129,0.2862338,0.6978344764861095
0.0485,1.74119375,1.0,2717.00988449635,0.42055453292612005,1.307301343568324,0.9731819701510623,0.2861831375,0.6988708043402515
0.049,1.739975,1.0,2715.15446591232,0.4238047548402131,1.3067678470031017,0.9735426399332086,0.28613195,0.6999154593274286
0.0495,1.73874375,1.0,2713.2524714548686,0.4270367539669232,1.3062291356751656,0.9738930839787311,0.2860802375,0.7009684836213043
0.05,1.7375,1.0,2711.3071958463092,0.43025062928328467,1.3056851799890685,0.9742336754255262,0.286028,0.7020298811704426
0.0505,1.73624375,1.0,2709.321930276347,0.433446479766332,1.3051359503493623,0.9745647701782092,0.2859752375,0.7030996549884934
0.051000000000000004,1.734975,1.0,2707.299962148723,0.4366244043930995,1.3045814171605992,0.974886707854631,0.28592195,0.7041778071442637
0.051500000000000004,1.73369375,1.0,2705.2445748475443,0.43978450214062176,1.3040215508273316,0.9751998126722949,0.2858681375,0.7052643387517354
0.052000000000000005,1.7324,1.0,2703.1590475225094,0.4429268719859331,1.3034563217541115,0.9755043942789873,0.2858138,0.7063592499600291
0.0525,1.73109375,1.0,2701.0466548943373,0.446051612906068,1.3028857003454912,0.9758007485315832,0.28575893750000003,0.7074625399433077
0.053,1.729775,1.0,2698.9106670785377,0.4491588238780609,1.302309657006023,0.9760891582266932,0.28570355000000003,0.7085742068906271
0.0535,1.72844375,1.0,2696.7543494299116,0.4522486038789463,1.301728162140259,0.9763698937865054,0.2856476375,0.7096942479957321
0.054,1.7271,1.0,2694.580962405355,0.4553210518857585,1.3011411861527515,0.9766432139029401,0.2855912,0.7108226594467917
0.0545,1.7257437500000001,1.0,2692.3937614465763,0.458376266875532,1.3005486994480528,0.9769093661429759,0.2855342375,0.7119594364160842
0.055,1.724375,1.0,2690.1929241974835,0.4614143214580586,1.2999507005635527,0.9771685866614602,0.28547675,0.7131045192328889
0.0555,1.72299375,1.0,2687.980631028766,0.4644353264867264,1.2993471696912464,0.9774211042314966,0.2854187375,0.7142578826461738
0.056,1.7216,1.0,2685.7612467841896,0.46743940587184934,1.2987380669743285,0.9776671380442391,0.2853602,0.715419538713143
0.0565,1.72019375,1.0,2683.535848215338,0.47042664974438925,1.2981233826329666,0.9779068967715294,0.28530113749999997,0.7165894410952737
0.057,1.718775,1.0,2681.3055103346674,0.47339714823530776,1.2975031068873284,0.9781405805039535,0.28524155,0.7177675427053152
0.0575,1.71734375,1.0,2679.0713064025017,0.47635099147556664,1.2968772299575821,0.9783683811709026,0.2851814375,0.7189537957038039
0.058,1.7159,1.0,2676.8343079166916,0.4792882695961277,1.296245742063895,0.9785904829368058,0.2851208,0.7201481514955744
0.0585,1.71444375,1.0,2674.5955846041443,0.48220907272795266,1.2956086334264356,0.9788070625750646,0.2850596375,0.7213505607262602
0.059000000000000004,1.7129750000000001,1.0,2672.3562044143346,0.4851134910020032,1.294965894265371,0.979018289821108,0.28499795,0.7225609732787945
0.059500000000000004,1.71149375,1.0,2670.117233515202,0.4880016145492411,1.2943175148008697,0.9792243277058947,0.2849357375,0.7237793382698976
0.06,1.71,1.0,2667.8797362909404,0.4908735335006281,1.2936634852530988,0.9794253328710807,0.284873,0.7250056040465658
0.0605,1.7084937500000001,1.0,2665.6447753419716,0.493729337987126,1.2930037958422265,0.9796214558669999,0.2848097375,0.7262397181825475
0.061,1.7069750000000001,1.0,2663.4134114872677,0.49656911813969645,1.2923384367884208,0.9798128414345207,0.28474595,0.7274816274748168
0.0615,1.7054437500000001,1.0,2661.1867037682764,0.4993929640893013,1.291667398311849,0.9799996287717617,0.2846816375,0.7287312779400423
0.062,1.7039,1.0,2658.9657094557397,0.5022009659669022,1.2909906706326792,0.9801819517865944,0.2846168,0.7299886148110446
0.0625,1.70234375,1.0,2656.75148405767,0.504993213903461,1.2903082439710796,0.9803599393357866,0.2845514375,0.731253582533253
0.063,1.7007750000000001,1.0,2654.545081330442,0.5077697980299393,1.2896201085472172,0.9805337154515921,0.28448555,0.7325261247611548
0.0635,1.69919375,1.0,2652.3475532912003,0.5105308084772988,1.2889262545812605,0.9807033995565304,0.28441913750000003,0.7338061843547341
0.064,1.6976,1.0,2650.159950232647,0.5132763353765015,1.288226672293377,0.9808691066670562,0.2843522,0.7350937033759127
0.0645,1.69599375,1.0,2647.9810697778107,0.51600644777366,1.2875213726766828,0.9810309471171724,0.2842847375,0.7363885849939926
0.065,1.694375,1.0,2645.80883905777,0.5187212226751718,1.2868103747793518,0.9811890282264083,0.28421675,0.7376907172159687
0.0655,1.69274375,1.0,2643.647947600255,0.5214207922889139,1.2860936352232917,0.9813434542303842,0.2841482375,0.739000101673221
0.066,1.6911,1.0,2641.4984509149635,0.5241052370747269,1.2853711533772663,0.9814943240985539,0.2840792,0.7403166607784719
0.0665,1.6894437500000001,1.0,2639.360404463042,0.5267746374924516,1.2846429286100398,0.9816417332905185,0.2840096375,0.7416403163019764
0.067,1.687775,1.0,2637.2338636579602,0.5294290740019286,1.283908960290376,0.9817857739037922,0.28393955,0.7429709893712939
0.0675,1.68609375,1.0,2635.1188838676285,0.532068627062999,1.2831692477870387,0.9819265348143312,0.2838689375,0.7443086004710545
0.068,1.6844000000000001,1.0,2633.0155204151642,0.5346933771355034,1.282423790468792,0.9820641018102296,0.2837978,0.745653069442729
0.0685,1.68269375,1.0,2630.923828580576,0.5373034046792824,1.2816725877044002,0.98219855771896,0.2837261375,0.7470043154843973
0.069,1.680975,1.0,2628.8438636020614,0.5398987901541771,1.280915638862627,0.9823299825285092,0.28365395,0.748362257150517
0.0695,1.67924375,1.0,2626.7756806775155,0.542479614020028,1.2801529433122363,0.9824584535027464,0.28358123749999997,0.749726812351693
0.07,1.6775,1.0,2624.7193349658496,0.545045956736676,1.279384500421992,0.9825840452913311,0.283508,0.7510978983544452
0.07050000000000001,1.67574375,1.0,2622.6748815884475,0.5475978987639619,1.2786103095606582,0.9827068300344576,0.2834342375,0.7524754317809763
0.07100000000000001,1.673975,1.0,2620.6423756304735,0.5501355205617265,1.277830370096999,0.9828268774627089,0.28335995,0.753859328608943
0.07150000000000001,1.67219375,1.0,2618.62187214267,0.5526589025898104,1.2770446813997782,0.9829442549922798,0.2832851375,0.7552495041712225
0.07200000000000001,1.6704,1.0,2616.613426142484,0.5551681253080546,1.2762532428377598,0.9830590278158156,0.2832098,0.7566458731556815
0.0725,1.66859375,1.0,2614.6170926155655,0.5576632691762996,1.2754560537797075,0.9831712589890924,0.2831339375,0.7580483496049455
0.073,1.6667750000000001,1.0,2612.6329265174254,0.5601444146543864,1.2746531135943857,0.9832810095137555,0.28305755,0.7594568469161653
0.0735,1.66494375,1.0,2610.660982774694,0.5626116422021558,1.2738444216505582,0.9833883384163232,0.2829806375,0.7608712778407886
0.074,1.6631,1.0,2608.7013162866347,0.5650650322794483,1.273029977316989,0.9834933028236414,0.2829032,0.7622915544843254
0.0745,1.6612437500000001,1.0,2606.753981926903,0.5675046653461049,1.272209779962442,0.9835959580349772,0.2828252375,0.7637175883061191
0.075,1.659375,1.0,2604.7989341124858,0.5699306201110876,1.271384015982908,0.9836963656866062,0.28274675,0.7651489664189692
0.0755,1.65749375,1.0,2602.87154335643,0.5723429690914855,1.2705523562334544,0.9837945627411173,0.2826677375,0.7665861688026976
