Time [s],Phi [rad],STIM [ ],Fsee [N],Gamma [ ],Lcerel [ ],q [ ],Lmtc [m],fisomrel [ ]
0.0,1.8,1.0,17.967221159869155,1.0103588974003245e-05,1.3793397391624842,0.005000027204585527,0.288653,0.5411395481254415
0.0005,1.79999375,1.0,18.276582142174757,0.005619256224624574,1.3793024057850232,0.01294080197467707,0.2886527375,0.5412298627732577
0.001,1.799975,1.0,21.61827508064623,0.01119694594891096,1.3789383129887858,0.03560911769323132,0.28865195,0.5421101879758069
0.0015,1.79994375,1.0,31.069201383073562,0.01674334924475007,1.3780462066785832,0.07060244629555464,0.2886506375,0.544263602091626
0.002,1.7999,1.0,53.58241295099962,0.02225864160340816,1.3763681300578552,0.11471871452950144,0.2886488,0.5483004804743412
0.0025,1.79984375,1.0,97.11900677745187,0.0277429975320637,1.3739351639283055,0.1645756289156685,0.28864643749999996,0.5541214705928295
0.003,1.7997750000000001,1.0,160.95841460073962,0.03319659056152514,1.371214334481639,0.21728121239015963,0.28864354999999997,0.5605864728168172
0.0035,1.79969375,1.0,237.68369657382587,0.03861959324582181,1.3685847229892425,0.27061364188123355,0.2886401375,0.5667898660042838
0.004,1.7996,1.0,321.46723336099836,0.044012177172986354,1.3661560801589694,0.3229165305528515,0.2886362,0.5724799903144719
0.0045000000000000005,1.7994937500000001,1.0,409.26830322856046,0.04937451297023911,1.363922801198727,0.37303519932405393,0.2886317375,0.5776791924989535
0.005,1.799375,1.0,499.4141173809375,0.05470677029507833,1.3618583293160884,0.4202481081913817,0.28862675,0.5824571093895705
0.0055,1.79924375,1.0,590.79108065062,0.06000911788274528,1.3599388220745707,0.46417429816776506,0.2886212375,0.5868751414654672
0.006,1.7991000000000001,1.0,682.5188084919962,0.06528172348938113,1.3581464020202845,0.5046805141162788,0.2886152,0.5909794474487398
0.006500000000000001,1.79894375,1.0,773.8823361257924,0.07052475394725048,1.3564672352105958,0.5418012621434936,0.2886086375,0.5948058361649038
0.007,1.798775,1.0,864.2867029121968,0.07573837514993645,1.3548903805924224,0.5756772414226788,0.28860155,0.5983827097033342
0.0075,1.79859375,1.0,953.2433953468333,0.08092275205997762,1.3534067764235405,0.6065103426602659,0.2885939375,0.6017335790112299
0.008,1.7984,1.0,1040.3581683906416,0.08607804869295488,1.3520086505583297,0.6345324519963859,0.2885858,0.6048785393243103
0.0085,1.79819375,1.0,1125.3201446352937,0.09120442825235042,1.350689157733921,0.659984745294018,0.2885771375,0.6078351870149012
0.009000000000000001,1.797975,1.0,1207.8797370910413,0.09630205262858231,1.3494423143877523,0.6831046750110277,0.28856795,0.6106188422045002
0.0095,1.79774375,1.0,1287.8742283263093,0.10137108366192726,1.3482623616932516,0.7041179033195765,0.2885582375,0.6132440287877512
0.01,1.7975,1.0,1365.1678698531337,0.10641168159619846,1.3471443747324916,0.7232344947953089,0.288548,0.6157231603685824
0.0105,1.79724375,1.0,1439.6609955836814,0.11142400542748959,1.3460839276589684,0.7406468997615213,0.2885372375,0.6180673310463709
0.011,1.796975,1.0,1511.3090086651714,0.11640821378520898,1.3450767149545386,0.7565294312823986,0.28852595000000003,0.6202871836613013
0.0115,1.79669375,1.0,1580.1121638913405,0.12136446519699591,1.3441185887686593,0.7710388655310577,0.2885141375,0.6223928471424309
0.012,1.7964,1.0,1646.0669236965905,0.12629291619778885,1.3432060489286923,0.7843157306202518,0.28850180000000003,0.6243928825853191
0.0125,1.79609375,1.0,1709.1802506276483,0.13119372208355506,1.342335962704105,0.7964854722103842,0.2884889375,0.626294925508462
0.013000000000000001,1.7957750000000001,1.0,1769.4952925410532,0.13606703812943677,1.3415051998896896,0.8076597053621035,0.28847555,0.6281065001540278
0.0135,1.79544375,1.0,1827.0742195963742,0.1409130185429671,1.3407107873762387,0.8179376888487997,0.2884616375,0.6298346918541564
0.014,1.7951000000000001,1.0,1881.9872788458556,0.14573181772632995,1.3399499844397438,0.8274076904616,0.2884472,0.6314859951512053
0.0145,1.79474375,1.0,1934.2868583420707,0.1505235870390022,1.3392205181180468,0.8361482948368913,0.2884322375,0.6330658166062625
0.015,1.794375,1.0,1984.046288622576,0.15528847784046068,1.3385201154489899,0.8442293521861761,0.28841675,0.6345795007538348
0.0155,1.79399375,1.0,2031.3484263056712,0.1600266407199984,1.3378466047255766,0.851713033375104,0.2884007375,0.6360321163118623
0.016,1.7936,1.0,2076.287865826109,0.16473822679631067,1.3371978693024342,0.8586547219762664,0.2883842,0.6374285616642171
0.0165,1.7931937500000001,1.0,2118.953017448277,0.16942338587283273,1.3365720140748811,0.8651038657518387,0.2883671375,0.6387732121861545
0.017,1.792775,1.0,2159.4098791490374,0.17408226474673677,1.3359675067964063,0.8711047153445433,0.28834955,0.6400696249266795
0.0175,1.7923437500000001,1.0,2197.735128695611,0.17871501021519504,1.335382815220499,0.8766968331997944,0.2883314375,0.6413213241542495
0.018000000000000002,1.7919,1.0,2234.015232656714,0.18332176907537975,1.3348164071006483,0.8819156449284636,0.2883128,0.6425318033680261
0.0185,1.79144375,1.0,2268.337770433389,0.1879026872100114,1.334266828332408,0.8867929420373776,0.2882936375,0.643704360575869
0.019,1.790975,1.0,2300.79390255952,0.1924579108266016,1.3337326679594874,0.891357294123841,0.28827395,0.6448421758183754
0.0195,1.79049375,1.0,2331.464038493408,0.19698758439783964,1.333212690810039,0.8956344483727823,0.2882537375,0.6459480315150936
0.02,1.79,1.0,2360.414109033976,0.20149184987735247,1.3327058622931074,0.8996476530517044,0.288233,0.647024264017219
0.0205,1.78949375,1.0,2387.715087292583,0.2059708492187669,1.3322111478177365,0.9034178921276601,0.2882117375,0.6480731928112947
0.021,1.788975,1.0,2413.442569458679,0.2104247243757099,1.331727512792971,0.9069641366104232,0.28818995000000003,0.6490971213526442
0.021500000000000002,1.78844375,1.0,2437.6697393307995,0.21485361601693423,1.3312539864932391,0.9103035780056459,0.2881676375,0.6500982029092378
0.022,1.7879,1.0,2460.472985981389,0.21925766596624985,1.3307896032338429,0.913451810013893,0.2881448,0.6510785663022858
0.0225,1.78734375,1.0,2481.920371444737,0.2236370143439858,1.3303335090575883,0.9164230186880976,0.28812143749999997,0.6520400918166462
0.023,1.786775,1.0,2502.067324719274,0.22799179807847414,1.3298849974503224,0.9192301360894927,0.28809755,0.6529843381926046
0.0235,1.78619375,1.0,2520.9716820565613,0.23232215409804705,1.3294433618978923,0.9218849439219818,0.28807313749999996,0.6539128549152244
0.024,1.7856,1.0,2538.6934852896825,0.2366282193310366,1.3290078958861447,0.9243981917505162,0.2880482,0.6548271825400886
0.0245,1.78499375,1.0,2555.294791228056,0.24091013070577494,1.3285778929009264,0.92677970164694,0.2880227375,0.6557288529872045
0.025,1.7843750001630245,1.0,2570.8304550630164,0.2451680220183501,1.3281527311420276,0.9290384739762093,0.28799675000684705,0.6566192125128449
0.025500000000000002,1.7837500640035484,1.0,2585.650415991522,0.24940203246704049,1.3277318987341442,0.9311827767110492,0.28797050268814905,0.6574993703830123
0.026000000000000002,1.7831251278440723,1.0,2600.066146259549,0.253612295410197,1.32731522747276,0.933220248522847,0.287944255369451,0.6583697125779828
0.0265,1.7825001916845962,1.0,2614.0864344001493,0.2577989422439585,1.3269026011674128,0.9351579127179512,0.287918008050753,0.659230514508863
0.027,1.7818752555251198,1.0,2627.720314256524,0.26196210436446415,1.32649390362764,0.9370022282340031,0.287891760732055,0.6600820500445962
0.0275,1.7812503193656437,1.0,2640.977054711333,0.26610191316785287,1.3260890186629797,0.9387591424895746,0.28786551341335703,0.6609245915415016
0.028,1.7806253832061676,1.0,2653.866149715458,0.2702185000502636,1.3256878300829693,0.9404341386473676,0.28783926609465904,0.6617584098719609
0.0285,1.7800004470466915,1.0,2666.397308616083,0.2743119964078354,1.325290221697147,0.9420322779416437,0.28781301877596105,0.6625837744522354
0.029,1.7793755108872154,1.0,2678.5789297195697,0.278382526940362,1.3248960912350454,0.9435582370426959,0.28778677145726306,0.6634009244266234
0.029500000000000002,1.7787505747277392,1.0,2690.4251182759067,0.28243023025809166,1.324505285857341,0.9450163411117134,0.287760524138565,0.6642102023298643
0.03,1.778125638568263,1.0,2701.945468483027,0.2864552320573486,1.3241176959744494,0.9464105973836133,0.287734276819867,0.6650118595542551
0.0305,1.7775007024087868,1.0,2713.14955654152,0.2904576574678215,1.3237332137359306,0.9477447217201626,0.287708029501169,0.6658061426154538
0.031,1.7768757662493107,1.0,2724.047122203532,0.29443763161919906,1.3233517312913439,0.9490221634473046,0.28768178218247104,0.6665932967821765
0.0315,1.7762508300898345,1.0,2734.6480614703314,0.2983952796411701,1.3229731407902494,0.9502461278058227,0.28765553486377304,0.6673735660971994
0.032,1.7756258939303584,1.0,2744.9624195483916,0.3023307266634232,1.3225973343822066,0.9514195962496979,0.28762928754507505,0.6681471933976237
0.0325,1.775000957770882,1.0,2755.000384062868,0.3062440978156472,1.322224204216775,0.9525453448216807,0.28760304022637706,0.6689144203343946
0.033,1.774376021611406,1.0,2764.772278529238,0.3101355182275307,1.3218536424435146,0.953625960808857,0.287576792907679,0.6696754873910787
0.0335,1.7737510854519298,1.0,2774.277338606821,0.3140050855124192,1.321485642348309,0.9546638618755332,0.2875505455889811,0.670430426543033
0.034,1.7731261492924537,1.0,2783.536931452632,0.317852950404949,1.3211199984514261,0.9556612976441095,0.28752429827028303,0.6711796766408038
0.0345,1.7725012131329776,1.0,2792.565910145991,0.3216792493959806,1.3207565655291755,0.9566203732706516,0.28749805095158504,0.6719235512433921
0.035,1.7718762769735015,1.0,2801.3706306870563,0.3254840983133407,1.3203952758391393,0.9575430610230348,0.28747180363288705,0.6726622041452865
0.035500000000000004,1.7712513408140251,1.0,2809.9575277812687,0.32926761298485613,1.3200360616388993,0.9584312074592034,0.28744555631418905,0.673395788426858
0.036000000000000004,1.770626404654549,1.0,2818.3331116708955,0.3330299092383537,1.3196788551860374,0.9592865428897471,0.28741930899549106,0.674124456463471
0.0365,1.770001468495073,1.0,2826.503965068683,0.3367711029016601,1.319323588738136,0.9601106900250926,0.28739306167679307,0.674848359934304
0.037,1.7693765323355968,1.0,2834.476740193159,0.3404913098026022,1.3189701945527768,0.9609051718859668,0.2873668143580951,0.6755676498308794
0.0375,1.7687515961761207,1.0,2842.2581559057426,0.3441906457690068,1.318618604887542,0.961671419047415,0.28734056703939703,0.6762824764652948
0.038,1.7681266600166445,1.0,2849.8549949497724,0.3478692266287006,1.3182687520000131,0.9624107762792943,0.2873143197206991,0.6769929894781701
0.0385,1.7675017238571682,1.0,2857.2741012904403,0.35152716820951047,1.3179205681477728,0.963124508639607,0.28728807240200105,0.6776993378462925
0.039,1.766876787697692,1.0,2864.5223775580466,0.35516458633926307,1.3175739855884026,0.9638138070712449,0.28726182508330306,0.678401669889978
0.0395,1.766251851538216,1.0,2871.6067825912255,0.3587815968457853,1.317228936579485,0.9644797935475564,0.28723557776460507,0.6791001332801312
0.04,1.7656269153787398,1.0,2878.534329083221,0.36237831555690386,1.3168853533786014,0.9651235258075724,0.2872093304459071,0.6797948750450222
0.0405,1.7650019792192637,1.0,2885.3120813292435,0.3659548583004456,1.316543168243334,0.9657460017176406,0.2871830831272091,0.6804860415767614
0.041,1.7643770430597874,1.0,2891.947153075798,0.3695113409042372,1.316202313431265,0.9663481632925891,0.28715683580851104,0.6811737786374874
0.0415,1.7637521069003113,1.0,2898.4467054720385,0.37304787919610555,1.3158627211999765,0.9669309004062947,0.2871305884898131,0.6818582313652612
0.042,1.7631271707408351,1.0,2904.8090996530727,0.37656455901866237,1.3155244017450225,0.9674950557363737,0.28710434117111505,0.6825393874472119
0.0425,1.762502234581359,1.0,2911.04768925493,0.38006152608889643,1.3151872333531582,0.9680414253753872,0.28707809385241706,0.6832174997805542
0.043000000000000003,1.761877298421883,1.0,2917.1670006197246,0.38353889027582877,1.3148511725287007,0.9685707632415546,0.28705184653371907,0.6838926631291531
0.043500000000000004,1.7612523622624068,1.0,2923.1705066268764,0.3869967573881713,1.3145161852848686,0.9690837834577668,0.2870255992150211,0.684564952786525
0.044,1.7606274261029304,1.0,2929.061703888466,0.39043523323463597,1.3141822376348808,0.9695811627492978,0.2869993518963231,0.6852344437332247
0.0445,1.7600024899434543,1.0,2934.844111953194,0.3938544236239348,1.3138492955919565,0.9700635427730966,0.2869731045776251,0.6859012106391349
0.045,1.7593775537839782,1.0,2940.5212725358087,0.39725443436477975,1.3135173251693144,0.9705315322798787,0.2869468572589271,0.6865653278656836
0.0455,1.758752617624502,1.0,2946.096748771845,0.4006353712658828,1.3131862923801738,0.9709857091225509,0.28692060994022905,0.6872268694679857
0.046,1.758127681465026,1.0,2951.5741244989213,0.40399734013595584,1.3128561632377533,0.9714266221232724,0.2868943626215311,0.6878859091969141
0.0465,1.7575027453055498,1.0,2956.957003562015,0.40734044678371095,1.3125269037552725,0.9718547928103789,0.28686811530283307,0.6885425205010927
0.047,1.7568778091460735,1.0,2962.2490091465293,0.41066479701786,1.3121984799459496,0.9722707170353986,0.2868418679841351,0.6891967765288217
0.0475,1.7562528729865974,1.0,2967.453783134751,0.41397049664711505,1.311870857823004,0.9726748664794986,0.2868156206654371,0.6898487501299222
0.048,1.7556279368271213,1.0,2972.5749854894916,0.41725765148018806,1.3115440033996546,0.9730676900578966,0.2867893733467391,0.6904985138575128
0.0485,1.7550030006676451,1.0,2977.616293662654,0.4205263673257909,1.3112178826891205,0.9734496152300375,0.2867631260280411,0.6911461399697092
0.049,1.754378064508169,1.0,2982.581402029546,0.4237767499926357,1.3108924617046205,0.9738210492226773,0.2867368787093431,0.6917917004312535
0.0495,1.7537531283486927,1.0,2987.4723227266913,0.4270088935565742,1.3105677212175306,0.9741823797843551,0.2867106313906451,0.6924352376841524
0.05,1.7531281921892166,1.0,2992.2899532650376,0.4302228893543695,1.3102436517658282,0.974533977034292,0.2866843840719471,0.6930767746779449
0.0505,1.7525032560297404,1.0,2997.041755977652,0.43341887531875894,1.309920186998049,0.9748761956494543,0.2866581367532491,0.6937164467190509
0.051000000000000004,1.7518783198702643,1.0,3001.7294484419085,0.4365969477501957,1.3095973105892875,0.9752093726590383,0.2866318894345511,0.6943542897827815
0.051500000000000004,1.7512533837107882,1.0,3006.354756465942,0.4397572029491329,1.3092750062146383,0.9755338299093422,0.2866056421158531,0.694990339703238
0.052000000000000005,1.750628447551312,1.0,3010.919413878267,0.44289973721602366,1.308953257549196,0.975849874880803,0.2865793947971551,0.6956246321739163
0.0525,1.7500035113918357,1.0,3015.4251623238906,0.44602464685132104,1.3086320482680558,0.9761578014541836,0.2865531474784571,0.6962572027482923
0.053,1.7493785752323596,1.0,3019.873751066202,0.4491320281554783,1.3083113620463118,0.9764578906294847,0.2865269001597591,0.6968880868403955
0.0535,1.7487536390728835,1.0,3024.2669367944873,0.45222197742894854,1.3079911825590589,0.9767504112008831,0.2865006528410611,0.6975173197253586
0.054,1.7481287029134074,1.0,3028.6064834378085,0.45529459097218483,1.3076714934813918,0.9770356203907413,0.28647440552236314,0.698144936539955
0.0545,1.7475037667539313,1.0,3032.8941619841294,0.4583499650856403,1.307352278488405,0.9773137644454933,0.2864481582036651,0.6987709722831184
0.055,1.7468788305944551,1.0,3037.131750306356,0.46138819606976816,1.3070335212551938,0.9775850791960052,0.2864219108849671,0.6993954618164429
0.0555,1.7462538944349788,1.0,3041.3210329932126,0.46440938022502143,1.306715205456852,0.9778497905848069,0.2863956635662691,0.7000184398646717
0.056,1.7456289582755027,1.0,3045.4638011867196,0.46741361385185337,1.306397314768475,0.9781081151624114,0.2863694162475711,0.7006399410161608
0.0565,1.7450040221160266,1.0,3049.561852425369,0.470400993250717,1.306079832865157,0.9783602605547785,0.2863431689288731,0.701259999723334
0.057,1.7443790859565504,1.0,3053.6169904931107,0.47337161472206546,1.3057627434219932,0.978606425903817,0.28631692161017513,0.7018786503031135
0.0575,1.7437541497970743,1.0,3057.6310252744497,0.47632557456635194,1.3054460301140776,0.9788468022826933,0.28629067429147714,0.7024959269373406
0.058,1.7431292136375982,1.0,3061.605772615281,0.47926296908402954,1.3051296766165055,0.9790815730875749,0.2862644269727791,0.7031118636731721
0.0585,1.7425042774781219,1.0,3065.5399274014912,0.4821838510054401,1.3048136934227348,0.9793109122130764,0.2862381796540811,0.7037264422895123
0.059000000000000004,1.7418793413186457,1.0,3069.4374868283976,0.4850883581304068,1.3044980455580835,0.97953499134176,0.2862119323353831,0.7043397329442198
0.059500000000000004,1.7412544051591696,1.0,3073.300281545625,0.4879765926986406,1.304182716702458,0.9797539734476822,0.2861856850166851,0.7049517693224241
0.06,1.7406294689996935,1.0,3077.129101453081,0.4908486412851992,1.3038676994924276,0.9799680143796439,0.28615943769798713,0.7055625676185577
0.0605,1.7400045328402174,1.0,3080.924739248038,0.49370459046514065,1.303552986564562,0.9801772639963121,0.28613319037928914,0.7061721439659912
0.061,1.7393795966807413,1.0,3084.68799037503,0.4965445268135226,1.3032385705554308,0.9803818664424543,0.28610694306059115,0.706780514437178
0.0615,1.738754660521265,1.0,3088.419652976603,0.4993685369054029,1.3029244441016032,0.9805819604103977,0.2860806957418931,0.7073876950437967
0.062,1.7381297243617888,1.0,3092.120527845789,0.5021767073158393,1.3026105998396489,0.9807776793876096,0.2860544484231951,0.7079937017368875
0.0625,1.7375047882023127,1.0,3095.7914183790176,0.5049691246198897,1.302297030406137,0.9809691518912301,0.2860282011044971,0.7085985504069869
0.063,1.7368798520428366,1.0,3099.4331305307874,0.5077458753926118,1.3019837284376372,0.9811565016903468,0.2860019537857991,0.7092022568842582
0.0635,1.7362549158833605,1.0,3103.046472769499,0.5105070462090636,1.301670686570719,0.981339848016728,0.28597570646710113,0.7098048369386192
0.064,1.735629979723884,1.0,3106.6322560342915,0.5132527236443027,1.301357897441952,0.981519305764702,0.28594945914840314,0.710406306279866
0.0645,1.735005043564408,1.0,3110.1912936932804,0.515982994273387,1.3010453536879052,0.9816949856808149,0.28592321182970515,0.7110066805577937
0.065,1.7343801074049319,1.0,3113.7244015026554,0.5186979446713743,1.3007330479451484,0.9818669945438585,0.2858969645110071,0.7116059753623121
0.0655,1.7337551712454558,1.0,3117.232397567779,0.5213976614133224,1.3004209728502512,0.9820354353358259,0.28587071719230917,0.7122042062235607
0.066,1.7331302350859796,1.0,3120.7161023040208,0.5240822310742892,1.3001091210397826,0.9822004074043138,0.2858444698736111,0.7128013886120188
0.0665,1.7325052989265033,1.0,3124.17633840058,0.5267517402293322,1.2997974851503127,0.9823620066168558,0.2858182225549131,0.7133975379386099
0.067,1.7318803627670272,1.0,3127.6139307842823,0.5294062754535096,1.2994860578184102,0.9825203255076438,0.28579197523621513,0.7139926695548082
0.0675,1.731255426607551,1.0,3131.0297065847903,0.532045923321879,1.2991748316806453,0.9826754534170633,0.28576572791751714,0.7145867987527346
0.068,1.730630490448075,1.0,3134.4244951013297,0.5346707704094984,1.298863799373587,0.9828274766244425,0.28573948059881915,0.7151799407652563
0.0685,1.7300055542885988,1.0,3137.797597666058,0.5372808594297462,1.2985529665054758,0.9829764763358756,0.28571323328012116,0.7157720860675391
0.069,1.7293806181291227,1.0,3141.150892783036,0.5398763210423216,1.2982423168380257,0.9831225354784329,0.28568698596142317,0.7163632667317816
0.0695,1.7287556819696464,1.0,3144.485011385,0.5424572411445805,1.2979318447348234,0.9832657319104778,0.2856607386427251,0.7169534945564576
0.07,1.7281307458101702,1.0,3147.800320498638,0.54502369713891,1.2976215468069634,0.9834061404914268,0.28563449132402713,0.7175427770287962
0.07050000000000001,1.7275058096506941,1.0,3151.0971881983496,0.5475757664276977,1.2973114196655402,0.9835438336166404,0.28560824400532914,0.718131121608613
