Time [s],Phi [rad],STIM [ ],Fsee [N],Gamma [ ],Lcerel [ ],q [ ],Lmtc [m],fisomrel [ ]
0.0,1.8,1.0,17.97439203422667,8.628685941450426e-05,1.3793389358662922,0.005001950868300428,0.288653,0.5411414915045569
0.0005,1.79999375,1.0,18.30901555607287,0.0056950121671872425,1.3792988046450225,0.013153657650556694,0.2886527375,0.5412385739631922
0.001,1.799975,1.0,21.707346713254417,0.011272276960535392,1.378929224961635,0.03600720514790881,0.28865195,0.5421321507333375
0.0015,1.79994375,1.0,31.279381408076322,0.016818257708991702,1.3780283302343241,0.0711466617052899,0.2886506375,0.5443067013400791
0.002,1.7999,1.0,54.03417427894473,0.02233312989033148,1.3763388836335675,0.11536279328646437,0.2886488,0.5483706781423474
0.0025,1.79984375,1.0,97.8772770754171,0.027817067998641223,1.373898695749623,0.16527606352620217,0.28864643749999996,0.5542084353212079
0.003,1.7997750000000001,1.0,161.94428231173583,0.03327024555134047,1.371177488876918,0.21800365588718748,0.28864354999999997,0.560673698185668
0.0035,1.79969375,1.0,238.79717189677433,0.038692835089336075,1.3685504651051943,0.27133208729770636,0.2886401375,0.5668703911694675
0.004,1.7996,1.0,322.6515754769042,0.04408500818764405,1.3661247403213317,0.3236121094764297,0.2886362,0.5725531713158083
0.0045000000000000005,1.7994937500000001,1.0,410.4944995672376,0.04944693546062174,1.3638940392433372,0.3736954362567207,0.2886317375,0.5777459445254101
0.005,1.799375,1.0,500.6651259730485,0.05477878655347216,1.3618317621306857,0.42086577501136985,0.28862675,0.5825184180912083
0.0055,1.79924375,1.0,592.0529147419776,0.060080730185526385,1.3599141820600409,0.46474614102516104,0.2886212375,0.5869317013777161
0.006,1.7991000000000001,1.0,683.7818400550789,0.065352934103404,1.358123454091749,0.5052060210235608,0.2886152,0.5910318610631216
0.006500000000000001,1.79894375,1.0,775.1372068208007,0.07059556512821061,1.3564458224362466,0.5422817495446627,0.2886086375,0.5948545142466448
0.007,1.798775,1.0,865.514377481477,0.07580878894917926,1.3548705567616826,0.5761152314025706,0.28860155,0.5984275763509358
0.0075,1.79859375,1.0,954.4643089102276,0.0809927711212239,1.3533880035221133,0.6069085636494546,0.2885939375,0.6017758895620371
0.008,1.7984,1.0,1041.559569965597,0.08614767510570233,1.3519909674418291,0.6348942291756159,0.2885858,0.6049182360949146
0.0085,1.79819375,1.0,1126.482976090682,0.09127366394922383,1.3506727006094736,0.6603134693353582,0.2885771375,0.6078719931353905
0.009000000000000001,1.797975,1.0,1209.0176064856105,0.09637090012166179,1.3494267702834397,0.6834033556100622,0.28856795,0.6106534828102177
0.0095,1.79774375,1.0,1288.9761819359105,0.10143954500483107,1.348247782916226,0.7043895634471906,0.2885582375,0.6132764084627969
0.01,1.7975,1.0,1366.221740622552,0.1064797586068668,1.3471308322614273,0.7234819251936029,0.288548,0.6157531418797476
0.0105,1.79724375,1.0,1440.6612582979635,0.11149169996095044,1.346071410783746,0.7408725961672042,0.2885372375,0.6180949573920529
0.011,1.796975,1.0,1512.2934024209387,0.11647552950172782,1.3450646920640763,0.7567353998080489,0.28852595000000003,0.6203136425086868
0.0115,1.79669375,1.0,1581.0705369466664,0.12143140379004073,1.3441071412284518,0.7712271832501726,0.2885141375,0.6224179698838723
0.012,1.7964,1.0,1646.9793462829036,0.1263594789522635,1.3431953706932833,0.784488300252625,0.28850180000000003,0.6244162548938132
0.0125,1.79609375,1.0,1710.0483099423986,0.1312599111147704,1.3423259928749822,0.79664388168543,0.2884889375,0.6263166919711659
0.013000000000000001,1.7957750000000001,1.0,1770.328477491949,0.1361328558498062,1.3414957950158242,0.8078053337591472,0.28847555,0.6281269833753514
0.0135,1.79544375,1.0,1827.8805778165154,0.1409784677174111,1.3407018298231455,0.8180717724858315,0.2884616375,0.6298541554692616
0.014,1.7951000000000001,1.0,1882.7551005175394,0.14579689939989085,1.3399415802642514,0.8275314077776615,0.2884472,0.6315042155849604
0.0145,1.79474375,1.0,1935.0184481016227,0.1505883032461389,1.3392126194566598,0.8362626396338265,0.2884322375,0.6330829043410438
0.015,1.794375,1.0,1984.7445415301456,0.1553528307618915,1.3385126717976075,0.8443352075248051,0.28841675,0.6345955708942771
0.0155,1.79399375,1.0,2032.0321912482598,0.16009063396835418,1.3378394008624046,0.851811133162754,0.2884007375,0.6360476378346029
0.016,1.7936,1.0,2076.947976305735,0.16480186177437695,1.3371909902961199,0.8587458123952388,0.2883842,0.6374433547931186
0.0165,1.7931937500000001,1.0,2119.5681699990237,0.16948666282186067,1.3365656683969376,0.8651886486344781,0.2883671375,0.6387868330884013
0.017,1.792775,1.0,2159.9799969620735,0.17414518556438627,1.335961680993547,0.8711837545312117,0.28834955,0.6400821074744583
0.0175,1.7923437500000001,1.0,2198.272181684438,0.17877757746930437,1.335377375328073,0.8767705998219838,0.2883314375,0.6413329595601174
0.018000000000000002,1.7919,1.0,2234.5411479587247,0.18338398662896122,1.3348111234443025,0.881984536593829,0.2883128,0.6425430855164669
0.0185,1.79144375,1.0,2268.854751621748,0.1879645574014142,1.334261673868378,0.8868573673726947,0.2882936375,0.6437153487969074
0.019,1.790975,1.0,2301.2881394956685,0.19251943414472086,1.3337277751264418,0.8914176591868894,0.28827395,0.6448525896337853
0.0195,1.79049375,1.0,2331.9231438992697,0.1970487612169385,1.3332081757446368,0.8956911147571275,0.2882537375,0.6459576263295002
0.02,1.79,1.0,2360.835971961716,0.20155268139934793,1.3327017389902402,0.8997009234497012,0.288233,0.6470330129874684
0.0205,1.78949375,1.0,2388.1186717104033,0.20603133964292414,1.3322072257764082,0.903467995700722,0.2882117375,0.6480815023658884
0.021,1.788975,1.0,2413.8408205094884,0.21048487725593484,1.3317236632611937,0.9070112938111187,0.28818995000000003,0.6491052654099941
0.021500000000000002,1.78844375,1.0,2438.063363107993,0.21491343376521316,1.3312502006403109,0.9103480134550038,0.2881676375,0.6501062008155415
0.022,1.7879,1.0,2460.8507163900717,0.21931714869759225,1.3307859871094732,0.9134937498213375,0.2881448,0.6510861949362611
0.0225,1.78734375,1.0,2482.270480390753,0.2236961615799053,1.330330171864394,0.9164626687101276,0.28812143749999997,0.6520471223088007
0.023,1.786775,1.0,2502.389396030932,0.22805061126664522,1.3298819398835564,0.9192676638914365,0.28809755,0.6529907708503242
0.0235,1.78619375,1.0,2521.2694517557397,0.23238063556301988,1.329440545648748,0.9219204954394905,0.28807313749999996,0.6539187719472426
0.024,1.7856,1.0,2538.9858689003013,0.2366863742792128,1.3290051402443397,0.9244318757412295,0.2880482,0.6548329645816402
0.0245,1.78499375,1.0,2555.585652254304,0.24096796172469748,1.3285751605275358,0.9268116415799381,0.2880227375,0.6557345787127045
0.025,1.784375,1.0,2571.1174302378454,0.24522553220894727,1.3281500433555402,0.9290687933563776,0.28799675,0.6566248375183581
0.025500000000000002,1.78374375,1.0,2585.631320189417,0.24945922004143567,1.3277292255855575,0.9312115776202854,0.2879702375,0.6575049575800088
0.026000000000000002,1.7831000000000001,1.0,2599.1788006855713,0.2536691595316361,1.3273121440747913,0.9332475604524817,0.2879432,0.6583761490470762
0.0265,1.78244375,1.0,2611.8095419752385,0.25785548422344184,1.326898264011445,0.9351836969727227,0.2879156375,0.6592395567165292
0.027,1.781775,1.0,2623.567551441658,0.26201832619876214,1.3264871132799065,0.9370263941221781,0.28788755,0.6600961889737037
0.0275,1.7810937500000001,1.0,2634.5122560930317,0.26615782089431056,1.326078085811834,0.9387815339125368,0.2878589375,0.6609473276571756
0.028,1.7804,1.0,2644.6787324368574,0.2702740971796723,1.325670809334734,0.9404545725673261,0.2878298,0.6617937625869239
0.0285,1.77969375,1.0,2654.1027435976966,0.27436728392443266,1.3252649115761133,0.9420505473330183,0.2878001375,0.662636279647268
0.029,1.778975,1.0,2662.8206798068054,0.2784375099981767,1.3248600202634777,0.9435741141049726,0.28776995,0.6634756608240207
0.029500000000000002,1.7782437500000001,1.0,2670.869501964475,0.2824849042704896,1.324455763124334,0.9450295812227907,0.2877392375,0.6643126842327998
0.03,1.7775,1.0,2678.28668827482,0.2865095956109566,1.324051767886189,0.9464209398667744,0.287708,0.6651481241385062
0.0305,1.77674375,1.0,2685.1042610802683,0.2905117104653732,1.3236477165564462,0.9477518977066203,0.2876762375,0.6659826389279282
0.031,1.775975,1.0,2691.3602111339014,0.2944913784030951,1.3232432400989116,0.9490258912925862,0.28764395,0.6668169889360887
0.0315,1.7751937500000001,1.0,2697.0848775565164,0.2984487254697707,1.3228380428974533,0.9502461223917158,0.2876111375,0.6676517795221368
0.032,1.7744,1.0,2702.303049149247,0.3023838751568602,1.3224318828280517,0.9514155751988386,0.2875778,0.6684875029845585
0.0325,1.77359375,1.0,2707.039768105966,0.3062969509558235,1.3220245177666872,0.9525370284364183,0.2875439375,0.6693246490979994
0.033,1.772775,1.0,2711.3203055271056,0.3101880763581206,1.32161570558934,0.9536130719955251,0.28750955,0.6701637050965272
0.0335,1.7719437500000002,1.0,2715.170138233886,0.3140573748552116,1.3212052041719906,0.9546461220389142,0.2874746375,0.6710051556531564
0.034,1.7711000000000001,1.0,2718.614926881603,0.31790496993855644,1.3207927713906193,0.9556384347247089,0.2874392,0.671849482855631
0.0345,1.7702437500000001,1.0,2721.675407226509,0.3217309760413512,1.3203782114369538,0.9565921214507354,0.2874032375,0.6726970715448295
0.035,1.7693750000000001,1.0,2724.3853329342533,0.32553552823692045,1.3199612112814783,0.9575091498723816,0.28736675,0.6735485436074274
0.035500000000000004,1.76849375,1.0,2726.760717045392,0.3293187437631683,1.3195416205173565,0.9583913749688138,0.2873297375,0.6744041860878245
0.036000000000000004,1.7676,1.0,2728.8176468004535,0.33308073983425357,1.3191192889083732,0.9592405348477793,0.2872922,0.6752642839496629
0.0365,1.76669375,1.0,2730.5722924492447,0.33682163366433493,1.318694066218314,0.9600582594258352,0.2872541375,0.6761291203993525
0.037,1.765775,1.0,2732.040897826896,0.34054154246757123,1.3182658022109637,0.9608460783808308,0.28721555,0.6769989768590936
0.0375,1.76484375,1.0,2733.2397714304016,0.3442405834581212,1.3178343466501075,0.9616054284344575,0.2871764375,0.6778741329384546
0.038,1.7639,1.0,2734.1852779953956,0.34791887385014353,1.31739954929953,0.9623376600280874,0.28713679999999997,0.6787548664045127
0.0385,1.76294375,1.0,2734.8938305736174,0.35157653085779694,1.316961259923017,0.96304404344856,0.28709663750000003,0.6796414531505539
0.039,1.761975,1.0,2735.3818831104227,0.3552136716952403,1.316519328284353,0.9637257744547298,0.28705595,0.6805341671633354
0.0395,1.7609937500000001,1.0,2735.65534082356,0.35883039955522,1.3160737002316938,0.964383985533463,0.2870147375,0.6814330868043539
0.04,1.76,1.0,2735.735980034362,0.3624268424508283,1.3156241777596365,0.9650197359896947,0.286973,0.6823385791248514
0.0405,1.7589937500000001,1.0,2735.6415992783154,0.3660031228216467,1.3151705991902516,0.9656340271954647,0.2869307375,0.6832509356060517
0.041,1.757975,1.0,2735.380501749043,0.36955934989539796,1.3147128892139972,0.9662278094935689,0.28688795,0.6841702722020992
0.0415,1.75694375,1.0,2734.9610048164277,0.3730956328998048,1.3142509725213307,0.966801980527937,0.2868446375,0.6850967036651717
0.042,1.7559,1.0,2734.3914375618297,0.3766120810625899,1.3137847738027097,0.9673573887063314,0.28680079999999997,0.6860303435254538
0.0425,1.75484375,1.0,2733.6801384393475,0.3801088036114762,1.3133142177485924,0.9678948364012981,0.2867564375,0.6869713040707515
0.043000000000000003,1.753775,1.0,2732.835453062335,0.3835859097741863,1.3128392290494362,0.968415082911617,0.28671155,0.6879196963257475
0.043500000000000004,1.75269375,1.0,2731.8657321163178,0.3870435087784429,1.312359732395699,0.9689188472044166,0.28666613750000003,0.6888756300308906
0.044,1.7516,1.0,2730.7793293969016,0.39048170985196884,1.3118756524778383,0.9694068104562323,0.2866202,0.6898392136209268
0.0445,1.75049375,1.0,2729.5845999741186,0.3939006222224869,1.3113869139863121,0.9698796184096095,0.2865737375,0.6908105542030646
0.045,1.7493750000000001,1.0,2728.2898984821572,0.3973003551177198,1.310893441611578,0.9703378835603228,0.28652675,0.6917897575347842
0.0455,1.74824375,1.0,2726.903577534804,0.4006810177653902,1.310395160044094,0.9707821871889363,0.2864792375,0.6927769280012797
0.046,1.7471,1.0,2725.433986266832,0.40404271939322095,1.3098919939743174,0.9712130812491773,0.2864312,0.6937721685925434
0.0465,1.7459437500000001,1.0,2723.884003321126,0.4073855555173312,1.3093839178248348,0.9716310919298727,0.28638263750000004,0.6947754827530481
0.047,1.744775,1.0,2722.2627864464152,0.41070964340984506,1.308870848872053,0.9720367181752215,0.28633355,0.6957869857049024
0.0475,1.74359375,1.0,2720.578260799075,0.41401509561630795,1.3083527155440764,0.9724304346422468,0.28628393750000003,0.6968067691855673
0.048,1.7424,1.0,2718.8341690712077,0.4173020131000538,1.3078294842940772,0.9728126941698972,0.2862338,0.6978348488496253
0.0485,1.74119375,1.0,2717.0342513060878,0.42057049682441655,1.3073011215752284,0.9731839278704046,0.2861831375,0.6988712394088225
0.049,1.739975,1.0,2715.182244502854,0.4238206477527302,1.3067675938407028,0.9735445463683409,0.28613195,0.6999159546211275
0.0495,1.73874375,1.0,2713.2818822474023,0.42705256684832876,1.3062288675436735,0.9738949409580663,0.2860802375,0.700969007279717
0.05,1.7375,1.0,2711.3368943678347,0.4302663550745462,1.3056849091373133,0.9742354846856374,0.286028,0.7020304092018894
0.0505,1.73624375,1.0,2709.3510066143353,0.43346211339471646,1.3051356850747946,0.9745665333607377,0.2859752375,0.7031001712179075
0.051000000000000004,1.734975,1.0,2707.327940364851,0.43663994277217355,1.3045811618092906,0.9748884265037503,0.28592195,0.7041783031597664
0.051500000000000004,1.73369375,1.0,2705.2714123549727,0.4397999441702515,1.304021305793974,0.97520148823266,0.2858681375,0.7052648138498946
0.052000000000000005,1.7324,1.0,2703.1851344331526,0.44294221855228416,1.303456083482018,0.9755060280941114,0.2858138,0.7063597110897786
0.0525,1.73109375,1.0,2701.072813341081,0.4460668668816056,1.3028854613265948,0.9758023418425918,0.28575893750000003,0.7074630016485199
0.053,1.729775,1.0,2698.9381505184188,0.4491739901215498,1.3023094057808777,0.9760907121714032,0.28570355000000003,0.7085746912513158
0.0535,1.72844375,1.0,2696.7837668588363,0.4522636876260168,1.3017278931291514,0.9763714098427583,0.2856476375,0.7096947656500109
0.054,1.7271,1.0,2694.6105611216794,0.4553360554463873,1.3011409153747096,0.9766446945046595,0.2855912,0.7108231794875064
0.0545,1.7257437500000001,1.0,2692.4212589050735,0.45839118999693107,1.3005484477907505,0.9769108136721367,0.2855342375,0.711959918783707
0.055,1.724375,1.0,2690.2185232739425,0.46142918733981203,1.2999504661844272,0.9771700043125384,0.28547675,0.713104967588472
0.0555,1.72299375,1.0,2688.005013096833,0.4644501435371938,1.2993469463628924,0.9774224933830843,0.2854187375,0.7142583090025881
0.056,1.7216,1.0,2685.7830691786653,0.4674541545969284,1.2987378670087717,0.9776684984973891,0.2853602,0.7154199196908464
0.0565,1.72019375,1.0,2683.5547487494723,0.47044131574824133,1.2981232093695034,0.977908228306901,0.28530113749999997,0.716589770520495
0.057,1.718775,1.0,2681.322092977308,0.4734117212617176,1.2975029548090113,0.9781418827894393,0.28524155,0.7177678312497047
0.0575,1.71734375,1.0,2679.0826848324446,0.4763654650803141,1.2968771255632017,0.9783696560505006,0.2851814375,0.718953993358836
0.058,1.7159,1.0,2676.8408770042115,0.4793026408421938,1.2962456817688792,0.978591730813635,0.2851208,0.720148265412283
0.0585,1.71444375,1.0,2674.600761644947,0.4822233413112993,1.2956085858885682,0.9788082825133362,0.2850596375,0.7213506503474522
0.059000000000000004,1.712975497435823,1.0,2672.3825682185993,0.48512765891887516,1.2949658767288232,0.9790194837812156,0.28499797089230455,0.7225610062678465
0.059500000000000004,1.71150402389234,1.0,2670.6011965324124,0.4880156857052227,1.2943177071359748,0.9792255066443032,0.2849361690034783,0.7237789772519851
0.06,1.7100325503488574,1.0,2669.3732008465536,0.49088751286851934,1.2936644564263697,0.9794265286304045,0.28487436711465197,0.725003785177949
0.0605,1.7085610768053747,1.0,2668.6589281630363,0.4937432303845108,1.2930064856086358,0.9796227193506714,0.28481256522582576,0.7262346919364677
0.061,1.707089603261892,1.0,2668.4065017680537,0.4965829308188637,1.292344269692644,0.9798142482317759,0.28475076333699945,0.7274707524804678
0.0615,1.7056181297184094,1.0,2668.581580689922,0.49940670336544224,1.2916781237642436,0.9800012696041269,0.2846889614481732,0.7287113269048807
0.062,1.7041466561749268,1.0,2669.1533105707376,0.50221463653026,1.2910083318164556,0.9801839303400939,0.2846271595593469,0.7299558380529454
0.0625,1.7026751826314441,1.0,2670.0909170073464,0.5050068188193308,1.2903351778422993,0.9803623718623123,0.28456535767052066,0.7312037133522973
0.063,1.7012037090879613,1.0,2671.3636834874833,0.5077833387386681,1.2896589458347951,0.980536730394599,0.2845035557816944,0.7324543848784286
0.0635,1.6997322355444786,1.0,2672.9441148640485,0.5105442836448617,1.288979890543327,0.9807071356203152,0.2844417538928681,0.7337073433085675
0.064,1.698260762000996,1.0,2674.808047420726,0.5132897403083536,1.288298236344038,0.980873710957064,0.2843799520040418,0.73496213941619
0.0645,1.6967892884575133,1.0,2676.9194412339293,0.5160198005773605,1.2876143167426881,0.9810365812533551,0.28431815011521555,0.7362181275658057
0.065,1.6953178149140307,1.0,2679.262481341083,0.518734548949636,1.286928279512117,0.981195857152976,0.2842563482263893,0.7374750077047718
0.0655,1.693846341370548,1.0,2681.8213558655225,0.5214340699229332,1.2862402724251651,0.9813516453933993,0.284194546337563,0.7387324822766813
0.066,1.6923748678270654,1.0,2684.5802493204496,0.5241184479950052,1.2855504432546727,0.9815040489755902,0.28413274444873676,0.7399902562406249
0.0665,1.6909033942835827,1.0,2687.5233363971124,0.5267877676636055,1.2848589397734798,0.9816531673253015,0.2840709425599105,0.7412480370890595
0.067,1.6894319207400998,1.0,2690.6347762369733,0.5294421134264872,1.2841659097544267,0.9817990964463473,0.2840091406710842,0.7425055348642826
0.0675,1.6879604471966172,1.0,2693.8987071884253,0.5320815697814036,1.2834715009703537,0.981941929066299,0.2839473387822579,0.7437624621735166
0.068,1.6864889736531345,1.0,2697.299242047142,0.5347062212261081,1.282775861194101,0.9820817547750318,0.28388553689343166,0.7450185342025974
0.0685,1.685017500109652,1.0,2700.8287190476935,0.5373161467940698,1.2820790627639587,0.9822186562284426,0.2838237350046054,0.746273604433057
0.069,1.6835460265661693,1.0,2704.4677476318607,0.5399114362557614,1.2813812850166875,0.9823527190399288,0.28376193311577913,0.7475273355942529
0.0695,1.6820745530226866,1.0,2708.2072947029833,0.5424921711028805,1.2806826123576902,0.982484021041789,0.2837001312269528,0.7487795635206078
0.07,1.6806030794792037,1.0,2712.040392220504,0.5450584312345897,1.2799831101802277,0.9826126365244633,0.28363832933812655,0.7500301594828013
0.07050000000000001,1.679131605935721,1.0,2715.9600566919635,0.5476102965500518,1.2792828438775616,0.9827386373503347,0.2835765274493003,0.751278995904533
0.07100000000000001,1.6776601323922384,1.0,2719.959288018461,0.550147846948429,1.278581878842953,0.9828620930511228,0.283514725560474,0.752525946365849
0.07150000000000001,1.6761886588487558,1.0,2724.031068433955,0.5526711623288844,1.2778802804696632,0.9829830709207602,0.28345292367164776,0.7537708856061904
0.07200000000000001,1.6747171853052731,1.0,2728.1683615394672,0.5551803225905803,1.2771781141509533,0.9831016361039906,0.28339112178282144,0.755013689527172
0.0725,1.6732457117617905,1.0,2732.3641114326583,0.5576754076326793,1.2764754452800846,0.9832178516809141,0.2833293198939952,0.7562542351950859
0.073,1.6717742382183078,1.0,2736.611241931198,0.5601564973543441,1.2757723392503182,0.9833317787476861,0.2832675180051689,0.7574924008431358
0.0735,1.6703027646748252,1.0,2740.906780626614,0.5626236642665161,1.275068824040719,0.9834434744074503,0.28320571611634265,0.7587281315078314
