Time [s],Phi [rad],STIM [ ],Fsee [N],Gamma [ ],Lcerel [ ],q [ ],Lmtc [m],fisomrel [ ]
0.0,1.8,1.0,17.967151577671356,1.0119896987952496e-05,1.3793397469580113,0.005000027292130422,0.288653,0.5411395292660457
0.0005,1.79999375,1.0,18.276524486832315,0.005619272441163492,1.3793024121894428,0.012940847390379331,0.2886527375,0.5412298472808355
0.001,1.799975,1.0,21.61823336978285,0.011196962074487893,1.378938317248949,0.035609203130442545,0.28865195,0.5421101776802768
0.0015,1.79994375,1.0,31.06918590638351,0.016743365279875293,1.3780462079971452,0.07060256340851646,0.2886506375,0.5442635989125615
0.002,1.7999,1.0,53.582447843440875,0.022258657548588974,1.3763681277942141,0.11471885327660837,0.2886488,0.5483004859077747
0.0025,1.79984375,1.0,97.11910839237852,0.027743013387804678,1.3739351590317277,0.1645757797857865,0.28864643749999996,0.5541214822701419
0.003,1.7997750000000001,1.0,160.95856964547482,0.03319660632832793,1.3712143286781728,0.21728136791211627,0.28864354999999997,0.5605864865561654
0.0035,1.79969375,1.0,237.68388489316413,0.03861960892418528,1.3685847171885144,0.2706137964554206,0.2886401375,0.5667898796398689
0.004,1.7996,1.0,321.46744247355787,0.04401219276340659,1.3661560746203814,0.3229166801400358,0.2886362,0.5724800032480668
0.0045000000000000005,1.7994937500000001,1.0,409.2685261869663,0.04937452847320948,1.3639227959650475,0.3730353412605611,0.2886317375,0.5776792046459899
0.005,1.799375,1.0,499.41435013668575,0.05470678571108996,1.3618583243700515,0.42024824093386753,0.28862675,0.5824571208038859
0.0055,1.79924375,1.0,590.7913192652255,0.0600091332122842,1.3599388174126232,0.4641744210326303,0.2886212375,0.5868751521670992
0.006,1.7991000000000001,1.0,682.5190510557753,0.06528173873293304,1.3581463976111232,0.5046806269943538,0.2886152,0.5909794575196915
0.006500000000000001,1.79894375,1.0,773.8825507527829,0.07052476910533804,1.356467231546775,0.5418013656466707,0.2886086375,0.5948058444941899
0.007,1.798775,1.0,864.2868443208442,0.07573839022300777,1.354890378308221,0.575677336470893,0.28860155,0.5983827148732395
0.0075,1.79859375,1.0,953.2434845222247,0.08092276704848399,1.353406775051931,0.6065104295873738,0.2885939375,0.601733582102659
0.008,1.7984,1.0,1040.357872375753,0.08607806359470202,1.3520086549165535,0.6345325343518827,0.2885858,0.6048785295403021
0.0085,1.79819375,1.0,1125.3194170986767,0.091204443074618,1.3506891680331394,0.6599848237348949,0.2885771375,0.6078351639803077
0.009000000000000001,1.797975,1.0,1207.8790914156104,0.09630206738779255,1.3494423232102155,0.6831047458930655,0.28856795,0.6106188225428804
0.0095,1.79774375,1.0,1287.8731571036599,0.10137109830624061,1.3482623758684937,0.7041179708030959,0.2885582375,0.6132439973036734
0.01,1.7975,1.0,1365.1675144789756,0.10641169616221656,1.347144379300009,0.7232345516449707,0.288548,0.615723150256414
0.0105,1.79724375,1.0,1439.6613477147878,0.11142401992209403,1.34608392325178,0.7406469472544248,0.2885372375,0.6180673407737756
0.011,1.796975,1.0,1511.3095073516463,0.11640822819689949,1.3450767088628415,0.7565294737203585,0.28852595000000003,0.6202871970675694
0.0115,1.79669375,1.0,1580.1122794675798,0.12136447950360027,1.344118587387919,0.7710389062920977,0.2885141375,0.6223928501726506
0.012,1.7964,1.0,1646.0674923694214,0.12629293044363665,1.343206042272497,0.784315765650214,0.28850180000000003,0.6243928971544931
0.0125,1.79609375,1.0,1709.1815009742215,0.131193736271164,1.3423359483418122,0.7964855010230976,0.2884889375,0.6262949568651532
0.013000000000000001,1.7957750000000001,1.0,1769.4970170755078,0.1360670522403377,1.3415051804211022,0.8076597295353842,0.28847555,0.6281065425559644
0.0135,1.79544375,1.0,1827.073320546694,0.14091303251896717,1.3407107973645722,0.8179377221173796,0.2884616375,0.629834670150502
0.014,1.7951000000000001,1.0,1881.987276979095,0.1457318316186869,1.3399499844601785,0.8274077175599052,0.2884472,0.6314859951069017
0.0145,1.79474375,1.0,1934.2895950204977,0.15052360090128053,1.3392204885685184,0.8361483093783667,0.2884322375,0.633065880533596
0.015,1.794375,1.0,1984.0507116511324,0.1552884916522135,1.3385200682936391,0.8442293592679788,0.28841675,0.6345796025588964
0.0155,1.79399375,1.0,2031.354596233155,0.16002665469248212,1.337846539716365,0.8517130338675946,0.2884007375,0.6360322563829037
0.016,1.7936,1.0,2076.2922630976254,0.16473824060984282,1.3371978234748836,0.8586547276908985,0.2883842,0.637428660216203
0.0165,1.7931937500000001,1.0,2118.954950559214,0.16942339945091084,1.3365719941322067,0.8651038782810665,0.2883671375,0.6387732549932073
0.017,1.792775,1.0,2159.409546311582,0.174082278090894,1.335967510197762,0.8711047334769809,0.28834955,0.6400696176387651
0.0175,1.7923437500000001,1.0,2197.733651813973,0.17871502340500006,1.335382830180977,0.8766968533157696,0.2883314375,0.6413212921549681
0.018000000000000002,1.7919,1.0,2234.0146861721905,0.18332178226843684,1.3348164125912787,0.8819156613461467,0.2883128,0.6425317916438349
0.0185,1.79144375,1.0,2268.336513545145,0.18790270019002436,1.334266840864692,0.8867929591399969,0.2882936375,0.6437043338594983
0.019,1.790975,1.0,2300.7953514437354,0.1924579241528274,1.3337326536150957,0.8913573038324657,0.28827395,0.6448422063489366
0.0195,1.79049375,1.0,2331.464810887938,0.19698759771031052,1.3332126832135627,0.8956344590875812,0.2882537375,0.6459480476582204
0.02,1.79,1.0,2360.4124888680535,0.2014918629830434,1.3327058781293752,0.899647668493544,0.288233,0.6470242304150553
0.0205,1.78949375,1.0,2387.711072851822,0.2059708620915957,1.3322111868318158,0.9034179119177376,0.2882117375,0.6480731101524119
0.021,1.788975,1.0,2413.437914494452,0.21042473715653712,1.331727557790167,0.9069641567813956,0.28818995000000003,0.6490970261561588
0.021500000000000002,1.78844375,1.0,2437.663514303549,0.21485362852084325,1.331254046367681,0.91030360030422,0.2881676375,0.6500980764191271
0.022,1.7879,1.0,2460.469978809554,0.2192576789039741,1.3307896320234978,0.9134518252809394,0.2881448,0.6510785055668333
0.0225,1.78734375,1.0,2481.9205180316612,0.2236370273066467,1.3303335076602913,0.9164230272467925,0.28812143749999997,0.652040094760358
0.023,1.786775,1.0,2502.0702261099514,0.22799181082427955,1.3298849699052466,0.9192301389792457,0.28809755,0.6529843961435413
0.0235,1.78619375,1.0,2520.97659979072,0.23232216655229118,1.3294433153855478,0.9218849428028133,0.28807313749999996,0.6539129526395997
0.024,1.7856,1.0,2538.699337563874,0.23662823158610014,1.3290078407283796,0.924398188820005,0.2880482,0.6548272982756671
0.0245,1.78499375,1.0,2555.300149769129,0.24091014302112493,1.3285778425609265,0.9267796995680656,0.2880227375,0.6557289584757877
0.025,1.784375,1.0,2570.8317847161925,0.24516803442501373,1.3281527186149737,0.929038478446403,0.28799675,0.6566192387295977
0.025500000000000002,1.78374375,1.0,2585.3607371859835,0.24940204551414924,1.327731752647887,0.9311827587448083,0.2879702375,0.657499675721761
0.026000000000000002,1.7831000000000001,1.0,2598.9297821865525,0.25361230835181114,1.327314463665249,0.9332201295207158,0.2879432,0.6583713070010537
0.0265,1.78244375,1.0,2611.581781815845,0.25779895464550673,1.3269003804411696,0.9351575638592865,0.2879156375,0.6592351443476357
0.027,1.781775,1.0,2623.3606301585273,0.2619621161027434,1.326489031749759,0.9370014758471726,0.28788755,0.6600921943466352
0.0275,1.7810937500000001,1.0,2634.3111632749865,0.26610192443102854,1.3260799463651272,0.9387577728330614,0.2878589375,0.6609434584774101
0.028,1.7804,1.0,2644.479074113657,0.2702185113378695,1.3256726530613834,0.9404319021673242,0.2878298,0.6617899331886474
0.0285,1.77969375,1.0,2653.906818004708,0.2743120079108526,1.325266717617497,0.9420288981466354,0.2878001375,0.6626325331962355
0.029,1.778975,1.0,2662.6339054607147,0.2783825439350474,1.3248617391264568,0.9435534181781101,0.28776995,0.6634720996547638
0.029500000000000002,1.7782437500000001,1.0,2670.695878795907,0.28243024764477337,1.3244573585470798,0.945009777164699,0.2877392375,0.6643093829229965
0.03,1.7775,1.0,2678.1243333991592,0.2864552465703327,1.324053257695773,0.9464019775071987,0.287708,0.6651450452064951
0.0305,1.77674375,1.0,2684.9512992268906,0.2904576682420276,1.3236491183889436,0.9477337308426799,0.2876762375,0.6659797454274858
0.031,1.7759779175650825,1.0,2691.35309285274,0.29443763845223153,1.323244622868321,0.9490084823134208,0.28764407253773344,0.6668141383505004
0.0315,1.7752114580057659,1.0,2697.7687571269566,0.29839528600263554,1.3228397870074255,0.9502294761608159,0.28761188123624215,0.6676481885363524
0.032,1.774444998446449,1.0,2704.217805741687,0.3023307347281523,1.3224347160277543,0.9513997389215677,0.28757968993475086,0.6684816769773643
0.0325,1.7736785388871321,1.0,2710.6891267332044,0.3062441081928545,1.3220295121231722,0.9525220875284344,0.28754749863325957,0.669314391969744
0.033,1.7729120793278152,1.0,2717.1715548109605,0.31013552996081484,1.3216242774875435,0.953599146787943,0.2875153073317682,0.6701461228654835
0.0335,1.7721456197684984,1.0,2723.6538711720477,0.3140051235961058,1.321219114314733,0.9546333647975316,0.28748311603027693,0.6709766600728908
0.034,1.7713791602091817,1.0,2730.1288608776563,0.3178530087483581,1.3208140879232388,0.9556270217765636,0.28745092472878564,0.671805870503764
0.0345,1.7706127006498649,1.0,2736.5837456881723,0.32167931258753973,1.3204093138255537,0.9565822559001547,0.2874187334272943,0.6726335191767788
0.035,1.769846241090548,1.0,2743.0110995003715,0.32548415720932466,1.320004858463537,0.9575010601723722,0.287386542125803,0.6734594724481238
0.035500000000000004,1.7690797815312311,1.0,2749.4072773458174,0.3292676607647802,1.3196007537287682,0.9583852955498329,0.2873543508243117,0.6742836677806228
0.036000000000000004,1.7683133219719143,1.0,2755.7686186330398,0.33302994140497366,1.319197031512826,0.9592367055601007,0.28732215952282036,0.6751060429636477
0.0365,1.7675468624125976,1.0,2762.0914474068,0.3367711172809723,1.31879372370729,0.9600569250538052,0.28728996822132913,0.6759265361123727
0.037,1.7667804028532808,1.0,2768.372072629277,0.3404913065438435,1.3183908622037392,0.9608474882101287,0.2872577769198378,0.6767450856669628
0.0375,1.7660139432939639,1.0,2774.606788485192,0.34419062734465455,1.317988478893753,0.9616098358669555,0.2872255856183465,0.6775616303917003
0.038,1.765247483734647,1.0,2780.791874707961,0.34786919783447273,1.3175866056689107,0.9623453222394951,0.2871933943168552,0.6783761093740428
0.0385,1.7644810241753301,1.0,2786.926322006765,0.35152712744752057,1.3171852499073897,0.9630552170149302,0.28716120301536385,0.6791885116109271
0.039,1.7637145646160135,1.0,2793.0064648704865,0.3551645401968042,1.3167844428387234,0.9637407205093836,0.28712901171387256,0.6799987779826517
0.0395,1.7629481050566966,1.0,2799.0293222758846,0.35878155784982124,1.316384209429886,0.9644029623051169,0.28709682041238127,0.6808068623195982
0.04,1.7621816454973798,1.0,2804.9949082157605,0.36237829146897044,1.3159845477048113,0.9650430027406085,0.2870646291108899,0.681612772996766
0.0405,1.761415185938063,1.0,2810.9032398000245,0.36595485211665046,1.3155854556874325,0.96566184209649,0.28703243780939863,0.6824165183627411
0.041,1.7606487263787463,1.0,2816.754337230157,0.36951135085526005,1.3151869314016829,0.9662604246310418,0.28700024650790734,0.6832181067397668
0.0415,1.7598822668194294,1.0,2822.5482237744577,0.3730478987471979,1.3147889728714957,0.9668396423040112,0.28696805520641605,0.6840175464238163
0.042,1.7591158072601125,1.0,2828.2849257433486,0.37656460685486265,1.3143915781208046,0.9674003382158052,0.2869358639049247,0.6848148456846619
0.0425,1.7583493477007957,1.0,2833.964472464566,0.3800615862406531,1.3139947451735432,0.9679433097865314,0.2869036726034334,0.6856100127659492
0.043000000000000003,1.7575828881414788,1.0,2839.5868962583672,0.38353894796696797,1.3135984720536444,0.9684693116970203,0.2868714813019421,0.6864030558852665
0.043500000000000004,1.7568164285821621,1.0,2845.152232413127,0.3869968030962059,1.3132027567850417,0.9689790586118839,0.28683929000045083,0.6871939832342155
0.044,1.7560499690228453,1.0,2850.660519160654,0.39043526269076545,1.3128075973916686,0.9694732277027985,0.2868070986989595,0.6879828029784814
0.0445,1.7552835094635284,1.0,2856.11199995317,0.39385442610597765,1.3124129900998387,0.9699524591236621,0.2867749073974682,0.6887695268395347
0.045,1.7545170499042115,1.0,2861.507810469425,0.39725438629969834,1.312018923247617,0.9704173586938166,0.2867427160959769,0.6895541821919571
0.0455,1.7537505903448947,1.0,2866.8483065230103,0.40063529605573667,1.3116253921512977,0.9708685104804675,0.28671052479448556,0.6903367824188456
0.046,1.752984130785578,1.0,2872.1344222183902,0.40399725705627587,1.3112323870373737,0.9713064615156193,0.28667833349299426,0.6911173509535027
0.0465,1.7522176712262612,1.0,2877.3670975848895,0.40734037098349934,1.310839898132338,0.9717317316412715,0.286646142191503,0.6918959111258858
0.047,1.7514512116669443,1.0,2882.547278463945,0.41066473951959026,1.3104479156626834,0.9721448151195865,0.2866139508900116,0.6926724861629319
0.0475,1.7506847521076274,1.0,2887.675916398506,0.41397046434673196,1.310056429854903,0.9725461821330268,0.28658175958852034,0.6934470991888766
0.048,1.7499182925483105,1.0,2892.7539685240517,0.4172576471471077,1.3096654309354896,0.972936280182951,0.28654956828702904,0.6942197732255662
0.0485,1.749151832988994,1.0,2897.7823974622584,0.42052638960290084,1.3092749091309361,0.9733155353944237,0.28651737698553775,0.6949905311927653
0.049,1.748385373429677,1.0,2902.7621712163555,0.4237767933962946,1.3088848546677354,0.9736843537343424,0.28648518568404646,0.6957593959084566
0.0495,1.7476189138703602,1.0,2907.6942630688254,0.42700896020947227,1.3084952577723807,0.9740431221493828,0.2864529943825551,0.6965263900891339
0.05,1.7468524543110433,1.0,2912.5796514816034,0.4302229917246171,1.3081061086713646,0.9743922096297246,0.2864208030810638,0.6972915363500934
0.0505,1.7460859947517267,1.0,2917.419319997305,0.43341898962391245,1.3077173975911802,0.9747319682040295,0.28638861177957253,0.6980548572057128
0.051000000000000004,1.7453195351924098,1.0,2922.2142571436225,0.4365970555895416,1.3073291147583206,0.975062733870688,0.2863564204780812,0.698816375069729
0.051500000000000004,1.744553075633093,1.0,2926.96545633964,0.43975729130368774,1.3069412503992783,0.9753848274699546,0.2863242291765899,0.6995761122555086
0.052000000000000005,1.743786616073776,1.0,2931.6739158037512,0.4428997984485343,1.3065537947405466,0.9756985555012112,0.2862920378750986,0.70033409097631
0.0525,1.7430201565144592,1.0,2936.340638464043,0.4460246787062644,1.3061667380086182,0.9760042108892617,0.28625984657360726,0.7010903333455427
0.053,1.7422536969551425,1.0,2940.9666318712616,0.4491320337590614,1.3057800704299862,0.9763020737032561,0.28622765527211597,0.7018448613770174
0.0535,1.7414872373958257,1.0,2945.5522909164265,0.4522219472758831,1.3053937876315616,0.9765924103477042,0.2861954639706247,0.702597686466992
0.054,1.7407207778365088,1.0,2950.0977897032953,0.45529449057868343,1.3050078871929236,0.9768754746966315,0.2861632726691334,0.7033488161674388
0.0545,1.739954318277192,1.0,2954.6063849866778,0.4583498263558337,1.304622339778047,0.977151517124216,0.2861310813676421,0.7040983102938396
0.055,1.7391878587178753,1.0,2959.0787600619774,0.4613880455046321,1.3042371386140874,0.9774207717165312,0.28609889006615075,0.7048461845915579
0.0555,1.7384213991585584,1.0,2963.5156013788664,0.4644092389223767,1.3038522769282004,0.9776834627645642,0.28606669876465946,0.7055924547370798
0.056,1.7376549395992416,1.0,2967.9175984892854,0.4674134975063657,1.3034677479475412,0.9779398052549515,0.28603450746316816,0.7063371363381621
0.0565,1.7368884800399247,1.0,2972.285443997147,0.4704009121538971,1.3030835448992655,0.9781900053322352,0.2860023161616768,0.7070802449339761
0.057,1.7361220204806078,1.0,2976.6198335092927,0.47337157376226924,1.3026996610105288,0.9784342607345125,0.2859701248601855,0.7078217959952517
0.0575,1.735355560921291,1.0,2980.9214655863757,0.47632557322878016,1.3023160895084867,0.9786727612042175,0.28593793355869424,0.7085618049244155
0.058,1.7345891013619743,1.0,2985.1910416958517,0.479263001450728,1.3019328236202945,0.9789056888756378,0.2859057422572029,0.7093002870557275
0.0585,1.7338226418026574,1.0,2989.4292661657864,0.4821839493254108,1.301549856573108,0.9791332186406609,0.2858735509557116,0.7100372576554144
0.059000000000000004,1.7330561822433406,1.0,2993.636846138783,0.4850885077501269,1.3011671815940828,0.9793555184941417,0.2858413596542203,0.7107727319218009
0.059500000000000004,1.7322897226840237,1.0,2997.8144915283037,0.4879767676221743,1.300784791910374,0.9795727498601705,0.28580916835272896,0.7115067249854368
0.06,1.731523263124707,1.0,3001.962914975045,0.4908488198388511,1.3004026807491378,0.9797850679004443,0.2857769770512377,0.7122392519092207
0.0605,1.7307568035653902,1.0,3006.0828318043646,0.4937047552974556,1.300020841337529,0.9799926218058546,0.2857447857497464,0.7129703276885246
0.061,1.7299903440060733,1.0,3010.17495998548,0.4965446648952858,1.2996392669027035,0.9801955550723247,0.2857125944482551,0.7136999672513088
0.0615,1.7292238844467565,1.0,3014.24002009083,0.49936863952963995,1.2992579506718167,0.9803940057618645,0.2856804031467638,0.7144281854582415
0.062,1.7284574248874396,1.0,3018.27873525665,0.5021767700978161,1.298876885872024,0.9805881067497398,0.28564821184527245,0.7151549971028096
0.0625,1.727690965328123,1.0,3022.291831145229,0.5049691474971124,1.2984960657304816,0.9807779859585959,0.28561602054378116,0.7158804169114286
0.063,1.726924505768806,1.0,3026.2800359072103,0.507745862624827,1.2981154834743442,0.9809637665803154,0.28558382924228987,0.7166044595435523
0.0635,1.7261580462094892,1.0,3030.244080145365,0.5105070063782581,1.2977351323307678,0.9811455672863388,0.2855516379407985,0.7173271395917736
0.064,1.7253915866501723,1.0,3034.1846968797886,0.5132526696547037,1.2973550055269076,0.981323502427134,0.28551944663930723,0.7180484715819284
0.0645,1.7246251270908557,1.0,3038.100925024821,0.5159828807846983,1.2969751109062082,0.9814976785483497,0.28548725533781594,0.7187684422903231
0.065,1.7238586675315388,1.0,3041.995094509258,0.5186978004356798,1.2965954279589522,0.981668206242346,0.28545506403632465,0.719487092199764
0.0655,1.723092207972222,1.0,3045.8676345720883,0.5213975117776442,1.2962159525853711,0.9818351875693976,0.2854228727348333,0.7202044305929246
0.066,1.722325748412905,1.0,3049.718911635176,0.5240820954614615,1.2958366812387931,0.9819987208534682,0.285390681433342,0.7209204656684206
0.0665,1.7215592888535882,1.0,3053.5492934423473,0.5267516321380017,1.2954576103725464,0.9821589009858689,0.2853584901318507,0.7216352055897468
0.067,1.7207928292942716,1.0,3057.3591490437298,0.5294062024581349,1.295078736439959,0.9823158195695113,0.2853262988303594,0.7223486584853229
0.0675,1.7200263697349547,1.0,3061.1488487799857,0.5320458870727311,1.2947000558943589,0.9824695650561159,0.2852941075288681,0.7230608324485388
0.068,1.7192599101756378,1.0,3064.9187642672487,0.5346707666326606,1.2943215651890743,0.982620222876771,0.2852619162273768,0.7237717355377982
0.0685,1.718493450616321,1.0,3068.6692683816345,0.5372809217887932,1.2939432607774335,0.9827678755662062,0.2852297249258855,0.7244813757765616
0.069,1.717726991057004,1.0,3072.4007352446615,0.5398764331919989,1.2935651391127645,0.9829126028811255,0.28519753362439415,0.7251897611533904
0.0695,1.7169605314976875,1.0,3076.113540208953,0.5424573814931478,1.2931871966483952,0.9830544819129231,0.28516534232290286,0.7258968996219874
0.07,1.7161940719383706,1.0,3079.8080598435145,0.5450238473431102,1.2928094298376542,0.9831935871950827,0.28513315102141157,0.7266027991012367
0.07050000000000001,1.7154276123790537,1.0,3083.4846719202033,0.5475759113927556,1.292431835133869,0.9833299908055484,0.2851009597199202,0.7273074674752475
0.07100000000000001,1.7146611528197369,1.0,3087.1437553999835,0.5501136542929547,1.2920544089903685,0.9834637624643344,0.28506876841842893,0.7280109125933883
