Time [s],Phi [rad],STIM [ ],Fsee [N],Gamma [ ],Lcerel [ ],q [ ],Lmtc [m],fisomrel [ ]
0.0,1.8,1.0,18.974489651586623,0.0010247418874789944,1.379228430364198,0.005269679691136028,0.288653,0.541408793378529
0.0005,1.79999375,1.0,19.582148331492004,0.006628203204675474,1.3791598834807293,0.01599584763471045,0.2886527375,0.541574562368877
0.001,1.799975,1.0,23.67820630320269,0.012200233535328717,1.378732707255154,0.04109036596030897,0.28865195,0.5426069402269826
0.0015,1.79994375,1.0,34.85228561925845,0.017741009179849207,1.3777331565426985,0.07797728149450787,0.2886506375,0.5450180562764326
0.002,1.7999,1.0,60.732091970847335,0.02325070545495285,1.375918815056046,0.1233705585172785,0.2886488,0.5493783306341146
0.0025,1.79984375,1.0,108.29944448028346,0.028729496690284365,1.3734110780555437,0.1739358052474753,0.28864643749999996,0.5553704298003719
0.003,1.7997750000000001,1.0,174.98372240114367,0.03417755623904385,1.3707003177921864,0.22690336635901684,0.28864354999999997,0.5618025331274619
0.0035,1.79969375,1.0,253.2481695127934,0.03959505648142256,1.3681128981836712,0.280159753021027,0.2886401375,0.5678982595370476
0.004,1.7996,1.0,337.863967601902,0.0449821688309741,1.3657271945230463,0.3321425456826506,0.2886362,0.5734809285277485
0.0045000000000000005,1.7994937500000001,1.0,426.1303983537969,0.050339063707536824,1.3635309789132755,0.3817812687583753,0.2886317375,0.5785880974820015
0.005,1.799375,1.0,516.5482234727773,0.055665910724283424,1.3614973016658904,0.4284225257533288,0.28862675,0.5832898625264038
0.0055,1.79924375,1.0,608.0103942477392,0.06096287826833329,1.3596048149133981,0.47173731780467376,0.2886212375,0.5876415085813159
0.006,1.7991000000000001,1.0,699.703771276329,0.06623013403902415,1.35783596724026,0.5116276045633135,0.2886152,0.5916882032819757
0.006500000000000001,1.79894375,1.0,790.9187256154612,0.07146784462538162,1.3561779962412597,0.5481513285076027,0.2886086375,0.5954631217906927
0.007,1.798775,1.0,881.0912317082169,0.07667617585572274,1.3546202405230852,0.5814630062095361,0.28860155,0.5989938935310881
0.0075,1.79859375,1.0,969.7440557870015,0.08185529250850866,1.3531540681415561,0.6117719914153605,0.2885939375,0.6023029469230521
0.008,1.7984,1.0,1056.485793841278,0.08700535821246272,1.3517721168941776,0.6393132505571552,0.2885858,0.6054093679074906
0.0085,1.79819375,1.0,1141.0372283345412,0.09212653628134107,1.3504674337077172,0.6643279112993156,0.2885771375,0.6083309244589505
0.009000000000000001,1.797975,1.0,1223.160945732197,0.09721898873628629,1.3492341693254022,0.687051810665787,0.28856795,0.6110825732640188
0.0095,1.79774375,1.0,1302.674518992914,0.1022828763023507,1.3480670723665646,0.7077082212980778,0.2885582375,0.6136776566778337
0.01,1.7975,1.0,1379.4601108974598,0.10731835917512304,1.346961159137688,0.7265040262103576,0.288548,0.6161286800058416
0.0105,1.79724375,1.0,1453.4638692806434,0.11232559765755726,1.3459115862906894,0.7436281825821496,0.2885372375,0.6184476226717441
0.011,1.796975,1.0,1524.624076177321,0.11730474946522795,1.3449144216155484,0.7592519660203914,0.28852595000000003,0.6206442658214659
0.0115,1.79669375,1.0,1592.9152083017393,0.12225597174812475,1.3439659448163515,0.7735292780382724,0.2885141375,0.6227277704291923
0.012,1.7964,1.0,1658.3522832444935,0.12717942133124735,1.343062518682896,0.7865977255419497,0.28850180000000003,0.6247069779175627
0.0125,1.79609375,1.0,1720.9772464974938,0.13207525472772103,1.3422006877439387,0.7985800214610582,0.2884889375,0.6265902082511969
0.013000000000000001,1.7957750000000001,1.0,1780.8266981698187,0.13694362668092433,1.3413774816736044,0.8095855180073062,0.28847555,0.6283846141778952
0.0135,1.79544375,1.0,1837.9389854530439,0.14178469053331988,1.3405902600693815,0.8197115142347108,0.2884616375,0.6300965393682112
0.014,1.7951000000000001,1.0,1892.379416608515,0.1465985996273702,1.3398363825287585,0.8290444430746382,0.2884472,0.6317322484367581
0.0145,1.79474375,1.0,1944.2212110255493,0.15138550613856636,1.3391133884013617,0.837661162709336,0.2884322375,0.633297544027255
0.015,1.794375,1.0,1993.5620125230357,0.15614556298916116,1.3384187865059902,0.8456299913526707,0.28841675,0.6347982300376691
0.0155,1.79399375,1.0,2040.4619445105725,0.16087891959406161,1.3377506878681722,0.8530119105503134,0.2884007375,0.636238752693165
0.016,1.7936,1.0,2084.9949124227155,0.16558572525703946,1.3371072209598922,0.8598612396999784,0.2883842,0.6376234744154925
0.0165,1.7931937500000001,1.0,2127.2489067361516,0.1702661292818664,1.336486514253135,0.8662264205883796,0.2883671375,0.6389567146867818
0.017,1.792775,1.0,2167.306477194368,0.1749202793335111,1.3358868829755477,0.872150766378438,0.28834955,0.640242352821973
0.0175,1.7923437500000001,1.0,2205.275276174074,0.17954832482722216,1.3353065006402927,0.877672975871278,0.2883314375,0.641484536442479
0.018000000000000002,1.7919,1.0,2241.2225547761655,0.18415041075589328,1.334744052126743,0.8828278476921072,0.2883128,0.6426862868806389
0.0185,1.79144375,1.0,2275.2222875387706,0.18872668199203996,1.3341982356404471,0.8876466018707554,0.2882936375,0.6438505717309062
0.019,1.790975,1.0,2307.3558049469134,0.1932772834081777,1.333667749386953,0.8921572902480834,0.28827395,0.6449803348821603
0.0195,1.79049375,1.0,2337.7044708083254,0.19780235897123322,1.333151357362628,0.8963851745011632,0.2882537375,0.6460783580594343
0.02,1.79,1.0,2366.3547726315755,0.20230205311926006,1.332647831936682,0.9003530292931189,0.288233,0.6471473849101563
0.0205,1.78949375,1.0,2393.3851555523856,0.2067765088801111,1.3321560763292624,0.9040814470886228,0.2882117375,0.6481898627472871
0.021,1.788975,1.0,2418.8574922144758,0.21122586636780782,1.3316751988128708,0.9075890935977227,0.28818995000000003,0.649207788560085
0.021500000000000002,1.78844375,1.0,2442.837488558177,0.2156502656963718,1.3312043076600086,0.910892875126657,0.2881676375,0.6502031460059131
0.022,1.7879,1.0,2465.3943659554357,0.22004984697982452,1.3307425111431774,0.9140081286864573,0.2881448,0.6511779060035241
0.0225,1.78734375,1.0,2486.5965048717944,0.22442474960593675,1.3302889561621054,0.9169487966212359,0.28812143749999997,0.6521339459099069
0.023,1.786775,1.0,2506.509046187573,0.22877511223164154,1.3298428475463293,0.9197275768823402,0.28809755,0.6530730099570439
0.0235,1.78619375,1.0,2525.207509377469,0.23310107510408817,1.3294033158809133,0.9223560283927634,0.28807313749999996,0.65399698815899
0.024,1.7856,1.0,2542.740822398034,0.2374027732038923,1.3289697648478156,0.9248447477748447,0.2880482,0.654907186913179
0.0245,1.78499375,1.0,2559.15971849018,0.24168034151166953,1.3285415981289945,0.9272034193822667,0.2880227375,0.6558049052896884
0.025,1.784375,1.0,2574.5165864135756,0.24593391500803558,1.328118219406408,0.9294409063404688,0.28799675,0.6566914352473479
0.025500000000000002,1.78374375,1.0,2588.86532856501,0.25016362867360603,1.3276990323620148,0.9315653313943901,0.2879702375,0.6575680618271658
0.026000000000000002,1.7831000000000001,1.0,2602.2564516968328,0.25436961637775873,1.3272834851318238,0.933584155529055,0.2879432,0.65843597053561
0.0265,1.78244375,1.0,2614.738227795604,0.2585520116271391,1.3268710578221545,0.9355042395228201,0.2879156375,0.6592962741014851
0.027,1.781775,1.0,2626.369550354993,0.2627109497434806,1.3264611420029384,0.9373318828319657,0.28788755,0.6601502639098766
0.0275,1.7810937500000001,1.0,2637.1868433207205,0.26684656025896575,1.326053346714489,0.9390729192223412,0.2878589375,0.6609987726284478
0.028,1.7804,1.0,2647.2272927536765,0.27095897270577723,1.32564728099712,0.9407327291583224,0.2878298,0.6618426287601491
0.0285,1.77969375,1.0,2656.528781210413,0.2750483166160977,1.3252425538911452,0.9423162809650484,0.2878001375,0.6626826566912165
0.029,1.778975,1.0,2665.1298255119364,0.2791147215221097,1.3248387744368781,0.9438281677569872,0.28776995,0.6635196767294229
0.029500000000000002,1.7782437500000001,1.0,2673.0695179017857,0.2831583169559958,1.3244355516746322,0.9452726406143641,0.2877392375,0.6643545051325799
0.03,1.7775,1.0,2680.381666676342,0.28717922972442045,1.3240325478812784,0.9466536445699455,0.287708,0.6651878441121397
0.0305,1.77674375,1.0,2687.1058674003375,0.29117759047944225,1.323629376336004,0.9479748337577755,0.2876762375,0.6660204935343401
0.031,1.775975,1.0,2693.2721514472705,0.29515352535343253,1.323225741685024,0.9492396113420669,0.28764395,0.6668530609444074
0.0315,1.7751937500000001,1.0,2698.9068591825376,0.2991071584758693,1.3228213853623525,0.9504511443955663,0.2876111375,0.6676860751043734
0.032,1.7744,1.0,2704.0366161741163,0.3030386139762304,1.3224160488020036,0.9516123795314391,0.2875778,0.6685200621010972
0.0325,1.77359375,1.0,2708.6883057083505,0.30694801598399374,1.3220094734379915,0.9527260609454388,0.2875439375,0.6693555453322304
0.033,1.772775,1.0,2712.8890427878423,0.31083548862863736,1.3216014007043304,0.9537947467740904,0.28750955,0.6701930454879232
0.0335,1.7719437500000002,1.0,2716.665153996008,0.3147011549235671,1.3211915811061603,0.9548208246740154,0.2874746375,0.6710330619468268
0.034,1.7711000000000001,1.0,2720.038109524011,0.3185451316268424,1.320779811022381,0.9558065280153869,0.2874392,0.6718759975779514
0.0345,1.7702437500000001,1.0,2723.0422829720424,0.3223675539973018,1.320365770768008,0.9567539365145136,0.2874032375,0.6727224901792732
0.035,1.7693750000000001,1.0,2725.694408135489,0.3261685397102383,1.3199493025488,0.9576650088389377,0.28736675,0.673572843745333
0.035500000000000004,1.76849375,1.0,2728.0113237281075,0.32994820644094447,1.3195302485705156,0.9585415789706282,0.2873297375,0.6744273604861751
0.036000000000000004,1.7676,1.0,2730.009962402506,0.3337066718647133,1.319108451038913,0.9593853655711205,0.2872922,0.6752863408021226
0.0365,1.76669375,1.0,2731.7073403229333,0.3374440536568375,1.318683752159751,0.9601979805412499,0.2872541375,0.6761500832569594
0.037,1.765775,1.0,2733.1205472896618,0.3411604694926099,1.3182559941387884,0.9609809368530053,0.28721555,0.6770188845495265
0.0375,1.76484375,1.0,2734.266737415876,0.3448560370473233,1.3178250191817835,0.9617356557228111,0.2871764375,0.6778930394837339
0.038,1.7639,1.0,2735.1631203563466,0.34853087399627053,1.3173906694944948,0.9624634731882836,0.28713679999999997,0.6787728409369782
0.0385,1.76294375,1.0,2735.8269530882226,0.35218509801474435,1.3169527872826812,0.9631656461440704,0.28709663750000003,0.6796585798269754
0.039,1.761975,1.0,2736.271610248294,0.355818821082846,1.3165112503574061,0.9638433600668644,0.28705595,0.6805504732053297
0.0395,1.7609937500000001,1.0,2736.5090055961655,0.35943215751427615,1.3160659500805663,0.9644977335034197,0.2870147375,0.681448709182618
0.04,1.76,1.0,2736.559588963114,0.36302523529498487,1.3156167005656145,0.9651298165891788,0.286973,0.6823536298599338
0.0405,1.7589937500000001,1.0,2736.4324628771687,0.3665981644844326,1.3151634191317907,0.965740605797338,0.2869307375,0.6832653674781863
0.041,1.757975,1.0,2736.1367469373076,0.3701510551420799,1.3147060230983352,0.9663310418326867,0.28688795,0.6841840530154022
0.0415,1.75694375,1.0,2735.68157493211,0.3736840173273871,1.3142444297844886,0.9669020133289911,0.2868446375,0.6851098161652475
0.042,1.7559,1.0,2735.0760921098126,0.3771971610998147,1.3137785565094908,0.9674543602644347,0.28680079999999997,0.6860427853151156
0.0425,1.75484375,1.0,2734.3294526000655,0.3806905965188232,1.3133083205925826,0.9679888771192937,0.2867564375,0.6869830875237739
0.043000000000000003,1.753775,1.0,2733.450816986562,0.384164433643873,1.3128336393530038,0.9685063157977256,0.28671155,0.6879308484985802
0.043500000000000004,1.75269375,1.0,2732.449350032355,0.3876187825344245,1.3123544301099948,0.9690073883334955,0.28666613750000003,0.6888861925722589
0.044,1.7516,1.0,2731.3342185556203,0.39105375324993813,1.3118706101827962,0.969492769397631,0.2866202,0.6898492426792424
0.0445,1.75049375,1.0,2730.1145894580413,0.3944694558498745,1.3113820968906478,0.9699630986243232,0.2865737375,0.6908201203315792
0.045,1.7493750000000001,1.0,2728.7996279039035,0.39786600039369396,1.3108888075527902,0.9704189827699148,0.28652675,0.691798945594401
0.0455,1.74824375,1.0,2727.392311970316,0.4012434822256756,1.3103907157174666,0.9708609998884097,0.2864792375,0.6927857257538229
0.046,1.7471,1.0,2725.903350469642,0.40460202298810105,1.3098877246336378,0.9712896973627544,0.2864312,0.6937806062544218
0.0465,1.7459437500000001,1.0,2724.3405921531025,0.4079417346194037,1.3093797635027955,0.9717055958183041,0.28638263750000004,0.6947836796395228
0.047,1.744775,1.0,2722.7082514007266,0.4112627191762003,1.308866794551042,0.9721091912476615,0.28633355,0.6957949720145551
0.0475,1.74359375,1.0,2721.0105404285705,0.4145650787151077,1.3083487800044789,0.9725009554151732,0.28628393750000003,0.6968145085132319
0.048,1.7424,1.0,2719.2516687701395,0.4178489152927429,1.3078256820892085,0.9728813372632303,0.2862338,0.6978423132854387
0.0485,1.74119375,1.0,2717.4358427908187,0.42111433096572254,1.3072974630313325,0.9732507642243415,0.2861831375,0.6988784094850344
0.049,1.739975,1.0,2715.5672652324,0.42436142779066355,1.3067640850569533,0.973609643446096,0.28613195,0.6999228192575584
0.0495,1.73874375,1.0,2713.6501347906897,0.4275903078241827,1.3062255103921727,0.9739583629355497,0.2860802375,0.7009755637278486
0.05,1.7375,1.0,2711.6886457237642,0.43080107312289695,1.3056817012630926,0.9742972926290138,0.286028,0.7020366629875683
0.0505,1.73624375,1.0,2709.686987492128,0.4339938257434231,1.3051326198958153,0.974626785392742,0.2859752375,0.70310613608264
0.051000000000000004,1.734975,1.0,2707.649344431028,0.43716866774237795,1.3045782285164425,0.9749471779595517,0.28592195,0.7041840010005924
0.051500000000000004,1.73369375,1.0,2705.5798954532934,0.4403257011763783,1.3040184893510762,0.9752587918060182,0.2858681375,0.705270274657811
0.052000000000000005,1.7324,1.0,2703.4828137849217,0.44346502810204114,1.3034533646258186,0.9755619339745002,0.2858138,0.7063649728867027
0.0525,1.73109375,1.0,2701.356551341749,0.44658672745964917,1.302882868787396,0.9758568987077035,0.28575893750000003,0.7074680095507562
0.053,1.729775,1.0,2699.2086947477196,0.4496909220323799,1.3023069328139762,0.9761439666571796,0.28570355000000003,0.7085794590963204
0.0535,1.72844375,1.0,2697.0435751465784,0.45277771742844336,1.3017255173456803,0.9764234062307077,0.2856476375,0.7096993373165866
0.054,1.7271,1.0,2694.8628128961104,0.4558472072779547,1.3011386077592457,0.9766954745095714,0.2855912,0.7108276113419105
0.0545,1.7257437500000001,1.0,2692.668025929458,0.458899485211029,1.3005461894314105,0.976960417551627,0.2855342375,0.7119642475072026
0.055,1.724375,1.0,2690.460829708389,0.4619346448577814,1.2999482477389126,0.9772184709538992,0.28547675,0.7131092113467983
0.0555,1.72299375,1.0,2688.242837181632,0.464952779848327,1.2993447680584898,0.977469860381934,0.2854187375,0.7142624675893143
0.056,1.7216,1.0,2686.01565874776,0.46795398381278097,1.29873573576688,0.9777148020681264,0.2853602,0.7154239801524899
0.0565,1.72019375,1.0,2683.78090222265,0.4709383503812584,1.298121136240821,0.9779535032810873,0.28530113749999997,0.7165937121380163
0.057,1.718775,1.0,2681.540172812139,0.4739059731838744,1.2975009548570506,0.9781861627679485,0.28524155,0.7177716258263492
0.0575,1.71734375,1.0,2679.295073088608,0.4768569458507441,1.2968751769923068,0.9784129711713763,0.2851814375,0.7189576826715132
0.058,1.7159,1.0,2677.047202973416,0.47979136201198264,1.2962437880233273,0.9786341114229288,0.2851208,0.7201518432958862
0.0585,1.71444375,1.0,2674.7981597231924,0.4827093152977051,1.29560677332685,0.9788497591142773,0.2850596375,0.7213540674849757
0.059000000000000004,1.7129750000000001,1.0,2672.5495379210383,0.4856108993380267,1.2949641182796128,0.9790600828477044,0.28499795,0.7225643141821767
0.059500000000000004,1.71149375,1.0,2670.3029294729504,0.48849620776306246,1.2943158082583537,0.9792652445671833,0.2849357375,0.7237825414835204
0.06,1.71,1.0,2668.0599236083435,0.49136533420292744,1.2936618286398103,0.9794653998712667,0.284873,0.7250087066324066
0.0605,1.7084937500000001,1.0,2665.819786687647,0.49421835136963777,1.2930021861408452,0.9796606977744581,0.2848097375,0.72624272613739
0.061,1.7069750000000001,1.0,2663.5835956640167,0.4970553568433516,1.292336870829635,0.9798512826627431,0.28474595,0.7274845470457185
0.0615,1.7054437500000001,1.0,2661.3547485199356,0.4998764663121438,1.2916658513920323,0.9800372936713125,0.2846816375,0.7287341553946458
0.062,1.7039,1.0,2659.133517327781,0.5026817645815286,1.290989125248407,0.9802188637401194,0.2846168,0.7299914827396905
0.0625,1.70234375,1.0,2656.9201737163935,0.5054713364570205,1.2903066898191284,0.9803961208115001,0.2845514375,0.7312564599689424
0.063,1.7007750000000001,1.0,2654.7149888748004,0.5082452667441336,1.2896185425245663,0.9805691880536701,0.28448555,0.7325290173021237
0.0635,1.69919375,1.0,2652.5182335562185,0.5110036402483825,1.2889246807850903,0.9807381840726066,0.28441913750000003,0.7338090842896483
0.064,1.6976,1.0,2650.330178081358,0.5137465417752815,1.28822510202107,0.9809032231130157,0.2843522,0.735096589811683
0.0645,1.69599375,1.0,2648.151092343172,0.5164740561303448,1.2875198036528748,0.9810644152490114,0.2842847375,0.7363914620772077
0.065,1.694375,1.0,2645.9812458104575,0.5191862681190869,1.2868087831008745,0.9812218665651117,0.28421675,0.7376936286230724
0.0655,1.69274375,1.0,2643.820907532478,0.521883262547022,1.2860920377854388,0.9813756793281038,0.2841482375,0.7390030163130583
0.066,1.6911,1.0,2641.6703461433785,0.5245651242196646,1.285369565126937,0.9815259521503039,0.2840792,0.7403195513369352
0.0665,1.6894437500000001,1.0,2639.5298298668768,0.527231937942529,1.2846413625457391,0.9816727801447008,0.2840096375,0.7416431592095187
0.067,1.687775,1.0,2637.3996265208416,0.5298837885211295,1.2839074274622144,0.9818162550724379,0.28393955,0.7429737647697304
0.0675,1.68609375,1.0,2635.280003522411,0.5325207607609804,1.2831677572967328,0.9819564654830685,0.2838689375,0.7443112921796512
0.068,1.6844000000000001,1.0,2633.1712278930913,0.5351429394675962,1.2824223494696636,0.9820934968479792,0.2837978,0.7456556649235817
0.0685,1.68269375,1.0,2631.0735662636534,0.5377504094464911,1.2816712014013765,0.9822274316873666,0.2837261375,0.7470068058070958
0.069,1.680975,1.0,2628.987284879979,0.5403432555031795,1.2809143105122411,0.9823583496911144,0.28365395,0.7483646369560975
0.0695,1.67924375,1.0,2626.9126496080585,0.5429215624431758,1.2801516742226273,0.9824863278339078,0.28358123749999997,0.7497290798158767
0.07,1.6775,1.0,2624.8525780563255,0.5454853602339357,1.2793832653703185,0.9826114359218814,0.283508,0.7511000989509509
0.07050000000000001,1.67574375,1.0,2622.8054506718404,0.5480347961781076,1.278609098822863,0.9827337506228647,0.2834342375,0.7524775830775259
0.07100000000000001,1.673975,1.0,2620.7709398523343,0.5505699507608738,1.277829177487408,0.9828533413783775,0.28335995,0.7538614417623417
0.07150000000000001,1.67219375,1.0,2618.748886479623,0.5530908997267433,1.2770435027128646,0.9829702749729455,0.2832851375,0.7552515867493208
0.07200000000000001,1.6704,1.0,2616.739131738653,0.555597718820225,1.2762520758481442,0.9830846159955218,0.2832098,0.7566479291759924
0.0725,1.66859375,1.0,2614.741517114158,0.5580904837858277,1.2754548982421576,0.9831964269247254,0.2831339375,0.7580503795739879
0.073,1.6667750000000001,1.0,2612.755884387638,0.5605692703680605,1.2746519712438162,0.9833057682102186,0.28305755,0.7594588478695342
0.0735,1.66494375,1.0,2610.782075634063,0.5630341543114322,1.273843296202031,0.9834126983504243,0.2829806375,0.76087324338395
0.074,1.6631,1.0,2608.8199332187755,0.5654852113604517,1.273028874465713,0.983517273966768,0.2829032,0.7622934748341388
0.0745,1.6612437500000001,1.0,2606.869299794499,0.567922517259628,1.2722087073837738,0.9836195498746239,0.2828252375,0.7637194503330836
0.075,1.659375,1.0,2604.9300182985457,0.5703461477534699,1.271382796305124,0.9837195791511272,0.28274675,0.7651510773903429
0.0755,1.65749375,1.0,2603.001931949389,0.5727561785864864,1.2705511425786753,0.9838174132000146,0.2826677375,0.7665882629125425
