Time [s],Phi [rad],STIM [ ],Fsee [N],Gamma [ ],Lcerel [ ],q [ ],Lmtc [m],fisomrel [ ]
0.0,1.8,1.0,17.967482852286807,1.0001372255575502e-05,1.3793397098443398,0.005000026659056406,0.288653,0.54113961905361
0.0005,1.79999375,1.0,18.27678520906188,0.005619154581260967,1.3793023832282074,0.012940517669530239,0.2886527375,0.5412299173386546
0.001,1.799975,1.0,21.618387715340425,0.011196844875686337,1.3789383014847962,0.035608583332147906,0.28865195,0.5421102157774799
0.0015,1.79994375,1.0,31.06915069107407,0.01674324873846618,1.3780462109973717,0.07060171420960215,0.2886506375,0.5442635916789883
0.002,1.7999,1.0,53.582043698564526,0.02225854166088523,1.376368154013086,0.11471784730960738,0.2886488,0.5483004229744322
0.0025,1.79984375,1.0,97.11822199256541,0.02774289815013919,1.373935201745279,0.16457468571692216,0.28864643749999996,0.5541213804072622
0.003,1.7997750000000001,1.0,160.95730608402417,0.03319649173705468,1.371214375974514,0.2172802397821798,0.28864354999999997,0.5605863745849881
0.0035,1.79969375,1.0,237.68239382956637,0.03861949497567863,1.368584763117236,0.27061267490848856,0.2886401375,0.5667897716766932
0.004,1.7996,1.0,321.4658139370366,0.04401207945406106,1.3661561177541033,0.32291559455622953,0.2886362,0.5724799025230971
0.0045000000000000005,1.7994937500000001,1.0,409.2668089290126,0.04937441579943938,1.3639228362756415,0.3730343110366879,0.2886317375,0.5776791110876679
0.005,1.799375,1.0,499.41257268306214,0.054706673669327105,1.3618583621407951,0.42024727731190664,0.28862675,0.5824570336376951
0.0055,1.79924375,1.0,590.7895076934104,0.06000902179899276,1.3599388528063434,0.4641735290275135,0.2886212375,0.5868750709198134
0.006,1.7991000000000001,1.0,682.5172196217782,0.06528162794458435,1.358146430901718,0.5046798074083196,0.2886152,0.5909793814807429
0.006500000000000001,1.79894375,1.0,773.8804746696551,0.07052465893876013,1.3564672669868703,0.5418006190278406,0.2886086375,0.5948057639251
0.007,1.798775,1.0,864.2849943195718,0.07573828067428139,1.3548904081916675,0.5756766540329779,0.28860155,0.5983826472370906
0.0075,1.79859375,1.0,953.2425058308457,0.08092265811374688,1.3534067901052174,0.6065098009412265,0.2885939375,0.6017335481745116
0.008,1.7984,1.0,1040.3441060250138,0.08607795489115612,1.35200885759906,0.6345320740580782,0.2885858,0.6048780745274382
0.0085,1.79819375,1.0,1125.3142336014578,0.09120433510836856,1.350689241412317,0.659984338496,0.2885771375,0.6078349998649669
0.009000000000000001,1.797975,1.0,1207.8997800858297,0.09630196069590133,1.3494420405228726,0.683104110800398,0.28856795,0.6106194525357496
0.0095,1.79774375,1.0,1287.8915769251828,0.1013709921850868,1.3482621321240653,0.7041174056300586,0.2885582375,0.6132445386747452
0.01,1.7975,1.0,1365.166416715838,0.10641159010725744,1.3471443934092335,0.7232341623192334,0.288548,0.6157231190195642
0.0105,1.79724375,1.0,1439.659176030436,0.11142391440662568,1.346083950432069,0.7406465990778283,0.2885372375,0.6180672807823127
0.011,1.796975,1.0,1511.3220993298946,0.11640812384495965,1.345076555046056,0.7565290716972883,0.28852595000000003,0.6202875355789106
0.0115,1.79669375,1.0,1580.120636592601,0.12136437560054639,1.3441184875490324,0.7710385598190677,0.2885141375,0.6223930692824184
0.012,1.7964,1.0,1646.0563217965919,0.1262928263006644,1.3432061730219074,0.7843155457077643,0.28850180000000003,0.6243926109682927
0.0125,1.79609375,1.0,1709.173444556668,0.13119363284592378,1.3423360408831482,0.7964852858509199,0.2884889375,0.6262947548228683
0.013000000000000001,1.7957750000000001,1.0,1769.5064653769703,0.13606695007717926,1.3415050737576533,0.8076594542766611,0.28847555,0.6281067748653693
0.0135,1.79544375,1.0,1827.0916277452422,0.1409129314331345,1.3407105939742925,0.8179374305654765,0.2884616375,0.6298351120972092
0.014,1.7951000000000001,1.0,1881.9928127907865,0.14573173035249326,1.3399499238619363,0.8274074975077295,0.2884472,0.6314861264868102
0.0145,1.79474375,1.0,1934.2779786835015,0.15052349927606531,1.3392206139970924,0.836148170154929,0.2884322375,0.633065609181874
0.015,1.794375,1.0,1984.0487928090017,0.15528839121623014,1.3385200887510347,0.8442291970144588,0.28841675,0.6345795583928304
0.0155,1.79399375,1.0,2031.3692179384225,0.16002655594723408,1.3378463856557061,0.8517128279049493,0.2884007375,0.6360325883270914
0.016,1.7936,1.0,2076.3102111496464,0.1647381427849757,1.3371976364241065,0.8586545248838413,0.2883842,0.6374290624680998
0.0165,1.7931937500000001,1.0,2118.9570213454404,0.1694233010453535,1.3365719727692347,0.8651037368366481,0.2883671375,0.6387733008489336
0.017,1.792775,1.0,2159.3910930934826,0.1740821789019288,1.3359676987765812,0.8711046615346654,0.28834955,0.6400692135802565
0.0175,1.7923437500000001,1.0,2197.718162173374,0.17871492529623778,1.3353829870878455,0.8766967795869592,0.2883314375,0.6413209565434759
0.018000000000000002,1.7919,1.0,2234.010718310609,0.18332168578086952,1.3348164524571327,0.8819155631014028,0.2883128,0.642531706517923
0.0185,1.79144375,1.0,2268.34296324745,0.1879026054348202,1.3342667765555083,0.8867928414381125,0.2882936375,0.6437044709540494
0.019,1.790975,1.0,2300.7966201990826,0.19245782933708613,1.333732641054038,0.8913572056614338,0.28827395,0.6448422330838541
0.0195,1.79049375,1.0,2331.4515986538186,0.1969875014394068,1.3332128131556449,0.8956343999862881,0.2882537375,0.6459477715207311
0.02,1.79,1.0,2360.396962703107,0.20149176684865241,1.332706029889731,0.899647618671729,0.288233,0.6470239084024662
0.0205,1.78949375,1.0,2387.703494486587,0.20597076755570523,1.3322112604817509,0.9034178490439995,0.2882117375,0.6480729541107344
0.021,1.788975,1.0,2413.4368360301733,0.2104246441923137,1.3317275682151446,0.9069640848656667,0.28818995000000003,0.6490970041009776
0.021500000000000002,1.78844375,1.0,2437.6666327535236,0.21485353739022617,1.3312540163733526,0.9103035249160276,0.2881676375,0.6500981397848299
0.022,1.7879,1.0,2460.4661959015175,0.21925758778119106,1.3307896682398153,0.9134517673797814,0.2881448,0.6510784291638807
0.0225,1.78734375,1.0,2481.897966993135,0.22363693345436345,1.3303337226219365,0.9164230065042552,0.28812143749999997,0.6520396418964718
0.023,1.786775,1.0,2502.044428996946,0.2279917168589216,1.329885214817129,0.9192301258405284,0.28809755,0.6529838808834716
0.0235,1.78619375,1.0,2520.9592751125892,0.2323220744253938,1.3294434792440164,0.9218849169629274,0.28807313749999996,0.6539126083660629
0.024,1.7856,1.0,2538.6940964272853,0.2366281417598468,1.3290078901261613,0.9243981450713602,0.2880482,0.654827194626058
0.0245,1.78499375,1.0,2555.3023717237666,0.24091005446834754,1.328577821687127,0.9267796461714747,0.2880227375,0.6557290022172917
0.025,1.784375,1.0,2570.839308219751,0.24516794815696288,1.3281526481504762,0.9290384200274233,0.28799675,0.6566193861984368
0.025500000000000002,1.78374375,1.0,2585.3616909898205,0.2494019584317597,1.3277317437397718,0.931182712685331,0.2879702375,0.6574996943408438
0.026000000000000002,1.7831000000000001,1.0,2598.917854352654,0.2536122171790059,1.327314574775003,0.9332201031379315,0.2879432,0.6583710750633258
0.0265,1.78244375,1.0,2611.5688890149427,0.2577988628747196,1.3269005002484955,0.9351575400073121,0.2879156375,0.659234894570419
0.027,1.781775,1.0,2623.3546017659105,0.2619620263292147,1.3264890876431115,0.9370014442542098,0.28788755,0.6600920779654613
0.0275,1.7810937500000001,1.0,2634.31378072117,0.26610183761167067,1.326079922147505,0.9387577318093226,0.2878589375,0.6609435088401692
0.028,1.7804,1.0,2644.486016613506,0.2702184267912668,1.3256725889503311,0.9404318577942762,0.2878298,0.6617900663469026
0.0285,1.77969375,1.0,2653.9116321153474,0.2743119239371826,1.3252666732402445,0.9420288584635145,0.2878001375,0.6626326252526276
0.029,1.778975,1.0,2662.6316149761305,0.27838245911859744,1.3248617602058994,0.9435533888226889,0.28776995,0.6634720559819027
0.029500000000000002,1.7782437500000001,1.0,2670.6843874242522,0.2824301607235134,1.3244574641430873,0.945009759790842,0.2877392375,0.6643091644191239
0.03,1.7775,1.0,2678.1017610728395,0.28645515431854385,1.3240534648287494,0.9464019727008325,0.287708,0.6651446171316406
0.0305,1.77674375,1.0,2684.934091058022,0.29045757704144093,1.3236492760972347,0.9477337204886263,0.2876762375,0.6659794199034947
0.031,1.775975,1.0,2691.2062412106193,0.29443755247373166,1.3232446495290997,0.9490084575775969,0.28764395,0.666814083389061
0.0315,1.7751937500000001,1.0,2696.9433881646983,0.2983952041969432,1.3228393367049007,0.9502293940920336,0.2876111375,0.6676491156758283
0.032,1.7744,1.0,2702.170993361046,0.30233065579260276,1.3224330892051945,0.9513995161526,0.2875778,0.6684850222754946
0.0325,1.77359375,1.0,2706.9147764181757,0.3062440308422374,1.322025658610538,0.9525216042507566,0.2875439375,0.6693223061111266
0.033,1.772775,1.0,2711.2006898721415,0.3101354529273742,1.3216167965014871,0.9535982499045775,0.28750955,0.670161467500386
0.0335,1.7719437500000002,1.0,2715.0548952841154,0.31400504562954035,1.3212062544585992,0.9546318707750657,0.2874746375,0.6710030041348138
0.034,1.7711000000000001,1.0,2718.5037407166114,0.317852932530263,1.3207937840624304,0.9556247244016401,0.2874392,0.6718474110551874
0.0345,1.7702437500000001,1.0,2721.5722008338453,0.32167923569813245,1.3203791509004918,0.9565789218476154,0.2874032375,0.6726951520034434
0.035,1.7693750000000001,1.0,2724.279735201908,0.32548407241377925,1.3199621720348378,0.9574964422083667,0.28736675,0.6735465831210105
0.035500000000000004,1.76849375,1.0,2726.6564835598274,0.32926757341930263,1.319542568445189,0.9583791314588342,0.2873297375,0.6744022543094763
0.036000000000000004,1.7676,1.0,2728.717625632582,0.3330298553890368,1.3191201981849872,0.9592287301364397,0.2872922,0.6752624333876738
0.0365,1.76669375,1.0,2730.4784217065344,0.33677103499731587,1.3186949193076736,0.9600468704141141,0.2872541375,0.6761273865034294
0.037,1.765775,1.0,2731.9542037934043,0.3404912289184741,1.3182665898666897,0.9608350840669575,0.28721555,0.6769973781078711
0.0375,1.76484375,1.0,2733.1603672414944,0.34419055382684566,1.3178350679154767,0.9615948097677104,0.2871764375,0.6778726709284577
0.038,1.7639,1.0,2734.1123627931206,0.3478691263967647,1.3174002115074765,0.9623273997743712,0.28713679999999997,0.678753525940718
0.0385,1.76294375,1.0,2734.825689089662,0.3515270633025654,1.3169618786961301,0.9630341260667321,0.28709663750000003,0.6796402023387107
0.039,1.761975,1.0,2735.315885621858,0.3551644812185819,1.3165199275348793,0.9637161859827481,0.28705595,0.6805329575041924
0.0395,1.7609937500000001,1.0,2735.598526128548,0.3587814968191484,1.3160742160771652,0.9643747074004764,0.2870147375,0.6814320469745072
0.04,1.76,1.0,2735.678790458257,0.36237821208427595,1.3156246970011825,0.9650107592591909,0.286973,0.6823375339378565
0.0405,1.7589937500000001,1.0,2735.5813892474375,0.3659547592807194,1.3151711458650057,0.9656253397879055,0.2869307375,0.6832498367797809
0.041,1.757975,1.0,2735.3184556318706,0.36951125319371325,1.3147134525864093,0.9662193979939356,0.28688795,0.6841691414577231
0.0415,1.75694375,1.0,2734.8981670163926,0.37304780287199024,1.3142515431259396,0.9667938323225145,0.2868446375,0.6850955600859876
0.042,1.7559,1.0,2734.3287123631517,0.3765645173642831,1.3137853434441442,0.9673494919321909,0.28680079999999997,0.6860292035702821
0.0425,1.75484375,1.0,2733.6182899072355,0.3800615057193245,1.3133147795015694,0.9678871798994749,0.2867564375,0.686970181587637
0.043000000000000003,1.753775,1.0,2732.7751049923327,0.38353887698584715,1.3128397772587623,0.9684076561836849,0.28671155,0.6879186025659694
0.043500000000000004,1.75269375,1.0,2731.8073680298376,0.38699674021258373,1.3123602626762696,0.9689116403721817,0.28666613750000003,0.6888745736633032
0.044,1.7516,1.0,2730.723292577393,0.3904352044482669,1.3118761617146386,0.969399814224299,0.2866202,0.6898382007466346
0.0445,1.75049375,1.0,2729.531093541077,0.39385437874162954,1.3113874003344157,0.9698728240305863,0.2865737375,0.6908095883704539
0.045,1.7493750000000001,1.0,2728.238985497524,0.3972543721414042,1.3108939044961478,0.9703312828024676,0.28652675,0.691788839754911
0.0455,1.74824375,1.0,2726.855181138138,0.40063529369632356,1.3103956001603823,0.9707757723060434,0.2864792375,0.6927760567636356
0.046,1.7471,1.0,2725.38788983531,0.40399725245512047,1.3098924132876653,0.9712068449525401,0.2864312,0.6937713398812082
0.0465,1.7459437500000001,1.0,2723.840038119071,0.4073403434641646,1.309384317865278,0.9716250271978266,0.28638263750000004,0.6947746934280505
0.047,1.744775,1.0,2722.2212590397144,0.41066468577623705,1.308871226843351,0.9720308182538052,0.28633355,0.6957862411616171
0.0475,1.74359375,1.0,2720.5388112034293,0.4139703906127087,1.3083530747147727,0.9724246933637963,0.28628393750000003,0.6968060628633477
0.048,1.7424,1.0,2718.796469466965,0.4172575590077979,1.3078298276419138,0.9728071056539042,0.2862338,0.6978341747893803
0.0485,1.74119375,1.0,2716.9980060248995,0.4205262919957227,1.307301451787146,0.9731784865066683,0.2861831375,0.6988705922497207
0.049,1.739975,1.0,2715.147190009014,0.4237766906107016,1.3067679133128405,0.9735392468012531,0.28613195,0.6999153295972117
0.0495,1.73874375,1.0,2713.2477871139163,0.42700885588695275,1.3062291783813686,0.9738897780719391,0.2860802375,0.7009684002164283
0.05,1.7375,1.0,2711.30355924774,0.4302228888586944,1.3056852131551016,0.9742304535909962,0.286028,0.7020298165125005
0.0505,1.73624375,1.0,2709.318264207788,0.4334188905601448,1.3051359837964107,0.974561629381511,0.2859752375,0.7030995898998615
0.051000000000000004,1.734975,1.0,2707.2956553825647,0.4365969620255223,1.3045814564676677,0.974883645165283,0.28592195,0.7041777307909256
0.051500000000000004,1.73369375,1.0,2705.2394814782165,0.439757204289045,1.3040215973312432,0.9751968252504969,0.2858681375,0.705264248584692
0.052000000000000005,1.7324,1.0,2703.1534862706867,0.4428997183849313,1.3034563725495092,0.9755014793634891,0.2858138,0.7063591516552726
0.0525,1.73109375,1.0,2701.0414083837463,0.44602460534739935,1.3028857482848366,0.9757979034285925,0.28575893750000003,0.7074624473403528
0.053,1.729775,1.0,2698.9069810915275,0.4491319662106675,1.3023096906995966,0.9760863802997187,0.28570355000000003,0.7085741419295735
0.0535,1.72844375,1.0,2696.7495841121713,0.45222187583535806,1.3017282057174007,0.9763671802443501,0.2856476375,0.7096941641408098
0.054,1.7271,1.0,2694.575659771698,0.4552944614584906,1.3011412346630111,0.976640563153726,0.2855912,0.710822566280731
0.0545,1.7257437500000001,1.0,2692.388157096909,0.45834982546746467,1.3005487507393332,0.9769067771529655,0.2855342375,0.711959338102762
0.055,1.724375,1.0,2690.1885495296165,0.4613880604692861,1.2999507406170947,0.9771660596423327,0.28547675,0.7131044426124247
0.0555,1.72299375,1.0,2687.978308232955,0.464409259070961,1.2993471909670238,0.9774186380027031,0.2854187375,0.7142578420285466
0.056,1.7216,1.0,2685.758902058224,0.4674135138794953,1.298738088459848,0.9776647300988965,0.2853602,0.7154194977785586
0.0565,1.72019375,1.0,2683.531797515643,0.4704009175018952,1.2981234197662956,0.9779045447537246,0.28530113749999997,0.7165893704937789
0.057,1.718775,1.0,2681.2984587491687,0.47337156254516666,1.2975031715570946,0.9781382821946779,0.28524155,0.7177674200046873
0.0575,1.71734375,1.0,2679.0603475147377,0.4763255416163157,1.2968773305029726,0.978366134475044,0.2851814375,0.7189536053361887
0.058,1.7159,1.0,2676.818923163192,0.47926294732234836,1.296245883274658,0.9785882858711109,0.2851208,0.7201478847028626
0.0585,1.71444375,1.0,2674.575642626885,0.48218387227027065,1.295608816542878,0.9788049132569933,0.2850596375,0.7213502155042062
0.059000000000000004,1.7129750000000001,1.0,2672.331960409677,0.4850884090670886,1.2949661169783613,0.9790161864585121,0.28499795,0.7225605543198588
0.059500000000000004,1.71149375,1.0,2670.0893285817733,0.4879766503198083,1.2943177712518354,0.9792222685874501,0.2849357375,0.7237788569048222
0.06,1.71,1.0,2667.849196777629,0.4908486886354357,1.2936637660340287,0.9794233163574189,0.284873,0.7250050781846661
0.0605,1.7084937500000001,1.0,2665.613012198769,0.49370461662097687,1.2930040879956683,0.979619480382482,0.2848097375,0.7262391722507227
0.061,1.7069750000000001,1.0,2663.382219619372,0.49654452688343786,1.292338723807483,0.9798109054595997,0.28474595,0.7274810923552684
0.0615,1.7054437500000001,1.0,2661.158619591144,0.49936851183751957,1.2916676568428065,0.9799977306465879,0.2846816375,0.7287307970402643
0.062,1.7039,1.0,2658.9437514332994,0.5021766586390781,1.2909908728531565,0.9801800894306013,0.2846168,0.7299882395285654
0.0625,1.70234375,1.0,2656.735570508065,0.5049690541209844,1.2903083905864916,0.9803581119569936,0.2845514375,0.7312533110812534
0.063,1.7007750000000001,1.0,2654.5341211101013,0.5077457862903124,1.2896202095683091,0.9805319226067738,0.28448555,0.7325259381683951
0.0635,1.69919375,1.0,2652.339861121624,0.5105069430606669,1.2889263255098506,0.9807016409414925,0.28441913750000003,0.733806053658724
0.064,1.6976,1.0,2650.1551298659797,0.5132526120868197,1.2882267167597399,0.9808673812164528,0.2843522,0.735093621638714
0.0645,1.69599375,1.0,2647.9793072053676,0.5159828802206481,1.2875213889425412,0.9810292548165215,0.2842847375,0.7363885551675764
0.065,1.694375,1.0,2645.812553837261,0.5186978335281293,1.2868103404835443,0.9811873686687096,0.28421675,0.7376907799480658
0.0655,1.69274375,1.0,2643.651432480866,0.5213975579708112,1.286093603036823,0.9813418274849689,0.2841482375,0.7390001603999001
0.066,1.6911,1.0,2641.5070869320016,0.5240821392734288,1.2853710735823298,0.9814927256004632,0.2840792,0.7403168060027695
0.0665,1.6894446480807808,1.0,2639.419302404877,0.526751662315498,1.2846427897728343,0.9816401607771581,0.2840096752193928,0.7416405683365372
0.067,1.6877868864369852,1.0,2637.802397184865,0.5294062112647124,1.2839090712648151,0.9817842409576973,0.2839400492303534,0.7429707884360655
0.0675,1.6861291247931895,1.0,2636.7392840148987,0.5320458701742243,1.2831702355307464,0.9819250702928932,0.28387042324131395,0.7443068166755791
0.068,1.684471363149394,1.0,2636.184923167834,0.5346707228783135,1.28242669605093,0.9820627539908837,0.28380079725227453,0.7456478359622307
0.0685,1.6828136015055983,1.0,2636.0964866010827,0.5372808523314846,1.2816788474675667,0.9821973928197834,0.2837311712632351,0.746993070437957
0.069,1.6811558398618027,1.0,2636.4372155288074,0.5398763408450162,1.2809270295320374,0.982329081609157,0.28366154527419574,0.7483418497394956
0.0695,1.6794980782180071,1.0,2637.1759099403184,0.5424572693295395,1.2801715315306614,0.9824579096407027,0.2835919192851563,0.7496935998716951
0.07,1.6778403165742115,1.0,2638.2747751035818,0.5450237205989203,1.2794127044369388,0.9825839662851706,0.2835222932961169,0.7510476422169512
0.07050000000000001,1.676182554930416,1.0,2639.6937230911403,0.5475757786219406,1.2786509208597132,0.9827073391273848,0.28345266730707747,0.7524032662756182
0.07100000000000001,1.6745247932866203,1.0,2641.411680697979,0.5501135225874103,1.2778863778972158,0.9828281046365898,0.28338304131803804,0.7537600796529521
0.07150000000000001,1.6728670316428245,1.0,2643.4076001106855,0.5526370316841391,1.2771192726476785,0.9829463368477819,0.2833134153289986,0.7551176936454771
0.07200000000000001,1.671209269999029,1.0,2645.6604472797203,0.5551463851009373,1.2763498022093325,0.9830621074604878,0.2832437893399592,0.756475723274435
0.0725,1.6695515083552335,1.0,2648.1491911530334,0.5576416620266144,1.2755781636804093,0.983175485932959,0.2831741633509198,0.7578337873167523
0.073,1.6678937467114379,1.0,2650.852793770572,0.5601229416499806,1.2748045541591402,0.9832865395720164,0.2831045373618804,0.7591915083335338
0.0735,1.666235985067642,1.0,2653.7502012209734,0.5625903031598456,1.2740291707437565,0.9833953336187748,0.283034911372841,0.760548512696075
0.074,1.6645782234238466,1.0,2656.8258451689944,0.5650438231305213,1.2732521597709454,0.9835019289336172,0.28296528538380156,0.7619045190705157
0.0745,1.6629204617800508,1.0,2660.060353934087,0.5674835817050384,1.2724737024303658,0.9836063862650637,0.28289565939476213,0.7632591884052566
