Time [s],Phi [rad],STIM [ ],Fsee [N],Gamma [ ],Lcerel [ ],q [ ],Lmtc [m],fisomrel [ ]
0.0,1.8,1.0,17.9780968278926,0.00011666470921727793,1.3793385209104132,0.005003557810116167,0.288653,0.5411424953874363
0.0005,1.79999375,1.0,18.322862285085016,0.005725219621282786,1.379297268189526,0.013239292995581228,0.2886527375,0.5412422906376367
0.001,1.799975,1.0,21.74387721018073,0.011302314974699952,1.3789255031277354,0.03616657624521497,0.28865195,0.5421411450235732
0.0015,1.79994375,1.0,31.364570050303573,0.01684812723365816,1.378021101793992,0.07136413346368913,0.2886506375,0.544324128183853
0.002,1.7999,1.0,54.21617567167145,0.02236283187055748,1.3763271356701308,0.1156199092411797,0.2886488,0.5483988742293209
0.0025,1.79984375,1.0,98.18142760527004,0.02784660337426244,1.3738841076735493,0.16555550467442962,0.28864643749999996,0.5542432207562302
0.003,1.7997750000000001,1.0,162.33871698248424,0.033299615256851975,1.3711627787829166,0.21829176199858225,0.28864354999999997,0.560708519279795
0.0035,1.79969375,1.0,239.24212421336912,0.03872204005400413,1.3685367977621228,0.27161851637834195,0.2886401375,0.566902514972067
0.004,1.7996,1.0,323.12456941330225,0.04411404933554265,1.3661122401208248,0.3238893630227961,0.2886362,0.5725823585258659
0.0045000000000000005,1.7994937500000001,1.0,410.9840437837398,0.049475813710692484,1.3638825683773188,0.3739585614005921,0.2886317375,0.577772565150274
0.005,1.799375,1.0,501.1644811344984,0.05480750281976069,1.361821166788152,0.42111190630002143,0.28862675,0.582542867551213
0.0055,1.79924375,1.0,592.556467251437,0.060109285375615884,1.3599043564490378,0.46497399402746337,0.2886212375,0.5869542544929972
0.006,1.7991000000000001,1.0,684.2855405663333,0.06538132912113614,1.3581143083058391,0.5054154024680156,0.2886152,0.5910527493196123
0.006500000000000001,1.79894375,1.0,775.6378907935829,0.07062380085896473,1.3564372837380823,0.5424731830535964,0.2886086375,0.5948739246218682
0.007,1.798775,1.0,866.0249196883742,0.07583686650891273,1.3548623169391922,0.5762895203136356,0.28860155,0.5984462245425647
0.0075,1.79859375,1.0,954.9535382540003,0.08102069095145634,1.3533804844476005,0.6070671943611926,0.2885939375,0.6017928354961071
0.008,1.7984,1.0,1042.031034727643,0.0861754381547157,1.351984030861469,0.6350384279216347,0.2885858,0.6049338074569912
0.0085,1.79819375,1.0,1126.959464012956,0.09130127156375568,1.3506659595052692,0.6604443294923609,0.2885771375,0.6078870690186509
0.009000000000000001,1.797975,1.0,1209.4786394767625,0.09639835288396367,1.349420474327598,0.6835222958559687,0.28856795,0.6106675131399123
0.0095,1.79774375,1.0,1289.411667431669,0.10146684335922637,1.3482420231885586,0.7044978215798728,0.2885582375,0.6132892005278681
0.01,1.7975,1.0,1366.6515716749234,0.10650690414621207,1.34712531033756,0.7235804408831892,0.288548,0.6157653664638159
0.0105,1.79724375,1.0,1441.0990678039134,0.11151869415185024,1.3460659335832965,0.74096227899607,0.2885372375,0.6181070459602086
0.011,1.796975,1.0,1512.6982417902886,0.11650237162788897,1.3450597486951097,0.756817391336448,0.28852595000000003,0.6203245211430732
0.0115,1.79669375,1.0,1581.435927305515,0.12145809436474976,1.344102777640343,0.7713023037122371,0.2885141375,0.6224275459827829
0.012,1.7964,1.0,1647.3335910985745,0.12638602003923652,1.343191225703602,0.7845571060240456,0.28850180000000003,0.6244253271685564
0.0125,1.79609375,1.0,1710.4035048571427,0.13128630402802927,1.3423219141222513,0.7967069555668491,0.2884889375,0.6263255966571365
0.013000000000000001,1.7957750000000001,1.0,1770.6742426738167,0.13615910088847907,1.341491892717167,0.8078632985230668,0.28847555,0.6281354821697923
0.0135,1.79544375,1.0,1828.2028031435123,0.14100456490917973,1.3406982508865577,0.8181251949903509,0.2884616375,0.6298619318968119
0.014,1.7951000000000001,1.0,1883.062986362713,0.14582284999791092,1.3399382107877593,0.8275806965028744,0.2884472,0.6315115205561763
0.0145,1.79474375,1.0,1935.3244006724544,0.1506141089282717,1.339209316660553,0.8363081481277126,0.2884322375,0.6330900493963032
0.015,1.794375,1.0,1985.0477526893008,0.15537849235322707,1.3385094398548163,0.844377299393387,0.28841675,0.634602548243554
0.0155,1.79399375,1.0,2032.3121464569106,0.1601161509257419,1.3378364517204275,0.8518501985083233,0.2884007375,0.6360539919928292
0.016,1.7936,1.0,2077.201556201294,0.164827234326225,1.3371883480325801,0.8587821401602824,0.2883842,0.637449036833736
0.0165,1.7931937500000001,1.0,2119.815419361352,0.1695118933010532,1.3365631181267204,0.8652224265203785,0.2883671375,0.6387923071327146
0.017,1.792775,1.0,2160.232555051471,0.174170275812309,1.3359591004505342,0.871215176890708,0.28834955,0.6400876365576144
0.0175,1.7923437500000001,1.0,2198.523748949819,0.1788025280932691,1.3353748273930388,0.8767998915485713,0.2883314375,0.6413384092828107
0.018000000000000002,1.7919,1.0,2234.7693143356955,0.18340879637721025,1.3348088313432516,0.8820119408640296,0.2883128,0.6425479797658359
0.0185,1.79144375,1.0,2269.0582898051744,0.18798922689740913,1.3342596446901893,0.886883047581424,0.2882936375,0.6437196745267487
0.019,1.790975,1.0,2301.4703134609495,0.19254396405089805,1.3337259717782224,0.8914417509969057,0.28827395,0.6448564278082944
0.0195,1.79049375,1.0,2332.1021532808636,0.19707315449787788,1.3332064153999263,0.8957137067866713,0.2882537375,0.645961367143915
0.02,1.79,1.0,2361.0210534529497,0.2015769402919834,1.3326999301136029,0.8997221165433998,0.288233,0.6470368510918487
0.0205,1.78949375,1.0,2388.2944089011817,0.20605546287159443,1.332205518062497,0.9034879332039949,0.2882117375,0.6480851204363138
0.021,1.788975,1.0,2413.9941353975355,0.21050886367509086,1.3317221813898537,0.9070301000659863,0.28818995000000003,0.649108400427159
0.021500000000000002,1.78844375,1.0,2438.1962885982516,0.21493728414085256,1.3312489222389179,0.9103657711122805,0.2881676375,0.6501089015164392
0.022,1.7879,1.0,2460.966965539757,0.21934086352444998,1.3307848742780004,0.9135105304548566,0.2881448,0.6510885425666055
0.0225,1.78734375,1.0,2482.388305039961,0.22371974432569386,1.3303290488280048,0.9164785116772663,0.28812143749999997,0.6520494882027602
0.023,1.786775,1.0,2502.5180611549963,0.22807406415345438,1.3298807184630888,0.9192826212262576,0.28809755,0.6529933405174629
0.0235,1.78619375,1.0,2521.4094576957923,0.23240395937893105,1.3294392215566915,0.9219346295628144,0.28807313749999996,0.6539215538906924
0.024,1.7856,1.0,2539.1178420924966,0.2367095663733234,1.3290038964822521,0.9244452760727015,0.2880482,0.6548355742968608
0.0245,1.78499375,1.0,2555.7005071949634,0.240991021507831,1.32857408161321,0.9268243735877383,0.2880227375,0.6557368395791954
0.025,1.784375,1.0,2571.216522778878,0.2452484611536533,1.328149115323004,0.9290809010452368,0.28799675,0.6566267796962046
0.025500000000000002,1.78374375,1.0,2585.716681392919,0.24948201794023872,1.3277284283970607,0.9312230994195781,0.2879702375,0.6575066237895173
0.026000000000000002,1.7831000000000001,1.0,2599.2652984818747,0.25369183106855064,1.3273113383796773,0.9332585144793606,0.2879432,0.65837783089319
0.0265,1.78244375,1.0,2611.902841359752,0.25787803164161316,1.326897397066485,0.9351941124512787,0.2879156375,0.6592413641299644
0.027,1.781775,1.0,2623.6703830343567,0.26204075061783805,1.3264861599053455,0.9370363017032463,0.28788755,0.6600981740760881
0.0275,1.7810937500000001,1.0,2634.609907700096,0.26618011895563704,1.326077182344121,0.9387909843838326,0.2878589375,0.6609492064876238
0.028,1.7804,1.0,2644.7642306348475,0.27029626761342185,1.3256700198306735,0.9404636031051644,0.2878298,0.6617954023708188
0.0285,1.77969375,1.0,2654.17692247844,0.27438932754960416,1.3252642278128648,0.9420591827553263,0.2878001375,0.6626376980398623
0.029,1.778975,1.0,2662.879566600052,0.278459425257541,1.3248594783475431,0.9435823826740941,0.28776995,0.6634767835706701
0.029500000000000002,1.7782437500000001,1.0,2670.917488919358,0.28250669413582025,1.3244553221815047,0.945037500256873,0.2877392375,0.6643135966457141
0.03,1.7775,1.0,2678.335382996567,0.28653126593971134,1.3240513210598543,0.9464285175535591,0.287708,0.6651490475745
0.0305,1.77674375,1.0,2685.1601160492037,0.2905332652307508,1.3236472046785726,0.9477591471270628,0.2876762375,0.6659836954838845
0.031,1.775975,1.0,2691.4189155130466,0.29451281657047473,1.3232427027336406,0.949032835512172,0.28764395,0.6668180967138113
0.0315,1.7751937500000001,1.0,2697.139336711073,0.2984700445204196,1.322837544921039,0.9502527855945526,0.2876111375,0.6676528048129979
0.032,1.7744,1.0,2702.3492321423714,0.30240507364212166,1.3224314609367485,0.9514219768462887,0.2875778,0.6684883705299556
0.0325,1.77359375,1.0,2707.0767223911735,0.3063180284971172,1.3220241804767503,0.9525431836463435,0.2875439375,0.6693253417993539
0.033,1.772775,1.0,2711.35016865563,0.3102090336469425,1.3216154332370247,0.9536189918877355,0.28750955,0.6701642637237275
0.0335,1.7719437500000002,1.0,2715.1981468965605,0.31407821365313404,1.321204948913553,0.9546518140499627,0.2874746375,0.6710056785505163
0.034,1.7711000000000001,1.0,2718.638891449912,0.3179256880464283,1.320792553126583,0.9556439123129875,0.2874392,0.6718499293958178
0.0345,1.7702437500000001,1.0,2721.7028336218805,0.32175158391215813,1.3203779617839178,0.9565973907903885,0.2874032375,0.6726975816428016
0.035,1.7693750000000001,1.0,2724.413810119627,0.3255560232568546,1.3199609521924403,0.9575142231051721,0.28736675,0.6735490722962595
0.035500000000000004,1.76849375,1.0,2726.788397106056,0.329339124078164,1.3195413687903572,0.9583962631457575,0.2873297375,0.6744046990803091
0.036000000000000004,1.7676,1.0,2728.8432654598046,0.3331010043737326,1.3191190560158748,0.9592452479889715,0.2872922,0.6752647579321971
0.0365,1.76669375,1.0,2730.595170450405,0.3368417821412064,1.3186938583071997,0.9600628065876602,0.2872541375,0.6761295429759904
0.037,1.765775,1.0,2732.06094194975,0.340561575378232,1.3182656201025384,0.96085046771816,0.28721555,0.6769993464947279
0.0375,1.76484375,1.0,2733.257475180491,0.3442605020824555,1.3178341858400973,0.9616096672582258,0.2871764375,0.6778744589010285
0.038,1.7639,1.0,2734.2017220004195,0.34793868025152314,1.3173993999580826,0.9623417548586163,0.28713679999999997,0.6787551687061515
0.0385,1.76294375,1.0,2734.910361097886,0.35159622660045203,1.3169611098152674,0.9630480000819718,0.28709663750000003,0.679641756583782
0.039,1.761975,1.0,2735.398772428207,0.3552332548343629,1.316519174932216,0.9637295985559025,0.28705595,0.6805344767226698
0.0395,1.7609937500000001,1.0,2735.6812974269005,0.3588498870232798,1.316073464562119,0.9643876790719212,0.2870147375,0.6814335618612848
0.04,1.76,1.0,2735.7688673280627,0.3624462350427209,1.3156238791683579,0.9650233065326889,0.286973,0.6823391801617278
0.0405,1.7589937500000001,1.0,2735.672435712542,0.3660224107682044,1.3151703192143145,0.9656374854652022,0.2869307375,0.6832514983620763
0.041,1.757975,1.0,2735.402974711232,0.36957852607524855,1.3147126851633704,0.9662311640743844,0.28688795,0.684170681751471
0.0415,1.75694375,1.0,2734.971471427994,0.3731146928393716,1.3142508774789072,0.9668052379837354,0.2868446375,0.685096894144569
0.042,1.7559,1.0,2734.388924582606,0.37663102293609174,1.3137847966243066,0.9673605536901974,0.28680079999999997,0.6860302978553654
0.0425,1.75484375,1.0,2733.6663413728847,0.3801276282409272,1.3133143430629504,0.967897911757784,0.2867564375,0.6869710536703821
0.043000000000000003,1.753775,1.0,2732.8147345566385,0.3836046206293962,1.31283941725822,0.9684180697721924,0.28671155,0.6879193208212286
0.043500000000000004,1.75269375,1.0,2731.828999062686,0.38706207812611826,1.3123600661417962,0.9689217515620403,0.28666613750000003,0.6888749651782293
0.044,1.7516,1.0,2730.73179149464,0.39050014664632066,1.3118760844800577,0.9694096334239711,0.2866202,0.6898383543666707
0.0445,1.75049375,1.0,2729.5368078382667,0.3939189492612248,1.3113873483939367,0.969882359256307,0.2865737375,0.6908096915184729
0.045,1.7493750000000001,1.0,2728.24885739613,0.39731858899139,1.310893814743666,0.9703405430411053,0.28652675,0.6917890177108773
0.0455,1.74824375,1.0,2726.87274993627,0.4006991688573757,1.3103954403894775,0.9707847674957759,0.2864792375,0.6927763730402496
0.046,1.7471,1.0,2725.4132949019936,0.4040607918797415,1.3098921821916036,0.9712155859633028,0.2864312,0.6937717966088199
0.0465,1.7459437500000001,1.0,2723.8753006629695,0.40740356107904674,1.3093839970102767,0.9716335241706929,0.28638263750000004,0.6947753265113045
0.047,1.744775,1.0,2722.263573807774,0.4107275794758508,1.308870841705729,0.9720390818660053,0.28633355,0.6957869998214109
0.0475,1.74359375,1.0,2720.582918477868,0.41403295009071334,1.308352673138193,0.972432734343416,0.28628393750000003,0.6968068525782232
0.048,1.7424,1.0,2718.838135741851,0.41731977594419367,1.3078294481679005,0.9728149338649532,0.2862338,0.6978349197724678
0.0485,1.74119375,1.0,2717.034023012678,0.4205881600568513,1.3073011236550842,0.9731861109868032,0.2861831375,0.6988712353326615
0.049,1.739975,1.0,2715.175373504179,0.4238382054492456,1.3067676564599762,0.9735466757974123,0.28613195,0.6999158321111417
0.0495,1.73874375,1.0,2713.2669757305384,0.4270700151419361,1.3062290034428088,0.9738970190740105,0.2860802375,0.7009687418699753
0.05,1.7375,1.0,2711.3136130459607,0.4302836921554823,1.3056851214638145,0.9742375133636202,0.286028,0.7020299952667506
0.0505,1.73624375,1.0,2709.320063226115,0.43347933951044354,1.3051359673832252,0.9745685139941197,0.2859752375,0.703099621840253
0.051000000000000004,1.734975,1.0,2707.291098090588,0.4366570602273793,1.3045814980612735,0.9748903600204752,0.28592195,0.7041776499960153
0.051500000000000004,1.73369375,1.0,2705.2314831667245,0.4398169573268491,1.3040216703581917,0.9752033751108348,0.2858681375,0.7052641069917571
0.052000000000000005,1.7324,1.0,2703.145977394664,0.4429591338294124,1.3034564411342118,0.9755078683768051,0.2858138,0.7063590189226998
0.0525,1.73109375,1.0,2701.0361108329867,0.44608367950161293,1.3028857966906024,0.9758041356150093,0.28575893750000003,0.7074623538364128
0.053,1.729775,1.0,2698.902642052473,0.4491906984784825,1.3023097303627418,0.9760924615200066,0.28570355000000003,0.708574065459204
0.0535,1.72844375,1.0,2696.7499149545397,0.4522803004655763,1.301728202691963,0.976373116852559,0.2856476375,0.7096941699626202
0.054,1.7271,1.0,2694.579797318183,0.4553525795317116,1.301141196811353,0.9766463604195423,0.2855912,0.7108226389764857
0.0545,1.7257437500000001,1.0,2692.394154151624,0.45840762974570554,1.3005486958539991,0.9769124399138398,0.2855342375,0.7119594433050394
0.055,1.724375,1.0,2690.194847633254,0.4614455451763754,1.2999506829529883,0.9771715924823512,0.28547675,0.7131045529210328
0.0555,1.72299375,1.0,2687.9837370585988,0.4644664198925384,1.2993471412414077,0.9774240452603898,0.2854187375,0.714257936959811
0.056,1.7216,1.0,2685.7626787935883,0.4674703479630117,1.2987380538523448,0.9776700158747158,0.2853602,0.7154195637133723
0.0565,1.72019375,1.0,2683.533526234426,0.4704574234566125,1.298123403918886,0.9779097129172898,0.28530113749999997,0.7165894006244156
0.057,1.718775,1.0,2681.298129773281,0.47342774044215813,1.2975031745741192,0.9781433363916767,0.28524155,0.7177674142803607
0.0575,1.71734375,1.0,2679.0583367705763,0.4763813929884657,1.2968773489511312,0.978371078133885,0.2851814375,0.7189535704073606
0.058,1.7159,1.0,2676.8159915336864,0.47931847516435244,1.296245910183009,0.9785931222093005,0.2851208,0.7201478338642875
0.0585,1.71444375,1.0,2674.5729353017778,0.4822390810386356,1.29560884140284,0.9788096452872519,0.2850596375,0.7213501686367048
0.059000000000000004,1.7129750000000001,1.0,2672.33100623689,0.48514330468013245,1.294966125743711,0.9790208169946361,0.28499795,0.7225605378308203
0.059500000000000004,1.71149375,1.0,2670.092039421558,0.4880312401576601,1.2943177463387097,0.979226800249929,0.2849357375,0.7237789036674201
0.06,1.71,1.0,2667.852972177253,0.490902947363282,1.2936637313228379,0.9794277512261643,0.284873,0.7250051431937121
0.0605,1.7084937500000001,1.0,2665.6179332225515,0.4937585523256706,1.2930040427325893,0.9796238218548448,0.2848097375,0.7262392568315019
0.061,1.7069750000000001,1.0,2663.389250653884,0.4965981567695622,1.2923386591096742,0.9798151570898874,0.28474595,0.7274812129781816
0.0615,1.7054437500000001,1.0,2661.1672656095884,0.4994218460654712,1.2916675772511026,0.9800018960004736,0.2846816375,0.7287309450907912
0.062,1.7039,1.0,2658.9523186654815,0.502229705583912,1.2909907939538856,0.9801841723806988,0.2846168,0.7299883859505335
0.0625,1.70234375,1.0,2656.7447498380293,0.5050218206953991,1.2903083060150335,0.9803621149876283,0.2845514375,0.7312534676616124
0.063,1.7007750000000001,1.0,2654.544898588845,0.507798276770447,1.2896201102315572,0.9805358477668802,0.28448555,0.7325261216500659
0.0635,1.69919375,1.0,2652.353103829192,0.5105591591795702,1.2889262034004672,0.9807054900664777,0.28441913750000003,0.7338062786626016
0.064,1.6976,1.0,2650.1697039239302,0.513304553293283,1.2882265823187737,0.9808711568396623,0.2843522,0.7350938687654309
0.0645,1.69599375,1.0,2647.995036697022,0.5160345444820998,1.2875212437834882,0.981032958837313,0.2842847375,0.7363888213430994
0.065,1.694375,1.0,2645.8294394361,0.5187492181165353,1.2868101845916204,0.9811910027905775,0.28421675,0.7376910650973234
0.0655,1.69274375,1.0,2643.6732488978437,0.5214486595671038,1.2860934015401817,0.9813453915842787,0.2841482375,0.7390005280458175
0.066,1.6911,1.0,2641.5268013134532,0.5241329542043198,1.2853708914261823,0.9814962244216264,0.2840792,0.740317137521129
0.0665,1.6894437500000001,1.0,2639.39043239442,0.5268021873986979,1.2846426510466329,0.9816435969807259,0.2840096375,0.7416408201694669
0.067,1.687775,1.0,2637.264477338258,0.5294564445207522,1.2839086771985442,0.9817876015633525,0.28393955,0.7429715019495308
0.0675,1.68609375,1.0,2635.1492708349565,0.5320958109409976,1.2831689666789265,0.981928327236419,0.2838689375,0.7443091081313424
0.068,1.6844000000000001,1.0,2633.0451470731346,0.5347203720299482,1.2824235162847908,0.9820658599665487,0.2837978,0.7456535632950718
0.0685,1.68269375,1.0,2630.9524397465607,0.5373302131581186,1.2816723228131477,0.9822002827481336,0.2837261375,0.7470047913298659
0.069,1.680975,1.0,2628.871482061408,0.5399254196960233,1.2809153830610076,0.9823316757252338,0.28365395,0.7483627154326766
0.0695,1.67924375,1.0,2626.8020244587747,0.542506032179905,1.2801526992205954,0.9824601137234502,0.28358123749999997,0.7497272484675211
0.07,1.6775,1.0,2624.745384717546,0.5450721786004639,1.2793842589601814,0.9825856738641647,0.283508,0.7510983285882344
0.07050000000000001,1.67574375,1.0,2622.701633936033,0.5476239499225514,1.2786100614896907,0.9827084288782629,0.2834342375,0.752475872566042
0.07100000000000001,1.673975,1.0,2620.670568279317,0.5501614224176453,1.2778301085689874,0.9828284482791173,0.28335995,0.7538597920042879
0.07150000000000001,1.67219375,1.0,2618.651984288324,0.5526846723572236,1.2770444019579354,0.9829457992777408,0.2832851375,0.7552499979074295
0.07200000000000001,1.6704,1.0,2616.6456788756173,0.5551937760127643,1.2762529434163987,0.983060546872923,0.2832098,0.7566464006816838
0.0725,1.66859375,1.0,2614.6514493207806,0.5576888096557452,1.2754557347042417,0.9831727539372515,0.2831339375,0.758048910135671
0.073,1.6667750000000001,1.0,2612.6690932668325,0.5601698495576444,1.2746527775813281,0.9832824812992323,0.28305755,0.7594574354810635
0.0735,1.66494375,1.0,2610.698408715906,0.5626369719899396,1.2738440738075218,0.9833897878217115,0.2829806375,0.7608718853332287
0.074,1.6631,1.0,2608.739194024936,0.5650902532241089,1.2730296251426874,0.9834947304767852,0.2829032,0.7622921677118738
0.0745,1.6612437500000001,1.0,2606.791247902433,0.5675297695316301,1.2722094333466882,0.9835973644173776,0.2828252375,0.763718190041693
0.075,1.659375,1.0,2604.8543694040573,0.5699555971839813,1.271383500179389,0.9836977430456578,0.28274675,0.7651498591530089
0.0755,1.65749375,1.0,2602.9283579290795,0.5723678124526402,1.270551827400653,0.9837959180784487,0.2826677375,0.766587081282421
