Time [s],Phi [rad],STIM [ ],Fsee [N],Gamma [ ],Lcerel [ ],q [ ],Lmtc [m],fisomrel [ ]
0.0,1.8,1.0,19.134526619442898,0.0011026891791063417,1.3792110199229255,0.005312058856489407,0.288653,0.5414509004113987
0.0005,1.79999375,1.0,19.761847026477806,0.006705713273633966,1.3791406432975954,0.016250031781487012,0.2886527375,0.5416210860965737
0.001,1.799975,1.0,23.918297494225428,0.012277308833213867,1.378709335439245,0.04152717429002149,0.28865195,0.5426633904692775
0.0015,1.79994375,1.0,35.23431909799548,0.01781765214714894,1.377702509547433,0.07855483234343788,0.2886506375,0.5450918822754189
0.002,1.7999,1.0,61.38413149290545,0.023326918515721266,1.375879188059086,0.12404154326494159,0.2886488,0.5494733290307472
0.0025,1.79984375,1.0,109.25316152122042,0.02880528225633728,1.37336765295658,0.17465753460746278,0.28864643749999996,0.5554738384110169
0.003,1.7997750000000001,1.0,176.13889848283276,0.03425291670789048,1.3706589157515952,0.22764248670381787,0.28864354999999997,0.56190040871764
0.0035,1.79969375,1.0,254.50954261783897,0.03966999423680105,1.3680753042290006,0.280890999643717,0.2886401375,0.567986512808446
0.004,1.7996,1.0,339.17745022906524,0.045056686242294974,1.3656932929933723,0.3328478755511432,0.2886362,0.5735599982769884
0.0045000000000000005,1.7994937500000001,1.0,427.4823662324385,0.05041316317044293,1.3634999019599838,0.3824487781639972,0.2886317375,0.5786601443720731
0.005,1.799375,1.0,517.9040422574758,0.055739594497988626,1.3614689910779758,0.4290458833242935,0.28862675,0.5833551291105556
0.0055,1.79924375,1.0,609.3781286522589,0.061036148760725425,1.3595784886262257,0.4723134906077443,0.2886212375,0.5877018830270386
0.006,1.7991000000000001,1.0,701.058534552216,0.0663029935076665,1.35781165731526,0.5121566493887901,0.2886152,0.5917436794939632
0.006500000000000001,1.79894375,1.0,792.2649550830938,0.07154029548854363,1.3561552737546865,0.5486346763202704,0.2886086375,0.5955147352574117
0.007,1.798775,1.0,882.4052709871031,0.0767482202195771,1.3545992258106312,0.5819034244696218,0.28860155,0.5990414191788935
0.0075,1.79859375,1.0,971.0318859804756,0.08192693278469561,1.3531344357456774,0.6121724783942946,0.2885939375,0.6023471629163969
0.008,1.7984,1.0,1057.7516112851297,0.08707659678654316,1.3517536286105263,0.6396770557728496,0.2885858,0.6054508442580611
0.0085,1.79819375,1.0,1142.259119192613,0.09219737508640215,1.3504502604113027,0.6646585101871878,0.2885771375,0.6083693079644457
0.009000000000000001,1.797975,1.0,1224.3458714350252,0.09728943017079456,1.349218083936938,0.6873523037293447,0.28856795,0.6111183987608855
0.0095,1.79774375,1.0,1303.829178342509,0.10235292275043625,1.3480518834397197,0.7079815262851336,0.2885582375,0.6137113725576013
0.01,1.7975,1.0,1380.583065632336,0.10738801291723664,1.346946804021976,0.7267528907808641,0.288548,0.6161604438103843
0.0105,1.79724375,1.0,1454.5435591079781,0.11239486038566182,1.3458981399646641,0.7438551674949393,0.2885372375,0.618477285615388
0.011,1.796975,1.0,1525.6647124856318,0.11737362362742425,1.344901767526756,0.7594592876888643,0.28852595000000003,0.6206721006279322
0.0115,1.79669375,1.0,1593.9188006413012,0.1223244596498308,1.3439540054852182,0.7737189390438898,0.2885141375,0.6227539608121
0.012,1.7964,1.0,1659.3150332449152,0.12724752494834002,1.34305129334324,0.7867715455050615,0.28850180000000003,0.6247315374219718
0.0125,1.79609375,1.0,1721.9009190434856,0.132142976376018,1.342190115684699,0.7987395957105882,0.2884889375,0.6266132803816721
0.013000000000000001,1.7957750000000001,1.0,1781.7130602413358,0.1370109686358121,1.341367508493014,0.8097322671003888,0.28847555,0.6284063269938523
0.0135,1.79544375,1.0,1838.7888194193204,0.1418516548826353,1.340580847553454,0.8198467059883787,0.2884616375,0.6301169843104941
0.014,1.7951000000000001,1.0,1893.1923908652002,0.14666518827140052,1.3398275086512885,0.8291692093883112,0.2884472,0.6317514807520996
0.0145,1.79474375,1.0,1944.9993216043451,0.15145172116741246,1.3391050090111927,0.8377765019899867,0.2884322375,0.6333156660188741
0.015,1.794375,1.0,1994.3015643665728,0.1562114063209805,1.3384109214674456,0.84573681311384,0.28841675,0.6348152048200076
0.0155,1.79399375,1.0,2041.1700950079176,0.16094439378938125,1.3377432437884278,0.853110988213999,0.2884007375,0.6362547872298171
0.016,1.7936,1.0,2085.6748717840633,0.16565083247012932,1.3371001499339297,0.8599532763340552,0.2883842,0.6376386763855936
0.0165,1.7931937500000001,1.0,2127.899717957156,0.17033087126073937,1.3364798138637413,0.8663120569107149,0.2883671375,0.638971093310657
0.017,1.792775,1.0,2167.932687350944,0.17498465823304712,1.3358804956955663,0.8722305594587297,0.28834955,0.6402560351125659
0.0175,1.7923437500000001,1.0,2205.869228427505,0.17961234199458948,1.335300494737915,0.8777474587706935,0.2883314375,0.6414973795551959
0.018000000000000002,1.7919,1.0,2241.789771004705,0.18421406891563685,1.3347383627321177,0.8828974636927374,0.2883128,0.6426984327660116
0.0185,1.79144375,1.0,2275.765040358681,0.18878998344030315,1.3341928324328727,0.8877117575088861,0.2882936375,0.6438620878523402
0.019,1.790975,1.0,2307.8729976309046,0.19334023001270245,1.3336626365948785,0.8922183593989716,0.28827395,0.6449912147339096
0.0195,1.79049375,1.0,2338.198232566144,0.19786495307694874,1.3331465079728337,0.8964424867744301,0.2882537375,0.6460886614333757
0.02,1.79,1.0,2366.814686170193,0.20236429499425923,1.3326433423894604,0.90040690926755,0.288233,0.6471569093238784
0.0205,1.78949375,1.0,2393.8173947547302,0.2068384011752498,1.332151880810884,0.9041321531861984,0.2882117375,0.6481987502353069
0.021,1.788975,1.0,2419.2692033366184,0.21128741181448166,1.3316712236369124,0.9076368579972535,0.28818995000000003,0.6492161971020194
0.021500000000000002,1.78844375,1.0,2443.2325509651846,0.21571146651293777,1.3312005119918413,0.9109379148929159,0.2881676375,0.6502111634449688
0.022,1.7879,1.0,2465.7733124201236,0.220110704871601,1.3307388869999672,0.9140506473200283,0.2881448,0.6511855504656343
0.0225,1.78734375,1.0,2486.9605095023517,0.2244852664914544,1.3302854897855865,0.9169889781805183,0.28812143749999997,0.6521412475672681
0.023,1.786775,1.0,2506.859059273583,0.22883528932127306,1.3298395276703427,0.9197655890271057,0.28809755,0.6530799935784606
0.0235,1.78619375,1.0,2525.536799978517,0.23316091315251125,1.3294002041357775,0.9223920375190999,0.28807313749999996,0.6540035252401406
0.024,1.7856,1.0,2543.0528288252403,0.23746227544293197,1.3289668266126728,0.9248788897438005,0.2880482,0.654913351366032
0.0245,1.78499375,1.0,2559.45661078136,0.24173951058993765,1.3285388112057464,0.9272358202893429,0.2880227375,0.6558107446795758
0.025,1.784375,1.0,2574.799244590486,0.2459927529909307,1.328115574019715,0.9294716834873424,0.28799675,0.6566969709365846
0.025500000000000002,1.78374375,1.0,2589.1333240531644,0.25022213704331353,1.3276965311592965,0.9315945941493086,0.2879702375,0.657573289114044
0.026000000000000002,1.7831000000000001,1.0,2602.5128068670488,0.2544277971444886,1.3272810987292079,0.9336119993717605,0.2879432,0.6584409515771763
0.0265,1.78244375,1.0,2614.983368023907,0.25860986504915284,1.3268687812696167,0.9355307553134088,0.2879156375,0.6593010198702662
0.027,1.781775,1.0,2626.596716003906,0.26276847608795906,1.3264590370483555,0.9373571645911019,0.28788755,0.6601546464587387
0.0275,1.7810937500000001,1.0,2637.401677010201,0.2669037636572576,1.3260513601143098,0.9390970379793105,0.2878589375,0.661002903595691
0.028,1.7804,1.0,2647.433277513687,0.2710158564009423,1.325645379838277,0.9407557530316395,0.2878298,0.6618465771364295
0.0285,1.77969375,1.0,2656.727219500167,0.27510488296290697,1.3252407255910548,0.9423382754293432,0.2878001375,0.6626864490338145
0.029,1.778975,1.0,2665.3198216625633,0.2791709719870454,1.3248370267434406,0.9438491958800872,0.28776995,0.6635232973739835
0.029500000000000002,1.7782437500000001,1.0,2673.247963638185,0.28321425211725143,1.3244339126662323,0.9452927632684841,0.2877392375,0.6643578964033148
0.03,1.7775,1.0,2680.5490332923146,0.2872348519974189,1.324031012730227,0.946672914479984,0.287708,0.6651910165466308
0.0305,1.77674375,1.0,2687.2587507230505,0.2912328993026265,1.3236279757850131,0.9479933034765656,0.2876762375,0.666023384213313
0.031,1.775975,1.0,2693.4062709178197,0.29520851959603545,1.3232245144332133,0.949257330563092,0.28764395,0.6668555907825685
0.0315,1.7751937500000001,1.0,2699.0311408945718,0.2991618434731944,1.322820249317032,0.9504681463877972,0.2876111375,0.6676884140015602
0.032,1.7744,1.0,2704.1570925587375,0.3030929937100162,1.3224149485854302,0.9516286980284167,0.2875778,0.6685223243898419
0.0325,1.77359375,1.0,2708.80810030127,0.3070020930824135,1.3220083803873688,0.9527417301196788,0.2875439375,0.6693577900519886
0.033,1.772775,1.0,2713.008357899278,0.31088926436629905,1.3216003128718083,0.9538098012118811,0.28750955,0.6701952766605708
0.0335,1.7719437500000002,1.0,2716.782256608358,0.3147546303375856,1.3211905141877098,0.954835298620999,0.2874746375,0.6710352474356971
0.034,1.7711000000000001,1.0,2720.1543644468484,0.3185983137721859,1.320778752484034,0.9558204519254425,0.2874392,0.6718781631211316
0.0345,1.7702437500000001,1.0,2723.14940667198,0.3224204374460126,1.3203647959097418,0.9567673452471098,0.2874032375,0.6727244819569819
0.035,1.7693750000000001,1.0,2725.783939044264,0.3262211169783299,1.3199484881854449,0.9576779347737179,0.28736675,0.6735745054459448
0.035500000000000004,1.76849375,1.0,2728.0903409094362,0.33000048274292043,1.3195295301434546,0.9585540407249479,0.2873297375,0.6744288245098952
0.036000000000000004,1.7676,1.0,2730.0853806408413,0.3337586529069606,1.3191077655843904,0.959397380818462,0.2872922,0.6752877357899801
0.0365,1.76669375,1.0,2731.7839655224543,0.33749574399611565,1.3186830559519809,0.9602095674935376,0.2872541375,0.6761514982433248
0.037,1.765775,1.0,2733.201071998944,0.34121187253605106,1.3182552626899555,0.9609921142330904,0.28721555,0.677020369165011
0.0375,1.76484375,1.0,2734.3517375940496,0.3449071550524321,1.3178242472420434,0.9617464427384361,0.2871764375,0.6778946041614429
0.038,1.7639,1.0,2735.2510532542124,0.34858170807092403,1.3173898710519736,0.9624738895075491,0.28713679999999997,0.6787744571224859
0.0385,1.76294375,1.0,2735.9141561181755,0.3522356481171922,1.3169519955634752,0.9631757118724,0.28709663750000003,0.6796601801923814
0.039,1.761975,1.0,2736.356222711675,0.355869091716902,1.3165104822202776,0.9638530935452602,0.28705595,0.6805520237394368
0.0395,1.7609937500000001,1.0,2736.59246256889,0.3594821553957187,1.3160651924661095,0.9645071497187712,0.2870147375,0.6814502363244934
0.04,1.76,1.0,2736.6256263119094,0.36307494077808833,1.3156161010894325,0.9651389391309559,0.286973,0.6823548365213812
0.0405,1.7589937500000001,1.0,2736.485456015157,0.3666475821816253,1.3151629380570597,0.9657494450139452,0.2869307375,0.6832663344236031
0.041,1.757975,1.0,2736.181889676072,0.3702001909562795,1.3147056132675377,0.9663396070447829,0.28688795,0.6841848755672928
0.0415,1.75694375,1.0,2735.7230488480714,0.3737328762820048,1.314244053229849,0.9669103139308782,0.2868446375,0.6851105708216705
0.042,1.7559,1.0,2735.1170660632088,0.37724574733875516,1.313778184452976,0.9674624057275942,0.28680079999999997,0.6860435298513847
0.0425,1.75484375,1.0,2734.372082594558,0.3807389133064845,1.3133079334459008,0.9679966769952919,0.2867564375,0.6869838610964891
0.043000000000000003,1.753775,1.0,2733.4962463382813,0.3842124833651468,1.312833226717606,0.9685138797205955,0.28671155,0.6879316717520758
0.043500000000000004,1.75269375,1.0,2732.497709816236,0.38766656669469596,1.312353990777074,0.9690147260216903,0.28666613750000003,0.6888870677475623
0.044,1.7516,1.0,2731.384628297106,0.3911012724750858,1.3118701521332874,0.9694998906556221,0.2866202,0.6898501537256383
0.0445,1.75049375,1.0,2730.1651580385646,0.39451670988627047,1.311381637295228,0.9699700133439151,0.2865737375,0.6908210330208643
0.045,1.7493750000000001,1.0,2728.84745464807,0.39791298810820375,1.310888372771879,0.9704257009313331,0.28652675,0.6917998076379248
0.0455,1.74824375,1.0,2727.4396715641565,0.40129021632083967,1.310390285072222,0.9708675293912732,0.2864792375,0.6927865782295433
0.046,1.7471,1.0,2725.947581923678,0.40464849900635597,1.3098873223229168,0.9712960466510416,0.2864312,0.6937814013505506
0.0465,1.7459437500000001,1.0,2724.3748753005466,0.40798793786593557,1.3093794515879844,0.971711774348235,0.28638263750000004,0.6947842950737182
0.047,1.744775,1.0,2722.735414533657,0.4113086549303287,1.3088665473412895,0.9721152043677314,0.28633355,0.6957954589715274
0.0475,1.74359375,1.0,2721.03296868168,0.41461075168967165,1.308348575822777,0.9725068084037363,0.28628393750000003,0.6968149100384728
0.048,1.7424,1.0,2719.271304473651,0.41789432963410056,1.3078255032723922,0.9728870353365822,0.2862338,0.6978426643338599
0.0485,1.74119375,1.0,2717.4541858898683,0.4211594902537517,1.3072972959300795,0.9732563125441419,0.2861831375,0.6988787369708582
0.049,1.739975,1.0,2715.5853737661914,0.4244063350387614,1.3067639200357843,0.9736150471262015,0.28613195,0.6999231421054812
0.0495,1.73874375,1.0,2713.6686254255437,0.42763496547926577,1.3062253418294516,0.9739636270483089,0.2860802375,0.7009758929254959
0.05,1.7375,1.0,2711.7076943334073,0.43084548306540105,1.305681527551026,0.9743024222110822,0.286028,0.702037001639258
0.0505,1.73624375,1.0,2709.706329779077,0.4340379892873035,1.3051324434404528,0.9746317854504596,0.2859752375,0.7031064794644735
0.051000000000000004,1.734975,1.0,2707.6682765819914,0.43721258563510945,1.3045780557376765,0.9749520534739278,0.28592195,0.7041843366168904
0.051500000000000004,1.73369375,1.0,2705.597274823558,0.440369373598955,1.3040183306826427,0.975263547737361,0.2858681375,0.7052705822989136
0.052000000000000005,1.7324,1.0,2703.497059603925,0.44350845466897637,1.303453234515296,0.9755665752667236,0.2858138,0.7063652246881529
0.0525,1.73109375,1.0,2701.3714636568125,0.4466299303154114,1.3028827325360208,0.9758614293672344,0.28575893750000003,0.7074682727407949
0.053,1.729775,1.0,2699.2284238344414,0.44973389875639525,1.302306752480924,0.9761483877333235,0.28570355000000003,0.7085798067743538
0.0535,1.72844375,1.0,2697.0668265105996,0.45282045669405735,1.3017253047321515,0.9764277208736076,0.2856476375,0.7096997464422523
0.054,1.7271,1.0,2694.8866443827646,0.45588970130287215,1.3011383897528566,0.9766996870291147,0.2855912,0.7108280300288796
0.0545,1.7257437500000001,1.0,2692.6878504404667,0.45894172975731384,1.3005460080061917,0.9769645333580804,0.2855342375,0.7119645952536422
0.055,1.724375,1.0,2690.476584945964,0.46197663871794425,1.2999481034947118,0.9772224930833697,0.28547675,0.7131094872765487
0.0555,1.72299375,1.0,2688.265378462306,0.46499452456079926,1.2993445616009225,0.9774737860991098,0.2854187375,0.7142628617345392
0.056,1.721600605980514,1.0,2686.066556811754,0.46799548228223503,1.2987355430636645,0.977718639067198,0.28536022545118156,0.7154243472909996
0.0565,1.7202044982180258,1.0,2684.3025316942594,0.47097960687679935,1.2981212088770673,0.9779572692761876,0.2853015889251571,0.7165935740359568
0.057,1.7188083904555376,1.0,2683.0898273550147,0.47394699286241815,1.2975018252909019,0.9781898910839177,0.28524295239913255,0.7177699743258346
0.0575,1.7174122826930494,1.0,2682.3781026834704,0.4768977344790585,1.2968778504630143,0.9784167210030895,0.28518431587310805,0.7189526208688142
0.058,1.7160161749305611,1.0,2682.1296102489,0.4798319246117428,1.2962496286914553,0.9786379603341673,0.28512567934708355,0.7201408083551495
0.0585,1.714620067168073,1.0,2682.3068679342277,0.4827496561239949,1.295617503067233,0.9788538022947576,0.28506704282105905,0.7213338389040003
0.059000000000000004,1.7132239594055845,1.0,2682.8849077850477,0.48565101835541086,1.2949817028891517,0.9790644259123296,0.28500840629503454,0.7225312339305365
0.059500000000000004,1.7118278516430963,1.0,2683.8100540589553,0.4885361095141117,1.2943427213698449,0.9792700183683621,0.28494976976901004,0.7237320228845469
0.06,1.710431743880608,1.0,2685.0590706360304,0.49140501933848757,1.2937007731018264,0.9794707438361789,0.28489113324298554,0.7249357649215227
0.0605,1.7090356361181198,1.0,2686.6102384185406,0.4942578371423316,1.293056059142377,0.9796667594264117,0.28483249671696104,0.7261420478314402
0.061,1.7076395283556316,1.0,2688.441866396975,0.4970946522394367,1.2924087805487778,0.9798582162711235,0.28477386019093653,0.7273504625573236
0.0615,1.7062434205931434,1.0,2690.532279769534,0.499915553943596,1.2917591383783096,0.9800452598023149,0.28471522366491203,0.728560603229421
0.062,1.7048473128306552,1.0,2692.859808957646,0.5027206315686024,1.2911073336882537,0.9802280300154785,0.28465658713888753,0.7297720671967975
0.0625,1.703451205068167,1.0,2695.4027795181087,0.5055099744282489,1.2904535675358908,0.9804066617191063,0.284597950612863,0.7309844550563576
0.063,1.7020550973056787,1.0,2698.1400415894745,0.5082836715455685,1.2897980360541113,0.9805812844961757,0.2845393140868385,0.7321973797805486
0.0635,1.7006589895431905,1.0,2701.058904256005,0.5110418084446995,1.2891408578897536,0.9807520190046592,0.28448067756081397,0.7334106004425296
0.064,1.6992628817807023,1.0,2704.1357092110693,0.5137844776395527,1.2884822517619898,0.9809189871065158,0.2844220410347895,0.7346236939360073
0.0645,1.697866774018214,1.0,2707.359991754189,0.5165117640938317,1.2878223156154123,0.9810822997047348,0.28436340450876496,0.7358364624801722
0.065,1.6964706662557258,1.0,2710.7212739814213,0.5192237527712401,1.2871611473946132,0.9812420637554989,0.2843047679827405,0.737048709907555
0.0655,1.6950745584932376,1.0,2714.2090620026124,0.5219205286354816,1.2864988450441843,0.9813983824396717,0.28424613145671596,0.7382602416720295
0.066,1.6936784507307494,1.0,2717.8128433729853,0.5246021766502595,1.285835506508718,0.9815513553256705,0.28418749493069145,0.7394708648562012
0.0665,1.6922823429682612,1.0,2721.522084735878,0.5272687817792779,1.2851712297328062,0.9817010785242244,0.28412885840466695,0.7406803881781858
0.067,1.690886235205773,1.0,2725.3262296795906,0.5299204289862401,1.2845061126610413,0.9818476448354682,0.28407022187864245,0.741888621997777
0.0675,1.6894901274432848,1.0,2729.216615811549,0.5325572009509534,1.2838402357940693,0.9819911429017674,0.28401158535261795,0.74309540989913
0.068,1.6880940196807965,1.0,2733.187961463763,0.5351791777722856,1.2831736487318144,0.9821316567208129,0.28395294882659344,0.7443006526272673
0.0685,1.6866979119183083,1.0,2737.22406553338,0.5377864538904247,1.2825065000753353,0.9822692730611895,0.28389431230056894,0.7455040733902569
0.069,1.68530180415582,1.0,2741.3206196386577,0.5403791092309723,1.2818388301433092,0.9824040697962066,0.28383567577454444,0.7467055925492694
0.0695,1.6839056963933319,1.0,2745.473304011473,0.54295722371953,1.281170679254413,0.9825361222135844,0.28377703924851994,0.7479051311467219
0.07,1.6825095886308437,1.0,2749.677787049,0.5455208772816996,1.2805020877273239,0.9826655031200087,0.28371840272249543,0.749102610907566
0.07050000000000001,1.6811134808683554,1.0,2753.9297249020206,0.5480701498430827,1.2798330958807187,0.9827922829407908,0.28365976619647093,0.7502979542404735
0.07100000000000001,1.6797173731058672,1.0,2758.22476109898,0.5506051213292809,1.2791637440332746,0.9829165298148858,0.28360112967044643,0.7514910842389169
0.07150000000000001,1.6783212653433788,1.0,2762.5585262061554,0.5531258716658958,1.2784940725036689,0.9830383096855226,0.2835424931444219,0.7526819246821468
0.07200000000000001,1.6769251575808908,1.0,2766.9266375238294,0.5556324807785293,1.2778241216105786,0.9831576863866703,0.2834838566183974,0.7538704000360665
0.0725,1.6755290498184026,1.0,2771.3246988186,0.5581250285927828,1.2771539316726805,0.9832747217255601,0.2834252200923729,0.7550564354540024
0.073,1.6741329420559143,1.0,2775.7483000916777,0.5606035950342582,1.2764835430086519,0.9833894755614678,0.2833665835663484,0.7562399567773692
0.0735,1.672736834293426,1.0,2780.1930173830824,0.563068260028557,1.2758129959371698,0.9835020058809514,0.2833079470403239,0.7574208905362333
