Time [s],Phi [rad],STIM [ ],Fsee [N],Gamma [ ],Lcerel [ ],q [ ],Lmtc [m],fisomrel [ ]
0.0,1.8,1.0,18.25978802741829,0.0005500534919109368,1.3793070943019294,0.005078114544285385,0.288653,0.5412185210849083
0.0005,1.79999375,1.0,18.73767825253345,0.0061561774356582765,1.3792515057921504,0.014507581980747319,0.2886527375,0.5413529826351611
0.001,1.799975,1.0,22.480090419068063,0.011730855456519813,1.3788511512098223,0.03847812753667907,0.28865195,0.5423208074840318
0.0015,1.79994375,1.0,32.815848500047736,0.017274263942156944,1.3778994328851282,0.07449335123780476,0.2886506375,0.5446174063300335
0.002,1.7999,1.0,57.08221708275447,0.02278657828889848,1.376144672003472,0.11930337106204392,0.2886488,0.5488366891690066
0.0025,1.79984375,1.0,102.78754653533083,0.028267972909731227,1.373665884162911,0.16954836580340818,0.28864643749999996,0.5547634152192282
0.003,1.7997750000000001,1.0,168.18661194856585,0.033718621242765846,1.3709467475411306,0.22240175967357526,0.28864354999999997,0.561219740078625
0.0035,1.79969375,1.0,245.7705435097779,0.03913869574808107,1.3683377103913714,0.2756998566093686,0.2886401375,0.5673703160192671
0.004,1.7996,1.0,330.0254833727243,0.044528367920907065,1.3659308938764976,0.3278365600213994,0.2886362,0.5730056789118223
0.0045000000000000005,1.7994937500000001,1.0,418.102133368129,0.04988780829416897,1.3637165447149948,0.3777022248609597,0.2886317375,0.578157764989111
0.005,1.799375,1.0,508.4013849336947,0.05521718642350633,1.3616682022936613,0.42461224906433237,0.28862675,0.582895763551248
0.0055,1.79924375,1.0,599.8495730699584,0.0605166710101282,1.3597625144517327,0.46821322524306863,0.2886212375,0.5872797614648178
0.006,1.7991000000000001,1.0,691.5682060632562,0.06578642963126052,1.357982449807907,0.5083913894167831,0.2886152,0.5913538444819177
0.006500000000000001,1.79894375,1.0,782.8677726271058,0.07102662908507842,1.3563142906938612,0.5451936812766662,0.2886086375,0.5951534637988858
0.007,1.798775,1.0,873.1603689047532,0.07623743517949047,1.3547474085642828,0.5787684360645697,0.28860155,0.5987062376177483
0.0075,1.79859375,1.0,961.954394617249,0.08141901263457,1.3532730969703666,0.6093217140541458,0.2885939375,0.6020348181025701
0.008,1.7984,1.0,1048.8893554974404,0.08657152581500395,1.3518833024454393,0.6370868168188799,0.2885858,0.6051598898599857
0.0085,1.79819375,1.0,1133.6396154162796,0.09169513732253218,1.350571601797407,0.6623052348900569,0.2885771375,0.6080980612665827
0.009000000000000001,1.797975,1.0,1215.9677752936682,0.0967900092289092,1.3493319844108824,0.6852135266836793,0.28856795,0.6108646832511321
0.0095,1.79774375,1.0,1295.7150539631798,0.1018563032397411,1.348158763320243,0.7060359892856469,0.2885582375,0.6134740928677266
0.01,1.7975,1.0,1372.7470405187828,0.1068941793389727,1.3470470967611923,0.724981065837467,0.288548,0.6159384969057005
0.0105,1.79724375,1.0,1446.9763573896726,0.1119037967199917,1.3459924863526938,0.7422394208341223,0.2885372375,0.6182691306998758
0.011,1.796975,1.0,1518.363104812262,0.11688531391762384,1.3449906460589538,0.7579836557577795,0.28852595000000003,0.6204765756754645
0.0115,1.79669375,1.0,1586.904907897383,0.12183888939630028,1.3440375257688195,0.7723689572757555,0.2885141375,0.6225707297923113
0.012,1.7964,1.0,1652.5879694188486,0.12676467902649952,1.3431297969017921,0.7855344070276393,0.28850180000000003,0.624559765555277
0.0125,1.79609375,1.0,1715.4361764712867,0.13166283852937372,1.342264168699044,0.7976039908819889,0.2884889375,0.6264516544156644
0.013000000000000001,1.7957750000000001,1.0,1775.4913398349388,0.13653352283066242,1.341437566636145,0.8086880971668081,0.28847555,0.6282537885509821
0.0135,1.79544375,1.0,1832.831413590065,0.14137688739171875,1.3406468759616716,0.8188848138670523,0.2884616375,0.6299735519692395
0.014,1.7951000000000001,1.0,1887.5051001865145,0.14619308467122735,1.3398896272942935,0.8282815169962053,0.2884472,0.6316168407453644
0.0145,1.79474375,1.0,1939.569195535277,0.15098226638309262,1.3391635204801604,0.836955894686971,0.2884322375,0.6331891147178055
0.015,1.794375,1.0,1989.101413800386,0.155744584241219,1.3384662553654223,0.8449770052906168,0.28841675,0.6346957716164182
0.0155,1.79399375,1.0,2036.1802902232055,0.16048018894838356,1.3377957241713678,0.8524063507754394,0.2884007375,0.6361417370265982
0.016,1.7936,1.0,2080.9099971339115,0.16518923171201602,1.337149725058119,0.859298677020914,0.2883842,0.6375320883075088
0.0165,1.7931937500000001,1.0,2123.361707188136,0.16987186058404716,1.3365265560534663,0.8657029524807779,0.2883671375,0.6388707814757437
0.017,1.792775,1.0,2163.609811009705,0.17452822308166605,1.3359246074115467,0.871662927329421,0.28834955,0.6401615374215504
0.0175,1.7923437500000001,1.0,2201.739591189472,0.1791584667220618,1.3353422693864982,0.8772177230380318,0.2883314375,0.6414080432484479
0.018000000000000002,1.7919,1.0,2237.8334853295755,0.1837627378712217,1.334778060795104,0.8824024100494972,0.2883128,0.6426136798796862
0.0185,1.79144375,1.0,2271.9902674985187,0.18834118392556512,1.3342304243688605,0.887248427288226,0.2882936375,0.6437819624560313
0.019,1.790975,1.0,2304.2827503348867,0.1928939488482463,1.3336981403909436,0.8917841035665373,0.28827395,0.6449156603942159
0.0195,1.79049375,1.0,2334.7824104327947,0.19742117583804122,1.3331800663276951,0.8960349486140801,0.2882537375,0.6460173577865838
0.02,1.79,1.0,2363.5664972903305,0.20192300809372593,1.3326750596454566,0.9000239543939679,0.288233,0.6470896195468492
0.0205,1.78949375,1.0,2390.712773824991,0.20639958807879427,1.3321820241480284,0.9037718874995895,0.2882117375,0.6481348942376233
0.021,1.788975,1.0,2416.3001211695664,0.21085105829757983,1.331699898463882,0.9072975334867149,0.28818995000000003,0.6491555400479925
0.021500000000000002,1.78844375,1.0,2440.405934823283,0.2152775608775023,1.3312276762265987,0.9106179174332903,0.2881676375,0.6501537834870139
0.022,1.7879,1.0,2463.088092944717,0.21967923430694117,1.330764573733305,0.9137485261742518,0.2881448,0.6511313672290342
0.0225,1.78734375,1.0,2484.407488362992,0.22405621707427606,1.3303098072811264,0.916703428518589,0.28812143749999997,0.6520900230035243
0.023,1.786775,1.0,2504.4277788328936,0.22840864766788646,1.3298625931671892,0.9194954247154699,0.28809755,0.6530314720313055
0.0235,1.78619375,1.0,2523.2151509083465,0.23273666457615194,1.3294221476886192,0.9221361783996391,0.28807313749999996,0.6539574254216121
0.024,1.7856,1.0,2540.8247637801355,0.23704040295658738,1.328987812759594,0.924636354305957,0.2880482,0.6548693209682983
0.0245,1.78499375,1.0,2557.332727882512,0.24132000375794865,1.3285587516203845,0.9270056696088175,0.2880227375,0.6557689627986432
0.025,1.784375,1.0,2572.7840032848358,0.24557560034478657,1.3281344377575022,0.9292530669210164,0.28799675,0.656657496038163
0.025500000000000002,1.78374375,1.0,2587.2245447426494,0.2498073259771467,1.3277143486259795,0.9313867412563358,0.2879702375,0.6575360513541135
0.026000000000000002,1.7831000000000001,1.0,2600.701604098792,0.2540153139150745,1.3272979616808487,0.9334142121076929,0.2879432,0.65840575344248
0.0265,1.78244375,1.0,2613.2636189615123,0.25819969741861554,1.3268847543771423,0.9353423882477357,0.2879156375,0.6592677211600617
0.027,1.781775,1.0,2624.9601074368384,0.2623606097478153,1.3264742041698927,0.937177625522977,0.28788755,0.660123067639143
0.0275,1.7810937500000001,1.0,2635.8312029129715,0.26649818019492455,1.326065884396653,0.9389257912638064,0.2878589375,0.6609727009969021
0.028,1.7804,1.0,2645.932698857089,0.2706125452539822,1.3256592312865476,0.9405922792424418,0.2878298,0.6618178095594862
0.0285,1.77969375,1.0,2655.3012847955742,0.2747038342215809,1.3252538648787051,0.9421820934799863,0.2878001375,0.6626591944562024
0.029,1.778975,1.0,2663.9697395538947,0.27877217461013915,1.3248494469238001,0.9436998647807806,0.28776995,0.6634975664327205
0.029500000000000002,1.7782437500000001,1.0,2671.9713807254707,0.28281769393207534,1.3244456391725072,0.9451498786023719,0.2877392375,0.6643336327230334
0.03,1.7775,1.0,2679.340016490839,0.28684051969980817,1.3240421033755012,0.9465361052283947,0.287708,0.6651680970662659
0.0305,1.77674375,1.0,2686.1098999743285,0.29084077942575604,1.3236385012834568,0.947862226946883,0.2876762375,0.6660016597161924
0.031,1.775975,1.0,2692.3156861369193,0.2948186006223375,1.3232344946470482,0.9491316625637567,0.28764395,0.6668350174434545
0.0315,1.7751937500000001,1.0,2697.9817198071646,0.29877410573564134,1.322829842780769,0.9503476001073322,0.2876111375,0.667668662659898
0.032,1.7744,1.0,2703.144693904431,0.3027074251628522,1.3224241947928705,0.9515129944161955,0.2875778,0.6685033119010493
0.0325,1.77359375,1.0,2707.838964946213,0.3066186868536076,1.3220172238337198,0.9526305993395378,0.2875439375,0.669339628681199
0.033,1.772775,1.0,2712.085810235874,0.31050801176723564,1.321608724644922,0.9537029940844479,0.28750955,0.6701780236998303
0.0335,1.7719437500000002,1.0,2715.9066941766073,0.3143755208630644,1.3211984919680815,0.9547325850054713,0.2874746375,0.6710189054764997
0.034,1.7711000000000001,1.0,2719.3232500020126,0.3182213351004221,1.320786320544804,0.9557216192457111,0.2874392,0.6718626803294842
0.0345,1.7702437500000001,1.0,2722.357262442344,0.3220455754386369,1.3203720051166943,0.9566721971480129,0.2874032375,0.67270975235175
0.035,1.7693750000000001,1.0,2725.0306513234627,0.32584836283703694,1.3199553404253574,0.9575862835600564,0.28736675,0.6735605233842271
0.035500000000000004,1.76849375,1.0,2727.365456101012,0.3296298182549503,1.3195361212123984,0.9584657181434916,0.2873297375,0.6744153929864014
0.036000000000000004,1.7676,1.0,2729.3838213277795,0.33339006265170523,1.3191141422194224,0.9593122247852169,0.2872922,0.6752747584042165
0.0365,1.76669375,1.0,2731.106412890894,0.3371292164723317,1.318689212456041,0.960127421528653,0.2872541375,0.6761389855361875
0.037,1.765775,1.0,2732.549414348628,0.34084739752321636,1.3182611823528227,0.9609128305605935,0.28721555,0.6770083539776254
0.0375,1.76484375,1.0,2733.7281316300696,0.34454472278123344,1.3178299108764557,0.9616698823052561,0.2871764375,0.6778831242100263
0.038,1.7639,1.0,2734.655506280893,0.3482213086594007,1.3173952789493877,0.9623999233484093,0.28713679999999997,0.6787635105250013
0.0385,1.76294375,1.0,2735.3445246989254,0.3518772715707359,1.3169571674940663,0.963104220400369,0.28709663750000003,0.6796497256828393
0.039,1.7619808490842825,1.0,2736.102036243538,0.35551272504901044,1.3165154313583836,0.9637839629228285,0.28705619566153984,0.6805420335204604
0.0395,1.7610179415243612,1.0,2737.218890118183,0.35912778915132804,1.3160704313897231,0.9644403187683467,0.2870157535440232,0.6814396760239616
0.04,1.76005503396444,1.0,2738.6671637242694,0.36272257724470547,1.3156224259641927,0.9650743779706039,0.28697531142650645,0.6823421053204008
0.0405,1.759092126404519,1.0,2740.4225617235766,0.3662972015044515,1.3151716378597949,0.9656871651597183,0.2869348693089898,0.683248847859612
0.041,1.7581292188445978,1.0,2742.460811673802,0.3698517741058751,1.3147182898545324,0.9662796473273074,0.2868944271914731,0.684159432496934
0.0415,1.7571663112846767,1.0,2744.7576508350803,0.3733864072242851,1.3142626047264077,0.966852737674766,0.28685398507395643,0.6850733905311661
0.042,1.7562034037247554,1.0,2747.288814075531,0.3769012130349904,1.3138048052534235,0.9674072991667079,0.28681354295643974,0.6859902557393527
0.0425,1.7552404961648342,1.0,2750.0300228776323,0.38039630371329985,1.3133451142135824,0.9679441478149288,0.28677310083892305,0.6869095644084089
0.043000000000000003,1.7542775886049131,1.0,2752.964267099288,0.38387178801265387,1.3128836883895219,0.9684640498144459,0.28673265872140635,0.6878309870528335
0.043500000000000004,1.753314681044992,1.0,2756.0670025085424,0.38732778030753173,1.3124207525733578,0.9689677369422358,0.28669221660388966,0.6887540604639566
0.044,1.7523517734850709,1.0,2759.3244587915574,0.39076438870514935,1.311956433802699,0.9694558937697013,0.28665177448637297,0.6896785185239231
0.0445,1.7513888659251498,1.0,2762.7243433631756,0.3941817204732017,1.311490845586617,0.9699291680981649,0.2866113323688563,0.6906041234557856
0.045,1.7504259583652284,1.0,2766.254344092931,0.3975798828793837,1.3110241014341828,0.9703881744090339,0.2865708902513396,0.6915306387980203
0.0455,1.7494630508053073,1.0,2769.902126253239,0.4009589831913902,1.3105563148544679,0.9708334959052494,0.2865304481338229,0.6924578294133055
0.046,1.7485001432453862,1.0,2773.655329752828,0.40431912867691616,1.3100875993565433,0.9712656864087239,0.2864900060163062,0.6933854614964793
0.0465,1.747537235685465,1.0,2777.501566656388,0.40766042660365653,1.3096180684494805,0.9716852721252079,0.2864495638987895,0.6943133025816736
0.047,1.746574328125544,1.0,2781.4374787868387,0.41098297434046815,1.309147754064631,0.9720927460867502,0.28640912178127287,0.6952412823877373
0.0475,1.7456114205656226,1.0,2785.442333002748,0.4142868916829493,1.3086768444183987,0.9724885913460574,0.2863686796637561,0.6961690233415169
0.048,1.7446485130057015,1.0,2789.5096429591445,0.41757228163120036,1.3082053991148601,0.972873256332007,0.2863282375462395,0.6970964029223526
0.0485,1.7436856054457803,1.0,2793.6343080761117,0.4208392455339901,1.3077334651521721,0.9732471669524777,0.2862877954287228,0.6980233240607043
0.049,1.7427226978858592,1.0,2797.811214016845,0.424087884740087,1.3072610895284917,0.9736107289599383,0.2862473533112061,0.6989496902479726
0.0495,1.741759790325938,1.0,2802.035232202646,0.42731830059825987,1.3067883192419762,0.9739643290905966,0.2862069111936894,0.6998754055378931
0.05,1.7407968827660167,1.0,2806.301219377389,0.43053059445727726,1.3063152012907824,0.9743083361292209,0.2861664690761727,0.7008003745477918
0.0505,1.7398339752060956,1.0,2810.6040172205967,0.43372486766590784,1.3058417826730675,0.9746431019051077,0.286126026958656,0.7017245024596944
0.051000000000000004,1.7388710676461745,1.0,2814.9384520096837,0.4369012215729202,1.3053681103869883,0.9749689622242268,0.28608558484113933,0.7026476950213014
0.051500000000000004,1.7379081600862534,1.0,2819.2993343313096,0.44005975752708315,1.304894231430702,0.9752862377421662,0.28604514272362264,0.7035698585468162
0.052000000000000005,1.7369452525263323,1.0,2823.681458841307,0.4432005768771652,1.3044201928023653,0.9755952347821202,0.28600470060610594,0.7044908999176362
0.0525,1.735982344966411,1.0,2828.082286567457,0.44632377248894417,1.3039460175460191,0.9758962437042703,0.28596425848858925,0.7054107730163107
0.053,1.7350194374064898,1.0,2832.4985973497824,0.4494294445801648,1.3034717347133788,0.9761895432901275,0.28592381637107256,0.7063294203764433
0.0535,1.7340565298465687,1.0,2836.923165986959,0.45251770694501164,1.302997408974833,0.9764754037669524,0.28588337425355587,0.7072467160540107
0.054,1.7330936222866475,1.0,2841.354521883581,0.4555886536789694,1.3025230535321215,0.9767540785934692,0.2858429321360392,0.7081626341887792
0.0545,1.7321307147267264,1.0,2845.791189828446,0.45864237887752274,1.3020486815869843,0.9770258104301766,0.28580249001852254,0.7090771490802443
0.055,1.731167807166805,1.0,2850.2316899871216,0.4616789766361564,1.3015743063411616,0.9772908316904109,0.2857620479010058,0.7099902351876507
0.0555,1.730204899606884,1.0,2854.6745379001854,0.46469854105035524,1.3010999409963933,0.9775493650588538,0.28572160578348915,0.7109018671300016
0.056,1.7292419920469628,1.0,2859.1182444828855,0.46770116621560387,1.3006255987544195,0.9778016239796632,0.2856811636659724,0.7118120196860547
0.0565,1.7282790844870417,1.0,2863.561316031144,0.47068694622738694,1.3001512928169805,0.978047813116244,0.28564072154845577,0.7127206677943088
0.057,1.7273161769271206,1.0,2868.0022542292772,0.47365597518118935,1.299677036385816,0.9782881287845245,0.2856002794309391,0.7136277865529792
0.0575,1.7263532693671992,1.0,2872.4395561631927,0.47660834717249567,1.2992028426626665,0.9785227593614672,0.2855598373134224,0.7145333512199605
0.058,1.7253903618072781,1.0,2876.8717143366453,0.4795441562967907,1.2987287248492716,0.9787518856704185,0.2855193951959057,0.7154373372127812
0.0585,1.724427454247357,1.0,2881.29721669142,0.4824634966495591,1.2982546961473715,0.9789756813447867,0.285478953078389,0.716339720108543
0.059000000000000004,1.7234645466874359,1.0,2885.7145466315205,0.4853664623262857,1.2977807697587063,0.979194313171427,0.2854385109608723,0.7172404756438533
0.059500000000000004,1.7225016391275147,1.0,2890.1222608988746,0.4882531464412011,1.2973069581973555,0.9794079412970278,0.2853980688433556,0.7181395810186093
0.06,1.7215387315675934,1.0,2894.5220929425923,0.49112360942102146,1.2968332459000762,0.9796167155054575,0.2853576267258389,0.7190370667360488
0.0605,1.7205758240076723,1.0,2898.910108860243,0.4939779885851672,1.2963596673377447,0.9798207886721669,0.2853171846083222,0.7199328685442007
0.061,1.7196129164477512,1.0,2903.2861153257936,0.496816369830784,1.2958862239106832,0.9800203019800814,0.28527674249080553,0.720826985012363
0.0615,1.71865000888783,1.0,2907.6499186547653,0.49963883905501716,1.2954129170192135,0.9802153912834489,0.28523630037328884,0.7217194147264008
0.062,1.717687101327909,1.0,2912.001324808415,0.5024454821550125,1.2949397480636575,0.9804061873495562,0.2851958582557722,0.7226101562887316
0.0625,1.7167241937679876,1.0,2916.340139397626,0.5052363850279153,1.2944667184443372,0.9805928160877224,0.28515541613825546,0.7234992083183145
0.063,1.7157612862080664,1.0,2920.6661676881567,0.5080116335708715,1.2939938295615745,0.98077539876633,0.2851149740207388,0.7243865694506374
0.0635,1.7147983786481453,1.0,2924.97921460381,0.5107713136810266,1.2935210828156911,0.980954052218604,0.2850745319032221,0.7252722383377047
0.064,1.7138354710882242,1.0,2929.279084731797,0.513515511255526,1.293048479607009,0.9811288890378002,0.28503408978570544,0.7261562136480244
0.0645,1.712872563528303,1.0,2933.5655823265374,0.5162443121915153,1.2925760213358501,0.9813000177624213,0.28499364766818874,0.7270384940665949
0.065,1.7119096559683817,1.0,2937.838511314369,0.5189578023861402,1.2921037094025363,0.9814675430520424,0.28495320555067205,0.7279190782948937
0.0655,1.7109467484084606,1.0,2942.0976752982406,0.5216560677365463,1.2916315452073894,0.9816315658542812,0.28491276343315536,0.7287979650508623
0.066,1.7099838408485395,1.0,2946.3428775619727,0.5243391941398791,1.2911595301507315,0.9817921835634248,0.28487232131563867,0.7296751530688944
0.0665,1.7090209332886184,1.0,2950.573921075034,0.5270072674932841,1.2906876656328843,0.9819494901711833,0.284831879198122,0.7305506410998229
0.067,1.7080580257286972,1.0,2954.7906084971614,0.529660373693907,1.2902159530541697,0.9821035764100151,0.2847914370806053,0.7314244279109055
0.0675,1.707095118168776,1.0,2958.992742183089,0.5322985986388933,1.2897443938149098,0.9822545298894413,0.2847509949630886,0.7322965122858114
0.068,1.7061322106088548,1.0,2963.180124187149,0.5349220282253886,1.2892729893154264,0.9824024352257359,0.2847105528455719,0.7331668930246084
0.0685,1.7051693030489337,1.0,2967.3529991028267,0.5375307046747152,1.288801737095535,0.9825473712111351,0.2846701107280552,0.7340355760542141
0.069,1.7042063954890125,1.0,2971.5113785454296,0.5401247362885094,1.288330636732942,0.9826894182719385,0.2846296686105385,0.7349025635241591
0.0695,1.7032434879290914,1.0,2975.6550181581374,0.5427042430547729,1.28785969003625,0.9828286549461434,0.2845892264930218,0.7357678534828893
0.07,1.70228058036917,1.0,2979.7840156236875,0.5452693013885047,1.2873888958348052,0.982965154329311,0.2845487843755051,0.7366314494606234
0.07050000000000001,1.701317672809249,1.0,2983.8984691533465,0.547819987704704,1.286918252957953,0.9830989871183337,0.28450834225798843,0.7374933549730742
0.07100000000000001,1.7003547652493278,1.0,2987.9984774829322,0.5503563784183696,1.2864477602350395,0.9832302217064383,0.28446790014047174,0.7383535735214584
0.07150000000000001,1.6993918576894067,1.0,2992.0841398690736,0.5528785499445008,1.2859774164954099,0.9833589242738127,0.2844274580229551,0.7392121085925092
