Time [s],Phi [rad],STIM [ ],Fsee [N],Gamma [ ],Lcerel [ ],q [ ],Lmtc [m],fisomrel [ ]
0.0,1.8,1.0,17.96837538565875,3.221914345895276e-05,1.3793396098528985,0.005000274122186425,0.288653,0.5411398609587078
0.0005,1.79999375,1.0,18.285100656679543,0.005641247728345832,1.3793014596499156,0.01300231315005064,0.2886527375,0.5412321514905724
0.001,1.799975,1.0,21.643232565842972,0.011218814097683816,1.3789357646780085,0.03572444938658271,0.28865195,0.5421163464537404
0.0015,1.79994375,1.0,31.129185416174284,0.01676509473050834,1.3780410987063392,0.07076026273675776,0.2886506375,0.5442759173753314
0.002,1.7999,1.0,53.712337606068125,0.022280265114166378,1.3763597063210176,0.11490558740123355,0.2886488,0.5483206998021601
0.0025,1.79984375,1.0,97.33794275479876,0.02776449975203751,1.3739246198688866,0.1647789157913759,0.28864643749999996,0.5541466156119537
0.003,1.7997750000000001,1.0,161.24363358560012,0.03321797217104356,1.3712036631971056,0.21749092848816975,0.28864354999999997,0.560611736062021
0.0035,1.79969375,1.0,238.00614550289595,0.03864085492140312,1.368574794083201,0.27082222691426405,0.2886401375,0.5668132052504019
0.004,1.7996,1.0,321.81038297484207,0.044033319587371125,1.3661469938670405,0.32311849789596836,0.2886362,0.5725012081700555
0.0045000000000000005,1.7994937500000001,1.0,409.6236963005685,0.04939553679243561,1.363914460584596,0.3732269195264982,0.2886317375,0.5776985503106584
0.005,1.799375,1.0,499.7767671287841,0.05472767619046589,1.361850624442262,0.4204274770753467,0.28862675,0.5824748902766108
0.0055,1.79924375,1.0,591.1570148478567,0.06002990651223909,1.3599316737185287,0.4643403654378615,0.2886212375,0.5868915505554163
0.006,1.7991000000000001,1.0,682.8852444436742,0.06530239551097013,1.3581397420872485,0.5048331280331455,0.2886152,0.5909946592400482
0.006500000000000001,1.79894375,1.0,774.2395175007478,0.0705453099062902,1.3564611385978054,0.5419408790221705,0.2886086375,0.5948196960126154
0.007,1.798775,1.0,864.6569070571807,0.07575881599649564,1.3548844012525354,0.5758043019977253,0.28860155,0.598396242817696
0.0075,1.79859375,1.0,953.6063886104289,0.08094307821671427,1.3534011937439563,0.6066259131005272,0.2885939375,0.6017461615444728
0.008,1.7984,1.0,1040.708564259654,0.08609826077667444,1.3520034921187096,0.6346375049672816,0.2885858,0.6048901196946223
0.0085,1.79819375,1.0,1125.6611712073106,0.09122452697546618,1.350684330429897,0.6600801852506306,0.2885771375,0.6078459833894605
0.009000000000000001,1.797975,1.0,1208.2132701598086,0.09632203875976304,1.349437757330844,0.6831913937770517,0.28856795,0.6106289979323666
0.0095,1.79774375,1.0,1288.1948862563672,0.10139095756369784,1.3482581187657985,0.7041967930180507,0.2885582375,0.6132534525309534
0.01,1.7975,1.0,1365.474253848627,0.10643144392983737,1.3471404370920281,0.7233063498009522,0.288548,0.615731877983277
0.0105,1.79724375,1.0,1439.956000906655,0.1114436569179774,1.3460802356320003,0.7407124171472699,0.2885372375,0.6180754799263366
0.011,1.796975,1.0,1511.5870967670778,0.11642775482161884,1.3450733181295347,0.7565892911599166,0.28852595000000003,0.6202946591679623
0.0115,1.79669375,1.0,1580.3831905472132,0.12138389686176385,1.344115351067173,0.7710935938562576,0.2885141375,0.6223999526783044
0.012,1.7964,1.0,1646.3300581309857,0.12631223904090946,1.3432029691184186,0.7843658554800602,0.28850180000000003,0.6243996236871869
0.0125,1.79609375,1.0,1709.434479899234,0.13121293658965694,1.342333042569644,0.7965314650297839,0.2884889375,0.6263013009088338
0.013000000000000001,1.7957750000000001,1.0,1769.739621706744,0.1360861447386075,1.341502441707223,0.8077019854382667,0.28847555,0.6281125073597091
0.0135,1.79544375,1.0,1827.3034739868347,0.1409320179734901,1.3407082404678607,0.8179766475927994,0.2884616375,0.6298402260117806
0.014,1.7951000000000001,1.0,1882.2034026920605,0.14575071043412902,1.3399476186875245,0.8274436452387038,0.2884472,0.6314911241986014
0.0145,1.79474375,1.0,1934.496169402034,0.15054237379151875,1.3392182581236307,0.8361815120647021,0.2884322375,0.6330707058532202
0.015,1.794375,1.0,1984.250344179717,0.15530715928109923,1.3385179400008314,0.8442600873006401,0.28841675,0.6345841973775305
0.0155,1.79399375,1.0,2031.5490731470568,0.16004521771873578,1.337844490668198,0.8517415135055887,0.2884007375,0.6360366713174292
0.016,1.7936,1.0,2076.4826011031582,0.16475669984338673,1.337195839853887,0.8586811637085013,0.2883842,0.6374329259733157
0.0165,1.7931937500000001,1.0,2119.131835341419,0.16944175494188815,1.3365701693630812,0.8651284850939812,0.2883671375,0.6387771718587592
0.017,1.792775,1.0,2159.5697931134673,0.17410053024499617,1.3359658726228223,0.8711276839086667,0.28834955,0.640073126380056
0.0175,1.7923437500000001,1.0,2197.880461144617,0.17873317298346686,1.335381343060153,0.8767182839510854,0.2883314375,0.6413244729820404
0.018000000000000002,1.7919,1.0,2234.150688706781,0.18333982959805736,1.3348150461695527,0.8819356959844137,0.2883128,0.642534709370154
0.0185,1.79144375,1.0,2268.471353871261,0.18792064688447208,1.334265496407507,0.8868116921578423,0.2882936375,0.6437071999727135
0.019,1.790975,1.0,2300.931279676645,0.19247577097486282,1.3337313079046011,0.8913748384049507,0.28827395,0.644845070549376
0.0195,1.79049375,1.0,2331.5952793021456,0.19700534441309753,1.3332114000788513,0.8956509085344969,0.2882537375,0.645950774418022
0.02,1.79,1.0,2360.5338044760083,0.2015095097430441,1.3327046923482724,0.899663128551194,0.288233,0.6470267464586781
0.0205,1.78949375,1.0,2387.8224810336815,0.20598840950857056,1.33221010413088,0.9034324627816105,0.2882117375,0.6480754040604269
0.021,1.788975,1.0,2413.540997903575,0.21044218614724775,1.3317265613449014,0.9069778662605429,0.28818995000000003,0.6490991342419878
0.021500000000000002,1.78844375,1.0,2437.7564439305356,0.21487097966673208,1.3312531525466802,0.9103165366937126,0.2881676375,0.6500999646935135
0.022,1.7879,1.0,2460.558301379531,0.21927493349568233,1.3307887864601624,0.9134640363826112,0.2881448,0.6510802893884347
0.0225,1.78734375,1.0,2482.00132278527,0.223654185103389,1.3303327374189609,0.9164345718350855,0.28812143749999997,0.6520417174403568
0.023,1.786775,1.0,2502.142921707214,0.22800887195914243,1.3298842797566885,0.9192410664831188,0.28809755,0.6529858481167439
0.0235,1.78619375,1.0,2521.042953927828,0.23233913153223312,1.329442687806958,0.9218952943116289,0.28807313749999996,0.6539142712070382
0.024,1.7856,1.0,2538.763510326104,0.2366451012919514,1.3290072359033824,0.9244079979755846,0.2880482,0.6548285673571941
0.0245,1.78499375,1.0,2555.3611497166194,0.24092691690577073,1.32857726950991,0.9267890050423944,0.2880227375,0.6557301593157269
0.025,1.784375,1.0,2570.8978864948776,0.2451847161144048,1.3281520995148342,0.9290473028565577,0.28799675,0.6566205343877756
0.025500000000000002,1.78374375,1.0,2585.4283472567904,0.24941863443970963,1.3277311212031395,0.9311911394148129,0.2879702375,0.657500995519557
0.026000000000000002,1.7831000000000001,1.0,2598.995644395621,0.25362880405676136,1.3273138501524224,0.9332281002538807,0.2879432,0.6583725876862168
0.0265,1.78244375,1.0,2611.6440363599186,0.25781535714063597,1.3268998019402793,0.9351651538763907,0.2879156375,0.6592363504190247
0.027,1.781775,1.0,2623.4188298065565,0.2619784258664096,1.3264884921443068,0.9370087102194327,0.28788755,0.6600933179124265
0.0275,1.7810937500000001,1.0,2634.3662869563655,0.2661181424091583,1.3260794363421007,0.9387646728709035,0.2878589375,0.6609445191161285
0.028,1.7804,1.0,2644.5295121168847,0.27023463871137066,1.325672187289654,0.9404384911632542,0.2878298,0.6617909005930247
0.0285,1.77969375,1.0,2653.9574498819907,0.274328045291144,1.3252662508866537,0.9420351887643577,0.2878001375,0.6626335013843765
0.029,1.778975,1.0,2662.6953717157667,0.27839849157963636,1.3248611734528755,0.9435594145694528,0.28776995,0.6634732716288927
0.029500000000000002,1.7782451049461991,1.0,2670.8202070912002,0.28244610560014966,1.3244568280006834,0.9450155148876754,0.2877392944077404,0.6643104807517057
0.03,1.777513425054014,1.0,2678.803628204563,0.2864710153759858,1.3240530875424417,0.9464075153452731,0.2877085638522686,0.6651453968565391
0.0305,1.776781745161829,1.0,2686.7433256795816,0.29047334840024575,1.3236498568141908,0.9477391525811912,0.2876778332967968,0.6659782212504906
0.031,1.776050065269644,1.0,2694.6250955286523,0.2944532321403563,1.323247263499604,0.949013923407171,0.28764710274132504,0.6668086946429133
0.0315,1.775318385377459,1.0,2702.440850853419,0.2984107919757363,1.3228453786779215,0.9502350686615975,0.2876163721858533,0.6676366755940991
0.032,1.7745867054852738,1.0,2710.1848853403085,0.30234615265273923,1.3224442513304668,0.9514055994536577,0.28758564163038147,0.6684620688263225
0.0325,1.7738550255930887,1.0,2717.8514656251286,0.3062594389177187,1.3220439304385636,0.9525283189735226,0.2875549110749097,0.6692847795525562
0.033,1.7731233457009037,1.0,2725.441490487282,0.3101507647724014,1.3216444044166085,0.9536058292413923,0.28752418051943796,0.6701048377151952
0.0335,1.7723916658087187,1.0,2732.9407124947957,0.3140202716956417,1.3212457993684892,0.9546405808758448,0.2874934499639662,0.6709219910334834
0.034,1.7716599859165336,1.0,2740.348626255497,0.3178680788806594,1.3208481160907095,0.955634841338472,0.28746271940849444,0.6717362449012838
0.0345,1.7709283060243486,1.0,2747.6649293955024,0.3216943051915053,1.3204513535873896,0.9565907293334828,0.2874319888530226,0.6725476083673781
0.035,1.7701966261321636,1.0,2754.8893257703303,0.3254990694922301,1.320055510862649,0.9575102265807914,0.28740125829755087,0.673356090454237
0.035500000000000004,1.7694649462399785,1.0,2762.0215254440245,0.3292824906468844,1.3196605869206077,0.9583951882665803,0.2873705277420791,0.674161700158076
0.036000000000000004,1.7687332663477933,1.0,2769.0612446692458,0.33304468751951904,1.3192665807653856,0.9592473525820746,0.2873397971866073,0.6749644464489142
0.0365,1.7680015864556082,1.0,2776.0082058670364,0.33678577897418455,1.3188734914011027,0.960068349439487,0.28730906663113553,0.6757643382706343
0.037,1.7672699065634232,1.0,2782.8621376062974,0.34050588387493175,1.3184813178318784,0.9608597084445634,0.2872783360756638,0.6765613845410398
0.0375,1.7665382266712382,1.0,2789.62277458369,0.34420512108581136,1.3180900590618327,0.9616228661967029,0.287247605520192,0.6773555941519125
0.038,1.7658065467790531,1.0,2796.289857603425,0.347883609470874,1.317699714095086,0.9623591729801967,0.28721687496472026,0.678146975969071
0.0385,1.765074866886868,1.0,2802.864682600532,0.35154145093539385,1.3173102680410322,0.963069894176088,0.28718614440924844,0.6789355669506641
0.039,1.764343186994683,1.0,2809.3479766692867,0.35517878072059794,1.3169217112241154,0.963756228115029,0.2871554138537767,0.6797213933506965
0.0395,1.763611507102498,1.0,2815.7408949390046,0.35879571814480976,1.3165340302301924,0.9644193000739428,0.28712468329830493,0.6805044888591569
0.04,1.7628798272103128,1.0,2822.0450974412784,0.3623923737728861,1.316147207238584,0.9650601687897629,0.2870939527428331,0.681284895903201
0.0405,1.7621481473181277,1.0,2828.262258084569,0.3659688581696836,1.3157612244286117,0.9656798330637678,0.28706322218736136,0.6820626567198468
0.041,1.7614164674259427,1.0,2834.39406431842,0.3695252819000592,1.3153760639795964,0.9662792357868323,0.2870324916318896,0.6828378133569437
0.0415,1.7606847875337577,1.0,2840.4422168052797,0.37306175552886955,1.3149917080708593,0.9668592676539038,0.28700176107641784,0.6836104076741154
0.042,1.7599531076415726,1.0,2846.4084290988626,0.37657838962097145,1.314608138881722,0.9674207705946826,0.2869710305209461,0.6843804813436837
0.0425,1.7592214277493876,1.0,2852.2944273299563,0.3800752947412217,1.3142253385915053,0.9679645409448853,0.28694029996547427,0.6851480758515749
0.043000000000000003,1.7584897478572026,1.0,2858.1019498993323,0.383552581454477,1.3138432893795304,0.968491332380168,0.2869095694100025,0.6859132324982026
0.043500000000000004,1.7577580679650175,1.0,2863.832747176831,0.38701036032559416,1.3134619734251185,0.9690018586326964,0.28687883885453075,0.6866759923993313
0.044,1.7570263880728323,1.0,2869.4885812086254,0.39044874191942985,1.3130813729075912,0.9694967960084928,0.28684810829905893,0.687436396486919
0.0445,1.7562947081806473,1.0,2875.0712254310233,0.39386783680084103,1.3127014700062691,0.9699767857220132,0.2868173777435872,0.6881944855099438
0.045,1.7555630282884622,1.0,2880.582464391006,0.3972677555346843,1.3123222469004736,0.9704424360629074,0.2867866471881154,0.6889503000352029
0.0455,1.7548313483962772,1.0,2886.0204111029875,0.40064854442819253,1.311943718320585,0.9708943178285098,0.28675591663264366,0.6897038156898196
0.046,1.7540996685040922,1.0,2891.3913995756534,0.404010380036058,1.3115658263657644,0.9713329859562396,0.2867251860771719,0.6904551525542678
0.0465,1.7533679886119071,1.0,2896.698237370943,0.40735338626870443,1.311188544490704,0.9717589626222187,0.2866944555217001,0.6912043679137663
0.047,1.752636308719722,1.0,2901.942254220355,0.41067766270131084,1.3108118592974836,0.9721727419525324,0.28666372496622833,0.6919514927297234
0.0475,1.751904628827537,1.0,2907.1247877545006,0.4139833089090564,1.3104357573881815,0.972574794017249,0.28663299441075657,0.6926965578278894
0.048,1.7511729489353518,1.0,2912.2471833280542,0.41727042446712004,1.3100602253648772,0.9729655662264945,0.28660226385528476,0.693439593898857
0.0485,1.7504412690431668,1.0,2917.3107938488133,0.4205391089506809,1.3096852498296494,0.9733454846329875,0.286571533299813,0.6941806314985575
0.049,1.7497095891509817,1.0,2922.316979609661,0.423789461934918,1.309310817384577,0.9737149551481096,0.28654080274434124,0.6949197010487398
0.0495,1.7489779092587967,1.0,2927.2671081258895,0.4270215829950104,1.3089369146317393,0.9740743646779947,0.2865100721888695,0.6956568328374407
0.05,1.7482462293666117,1.0,2932.1625539755296,0.43023557170613724,1.3085635281732149,0.9744240821855786,0.2864793416333977,0.696392057019444
0.0505,1.7475145494744266,1.0,2937.004698644058,0.4334315276434774,1.308190644611083,0.9747644596840596,0.2864486110779259,0.6971254036167258
0.051000000000000004,1.7467828695822416,1.0,2941.7949303732603,0.43660955038221017,1.3078182505474223,0.9750958331667786,0.28641788052245415,0.6978569025188914
0.051500000000000004,1.7460511896900566,1.0,2946.534644013395,0.4397697394975144,1.307446332584312,0.975418523478115,0.2863871499669824,0.6985865834835989
0.052000000000000005,1.7453195097978713,1.0,2951.2252408800446,0.44291219456456926,1.3070748773238312,0.9757328371296329,0.2863564194115106,0.6993144761369707
0.0525,1.7445878299056863,1.0,2955.868128614955,0.44603701515855376,1.3067038713680583,0.9760390670653641,0.2863256888560388,0.7000406099739973
0.053,1.7438561500135012,1.0,2960.464721049827,0.449144300854647,1.3063333013190728,0.976337493379821,0.28629495830056706,0.7007650143589228
0.0535,1.7431244701213162,1.0,2965.016438075522,0.452234151228028,1.3059631537789536,0.9766283839920341,0.2862642277450953,0.7014877185256263
0.054,1.7423927902291312,1.0,2969.5247055142568,0.45530666585387586,1.3055934153497795,0.9769119952786691,0.2862334971896235,0.7022087515779885
0.0545,1.7416611103369461,1.0,2973.9909549962936,0.45836194430736965,1.3052240726336293,0.9771885726690315,0.28620276663415173,0.7029281424902456
0.055,1.7409294304447611,1.0,2978.4166238400926,0.4614000861636883,1.3048551122325824,0.9774583512045554,0.28617203607867997,0.7036459201073328
0.0555,1.7401977505525759,1.0,2982.8031549369607,0.46442119099801105,1.3044865207487175,0.9777215560651801,0.28614130552320816,0.7043621131452195
0.056,1.7394660706603908,1.0,2987.151996639509,0.4674253583855168,1.3041182847841135,0.9779784030648301,0.2861105749677364,0.7050767501912272
0.0565,1.7387343907682058,1.0,2991.4609068246805,0.47041261433820253,1.303750423029946,0.9782290943123155,0.28607984441226464,0.7057897975418651
0.057,1.7380027108760208,1.0,2995.734816537752,0.47338314015473865,1.30338289189462,0.9784738340871648,0.2860491138567929,0.7065013421736522
0.0575,1.7372710309838357,1.0,2999.9745594121573,0.47633702719409,1.3030156834431008,0.9787128123390545,0.2860183833013211,0.7072114017458881
0.058,1.7365393510916507,1.0,3004.180817142718,0.4792743635414929,1.3026487910852855,0.9789462111952801,0.2859876527458493,0.7079199912455842
0.0585,1.7358076711994657,1.0,3008.3542742292034,0.4821952372821835,1.302282208231072,0.9791742055485999,0.28595692219037755,0.7086271255961313
0.059000000000000004,1.7350759913072806,1.0,3012.4956179299384,0.48509973650139804,1.3019159282903578,0.9793969634017864,0.2859261916349058,0.7093328196574347
0.059500000000000004,1.7343443114150956,1.0,3016.6055382176087,0.4879879492843727,1.3015499446730403,0.9796146461931522,0.28589546107943403,0.7100370882260406
0.06,1.7336126315229103,1.0,3020.684727735144,0.49085996371634366,1.3011842507890168,0.9798274091042422,0.2858647305239622,0.7107399460352635
0.0605,1.7328809516307253,1.0,3024.733881753245,0.49371586788254723,1.300818840048185,0.9800354013507995,0.28583399996849046,0.7114414077553076
0.061,1.7321492717385403,1.0,3028.753698128151,0.49655574986821954,1.3004537058604422,0.980238766458036,0.2858032694130187,0.7121414879933894
0.0615,1.7314175918463552,1.0,3032.744877260925,0.49937969775859686,1.3000888416356862,0.98043764252117,0.28577253885754694,0.7128402012938523
0.062,1.7306859119541702,1.0,3036.7081220575255,0.5021877996389154,1.2997242407838143,0.980632162452123,0.28574180830207513,0.7135375621382847
0.0625,1.7299542320619852,1.0,3040.644137890052,0.5049801435944112,1.299359896714724,0.9808224542132103,0.28571107774660337,0.7142335849456307
0.063,1.7292225521698001,1.0,3044.5536325582593,0.5077568177103207,1.2989958028383128,0.9810086410386057,0.2856803471911316,0.7149282840722984
0.0635,1.7284908722776149,1.0,3048.437316252865,0.51051791007188,1.2986319525644783,0.9811908416443033,0.2856496166356598,0.7156216738122678
0.064,1.7277591923854299,1.0,3052.2959015195815,0.5132635087643251,1.2982683393031178,0.981369170427257,0.28561888608018804,0.7163137683971945
0.0645,1.7270275124932448,1.0,3056.130103223654,0.5159937018728927,1.297904956464129,0.9815437376543298,0.2855881555247163,0.7170045819965096
0.065,1.7262958326010598,1.0,3059.940638515887,0.5187085774828186,1.2975417974574093,0.9817146496416442,0.2855574249692445,0.7176941287175193
0.0655,1.7255641527088748,1.0,3063.728226799526,0.5214082236793393,1.2971788556928563,0.9818820089248906,0.28552669441377276,0.7183824226054991
0.066,1.7248324728166897,1.0,3067.4935896978627,0.5240927285476906,1.2968161245803673,0.9820459144211063,0.28549596385830095,0.7190694776437878
0.0665,1.7241007929245047,1.0,3071.2374510233212,0.5267621801731092,1.29645359752984,0.9822064615824162,0.2854652333028292,0.7197553077538766
0.067,1.7233691130323197,1.0,3074.9602219310323,0.5294166543109702,1.2960912706471968,0.9823637418640225,0.28543450274735743,0.7204399217044913
0.0675,1.7226374331401346,1.0,3078.661367303769,0.5320561980231262,1.295729148148932,0.9825178421100169,0.2854037721918856,0.7211233129308261
0.068,1.7219057532479494,1.0,3082.3429290024483,0.5346809609760554,1.2953672122014088,0.982668851739844,0.28537304163641386,0.7218055164424998
0.0685,1.7211740733557643,1.0,3086.005231657793,0.5372910210726474,1.2950054596954004,0.9828168532315615,0.2853423110809421,0.7224865393810762
0.069,1.7204423934635793,1.0,3089.6486009903665,0.5398864562157915,1.2946438875216795,0.9829619262907794,0.28531158052547034,0.7231663888587752
0.0695,1.7197107135713943,1.0,3093.2733637982815,0.5424673443083771,1.294282492571019,0.9831041479629559,0.2852808499699986,0.7238450719585081
0.07,1.7189790336792092,1.0,3096.879847944489,0.5450337632532937,1.2939212717341915,0.9832435927404098,0.28525011941452677,0.7245225957339145
0.07050000000000001,1.7182473537870242,1.0,3100.4683823451605,0.5475857909534307,1.2935602219019702,0.9833803326643286,0.285219388859055,0.7251989672093943
