Time [s],Phi [rad],STIM [ ],Fsee [N],Gamma [ ],Lcerel [ ],q [ ],Lmtc [m],fisomrel [ ]
0.0,1.8,1.0,18.999289502794053,0.0010364049234920269,1.3792257275912458,0.005275825075721851,0.288653,0.5414153301431448
0.0005,1.79999375,1.0,19.60978495556612,0.006639800820278842,1.3791569187240893,0.01603370110258819,0.2886527375,0.5415817314529794
0.001,1.799975,1.0,23.714491862428034,0.012211766097583673,1.3787291674405955,0.04115557471390593,0.28865195,0.5426154902096728
0.0015,1.79994375,1.0,34.90977115761785,0.017752477053425305,1.3777285343145549,0.07806358567686378,0.2886506375,0.5450291912135783
0.002,1.7999,1.0,60.83011174247454,0.023262109002845144,1.3759128444720117,0.12347087835541948,0.2886488,0.5493926446459221
0.0025,1.79984375,1.0,108.44272258196759,0.028740836273301165,1.3734045420785805,0.17404374978436807,0.28864643749999996,0.5553859947547373
0.003,1.7997750000000001,1.0,175.157247611368,0.03418883221595773,1.370694089865333,0.2270139390327326,0.28864354999999997,0.5618172568205115
0.0035,1.79969375,1.0,253.43751080839982,0.039606269208905885,1.3681072490947273,0.28026916925528894,0.2886401375,0.5679115215685984
0.004,1.7996,1.0,338.0611828879396,0.044993318663634874,1.365722100115898,0.3322480969994972,0.2886362,0.5734928108635751
0.0045000000000000005,1.7994937500000001,1.0,426.3284694953824,0.0503501509762798,1.363526422880213,0.3818812375455352,0.2886317375,0.578598660293101
0.005,1.799375,1.0,516.753778226609,0.0556769358199527,1.3614930071296916,0.42851579926199107,0.28862675,0.5832997633811632
0.0055,1.79924375,1.0,608.2270731020243,0.06097384155529412,1.3596006422849074,0.47182342013234446,0.2886212375,0.5876510780238586
0.006,1.7991000000000001,1.0,699.9092143369461,0.06624103578934032,1.357832279249096,0.511706771019332,0.2886152,0.5916966196664444
0.006500000000000001,1.79894375,1.0,791.1270283292423,0.07147868527298033,1.3561744791164094,0.548223613650513,0.2886086375,0.5954711110527884
0.007,1.798775,1.0,881.2922474541592,0.07668695564674874,1.35461702477331,0.5815288951855277,0.28860155,0.5990011662657067
0.0075,1.79859375,1.0,969.9386250229454,0.081866011826691,1.3531511011848723,0.6118319295009945,0.2885939375,0.6023096292471688
0.008,1.7984,1.0,1056.6758462476844,0.08701601740541388,1.3517693403192987,0.6393677090503469,0.2885858,0.6054155969748897
0.0085,1.79819375,1.0,1141.2224774233457,0.09213713570499599,1.3504648294981778,0.6643773848163623,0.2885771375,0.6083367451684093
0.009000000000000001,1.797975,1.0,1223.340705461463,0.09722952871183084,1.3492317285825568,0.6870967780154145,0.28856795,0.61108800941084
0.0095,1.79774375,1.0,1302.8482778817772,0.10229335715293048,1.3480647862310615,0.7077491296994637,0.2885582375,0.6136827314602216
0.01,1.7975,1.0,1379.628644086456,0.10732878125321589,1.3469590043475503,0.7265412790542937,0.288548,0.6161334480298359
0.0105,1.79724375,1.0,1453.6258303005645,0.11233596126059404,1.3459095689294935,0.7436621605873167,0.2885372375,0.6184520730963392
0.011,1.796975,1.0,1524.7791089220389,0.1173150549189886,1.3449125361509298,0.7592830064768923,0.28852595000000003,0.6206484132842269
0.0115,1.79669375,1.0,1593.0639195344427,0.12226621939415776,1.3439641754217964,0.773557678321934,0.2885141375,0.6227316518699098
0.012,1.7964,1.0,1658.4949090574075,0.12718961148791855,1.3430608555085528,0.7866237535710241,0.28850180000000003,0.6247106167657521
0.0125,1.79609375,1.0,1721.11464561247,0.132085387766401,1.3421991149382144,0.7986039133548378,0.2884889375,0.6265936407382102
0.013000000000000001,1.7957750000000001,1.0,1780.958284865419,0.1369537028751449,1.3413760009278104,0.8096074905159175,0.28847555,0.6283878379800243
0.0135,1.79544375,1.0,1838.0645256525484,0.14179471019012918,1.3405888694853703,0.8197317585847163,0.2884616375,0.6300995598937418
0.014,1.7951000000000001,1.0,1892.4990456948588,0.14660856308733278,1.3398350766189235,0.8290631278652274,0.2884472,0.631735078760875
0.0145,1.79474375,1.0,1944.3373836487658,0.15139541375069918,1.339112137244252,0.8376784291048143,0.2884322375,0.6333002499159298
0.015,1.794375,1.0,1993.6730773106333,0.1561554150282808,1.3384176052532062,0.8456459802058757,0.28841675,0.6348007795111132
0.0155,1.79399375,1.0,2040.5665880149975,0.16088871632380614,1.337749587774072,0.8530267459241992,0.2884007375,0.6362411223164683
0.016,1.7936,1.0,2085.093327692014,0.16559546700128824,1.3371061974495422,0.8598750272354301,0.2883842,0.6376256748759894
0.0165,1.7931937500000001,1.0,2127.341627003618,0.1702758163006098,1.3364855595943645,0.8662392535065656,0.2883671375,0.638958763343327
0.017,1.792775,1.0,2167.3970296319494,0.17492991204007088,1.3358859592928192,0.8721627193916822,0.28834955,0.6402443314730313
0.0175,1.7923437500000001,1.0,2205.36380469994,0.17955790360684168,1.335305605409838,0.8776841257926992,0.2883314375,0.6414864508314477
0.018000000000000002,1.7919,1.0,2241.308052692897,0.18415993586866997,1.3347431945040251,0.8828382664044728,0.2883128,0.6426881177718126
0.0185,1.79144375,1.0,2275.3038997710482,0.18873615369330354,1.3341974231339846,0.8876563534775614,0.2882936375,0.6438523034776928
0.019,1.790975,1.0,2307.432834923931,0.19328670194849024,1.3336669878583207,0.8921664319745517,0.28827395,0.6449819554003675
0.0195,1.79049375,1.0,2337.7773273313833,0.19781172471277064,1.333150641783553,0.896393755340994,0.2882537375,0.6460798784413481
0.02,1.79,1.0,2366.421828954948,0.20231136608362857,1.3326471773244575,0.900361097861316,0.288233,0.6471487736545629
0.0205,1.78949375,1.0,2393.448276923108,0.2067857696076703,1.3321554636197268,0.904089039997282,0.2882117375,0.6481911606746312
0.021,1.788975,1.0,2418.917583400464,0.2112350752803797,1.33167461859605,0.9075962460038594,0.28818995000000003,0.6492090158774388
0.021500000000000002,1.78844375,1.0,2442.8944696302165,0.21565942309724065,1.3312037601801163,0.9108996208650066,0.2881676375,0.6502043024316071
0.022,1.7879,1.0,2465.447151600037,0.22005895305373693,1.3307420062986146,0.9140145003850483,0.2881448,0.6511789708850995
0.0225,1.78734375,1.0,2486.6470429585243,0.22443380514535255,1.3302884748782338,0.9169548185639368,0.28812143749999997,0.6521349597022014
0.023,1.786775,1.0,2506.55254147039,0.22878411626040113,1.3298424349807278,0.9197332824944228,0.28809755,0.6530738778252051
0.0235,1.78619375,1.0,2525.247766215786,0.23311002833337596,1.3294029354491463,0.9223614338397907,0.28807313749999996,0.6539977873644309
0.024,1.7856,1.0,2542.7804740656306,0.23741167624474802,1.3289693914290885,0.9248498698407263,0.2880482,0.654907970353237
0.0245,1.78499375,1.0,2559.199886242501,0.24168919481432397,1.3285412210654821,0.9272082758876551,0.2880227375,0.6558056953469452
0.025,1.784375,1.0,2574.5568573694823,0.2459427188619104,1.3281178425032547,0.9294455160166044,0.28799675,0.6566922239509226
0.025500000000000002,1.78374375,1.0,2588.903737074085,0.250172383207314,1.3276986738873338,0.9315697137702771,0.2879702375,0.6575688110091928
0.026000000000000002,1.7831000000000001,1.0,2602.2940707057164,0.25437832259104126,1.3272831349302359,0.9335883243298216,0.2879432,0.6584367014994803
0.0265,1.78244375,1.0,2614.7750351010895,0.25856066789686477,1.3268707159956241,0.9355082077634559,0.2879156375,0.6592969866852936
0.027,1.781775,1.0,2626.404124365668,0.2627195570351633,1.3264608216285478,0.9373356656995229,0.28788755,0.6601509309362674
0.0275,1.7810937500000001,1.0,2637.218114954542,0.2668551193245824,1.326053057535848,0.9390765301115972,0.2878589375,0.6609993739525669
0.028,1.7804,1.0,2647.2545494340716,0.27096748408376764,1.325647029424365,0.9407361798467433,0.2878298,0.6618431512343328
0.0285,1.77969375,1.0,2656.5516702320792,0.2750567806313647,1.3252423430009395,0.9423195817690374,0.2878001375,0.662683094130291
0.029,1.778975,1.0,2665.148356834826,0.2791231382860191,1.3248386039724125,0.9438313276715665,0.28776995,0.6635200298764483
0.029500000000000002,1.7782437500000001,1.0,2673.0840664307293,0.2831666863663765,1.3244354180456244,0.9452756674381846,0.2877392375,0.6643547816248755
0.03,1.7775,1.0,2680.3908945018375,0.28718755042601307,1.3240324632388611,0.9466565471949425,0.287708,0.6651880190285591
0.0305,1.77674375,1.0,2687.1036393348763,0.2911858591358352,1.323629396747415,0.9479776255104246,0.2876762375,0.6660204514059445
0.031,1.775975,1.0,2693.268384785273,0.29516174681497653,1.3232257761520696,0.9492422886183663,0.28764395,0.6668529898944267
0.0315,1.7751937500000001,1.0,2698.9084963074733,0.2991153361441997,1.3228213703974052,0.9504537067159403,0.2876111375,0.6676861059143537
0.032,1.7744,1.0,2704.047607259499,0.3030467498042675,1.322415948428003,0.951614829297992,0.2875778,0.6685202684925745
0.0325,1.77359375,1.0,2708.7095945978945,0.30695611047594257,1.3220092791884437,0.9527284032195709,0.2875439375,0.6693559442491676
0.033,1.772775,1.0,2712.91855575588,0.31084354083998766,1.3216011316233083,0.9537969890728067,0.28750955,0.6701935973807639
0.0335,1.7719437500000002,1.0,2716.698786705914,0.31470916357716544,1.3211912746771775,0.9548229760534311,0.2874746375,0.6710336896404654
0.034,1.7711000000000001,1.0,2720.0747612050013,0.3185531013682386,1.3207794772946324,0.9558085954722687,0.2874392,0.6718766803143572
0.0345,1.7702437500000001,1.0,2723.071111224354,0.32237547689396995,1.320365508420254,0.9567559330495351,0.2874032375,0.6727230261946181
0.035,1.7693750000000001,1.0,2725.712608562548,0.3261764128351221,1.319949136998623,0.9576669401143897,0.28736675,0.6735731815492233
0.035500000000000004,1.76849375,1.0,2728.014904071396,0.32995602395581763,1.3195302160176803,0.9585434507601486,0.2873297375,0.6744274268230057
0.036000000000000004,1.7676,1.0,2730.0069085251707,0.33371443942336,1.3191084787949192,0.9593871747835484,0.2872922,0.6752862843150275
0.0365,1.76669375,1.0,2731.7052445172494,0.33745177717378283,1.3186837712021382,0.9601997246274041,0.2872541375,0.6761500445547934
0.037,1.765775,1.0,2733.124264298827,0.34116815297129943,1.3182559603749768,0.9609826154036336,0.28721555,0.6770189530797232
0.0375,1.76484375,1.0,2734.2783798256855,0.34486368258012284,1.317824913449075,0.9617372703335669,0.2871764375,0.6778932537981124
0.038,1.7639,1.0,2735.182055465971,0.3485384817644661,1.317390497560072,0.962465027334612,0.28713679999999997,0.6787731889622763
0.0385,1.76294375,1.0,2735.8498010994645,0.3521926662885424,1.3169525798436081,0.963167145065296,0.28709663750000003,0.679658999140565
0.039,1.761975,1.0,2736.2961656075163,0.3558263519165648,1.3165110274353227,0.9638448084786303,0.28705595,0.6805509231882539
0.0395,1.7609937500000001,1.0,2736.5357307554964,0.3594396544127464,1.3160657074708555,0.9644991339286586,0.2870147375,0.6814491982173074
0.04,1.76,1.0,2736.5831054656487,0.36303268954130025,1.3156164870858464,0.9651311738705453,0.286973,0.6823540595650184
0.0405,1.7589937500000001,1.0,2736.4449841196924,0.36660556130773064,1.315163305462816,0.9657419254050209,0.2869307375,0.6832655959494635
0.041,1.757975,1.0,2736.139985706498,0.37015839545417634,1.314705993694881,0.9663323243299096,0.28688795,0.6841841120297114
0.0415,1.75694375,1.0,2735.68162459576,0.3736913094934877,1.314244429333575,0.9669032571242843,0.2868446375,0.6851098170689277
0.042,1.7559,1.0,2735.077606250479,0.3772044117284096,1.313778542760563,0.967455564589189,0.28680079999999997,0.6860428128286273
0.0425,1.75484375,1.0,2734.335644808254,0.380697810461687,1.3133082643575102,0.9679900419895334,0.2867564375,0.6869831998893
0.043000000000000003,1.753775,1.0,2733.463461092256,0.38417161399606464,1.3128335245060814,0.9685074419780395,0.28671155,0.6879310776310683
0.043500000000000004,1.75269375,1.0,2732.468780731307,0.38762593063428746,1.312354253587942,0.9690084773030311,0.28666613750000003,0.6888865442140295
0.044,1.7516,1.0,2731.359332385712,0.39106086867910034,1.3118703819847568,0.9694938233180543,0.2866202,0.6898496965582968
0.0445,1.75049375,1.0,2730.1428460817892,0.3944765364332482,1.3113818400781911,0.969964120309656,0.2865737375,0.6908206303237239
0.045,1.7493750000000001,1.0,2728.8270516534085,0.3978730421994759,1.31088855824991,0.9704199756581564,0.28652675,0.6917994398893252
0.0455,1.74824375,1.0,2727.4196772904934,0.4012504942805283,1.3103904668815785,0.970861965844918,0.2864792375,0.6927862183323845
0.046,1.7471,1.0,2725.928448196227,0.4046090009791503,1.3098874963548617,0.971290638318395,0.2864312,0.6937810574072564
0.0465,1.7459437500000001,1.0,2724.361085350372,0.40794867059808676,1.3093795770514245,0.9717065132301661,0.28638263750000004,0.6947840475238575
0.047,1.744775,1.0,2722.721464791017,0.41126960998125645,1.308866674296757,0.9721100873852997,0.28633355,0.6957952088930519
0.0475,1.74359375,1.0,2721.013872613241,0.4145719221516986,1.3083487496689763,0.9725018325377921,0.28628393750000003,0.6968145681683005
0.048,1.7424,1.0,2719.2458705303256,0.41785571089465234,1.3078257348922673,0.9728821956109682,0.2862338,0.6978422096238379
0.0485,1.74119375,1.0,2717.424012314674,0.42112107995777165,1.3072975708044448,0.9732516027443253,0.2861831375,0.6988781982706864
0.049,1.739975,1.0,2715.5436498404824,0.42436813278549046,1.3067643002623697,0.9736104668127006,0.28613195,0.6999223982287586
0.0495,1.73874375,1.0,2713.6305287513064,0.4275969725853656,1.306225689123675,0.9739591624686278,0.2860802375,0.7009752146706963
0.05,1.7375020577662703,1.0,2711.7720344427944,0.4308077011025708,1.3056818701255504,0.9742980713235516,0.2860280864261834,0.7020363337900069
0.0505,1.736259230224479,1.0,2710.399140469666,0.43400041974929215,1.3051331145676321,0.9746275664714118,0.2859758876694281,0.7031051734510723
0.051000000000000004,1.7350164026826875,1.0,2709.5369303404495,0.43717522966420536,1.3045797029698465,0.9749480044812895,0.2859236889126729,0.7041811369221942
0.051500000000000004,1.7337735751408963,1.0,2709.1411907964784,0.44033223176142694,1.3040220364971897,0.9752597335025706,0.2858714901559176,0.7052633970794051
0.052000000000000005,1.732530747599105,1.0,2709.1754242967095,0.4434715255518698,1.303460447207229,0.97556308147128,0.2858192913991624,0.7063512658826165
0.0525,1.7312879200573137,1.0,2709.6058826479534,0.4465932101648262,1.302895243055738,0.9758583601729073,0.2857670926424072,0.7074441062952981
0.053,1.7300450925155224,1.0,2710.406926180977,0.4496973819658521,1.3023266587777966,0.9761458628083264,0.28571489388565197,0.7085414266334622
0.0535,1.7288022649737311,1.0,2711.5373702241673,0.45278414305824627,1.3017550714612378,0.9764258791558951,0.2856626951288967,0.7096424644369365
0.054,1.7275594374319398,1.0,2712.965960110855,0.4558535927408161,1.3011807679403795,0.9766986806783426,0.2856104963721415,0.7107466359146788
0.0545,1.7263166098901486,1.0,2714.6733366932244,0.4589058262738003,1.3006039268071707,0.9769645202968076,0.2855582976153862,0.7118535688396337
0.055,1.7250737823483573,1.0,2716.6401610845264,0.4619409389174373,1.3000247266535594,0.9772236402222005,0.285506098858631,0.7129628934836001
0.0555,1.7238309548065658,1.0,2718.847104963902,0.4649590259319658,1.2994433460714945,0.9774762725025564,0.28545390010187577,0.7140742426451123
0.056,1.7225881272647745,1.0,2721.2748415895885,0.4679601825776243,1.2988599636529243,0.9777226395381201,0.28540170134512055,0.7151872516752957
0.0565,1.7213452997229832,1.0,2723.9040375184645,0.47094450411465144,1.2982747579897973,0.9779629545663115,0.2853495025883653,0.7163015585016832
0.057,1.720102472181192,1.0,2726.7153450332157,0.47391208580328575,1.2976879076740622,0.9781974221185591,0.28529730383161006,0.7174168036499969
0.0575,1.7188596446394007,1.0,2729.693131016207,0.476863020595629,1.297099557342394,0.9784262363217298,0.28524510507485484,0.7185326946012549
0.058,1.7176168170976094,1.0,2732.821416789729,0.4797974035522844,1.2965098546002127,0.9786495838710594,0.28519290631809957,0.7196489353474513
0.0585,1.716373989555818,1.0,2736.0841784840113,0.4827153299133392,1.2959189472443207,0.9788676440660347,0.28514070756134435,0.7207652317022097
0.059000000000000004,1.7151311620140268,1.0,2739.4722466175767,0.48561689017712223,1.2953269206239766,0.9790805853020906,0.28508850880458914,0.7218814092945135
0.059500000000000004,1.7138883344722355,1.0,2742.976437206187,0.48850217484196223,1.294733860088439,0.9792885694005531,0.2850363100478339,0.7229972950171188
0.06,1.712645506930444,1.0,2746.5875497252873,0.49137127440618783,1.2941398509869668,0.9794917519187399,0.28498411129107865,0.7241127170324138
0.0605,1.7114026793886528,1.0,2750.296365234532,0.49422427936812796,1.2935449786688187,0.9796902824431443,0.28493191253432343,0.7252275047778151
0.061,1.7101598518468615,1.0,2754.0936446633414,0.49706128022611135,1.292949328483253,0.979884304866745,0.28487971377756816,0.726341488970699
0.0615,1.7089170243050702,1.0,2757.970127258242,0.4998823674784666,1.2923529857795288,0.9800739576514166,0.28482751502081294,0.7274545016128655
0.062,1.707674196763279,1.0,2761.9194321365153,0.5026876273794599,1.2917560096755463,0.9802593723824254,0.2847753162640577,0.7285664248029418
0.0625,1.7064313692214876,1.0,2765.9350626835853,0.5054771483176391,1.291158460190874,0.9804406759715374,0.2847231175073025,0.7296771398573954
0.063,1.7051885416796964,1.0,2770.0039731100974,0.5082510294448044,1.290560456284705,0.9806179944816086,0.28467091875054723,0.7307864197819642
0.0635,1.703945714137905,1.0,2774.1225017251813,0.5110093557267763,1.2899620319725305,0.9807914440028299,0.284618719993792,0.7318941964743662
0.064,1.7027028865961136,1.0,2778.286976872959,0.5137522121293754,1.2893632212698414,0.9809611364211323,0.28456652123703674,0.7330004023480257
0.0645,1.7014600590543223,1.0,2782.493716629107,0.5164796836184219,1.288764058192129,0.9811271796021969,0.2845143224802815,0.734104970332949
0.065,1.700217231512531,1.0,2786.739028521348,0.5191918551597366,1.2881645767548842,0.9812896775661267,0.2844621237235263,0.7352078338765258
0.0655,1.6989744039707397,1.0,2791.0192092773236,0.5218888117191399,1.2875648109735982,0.9814487306533215,0.2844099249667711,0.7363089269442562
0.066,1.6977315764289485,1.0,2795.3305445967226,0.5245706382624523,1.286964794863762,0.9816044356820567,0.2843577262100158,0.7374081840204052
0.0665,1.6964887488871572,1.0,2799.669308950196,0.5272374197554942,1.2863645624408666,0.981756886098239,0.2843055274532606,0.738505540108581
0.067,1.695245921345366,1.0,2804.031765402991,0.5298892411640862,1.2857641477204034,0.98190617211778,0.2842533286965054,0.7396009307322433
0.0675,1.6940030938035746,1.0,2808.414165464643,0.5325261874540487,1.2851635847178633,0.9820523808619982,0.2842011299397501,0.740694291935134
0.068,1.692760266261783,1.0,2812.812748964782,0.5351483435912022,1.2845629074487372,0.9821955964864412,0.2841489311829949,0.7417855602816371
0.0685,1.6915174387199918,1.0,2817.227896695518,0.5377557776846287,1.28396211277401,0.9823358974730746,0.2840967324262397,0.7428747401432413
0.069,1.6902746111782005,1.0,2821.6541415607708,0.540348589138133,1.2833612498451548,0.9824733641091834,0.2840445336694844,0.7439617413462749
0.0695,1.6890317836364093,1.0,2826.0879372716245,0.5429268673794091,1.282760350501498,0.9826080725703527,0.2839923349127292,0.7450465056896366
0.07,1.687788956094618,1.0,2830.528212911043,0.5454906906775927,1.282159424387634,0.9827400947985677,0.28394013615597397,0.7461290153993593
0.07050000000000001,1.6865461285528267,1.0,2834.9738941766177,0.5480401373018196,1.2815584811481582,0.9828695003779473,0.2838879373992187,0.7472092528493057
0.07100000000000001,1.6853033010110354,1.0,2839.423903376413,0.5505752855212255,1.280957530427665,0.9829963566283029,0.2838357386424635,0.7482872005611853
0.07150000000000001,1.6840604734692441,1.0,2843.87715942553,0.5530962136049462,1.2803565818707496,0.9831207286943857,0.28378353988570826,0.7493628412045589
0.07200000000000001,1.6828176459274529,1.0,2848.332577846242,0.5556029998221175,1.2797556451220065,0.9832426796310498,0.28373134112895304,0.7504361575968431
0.0725,1.6815748183856614,1.0,2852.789070768885,0.558095722441875,1.2791547298260306,0.9833622704845401,0.28367914237219777,0.7515071327033032
