Time [s],Phi [rad],STIM [ ],Fsee [N],Gamma [ ],Lcerel [ ],q [ ],Lmtc [m],fisomrel [ ]
0.0,1.8,1.0,18.037750929285018,0.0002695414137117549,1.379331845222706,0.0050188656071411585,0.288653,0.5411586454079627
0.0005,1.79999375,1.0,18.431094479344605,0.0058772388083797086,1.379285278518698,0.013676742201002134,0.2886527375,0.5412712930452606
0.001,1.799975,1.0,21.96539523391116,0.01145348145437125,1.3789030008723329,0.036973856483752655,0.28865195,0.5421955227357811
0.0015,1.79994375,1.0,31.834017485103207,0.01699844578894508,1.3779814430774147,0.07246219644551165,0.2886506375,0.5444197343402907
0.002,1.7999,1.0,55.17752549439981,0.0225123072574993,1.376265406297816,0.11691587412814307,0.2886488,0.5485470153811847
0.0025,1.79984375,1.0,99.75619106882459,0.027995240322559678,1.3738089355235616,0.16696256010032084,0.28864643749999996,0.5544224480954776
0.003,1.7997750000000001,1.0,164.36152226124162,0.0334474184693628,1.3710876192955774,0.21974151734557498,0.28864354999999997,0.5608864120074637
0.0035,1.79969375,1.0,241.51320040427095,0.03886901420728977,1.3684672355730936,0.273059178389677,0.2886401375,0.567065995883681
0.004,1.7996,1.0,325.53228690584,0.04426019908000287,1.366048750732148,0.32528340784545867,0.2886362,0.5727305870135009
0.0045000000000000005,1.7994937500000001,1.0,413.4716065517853,0.04962114367085475,1.3638243857580128,0.37528124324322315,0.2886317375,0.5779075775759079
0.005,1.799375,1.0,503.69812479198526,0.054952017594654665,1.3617674889628835,0.4223489508785169,0.28862675,0.582666721713935
0.0055,1.79924375,1.0,595.1094170785037,0.06025298953555035,1.3598546059128547,0.46611902381676523,0.2886212375,0.5870684394238013
0.006,1.7991000000000001,1.0,686.8383796772267,0.06552422721498531,1.3580680075953668,0.5064675049134372,0.2886152,0.5911584883185088
0.006500000000000001,1.79894375,1.0,778.1720078530991,0.07076589739915769,1.3563941089463847,0.5434350683245619,0.2886086375,0.5949720634831394
0.007,1.798775,1.0,868.5243203726079,0.07597816601244946,1.3548220132262947,0.5771660661825553,0.28860155,0.598537432812625
0.0075,1.79859375,1.0,957.4039803746841,0.08116119780072552,1.3533428520082693,0.6078644417064311,0.2885939375,0.6018776432865507
0.008,1.7984,1.0,1044.4362806432173,0.08631515705057165,1.3519486672882302,0.6357627543625086,0.2885858,0.6050131874809908
0.0085,1.79819375,1.0,1129.3001271932972,0.09144020659769261,1.3506328656910032,0.6611023764667947,0.2885771375,0.6079610762031726
0.009000000000000001,1.797975,1.0,1211.7510636123002,0.09653650846508291,1.349389459182272,0.6841203443854924,0.28856795,0.6107366256770395
0.0095,1.79774375,1.0,1291.6280039726282,0.10160422442876577,1.3482127249991198,0.7050416689815773,0.2885582375,0.6133542670557632
0.01,1.7975,1.0,1368.794233005711,0.10664351449819456,1.3470977970882436,0.7240756460893232,0.288548,0.6158262731393127
0.0105,1.79724375,1.0,1443.1606119118837,0.11165453790491199,1.3460401538835156,0.7414138362660911,0.2885372375,0.6181639410085231
0.011,1.796975,1.0,1514.6854464437474,0.11663745324599806,1.3450354931375876,0.7572297280893677,0.28852595000000003,0.6203778969237939
0.0115,1.79669375,1.0,1583.3652403320243,0.1215924190170414,1.344079745628371,0.7716793490355339,0.2885141375,0.6224780888020264
0.012,1.7964,1.0,1649.1857965216273,0.12651959115677036,1.3431695604524791,0.7849025592088474,0.28850180000000003,0.6244727448305238
0.0125,1.79609375,1.0,1712.1698921288028,0.1314191254137618,1.342301636737964,0.7970240593007208,0.2884889375,0.626369864434027
0.013000000000000001,1.7957750000000001,1.0,1772.3589680015118,0.13629117677712796,1.3414728843907355,0.8081548798007038,0.28847555,0.6281768789090286
0.0135,1.79544375,1.0,1829.8296095619025,0.14113590069703086,1.340680186863074,0.8183936880837386,0.2884616375,0.629901180736419
0.014,1.7951000000000001,1.0,1884.6304262780686,0.14595344969777777,1.3399210611279562,0.8278283714494014,0.2884472,0.6315486996225902
0.0145,1.79474375,1.0,1936.8180462477956,0.15074397555708066,1.3391931963175672,0.83653707219295,0.2884322375,0.6331249221041848
0.015,1.794375,1.0,1986.4701669986655,0.15550763005265159,1.3384942815640917,0.8445892500410895,0.28841675,0.6346352721569178
0.0155,1.79399375,1.0,2033.664531391186,0.1602445639061309,1.3378222081041817,0.8520467644331723,0.2884007375,0.6360846802028537
0.016,1.7936,1.0,2078.506631768685,0.16495492836949158,1.3371747518960049,0.8589646696436068,0.2883842,0.6374782738643736
0.0165,1.7931937500000001,1.0,2121.0661228985227,0.16963887146872175,1.3365502199391646,0.865392215856304,0.2883671375,0.6388199918970024
0.017,1.792775,1.0,2161.417718529289,0.17429654081480794,1.3359469929128287,0.8713733963000335,0.28834955,0.640113577655701
0.0175,1.7923437500000001,1.0,2199.6471098799857,0.1789280840187367,1.335363451496165,0.8769475469045177,0.2883314375,0.6413627404355211
0.018000000000000002,1.7919,1.0,2235.8351154246543,0.1835336474530775,1.334798126127694,0.8821499332395044,0.2883128,0.642570837823293
0.0185,1.79144375,1.0,2270.0839497844004,0.18811337859214072,1.3342494207360558,0.8870121533919133,0.2882936375,0.6437414691888111
0.019,1.790975,1.0,2302.464959973887,0.1926674212877013,1.3337161269863727,0.8915626899145684,0.28827395,0.6448773807054056
0.0195,1.79049375,1.0,2333.0498210843834,0.19719591885279358,1.3331970973377067,0.8958271849250254,0.2882537375,0.6459811681305063
0.02,1.79,1.0,2361.9160192649274,0.2016990146004518,1.3326911842491198,0.8998287478503039,0.288233,0.6470554079174688
0.0205,1.78949375,1.0,2389.1403441917614,0.20617685093512753,1.3321972986242199,0.9035882522984321,0.2882117375,0.6481025343965909
0.021,1.788975,1.0,2414.804554970924,0.21062957086740333,1.3317143490279038,0.9071245712641353,0.28818995000000003,0.6491249701817412
0.021500000000000002,1.78844375,1.0,2438.9818488327874,0.2150573158188977,1.3312413678809678,0.9104548216751354,0.2881676375,0.650124860345489
0.022,1.7879,1.0,2461.7313550558692,0.2194602244758535,1.3307775575739584,0.913594562040071,0.2881448,0.651103977695812
0.0225,1.78734375,1.0,2483.1152606187434,0.22383843552451374,1.3303221204974212,0.9165579252657364,0.28812143749999997,0.6520640838969617
0.023,1.786775,1.0,2503.198555243193,0.22819208765112128,1.329874259041902,0.9193577690177811,0.28809755,0.6530069299156767
0.0235,1.78619375,1.0,2522.0432587207315,0.23252131850865043,1.3294332279072645,0.9220058176998828,0.28807313749999996,0.653934146526149
0.024,1.7856,1.0,2539.712244290444,0.23682626582278998,1.32899829502609,0.9245127719596593,0.2880482,0.6548473273913454
0.0245,1.78499375,1.0,2556.275308638006,0.24110706820040687,1.3285686824577672,0.9268884022198265,0.2880227375,0.655748153405507
0.025,1.784375,1.0,2571.7775254739736,0.24536385915645662,1.3281438616950598,0.9291416899004222,0.28799675,0.6566377743362675
0.025500000000000002,1.78374375,1.0,2586.2653995707283,0.24959677220589474,1.3277233042307317,0.9312808644023306,0.2879702375,0.6575173337502911
0.026000000000000002,1.7831000000000001,1.0,2599.7867475611147,0.25380594086367675,1.3273064815575462,0.9333134762832364,0.2879432,0.6583879691658792
0.0265,1.78244375,1.0,2612.390584928733,0.2579914986447582,1.3268928651682668,0.9352464624209066,0.2879156375,0.6592508121877595
0.027,1.781775,1.0,2624.1262252150973,0.2621535787294864,1.3264819339160892,0.9370862051197824,0.28788755,0.6601069732985025
0.0275,1.7810937500000001,1.0,2635.0364635881515,0.2662923112492324,1.3260732360669836,0.9388385921203916,0.2878589375,0.6609574130127718
0.028,1.7804,1.0,2645.174716149902,0.27040783207810015,1.3256662295193493,0.9405090420212664,0.2878298,0.6618032747150846
0.0285,1.77969375,1.0,2654.5748805252197,0.27450026921994336,1.3252605596935298,0.9421025817159158,0.2878001375,0.662645307104119
0.029,1.778975,1.0,2663.2714625282597,0.27856975067861556,1.324855872009869,0.9436238576774982,0.28776995,0.6634842551680726
0.029500000000000002,1.7782437500000001,1.0,2671.299522667473,0.28261640445797037,1.3244518118887108,0.9450771696576339,0.2877392375,0.6643208602108822
0.03,1.7775,1.0,2678.6946254384343,0.28664035856186143,1.324048024750398,0.9464665009976172,0.287708,0.6651558598704255
0.0305,1.77674375,1.0,2685.4927914043124,0.29064174099414236,1.3236441560152754,0.9477955459294346,0.2876762375,0.6659899881286993
0.031,1.775975,1.0,2691.7224923598337,0.29462067585291013,1.3232399239602743,0.9490677422209481,0.28764395,0.6668238251216712
0.0315,1.7751937500000001,1.0,2697.4171376544195,0.29857729153231155,1.322835004777724,0.9502862808402857,0.2876111375,0.6676580347262977
0.032,1.7744,1.0,2702.616839052696,0.30251171943407584,1.3224290163626051,0.9514541240907918,0.2875778,0.6684933973451623
0.0325,1.77359375,1.0,2707.3432757464693,0.30642408109472963,1.3220217476534917,0.9525740480598254,0.2875439375,0.6693303381319864
0.033,1.772775,1.0,2711.618338615195,0.3103144980507993,1.321612987588958,0.9536486402368596,0.28750955,0.6701692800194667
0.0335,1.7719437500000002,1.0,2715.464110294426,0.31418309183881155,1.3212025251075779,0.9546803145923681,0.2874746375,0.6710106437006245
0.034,1.7711000000000001,1.0,2718.902846231313,0.31802998399529275,1.3207901491479255,0.9556713252802707,0.2874392,0.6718548476073078
0.0345,1.7702437500000001,1.0,2721.9569567285953,0.32185529605676955,1.3203756486485747,0.956623779104131,0.2874032375,0.6727023078858578
0.035,1.7693750000000001,1.0,2724.6489899754447,0.32565914955976843,1.3199588125481,0.957539646871644,0.28736675,0.6735534383699291
0.035500000000000004,1.76849375,1.0,2727.0016160668392,0.32944166604081593,1.3195394297850753,0.958420773748182,0.2873297375,0.6744086505504749
0.036000000000000004,1.7676,1.0,2729.0384444440106,0.3332029656594058,1.3191172817309198,0.9592688876035892,0.2872922,0.6752683689434591
0.0365,1.7666938271038117,1.0,2730.788917864468,0.33694316353542925,1.3186921324219267,0.9600856059505901,0.2872541407383601,0.6761330508047357
0.037,1.7657827154824666,1.0,2732.608493281079,0.3406623881038206,1.3182641300617106,0.9608724881953886,0.2872158740502636,0.6770023709058117
0.0375,1.7648716038611214,1.0,2734.721433605113,0.34436075407340466,1.3178334691041764,0.9616310000931827,0.2871776073621671,0.6778759117257798
0.038,1.7639604922397762,1.0,2737.10665541622,0.3480383761530061,1.3174003440032287,0.9623625190437198,0.2871393406740706,0.678753257737985
0.0385,1.763049380618431,1.0,2739.7430805448325,0.3516953690514496,1.3169649492127722,0.9630683403917955,0.2871010739859741,0.6796339954417882
0.039,1.762138268997086,1.0,2742.6096258675952,0.35533184747755997,1.3165274791867119,0.9637496832132456,0.2870628072978776,0.6805177133919187
0.0395,1.7612271573757408,1.0,2745.6851939413705,0.35894792614016185,1.316088128378952,0.9644076956335031,0.2870245406097811,0.6814040022254182
0.04,1.7603160457543956,1.0,2748.9486644751555,0.3625437197480801,1.315647091243398,0.9650434597210394,0.28698627392168463,0.6822924546861671
0.0405,1.7594049341330504,1.0,2752.3788866405057,0.36611934301013926,1.315204562233954,0.9656579959937921,0.2869480072335881,0.6831826656470069
0.041,1.7584938225117053,1.0,2755.954672220785,0.3696749106351641,1.3147607358045252,0.9662522675729124,0.2869097405454916,0.6840742321294447
0.0415,1.7575827108903601,1.0,2759.683131944448,0.37321051229028035,1.3143155501998345,0.9668271579010271,0.2868714738573951,0.6849672669087223
0.042,1.7566715992690152,1.0,2763.518227371492,0.3767262921559785,1.3138694240600135,0.9673835515885183,0.2868332071692986,0.6858609204089139
0.0425,1.75576048764767,1.0,2767.4460192653073,0.3802223637673821,1.313422485172791,0.9679222557422198,0.28679494048120213,0.6867549291712745
0.043000000000000003,1.7548493760263248,1.0,2771.4601258689127,0.3836988334995478,1.3129747928347357,0.9684440273939304,0.28675667379310565,0.6876491678892036
0.043500000000000004,1.7539382644049797,1.0,2775.554150358373,0.3871558077275326,1.3125264063424167,0.9689495834223382,0.2867184071050092,0.6885435119218579
0.044,1.7530271527836345,1.0,2779.7216798914546,0.3905933928263932,1.3120773849924023,0.9694396030856806,0.28668014041691264,0.6894378372968875
0.0445,1.7521160411622894,1.0,2783.956284733998,0.39401169517118656,1.311627788081262,0.9699147303705327,0.28664187372881617,0.6903320207129469
0.045,1.7512049295409442,1.0,2788.251517464092,0.3974108211369695,1.3111776749055637,0.9703755761717479,0.28660360704071963,0.6912259395419876
0.0455,1.750293817919599,1.0,2792.6009122545606,0.40079087709879885,1.3107271047618767,0.970822720317228,0.28656534035262315,0.6921194718313193
0.046,1.7493827062982539,1.0,2796.997984233047,0.40415196943173143,1.3102761369467697,0.9712567134499603,0.2865270736645267,0.6930124963054509
0.0465,1.7484715946769087,1.0,2801.4362289201854,0.40749420451082413,1.3098248307568114,0.9716780787786665,0.28648880697643014,0.6939048923677078
0.047,1.7475604830555636,1.0,2805.909121746128,0.4108176887111337,1.3093732454885707,0.9720873137074018,0.28645054028833367,0.6947965401016217
0.0475,1.7466493714342186,1.0,2810.410117644133,0.41412252840771707,1.308921440438616,0.9724848913535395,0.2864122736002372,0.6956873202721001
0.048,1.7457382598128734,1.0,2814.932650723037,0.41740882997563106,1.3084694749035166,0.9728712619627675,0.28637400691214066,0.6965771143263672
0.0485,1.7448271481915283,1.0,2819.4701340171914,0.4206766997899325,1.3080174081798408,0.9732468542289767,0.2863357402240442,0.6974658043946854
0.049,1.7439160365701831,1.0,2824.017511557268,0.423926240505941,1.307565285692976,0.9736120751263537,0.2862974735359477,0.6983533004993561
0.0495,1.743004924948838,1.0,2828.574089699934,0.4271575530301428,1.30711311377111,0.9739673096930561,0.2862592068478512,0.699239589763435
0.05,1.7420938133274928,1.0,2833.135451230463,0.43037074645072787,1.3066609319432483,0.9743129282695603,0.2862209401597547,0.700124594450569
0.0505,1.7411827017061476,1.0,2837.699867315904,0.4335659196956394,1.306208755645239,0.9746492813928409,0.2861826734716582,0.7010082843309766
0.051000000000000004,1.7402715900848025,1.0,2842.2656035508303,0.4367431716928205,1.3057566003129304,0.9749767036486839,0.2861444067835617,0.7018906293529303
0.051500000000000004,1.7393604784634573,1.0,2846.8309199624373,0.43990260137021436,1.3053044813821708,0.9752955145393107,0.2861061400954652,0.7027715996427415
0.052000000000000005,1.7384493668421122,1.0,2851.3940710199267,0.4430443076557641,1.3048524142888083,0.9756060192964449,0.2860678734073687,0.7036511655047347
0.0525,1.737538255220767,1.0,2855.9533056500068,0.44616838947741283,1.3044004144686911,0.9759085096437028,0.28602960671927224,0.7045292974212023
0.053,1.736627143599422,1.0,2860.506867256804,0.44927494576310373,1.3039484973576678,0.9762032645118809,0.2859913400311757,0.7054059660523463
0.0535,1.735716031978077,1.0,2865.0529937482033,0.45236407544078,1.303496678391586,0.9764905507104302,0.28595307334307923,0.7062811422362061
0.054,1.7348049203567317,1.0,2869.589917565982,0.45543587743838465,1.3030449730062945,0.9767706235581546,0.2859148066549827,0.7071547969885659
0.0545,1.7338938087353866,1.0,2874.116661401193,0.45849044293968527,1.3025933895895287,0.9770437262981383,0.2858765399668862,0.7080269151043357
0.055,1.7329826971140414,1.0,2878.6339387714233,0.4615278513997734,1.3021419215378787,0.977310089892765,0.28583827327878975,0.708897510361602
0.0555,1.7320715854926962,1.0,2883.1368925722513,0.4645482402446315,1.3016906115367046,0.9775699440186115,0.28580000659069327,0.7097665016282182
0.056,1.731160473871351,1.0,2887.6252992094182,0.46755170039902627,1.3012394611918363,0.9778235020153755,0.28576173990259673,0.7106338871838398
0.0565,1.730249362250006,1.0,2892.098934692104,0.4705383227877246,1.3007884721091034,0.978070968453286,0.28572347321450026,0.7114996653261196
0.057,1.7293382506286608,1.0,2896.5575746383743,0.47350819833549346,1.3003376458943354,0.9783125395651618,0.2856852065264037,0.7123638343706913
0.0575,1.7284271390073156,1.0,2901.0009942812853,0.4764614179670995,1.2998869841533616,0.9785484036538061,0.28564693983830725,0.7132263926511526
0.058,1.7275160273859704,1.0,2905.4289684742384,0.47939807260730977,1.2994364884920118,0.9787787414763344,0.28560867315021077,0.7140873385190476
0.0585,1.7266049157646255,1.0,2909.841271697372,0.482318253180891,1.2989861605161153,0.9790037266069135,0.2855704064621143,0.7149466703438514
0.059000000000000004,1.7256938041432803,1.0,2914.2376780630652,0.48522205061261003,1.2985360018315018,0.9792235257792893,0.28553213977401776,0.7158043865129515
0.059500000000000004,1.7247826925219352,1.0,2918.6179613223385,0.4881095558272338,1.298086014044001,0.9794382992103772,0.2854938730859213,0.7166604854316316
0.06,1.72387158090059,1.0,2922.9818948705083,0.49098085974952904,1.297636198759442,0.9796482009061022,0.28545560639782475,0.7175149655230546
0.0605,1.7229604692792448,1.0,2927.329251753738,0.4938360533042628,1.2971865575836548,0.9798533789505974,0.28541733970972827,0.7183678252282432
0.061,1.7220493576578997,1.0,2931.6598046747663,0.49667522741620174,1.2967370921224686,0.980053975779782,0.2853790730216318,0.7192190630060638
0.0615,1.7211382460365545,1.0,2935.9733259994086,0.4994984730101128,1.2962878039817132,0.9802501284402794,0.2853408063335353,0.7200686773332077
0.062,1.7202271344152094,1.0,2940.2695877627393,0.5023058810107628,1.295838694767218,0.9804419688345655,0.2853025396454388,0.7209166667041735
0.0625,1.7193160227938642,1.0,2944.548361675603,0.5050975423429186,1.2953897660848126,0.9806296239531802,0.2852642729573423,0.721763029631249
0.063,1.7184049111725193,1.0,2948.80941913074,0.5078735479313471,1.2949410195403264,0.9808132160947735,0.2852260062692458,0.7226077646444924
0.0635,1.717493799551174,1.0,2953.0529907356613,0.5106339540657999,1.2944924527238804,0.9809928603540236,0.2851877395811493,0.723450877833779
0.064,1.716582687929829,1.0,2957.2792214037436,0.5133788692718536,1.294044063982743,0.9811686714744839,0.2851494728930528,0.7242923738409199
0.0645,1.7156715763084838,1.0,2961.487947420075,0.5161084092930351,1.2935958543639523,0.9813407606733298,0.28511120620495634,0.7251322522331024
0.065,1.7147604646871386,1.0,2965.6793190185554,0.5188226555826091,1.2931478221757347,0.9815092326244707,0.2850729395168598,0.7259705177092598
0.0655,1.7138493530657934,1.0,2969.8534871927995,0.5215216895938397,1.2926999657263163,0.98167418829447,0.2850346728287633,0.7268071749483842
0.066,1.7129382414444483,1.0,2974.0106036886295,0.5242055927799912,1.292252283323924,0.9818357251006044,0.2849964061406668,0.7276422286095434
0.0665,1.7120271298231031,1.0,2978.1508209983285,0.5268744465943282,1.2918047732767848,0.9819939370611008,0.2849581394525703,0.7284756833319013
0.067,1.711116018201758,1.0,2982.274292353602,0.5295283324901148,1.2913574338931246,0.9821489149379831,0.28491987276447384,0.7293075437347369
0.0675,1.7102049065804128,1.0,2986.3811717194512,0.5321673319206155,1.2909102634811704,0.9823007463729472,0.28488160607637736,0.7301378144174617
0.068,1.7092937949590676,1.0,2990.4716137875635,0.5347915263390945,1.290463260349149,0.9824495160166496,0.2848433393882808,0.7309664999596379
0.0685,1.7083826833377227,1.0,2994.545773970485,0.5374009971988163,1.2900164228052864,0.9825953056517721,0.28480507270018435,0.7317936049209992
0.069,1.7074715717163773,1.0,2998.6038083944873,0.5399958259530452,1.2895697491578098,0.9827381943102005,0.2847668060120878,0.7326191338414642
0.0695,1.7065604600950324,1.0,3002.6458738945557,0.5425760940550454,1.2891232377149453,0.9828782583846443,0.28472853932399134,0.7334430912411583
0.07,1.7056493484736872,1.0,3006.6721280071724,0.5451418829580814,1.2886768867849199,0.9830155717349892,0.28469027263589486,0.734265481620429
0.07050000000000001,1.704738236852342,1.0,3010.682728964952,0.5476932741154175,1.28823069467596,0.983150205789671,0.2846520059477984,0.7350863094598644
0.07100000000000001,1.7038271252309969,1.0,3014.6778356904124,0.550230348980318,1.2877846596962923,0.9832822296423321,0.28461373925970185,0.7359055792203101
0.07150000000000001,1.7029160136096517,1.0,3018.657607790153,0.5527531890060473,1.2873387801541432,0.9834117101440126,0.28457547257160537,0.7367232953428858
