Time [s],Phi [rad],STIM [ ],Fsee [N],Gamma [ ],Lcerel [ ],q [ ],Lmtc [m],fisomrel [ ]
0.0,1.8,1.0,19.270948644272433,0.0011658869688169014,1.3791962359560717,0.005348674249239422,0.288653,0.5414866538161582
0.0005,1.79999375,1.0,19.914063852096863,0.006768556573717976,1.3791244139006447,0.016458140404976822,0.2886527375,0.5416603277566732
0.001,1.799975,1.0,24.118417030714614,0.012339799632119227,1.378689944173492,0.04188296814883769,0.28865195,0.542710223794252
0.0015,1.79994375,1.0,35.55156647032208,0.01787979242202935,1.3776771857888217,0.07902424296681995,0.2886506375,0.5451528805313643
0.002,1.7999,1.0,61.92261351977761,0.02338871023289925,1.3758466208001896,0.12458621092575765,0.2886488,0.5495513955136432
0.0025,1.79984375,1.0,110.03632592204875,0.02886672737063838,1.3733321350712948,0.17524295097017867,0.28864643749999996,0.5555584085558306
0.003,1.7997750000000001,1.0,177.08330118109384,0.03431401716373102,1.3706251686881612,0.22824172692143954,0.28864354999999997,0.5619801796392604
0.0035,1.79969375,1.0,255.53643844697814,0.03973075196720211,1.3680447673730138,0.2814836838263944,0.2886401375,0.5680581926318372
0.004,1.7996,1.0,340.24738809374577,0.04511710316951413,1.3656657259393088,0.3334193812924526,0.2886362,0.5736242884989742
0.0045000000000000005,1.7994937500000001,1.0,428.57417465987817,0.050473241210171875,1.3634748410012463,0.38298965645716676,0.2886317375,0.5787182396655572
0.005,1.799375,1.0,518.9936813223494,0.055799335493335565,1.361446265384733,0.42955097998031744,0.28862675,0.5834075167073633
0.0055,1.79924375,1.0,610.4837214999989,0.06109555473826733,1.3595572296514669,0.47278022975186335,0.2886212375,0.5877506333079157
0.006,1.7991000000000001,1.0,702.1504525257353,0.06636206625382882,1.3577920809867294,0.5125852169202927,0.2886152,0.591788350711689
0.006500000000000001,1.79894375,1.0,793.3433244971677,0.07159903684735928,1.3561370862964122,0.549026278190829,0.2886086375,0.595556045166779
0.007,1.798775,1.0,883.4730470774199,0.07680663216694421,1.3545821609714233,0.5822600828515212,0.28860155,0.5990800099516445
0.0075,1.79859375,1.0,972.0731575289243,0.08198501694209535,1.3531185715428449,0.6124968416114772,0.2885939375,0.6023828904066988
0.008,1.7984,1.0,1058.77132454028,0.08713435526929303,1.3517387429207584,0.6399717406072253,0.2885858,0.6054842370169792
0.0085,1.79819375,1.0,1143.2530133324033,0.0922548096722093,1.350436298311099,0.6649262210615688,0.2885771375,0.6084005128380565
0.009000000000000001,1.797975,1.0,1225.2968161296799,0.09734654215393762,1.3492051804741656,0.6875957329229047,0.28856795,0.6111471362563949
0.0095,1.79774375,1.0,1304.7552379230092,0.10240971465248529,1.3480397064801501,0.7082029379349204,0.2885582375,0.6137384015089635
0.01,1.7975,1.0,1381.4853345618571,0.10744448660240574,1.3469352742380272,0.7269544954410581,0.288548,0.6161859550044162
0.0105,1.79724375,1.0,1455.4052090149075,0.11245101712511088,1.3458874126614946,0.7440390863704146,0.2885372375,0.618500949497248
0.011,1.796975,1.0,1526.4771666617128,0.11742946477544826,1.3448918911216328,0.7596273787133061,0.28852595000000003,0.6206938247402545
0.0115,1.79669375,1.0,1594.7052589842822,0.12237998794389583,1.3439446519358296,0.7738726976989636,0.2885141375,0.6227744783314447
0.012,1.7964,1.0,1660.0828811510153,0.12730274255012322,1.3430423428303013,0.7869123967282524,0.28850180000000003,0.6247511193415116
0.0125,1.79609375,1.0,1722.6296140843997,0.1321978839916954,1.3421817772760947,0.7988689425951507,0.2884889375,0.6266314773602459
0.013000000000000001,1.7957750000000001,1.0,1782.3931503014796,0.1370655672614983,1.3413598579284147,0.8098513033740156,0.28847555,0.6284229827649634
0.0135,1.79544375,1.0,1839.441532111866,0.14190594722665195,1.3405736197726423,0.8199563640374765,0.2884616375,0.6301326834022949
0.014,1.7951000000000001,1.0,1893.8326223937327,0.1467191768194431,1.339820521657647,0.829270348161672,0.2884472,0.6317666232790964
0.0145,1.79474375,1.0,1945.6231842428201,0.15150540759686604,1.3390982919112897,0.837869958682174,0.2884322375,0.6333301926748909
0.015,1.794375,1.0,1994.8905370991506,0.15626479111591512,1.338404658861431,0.8458233833548906,0.28841675,0.6348287208573935
0.0155,1.79399375,1.0,2041.7108721433608,0.16099747779755963,1.3377375600073942,0.8531913609097357,0.2884007375,0.6362670298477417
0.016,1.7936,1.0,2086.193256161378,0.16570361904764985,1.3370947599310732,0.8600279399677947,0.2883842,0.6376502641167479
0.0165,1.7931937500000001,1.0,2128.406874824175,0.17038336268012383,1.3364745931697848,0.8663814947244485,0.2883671375,0.6389822964005989
0.017,1.792775,1.0,2168.425920505066,0.17503685608695146,1.3358754654169223,0.8722952450651436,0.28834955,0.6402668103666003
0.0175,1.7923437500000001,1.0,2206.3353133052274,0.17966424666010264,1.3352957823658789,0.8778078445662436,0.2883314375,0.6415074564019554
0.018000000000000002,1.7919,1.0,2242.220049053893,0.1842656807641272,1.334734047359616,0.882953942101594,0.2883128,0.6427076452112573
0.0185,1.79144375,1.0,2276.173862885374,0.18884130557506756,1.334188762952275,0.8877646236096864,0.2882936375,0.6438707612130998
0.019,1.790975,1.0,2308.2712854394094,0.19339126525406578,1.333658699646667,0.8922678877577049,0.28827395,0.6449995923153546
0.0195,1.79049375,1.0,2338.583421363748,0.19791570279597942,1.3331427252678014,0.8964889562436956,0.2882537375,0.646096698345479
0.02,1.79,1.0,2367.1870660689965,0.20241476119566618,1.3326397076406873,0.9004505654396303,0.288233,0.6471646202191266
0.0205,1.78949375,1.0,2394.1621006485734,0.20688858310874975,1.3321485352037288,0.904173249244114,0.2882117375,0.6482058372513309
0.021,1.788975,1.0,2419.579982420232,0.21133730974652626,1.331668223209569,0.9076756052244127,0.28818995000000003,0.6492225437277028
0.021500000000000002,1.78844375,1.0,2443.527373275741,0.21576108475725925,1.3311976796072713,0.9109744581991515,0.2881676375,0.6502171461184926
0.022,1.7879,1.0,2466.061012287424,0.22016004627611072,1.330736135700917,0.9140851357401804,0.2881448,0.6511913537679355
0.0225,1.78734375,1.0,2487.240588693361,0.22453433243824286,1.330282822794588,0.9170215642600565,0.28812143749999997,0.6521468653279299
0.023,1.786775,1.0,2507.128498853471,0.22888408137881766,1.329836972192365,0.9197964164880165,0.28809755,0.6530853691803986
0.0235,1.78619375,1.0,2525.789616306412,0.23320943123299726,1.32939781519833,0.9224212416790262,0.28807313749999996,0.6540085438219608
0.024,1.7856,1.0,2543.28245397853,0.23751051811992485,1.3289646642957715,0.9249065943949715,0.2880482,0.6549178878978645
0.0245,1.78499375,1.0,2559.671543331567,0.24178748078364973,1.3285367937381563,0.9272621159814683,0.2880227375,0.6558149718120286
0.025,1.784375,1.0,2575.01138747906,0.24604045498109647,1.3281135886781996,0.9294966484860769,0.28799675,0.6567011253976826
0.025500000000000002,1.78374375,1.0,2589.3468398227938,0.2502695735149523,1.3276945385086074,0.931618311642548,0.2879702375,0.6575774535447412
0.026000000000000002,1.7831000000000001,1.0,2602.724022008098,0.25447496918790447,1.3272791326220852,0.93363455692589,0.2879432,0.6584450553256874
0.0265,1.78244375,1.0,2615.190215868094,0.25865677480264015,1.326866860411339,0.9355522315616417,0.2879156375,0.6593050241225582
0.027,1.781775,1.0,2626.7937611493935,0.2628151231618465,1.326457211269074,0.9373776356236391,0.28788755,0.6601584477373061
0.0275,1.7810937500000001,1.0,2637.578980878322,0.26695014559202296,1.3260497206191058,0.939116579347155,0.2878589375,0.6610063127685047
0.028,1.7804,1.0,2647.586776149589,0.27106197319852,1.3256439631539418,0.9407744275323477,0.2878298,0.6618495193284253
0.0285,1.77969375,1.0,2656.8705389408033,0.27515074032962744,1.3252394051678653,0.9423561199982696,0.2878001375,0.6626891879019552
0.029,1.778975,1.0,2665.4615625505357,0.27921657400963934,1.3248357229701224,0.9438662505185204,0.28776995,0.6635259983497381
0.029500000000000002,1.7782437500000001,1.0,2673.3916597370103,0.28325960126284955,1.3244325928699598,0.9453090707743417,0.2877392375,0.6643606271800857
0.03,1.7775,1.0,2680.693117080642,0.2872799491135521,1.3240296911766245,0.9466885202014466,0.287708,0.6651937475637161
0.0305,1.77674375,1.0,2687.3986516697396,0.291277744586041,1.3236266941993624,0.9480082528786675,0.2876762375,0.6660260293418124
0.031,1.775975,1.0,2693.541370109118,0.2952531147046102,1.3232232782474203,0.9492716617837466,0.28764395,0.666858139027394
0.0315,1.7751937500000001,1.0,2699.154729851607,0.29920618649355357,1.322819119630045,0.9504819007026067,0.2876111375,0.6676907398000087
0.032,1.7744,1.0,2704.2664452508748,0.30313708223570857,1.3224139499740564,0.9516419093364004,0.2875778,0.6685243777491285
0.0325,1.77359375,1.0,2708.91098629488,0.3070459324384774,1.3220074416364165,0.9527544209201138,0.2875439375,0.6693597178914854
0.033,1.772775,1.0,2713.110548326524,0.3109328589879945,1.3215993811893094,0.9538219943115226,0.28750955,0.6701971875594811
0.0335,1.7719437500000002,1.0,2716.886673619253,0.3147979830913223,1.3211895628667931,0.9548470178071212,0.2874746375,0.6710371961270356
0.034,1.7711000000000001,1.0,2720.2610713996223,0.31864142595552314,1.3207777809029253,0.9558317219032471,0.2874392,0.671880150762101
0.0345,1.7702437500000001,1.0,2723.255600582868,0.3224633087876594,1.3203638295317641,0.9567781915811574,0.2874032375,0.672726456402241
0.035,1.7693750000000001,1.0,2725.892253446138,0.32626375279479347,1.3199475029873677,0.9576883774985991,0.28736675,0.6735765157275138
0.035500000000000004,1.76849375,1.0,2728.193140241601,0.3300428791839877,1.3195285955037934,0.9585641061966328,0.2873297375,0.6744307291306543
0.036000000000000004,1.7676,1.0,2730.169799081964,0.33380079958709474,1.3191069983408612,0.9594070971987992,0.2872922,0.6752892972254005
0.0365,1.76669375,1.0,2731.851514044856,0.3375376432010039,1.318682442221955,0.9602189509770362,0.2872541375,0.6761527455977371
0.037,1.765775,1.0,2733.2615393085644,0.34125353408242315,1.3182547134402525,0.961001174195597,0.28721555,0.6770214839702258
0.0375,1.76484375,1.0,2734.412339159942,0.3449485863494517,1.3178236968886765,0.9617551896648712,0.2871764375,0.6778957196939244
0.038,1.7639,1.0,2735.316426752268,0.3486229141201888,1.3173892774601497,0.962482334937942,0.28713679999999997,0.6787756586521816
0.0385,1.76294375,1.0,2735.986358236303,0.35227663151273386,1.316951340047594,0.9631838683506908,0.28709663750000003,0.679661505236079
0.039,1.761975,1.0,2736.4347271838824,0.35590985264518604,1.316509769543932,0.9638609745708405,0.28705595,0.6805534623190275
0.0395,1.7609937500000001,1.0,2736.6741593067263,0.3595226916356447,1.3160644508420867,0.9645147697007216,0.2870147375,0.6814517312305172
0.04,1.76,1.0,2736.71730746806,0.36311526260220917,1.3156152688349798,0.9651463059740473,0.286973,0.6823565117290288
0.0405,1.7589937500000001,1.0,2736.5768469882605,0.3666876796629786,1.315162108415534,0.9657565760829653,0.2869307375,0.6832680019740918
0.041,1.757975,1.0,2736.2654712441386,0.37024005693605233,1.314704854476672,0.9663465171680734,0.28688795,0.6841863984975023
0.0415,1.75694375,1.0,2735.7958875623094,0.3737725085395297,1.3142433919113161,0.9669170145009067,0.2868446375,0.6851118961736957
0.042,1.7559,1.0,2735.180890159625,0.37728514826894544,1.3137776049154533,0.9674689047736552,0.28680079999999997,0.686044689583934
0.0425,1.75484375,1.0,2734.4298173294997,0.38077808620288744,1.3133074091294838,0.9680029813514172,0.2867564375,0.6869849087518183
0.043000000000000003,1.753775,1.0,2733.549447305968,0.3842514318361697,1.3128327434968774,0.9685199968919038,0.28671155,0.6879326358297733
0.043500000000000004,1.75269375,1.0,2732.547768004751,0.3877052944894271,1.3123535360187941,0.9690206632432604,0.28666613750000003,0.6888879736497318
0.044,1.7516,1.0,2731.432769991745,0.3911397834832942,1.311869714696395,0.9695056549095706,0.2866202,0.689851023772925
0.0445,1.75049375,1.0,2730.2384436141197,0.3945549933913756,1.3113809712426607,0.9699755908923917,0.2865737375,0.6908223557014582
0.045,1.749375712832786,1.0,2728.974558011745,0.3979510533772047,1.3108875392501445,0.9704311049505787,0.286526779938977,0.6918014602646362
0.0455,1.748254934304052,1.0,2728.0565023788686,0.4013280729005805,1.3103897274890215,0.9708728012413859,0.2864797072407702,0.6927876819811575
0.046,1.7471341557753182,1.0,2727.59338411565,0.40468615533227054,1.3098877803060716,0.9713012477252304,0.28643263454256335,0.6937804962276019
0.0465,1.7460133772465842,1.0,2727.558214942031,0.4080254040430425,1.3093819420480746,0.9717169839709431,0.28638556184435654,0.6947793811688834
0.047,1.7448925987178503,1.0,2727.92411232521,0.41134592240366397,1.30887245706181,0.9721205228506034,0.2863384891461497,0.6957838178207919
0.0475,1.7437718201891164,1.0,2728.664279061807,0.4146478137849027,1.3083595696940575,0.9725123521180375,0.28629141644794287,0.6967932901087235
0.048,1.7426510416603824,1.0,2729.751984183163,0.4179311815575262,1.3078435242915971,0.9728929358799694,0.28624434374973606,0.6978072849226048
0.0485,1.7415302631316485,1.0,2731.1605451850523,0.4211961290923021,1.3073245652012084,0.9732627159680326,0.28619727105152926,0.6988252921680108
0.049,1.7404094846029148,1.0,2732.863311580334,0.424442759759998,1.3068029367696712,0.9736221132191717,0.28615019835332245,0.6998468048134731
0.0495,1.7392887060741808,1.0,2734.83364977631,0.4276711769313817,1.3062788833437653,0.9739715286713139,0.2861031256551156,0.7008713189339804
0.05,1.738167927545447,1.0,2737.044929275121,0.4308814839772207,1.30575264927027,0.9743113446806272,0.2860560529569088,0.7018983337506737
0.0505,1.737047149016713,1.0,2739.470510197933,0.4340737842682826,1.3052244788959655,0.9746419259661535,0.2860089802587019,0.7029273516667294
0.051000000000000004,1.735926370487979,1.0,2742.08759960129,0.43724817843767977,1.3046945814945785,0.9749636179940878,0.2859619075604951,0.7039579464535831
0.051500000000000004,1.734805591959245,1.0,2744.8954632482883,0.44040475679939356,1.3041629661930767,0.9752767365867374,0.2859148348622883,0.7049900828974148
0.052000000000000005,1.7336848134305112,1.0,2747.8543958176806,0.44354363969689065,1.3036299953243622,0.9755816092113592,0.2858677621640815,0.7060230418983667
0.0525,1.7325640349017772,1.0,2750.955702836465,0.44666492286265413,1.3030957497979485,0.9758785284191844,0.28582068946587463,0.7070566532347557
0.053,1.7314432563730433,1.0,2754.1906809563384,0.449768702029167,1.3025603105233496,0.9761677739413234,0.2857736167676678,0.7080907477551475
0.0535,1.7303224778443094,1.0,2757.550615739211,0.4528550729289124,1.302023758410079,0.976449613362444,0.28572654406946096,0.7091251573847268
0.054,1.7292016993155754,1.0,2761.0267795887967,0.4559241312943733,1.3014861743676505,0.9767243027535532,0.28567947137125416,0.7101597151312458
0.0545,1.7280809207868415,1.0,2764.6104298265445,0.45897597285803277,1.3009476393055777,0.9769920872666846,0.28563239867304735,0.711194255090561
0.055,1.7269601422581076,1.0,2768.2928069132463,0.4620106933523738,1.3004082341333745,0.9772532016940876,0.28558532597484054,0.7122286124517464
0.0555,1.7258393637293736,1.0,2772.065132815422,0.4650283885098795,1.2998680397605544,0.977507870994314,0.2855382532766337,0.7132626235017938
0.056,1.7247185852006397,1.0,2775.9186095173427,0.4680291540630328,1.2993271370966313,0.9777563107874182,0.2854911805784269,0.7142961256298932
0.0565,1.7235978066719058,1.0,2779.844417677304,0.4710130857443169,1.298785607051119,0.9779987278213247,0.28544410788022,0.7153289573312956
0.057,1.7224770281431718,1.0,2783.833715430297,0.4739802792862147,1.298243530533531,0.9782353204112608,0.2853970351820132,0.7163609582107615
0.0575,1.721356249614438,1.0,2787.8776373345354,0.4769308304212093,1.297700988453381,0.978466278854014,0.2853499624838064,0.7173919689855865
0.058,1.720235471085704,1.0,2791.972353924352,0.4798648257204144,1.2971580162400158,0.978691782477569,0.2853028897855996,0.7184219176795232
0.0585,1.71911469255697,1.0,2796.1117810522114,0.48278236326926266,1.2966146694791971,0.9789120056003465,0.2852558170873927,0.719450694673937
0.059000000000000004,1.717993914028236,1.0,2800.2873564351985,0.4856835442029849,1.296071025840216,0.9791271171346,0.2852087443891859,0.7204781494193948
0.059500000000000004,1.7168731354995024,1.0,2804.4963346791833,0.48856845718018854,1.2955271106055106,0.9793372755018069,0.2851616716909791,0.7215042311771629
0.06,1.7157523569707684,1.0,2808.735962446561,0.49143719085948107,1.2949829490575193,0.9795426329964086,0.28511459899277225,0.7225288895578093
0.0605,1.7146315784420345,1.0,2813.003478311494,0.49428983389946995,1.2944385664786804,0.979743336070934,0.28506752629456544,0.723552074521619
0.061,1.7135107999133006,1.0,2817.296112628393,0.4971264749587626,1.2938939881514318,0.9799395256057477,0.28502045359635864,0.7245737363789735
0.0615,1.7123900213845666,1.0,2821.611087415207,0.4999472026959665,1.293349239358212,0.9801313371643579,0.28497338089815183,0.7255938257906839
0.062,1.7112692428558327,1.0,2825.9456162509796,0.5027521057696891,1.2928043453814593,0.9803189012351681,0.28492630819994497,0.726612293768288
0.0625,1.7101484643270988,1.0,2830.296904187449,0.5055412728385378,1.2922593315036115,0.9805023434604796,0.28487923550173816,0.7276290916743052
0.063,1.7090276857983648,1.0,2834.6621476742507,0.5083147925611201,1.2917142230071073,0.9806817848535175,0.2848321628035313,0.7286441712224481
0.0635,1.707906907269631,1.0,2839.038534499493,0.5110727535960434,1.2911690451743845,0.9808573420041831,0.2847850901053245,0.7296574844777974
0.064,1.706786128740897,1.0,2843.4232437431715,0.5138152446019153,1.2906238232878815,0.9810291272742037,0.2847380174071177,0.7306689838569331
0.0645,1.705665350212163,1.0,2847.813445745688,0.5165423542373431,1.2900785826300367,0.9811972489822948,0.2846909447089109,0.731678622128026
0.065,1.704544571683429,1.0,2852.2108722501575,0.5192541448597584,1.2895333078456799,0.9813618077276509,0.284643872010704,0.7326864274487843
0.0655,1.7034237931546952,1.0,2856.6097199600254,0.5219507339536456,1.288988050576502,0.9815229076718295,0.2845967993124972,0.7336923042856925
0.066,1.7023030146259612,1.0,2861.0083075397965,0.5246322093073609,1.2884428257093896,0.981680645466479,0.28454972661429034,0.7346962254361693
0.0665,1.7011822360972273,1.0,2865.4059546724825,0.5272986521202105,1.2878976392050427,0.9818351135168313,0.28450265391608354,0.7356981802938872
0.067,1.7000614575684934,1.0,2869.8019789865793,0.5299501435915012,1.2873524970241612,0.9819864010349195,0.28445558121787673,0.7366981583353935
0.0675,1.6989406790397594,1.0,2874.1956960616376,0.532586764920539,1.2868074051274456,0.9821345941727235,0.2844085085196699,0.7376961491200934
0.068,1.6978199005110255,1.0,2878.5864194348464,0.5352085973066305,1.2862623694755952,0.9822797761488696,0.28436143582146306,0.7386921422902353
0.0685,1.6966991219822916,1.0,2882.973460607704,0.537815721949082,1.2857173960293107,0.9824220273692368,0.28431436312325625,0.7396861275708866
0.069,1.6955783434535578,1.0,2887.3561290540806,0.5404082200471999,1.2851724907492914,0.9825614255418046,0.28426729042504945,0.740678094769915
0.0695,1.6944575649248237,1.0,2891.733732228497,0.5429861728002906,1.284627659596238,0.9826980457860518,0.2842202177268426,0.7416680337779593
0.07,1.69333678639609,1.0,2896.105575576131,0.5455496614076605,1.28408290853085,0.9828319607372031,0.2841731450286358,0.7426559345684078
0.07050000000000001,1.692216007867356,1.0,2900.4709625423025,0.548098767068616,1.2835382435138276,0.9829632406455989,0.28412607233042897,0.7436417871973642
0.07100000000000001,1.691095229338622,1.0,2904.829194583958,0.5506335709824635,1.2829936705058707,0.9830919534714466,0.2840789996322221,0.7446255818036184
0.07150000000000001,1.6899744508098882,1.0,2909.17957118123,0.5531541543485092,1.2824491954676793,0.9832181649751981,0.2840319269340153,0.7456073086086119
0.07200000000000001,1.6888536722811542,1.0,2913.521389850064,0.5556605983660597,1.2819048243599536,0.9833419388037836,0.2839848542358085,0.7465869579164022
0.0725,1.6877328937524203,1.0,2917.8539461553173,0.5581529842344214,1.2813605631433935,0.9834633365729187,0.28393778153760163,0.747564520113624
