Time [s],Phi [rad],STIM [ ],Fsee [N],Gamma [ ],Lcerel [ ],q [ ],Lmtc [m],fisomrel [ ]
0.0,1.8,1.0,17.967687459201162,2.5070489614621133e-05,1.3793396869217953,0.0050001663036289305,0.288653,0.5411396745091656
0.0005,1.79999375,1.0,18.282056434512974,0.005634139172794029,1.3793017977405353,0.012982405657821647,0.2886527375,0.5412313336441266
0.001,1.799975,1.0,21.63488701717751,0.011211745415508139,1.3789366166456116,0.035687150314589036,0.28865195,0.5421142875165076
0.0015,1.79994375,1.0,31.109507714689,0.016758065698047744,1.3780427738286263,0.07070923771903134,0.2886506375,0.544271878686091
0.002,1.7999,1.0,53.670031484121964,0.02227327550902608,1.3763624481420944,0.11484517674394946,0.2886488,0.5483141187132949
0.0025,1.79984375,1.0,97.26687095307558,0.027757549353051122,1.3739280414191088,0.16471320432289369,0.28864643749999996,0.5541384561239452
0.003,1.7997750000000001,1.0,161.15117026848202,0.03321106075830083,1.3712071216178958,0.21742314209513572,0.28864354999999997,0.560603548661214
0.0035,1.79969375,1.0,237.90168369513069,0.0386339822762255,1.3685780099532507,0.2707548083696886,0.2886401375,0.5668056459786397
0.004,1.7996,1.0,321.6992595253572,0.044026485492301315,1.366149935785033,0.32305321990632624,0.2886362,0.5724943384075771
0.0045000000000000005,1.7994937500000001,1.0,409.508639460051,0.049388741031223045,1.3639171604230942,0.37316495462283295,0.2886317375,0.5776922842780354
0.005,1.799375,1.0,499.65938199154425,0.054720918548022204,1.3618531181064126,0.420369504947043,0.28862675,0.5824691355761054
0.0055,1.79924375,1.0,591.0385940813519,0.060023186774952816,1.3599339867714715,0.4642866927533981,0.2886212375,0.5868862409655428
0.006,1.7991000000000001,1.0,682.766677830251,0.06529571346613758,1.3581418968267907,0.5047838037085867,0.2886152,0.5909897376827438
0.006500000000000001,1.79894375,1.0,774.1303717451106,0.07053866544806672,1.3564630014219978,0.5418956860131434,0.2886086375,0.594815461151852
0.007,1.798775,1.0,864.5351181321809,0.07575220862891759,1.3548863681809817,0.5757632569305398,0.28860155,0.5983917910692369
0.0075,1.79859375,1.0,953.4882681669002,0.08093650792414843,1.3534030102687105,0.6065885676574456,0.2885939375,0.6017420673884366
0.008,1.7984,1.0,1040.6003840347887,0.08609172744363411,1.3520050846280205,0.6346035070523058,0.2885858,0.6048865446301663
0.0085,1.79819375,1.0,1125.5546040635584,0.09121803020580678,1.3506858388320377,0.660049308568427,0.2885771375,0.6078426098299428
0.009000000000000001,1.797975,1.0,1208.1135497346404,0.0963155785180818,1.3494391197434719,0.6831633045597313,0.28856795,0.6106259617120776
0.0095,1.79774375,1.0,1288.0905735695337,0.10138453335804284,1.3482594989673673,0.7041712998107639,0.2885582375,0.6132503870503773
0.01,1.7975,1.0,1365.373028860659,0.10642505577300343,1.3471417379845072,0.7232831400564745,0.288548,0.6157289979244125
0.0105,1.79724375,1.0,1439.8651714579369,0.11143730488021218,1.3460813723331364,0.7406912138747069,0.2885372375,0.618072971058715
0.011,1.796975,1.0,1511.5094968628066,0.11642143890492662,1.3450742659750279,0.7565698740719425,0.28852595000000003,0.620292573220012
0.0115,1.79669375,1.0,1580.2925177775114,0.12137761566147848,1.3441164342188803,0.7710759219458033,0.2885141375,0.62239757557552
0.012,1.7964,1.0,1646.2326618307156,0.12630599275070606,1.3432041090474323,0.7843497174779375,0.28850180000000003,0.6243971286127494
0.0125,1.79609375,1.0,1709.3426866987977,0.13120672556431964,1.3423340969018935,0.7965166462091434,0.2884889375,0.6262989990381536
0.013000000000000001,1.7957750000000001,1.0,1769.6546108511716,0.13607996876925488,1.3415034013559546,0.80768834794564,0.28847555,0.6281104172905414
0.0135,1.79544375,1.0,1827.2245904747806,0.1409258765779838,1.3407091168085223,0.8179640764328839,0.2884616375,0.629838321822566
0.014,1.7951000000000001,1.0,1882.1288050279265,0.14574460326310554,1.339948435239122,0.8274320431321696,0.2884472,0.6314893538854353
0.0145,1.79474375,1.0,1934.431443743182,0.1505363010838718,1.3392189569729616,0.8361707645168492,0.2884322375,0.6330691939737757
0.015,1.794375,1.0,1984.194103043174,0.15530112085694298,1.3385185395796908,0.8442501181284475,0.28841675,0.6345829029363308
0.0155,1.79399375,1.0,2031.4968749868972,0.16003921339897947,1.3378450406289597,0.8517322652324751,0.2884007375,0.6360354863597468
0.016,1.7936,1.0,2076.4214550504325,0.16475072847616087,1.3371964770818914,0.8586726113065319,0.2883842,0.6374315556236018
0.0165,1.7931937500000001,1.0,2119.0708040140953,0.16943581684713802,1.33657079896252,0.8651205373656421,0.2883671375,0.6387758204264381
0.017,1.792775,1.0,2159.5188223867904,0.1740946259102122,1.3359663934901826,0.8711202577865279,0.28834955,0.6400720103482136
0.0175,1.7923437500000001,1.0,2197.8393519546526,0.17872730221763786,1.335381759475085,0.8767113341833694,0.2883314375,0.6413235823067482
0.018000000000000002,1.7919,1.0,2234.1158961570263,0.1833339923216694,1.3348153957274311,0.8819291912690099,0.2883128,0.6425339629588128
0.0185,1.79144375,1.0,2268.4348296832577,0.18791484205654035,1.3342658605765678,0.886805614896756,0.2882936375,0.6437064236384137
0.019,1.790975,1.0,2300.885892323527,0.19246999742265264,1.333731757241985,0.891369169871753,0.28827395,0.6448441141842375
0.0195,1.79049375,1.0,2331.551150148064,0.1969996031229742,1.3332118340775745,0.8956455919683314,0.2882537375,0.6459498521385809
0.02,1.79,1.0,2360.4967134007634,0.201503801128516,1.332705054886156,0.8996581227175605,0.288233,0.6470259772104587
0.0205,1.78949375,1.0,2387.7937371829103,0.2059827334102892,1.33221038347055,0.9034277401086789,0.2882117375,0.6480748122268816
0.021,1.788975,1.0,2413.518001693644,0.21043654193930472,1.3317267836335764,0.9069734098395237,0.28818995000000003,0.6490986639672269
0.021500000000000002,1.78844375,1.0,2437.741271722612,0.21486536717632645,1.331253298475706,0.9103123218256327,0.2881676375,0.650099656406138
0.022,1.7879,1.0,2460.542496553938,0.21926935141442774,1.330788937767836,0.9134600608297007,0.2881448,0.6510799701863099
0.0225,1.78734375,1.0,2481.9878947256666,0.22364863430960139,1.3303328654160878,0.9164308128653175,0.28812143749999997,0.6520414477869798
0.023,1.786775,1.0,2502.1328250105203,0.22800335283984652,1.3298843756108714,0.9192375069150444,0.28809755,0.6529856464535253
0.0235,1.78619375,1.0,2521.0350520529514,0.23233364398316228,1.3294427625425957,0.9218919219165074,0.28807313749999996,0.6539141141846393
0.024,1.7856,1.0,2538.7545448929823,0.2366396447175478,1.3290073204016712,0.9244048049452025,0.2880482,0.6548283900577552
0.0245,1.78499375,1.0,2555.353286535445,0.24092149202100224,1.3285773433785069,0.9267859758291879,0.2880227375,0.655730004522713
0.025,1.784375,1.0,2570.8831025098048,0.24517931964012107,1.3281522379789077,0.9290444376420521,0.28799675,0.6566202446091656
0.025500000000000002,1.78374375,1.0,2585.4098706736672,0.24941326693156135,1.327731293764502,0.9311884225777324,0.2879702375,0.6575006348451711
0.026000000000000002,1.7831000000000001,1.0,2598.9789021180536,0.2536234668607751,1.327314006107615,0.933225514490924,0.2879432,0.6583722621357915
0.0265,1.78244375,1.0,2611.631778776003,0.2578100509063517,1.3268999158434391,0.9351626869406005,0.2879156375,0.6592361129513788
0.027,1.781775,1.0,2623.411100504797,0.26197315054688053,1.3264885638071682,0.9370063544320573,0.28788755,0.6600931686962139
0.0275,1.7810937500000001,1.0,2634.3603974030216,0.26611289726095105,1.3260794908339946,0.938762424682614,0.2878589375,0.6609444057954172
0.028,1.7804,1.0,2644.5240468012903,0.27022942252715254,1.3256722377591115,0.9404363453661148,0.2878298,0.6617907957684082
0.0285,1.77969375,1.0,2653.945668207836,0.27432285711516935,1.3252663594911709,0.9420331477246757,0.2878001375,0.6626332760948992
0.029,1.778975,1.0,2662.661094604615,0.2783933283101497,1.3248614889041215,0.9435574918432778,0.28776995,0.6634726180707824
0.029500000000000002,1.7782437500000001,1.0,2670.721218928106,0.2824409718757075,1.324457125693453,0.9450136747665492,0.2877392375,0.6643098647536443
0.03,1.7775,1.0,2678.154344570233,0.28646591329115034,1.3240529823022409,0.9464057021835993,0.287708,0.6651456143527537
0.0305,1.77674375,1.0,2684.989185450574,0.2904682780357858,1.3236487711735598,0.9477372887628434,0.2876762375,0.6659804621104742
0.031,1.775975,1.0,2691.2548295403967,0.29444819158892127,1.323244204750485,0.9490118829562516,0.28764395,0.6668150003036559
0.0315,1.7751937500000001,1.0,2696.9807042201983,0.2984057794298644,1.3228389954760913,0.9502326893984178,0.2876111375,0.6676498182397586
0.032,1.7744,1.0,2702.1965434701942,0.30234116703792263,1.3224328557934537,0.9514026891596583,0.2875778,0.6684855022476974
0.0325,1.77359375,1.0,2706.9323568947307,0.30625447989240345,1.3220254981456472,0.9525246580818642,0.2875439375,0.6693226356634177
0.033,1.772775,1.0,2711.211447779139,0.3101458391795385,1.3216166983868278,0.95360118959576,0.28750955,0.6701616687460339
0.0335,1.7719437500000002,1.0,2715.0621721849448,0.3140153703367845,1.321206188138642,0.9546346992524568,0.2874746375,0.6710031399918472
0.034,1.7711000000000001,1.0,2718.518649197146,0.31786320262991297,1.3207936482763667,0.9556274379552576,0.2874392,0.6718476888569476
0.0345,1.7702437500000001,1.0,2721.598548534842,0.321689454772631,1.3203789110618684,0.9565815233682767,0.2874032375,0.6726956420497813
0.035,1.7693750000000001,1.0,2724.3196633299426,0.32549424547864586,1.3199618087570149,0.9574989363573885,0.28736675,0.6735473244162611
0.035500000000000004,1.76849375,1.0,2726.6998976171703,0.3292776934616648,1.3195421736236734,0.9583815314113096,0.2873297375,0.674403058915364
0.036000000000000004,1.7676,1.0,2728.7572544470695,0.33303991743539496,1.3191198379237108,0.959231046154271,0.2872922,0.6752631665929355
0.0365,1.76669375,1.0,2730.5098246231587,0.3367810361135436,1.3186946339189949,0.9600491100388494,0.2872541375,0.6761279665536921
0.037,1.765775,1.0,2731.975776062936,0.340501168209818,1.3182663938713923,0.9608372522980304,0.28721555,0.6769977759314405
0.0375,1.76484375,1.0,2733.173343782574,0.3442004324379253,1.317834950042771,0.9615969092271893,0.2871764375,0.6778729098574912
0.038,1.7639,1.0,2734.1208205055973,0.3478789475115728,1.3174001346949977,0.9623294308592456,0.28713679999999997,0.6787536814272874
0.0385,1.76294375,1.0,2734.827562342493,0.35153682421495175,1.3169618616855598,0.9630360931923041,0.28709663750000003,0.6796402367245664
0.039,1.761975,1.0,2735.3164030090716,0.35517418760298275,1.3165199228370275,0.9637180888329472,0.28705595,0.6805329669873794
0.0395,1.7609937500000001,1.0,2735.6011647419673,0.3587911528752431,1.316074192119921,0.9643765467933054,0.2870147375,0.6814320952670256
0.04,1.76,1.0,2735.6922536553066,0.36238783186695434,1.3156245747642354,0.9650125335077121,0.286973,0.6823377799901007
0.0405,1.7589937500000001,1.0,2735.6000978862635,0.3659643364133379,1.3151709759999652,0.9656270549323601,0.2869307375,0.6832501782118283
0.041,1.757975,1.0,2735.3351439995627,0.3695207783496154,1.3147133010571057,0.9662210606068686,0.28688795,0.6841694455922818
0.0415,1.75694375,1.0,2734.9078535910753,0.37305726951100826,1.3142514551656512,0.9667954474022253,0.2868446375,0.6850957363720367
0.042,1.7559,1.0,2734.3287000907485,0.3765739217327379,1.3137853435555973,0.967351062982328,0.28680079999999997,0.6860292033472442
0.0425,1.75484375,1.0,2733.608165764794,0.38007084685002596,1.3133148714569383,0.9678887090037364,0.2867564375,0.6869699978441399
0.043000000000000003,1.753775,1.0,2732.7567389161823,0.38354815669809383,1.3128399440996692,0.9684091440758915,0.28671155,0.6879182696929715
0.043500000000000004,1.75269375,1.0,2731.7828768591353,0.38700596007720406,1.3123604851982213,0.9689130875123635,0.28666613750000003,0.6888741303786089
0.044,1.7516,1.0,2730.6889024700085,0.39044435808348477,1.3118764742386786,0.9694012240527764,0.2866202,0.6898375791340907
0.0445,1.75049375,1.0,2729.4958690688936,0.3938634799017659,1.3113877205107667,0.9698741937517176,0.2865737375,0.6908089525354231
0.045,1.7493750000000001,1.0,2728.20883985255,0.39726342996738295,1.3108941785727444,0.9703326112012255,0.28652675,0.6917882963315642
0.0455,1.74824375,1.0,2726.8328783645024,0.4006443127156717,1.3103958029828702,0.9707770596833915,0.2864792375,0.6927756552634543
0.046,1.7471,1.0,2725.3730476544733,0.4040062325819676,1.3098925482994028,0.9712080930642145,0.2864312,0.693771073050071
0.0465,1.7459437500000001,1.0,2723.83440948374,0.4073492940016064,1.3093843690806009,0.971626237555361,0.28638263750000004,0.6947745923743577
0.047,1.744775,1.0,2722.222023575902,0.41067360140992365,1.3088712198847223,0.972031993354215,0.28633355,0.6957862548690164
0.0475,1.74359375,1.0,2720.540946914265,0.41397925924225504,1.3083530552700264,0.9724258361717001,0.28628393750000003,0.6968061011021685
0.048,1.7424,1.0,2718.796233083979,0.4172663719339361,1.307829829794771,0.972808218656535,0.2862338,0.69783417056289
0.0485,1.74119375,1.0,2716.992931660821,0.42053504392030255,1.3073014980172153,0.9731795717238414,0.2861831375,0.6988705016466052
0.049,1.739975,1.0,2715.136087645033,0.42378537963668994,1.3067680144956173,0.9735403057953573,0.28613195,0.6999151316403596
0.0495,1.73874375,1.0,2713.2307409416035,0.42701748351843394,1.306229333788236,0.9738908119578874,0.2860802375,0.70096809670795
0.05,1.7375,1.0,2711.281925886002,0.43023146000087015,1.3056854104533295,0.9742314630460814,0.286028,0.7020294318749345
0.0505,1.73624375,1.0,2709.292858486825,0.43342739381177453,1.3051362155838553,0.9745626135053778,0.2859752375,0.7030991388366167
0.051000000000000004,1.734975,1.0,2707.2707127572858,0.43660541102363304,1.3045816841150695,0.9748846038637557,0.28592195,0.7041772885893751
0.051500000000000004,1.73369375,1.0,2705.2181129912046,0.43976561060404556,1.304021792432088,0.9751977588246898,0.2858681375,0.7052638703009578
0.052000000000000005,1.7324,1.0,2703.13740170711,0.44290808919805874,1.303456519463093,0.975502388412441,0.2858138,0.7063588673320966
0.0525,1.73109375,1.0,2701.0309183612767,0.44603294345071903,1.3028858441362665,0.9757987888505636,0.28575893750000003,0.7074622621870577
0.053,1.729775,1.0,2698.9009992295673,0.44914027000707324,1.3023097453797905,0.9760872432928663,0.28570355000000003,0.7085740365063975
0.0535,1.72844375,1.0,2696.749977298785,0.452230165512168,1.301728202121847,0.9763680225095829,0.2856476375,0.7096941710596869
0.054,1.7271,1.0,2694.5801821682,0.45530272661104976,1.301141193290618,0.9766413855318552,0.2855912,0.7108226457382099
0.0545,1.7257437500000001,1.0,2692.393939960497,0.45835804994876533,1.3005486978142857,0.9769075802573888,0.2855342375,0.7119594395476313
0.055,1.724375,1.0,2690.1935732428296,0.46139623217036124,1.2999506946210322,0.9771668440199338,0.28547675,0.7131045306006387
0.0555,1.72299375,1.0,2687.981400957942,0.4644173699208841,1.2993471626390394,0.9774194041250274,0.2854187375,0.7142578961095551
0.056,1.7216,1.0,2685.759738364456,0.46742155984538064,1.2987380807964892,0.977665478354267,0.2853602,0.7154195123789231
0.0565,1.72019375,1.0,2683.530896987817,0.4704088985888974,1.2981234280215639,0.9779052754402019,0.28530113749999997,0.7165893547980594
0.057,1.718775,1.0,2681.297184580528,0.473379482796481,1.2975031832424455,0.9781389955137808,0.28524155,0.7177673978335839
0.0575,1.71734375,1.0,2679.05733874139,0.4763333650668466,1.2968773581078437,0.9783668284886095,0.2851814375,0.7189535530704947
0.058,1.7159,1.0,2676.816277766416,0.4792706867101773,1.296245907555783,0.978588961206751,0.2851208,0.720147838827967
0.0585,1.71444375,1.0,2674.57600497063,0.4821915525594093,1.2956088132156645,0.9788055712624107,0.2850596375,0.7213502217768699
0.059000000000000004,1.7129750000000001,1.0,2672.3371849452524,0.48509605009424644,1.2949660689840625,0.9790168283631715,0.28499795,0.7225606446048765
0.059500000000000004,1.71149375,1.0,2670.100481168759,0.48798426679439244,1.2943176687575508,0.9792228955196346,0.2849357375,0.7237790492892876
0.06,1.71,1.0,2667.8665560076442,0.49085629013955095,1.2936636064327045,0.9794239293599587,0.284873,0.7250053770948266
0.0605,1.7084937500000001,1.0,2665.636070718557,0.49371220760942575,1.293003875906097,0.9796200804272662,0.2848097375,0.7262395685714428
0.061,1.7069750000000001,1.0,2663.409685450813,0.4965521066837207,1.2923384710743036,0.9798114934609686,0.28474595,0.7274815635521001
0.0615,1.7054437500000001,1.0,2661.188059249891,0.49937607484213936,1.2916673858338976,0.9799983076630002,0.2846816375,0.7287313011505749
0.062,1.7039,1.0,2658.971850062149,0.5021841995643855,1.290990614081454,0.9801806569498781,0.2846168,0.7299887197592421
0.0625,1.70234375,1.0,2656.7617147394208,0.504976568330163,1.290308149713547,0.9803586701914404,0.2845514375,0.7312537570468649
0.063,1.7007750000000001,1.0,2654.5583090455125,0.5077532686191755,1.2896199866267506,0.9805324714370642,0.28448555,0.7325263499563801
0.0635,1.69919375,1.0,2652.3622876630693,0.5105143879111267,1.2889261187176393,0.9807021801301063,0.28441913750000003,0.7338064347026805
0.064,1.6976,1.0,2650.1743042006524,0.5132600136857205,1.2882265398827872,0.9808679113112623,0.2843522,0.7350939467703956
0.0645,1.69599375,1.0,2647.9950112018078,0.5159902334226604,1.287521244018769,0.9810297758114921,0.2842847375,0.7363888209116691
0.065,1.694375,1.0,2645.8250601543477,0.5187051346016502,1.2868102250221587,0.9811878804351221,0.28421675,0.7376909911439372
0.0655,1.69274375,1.0,2643.6651015000025,0.5214048047023939,1.286093476789531,0.9813423281336887,0.2841482375,0.7390003907476982
0.066,1.6911,1.0,2641.515784645903,0.5240893312045949,1.2853709932174595,0.9814932181710544,0.2840792,0.7403169522642878
0.0665,1.6894437500000001,1.0,2639.377757976239,0.5267588015879572,1.284642768202519,0.9816406462802961,0.2840096375,0.7416406074936449
0.067,1.687775,1.0,2637.2516688645574,0.5294133033321844,1.2839087956412836,0.981784704812826,0.28393955,0.7429712874920787
0.0675,1.68609375,1.0,2635.1357069186397,0.5320528831829185,1.2831690921577472,0.9819254812671478,0.2838689375,0.7443088815260117
0.068,1.6844000000000001,1.0,2633.030889283911,0.5346776543598124,1.2824236482352795,0.9820630632532045,0.2837978,0.7456533256297038
0.0685,1.68269375,1.0,2630.9386405579558,0.5372877243999971,1.2816724505702342,0.9821975347743873,0.2837261375,0.7470045618295886
0.069,1.680975,1.0,2628.858852637041,0.5398831710622396,1.2809155000343175,0.9823289756863677,0.28365395,0.7483625058688437
0.0695,1.67924375,1.0,2626.7914176437125,0.5424640721053073,1.280152797499236,0.9824574631286888,0.28358123749999997,0.7497270728742096
0.07,1.6775,1.0,2624.7362279251092,0.5450305052879678,1.2793843438366956,0.9825830716341833,0.283508,0.7510981773563107
0.07050000000000001,1.67574375,1.0,2622.69317605052,0.5475825483689881,1.278610139918403,0.9827058732332546,0.2834342375,0.752475733209974
0.07100000000000001,1.673975,1.0,2620.6621548096005,0.5501202791071356,1.2778301866160648,0.9828259375533004,0.28335995,0.7538596537145491
0.07150000000000001,1.67219375,1.0,2618.6430572103527,0.5526437752611776,1.2770444848013869,0.9829433319135298,0.2832851375,0.7552498515342287
0.07200000000000001,1.6704,1.0,2616.635776476989,0.5551531145898813,1.2762530353460757,0.9830581214154243,0.2832098,0.7566462387183669
0.0725,1.66859375,1.0,2614.6402060480073,0.5576483748520141,1.2754558391218378,0.983170369029061,0.2831339375,0.7580487267017991
0.073,1.6667750000000001,1.0,2612.6562395742835,0.5601296338063434,1.2746528970003794,0.9832801356755202,0.28305755,0.7594572263051625
0.0735,1.66494375,1.0,2610.683770917019,0.5625969692116364,1.2738442098534069,0.9833874803055759,0.2829806375,0.7608716477352145
0.074,1.6631,1.0,2608.722694145772,0.5650504588266603,1.2730297785526263,0.9834924599748577,0.2829032,0.7622919005851525
0.0745,1.6612437500000001,1.0,2606.77290353663,0.5674901804101826,1.2722096039697446,0.9835951299156694,0.2828252375,0.7637178938349325
0.075,1.659375,1.0,2604.8342935703376,0.5699162117209705,1.2713836869764676,0.9836955436056274,0.28274675,0.7651495358515901
