Time [s],Phi [rad],STIM [ ],Fsee [N],Gamma [ ],Lcerel [ ],q [ ],Lmtc [m],fisomrel [ ]
0.0,1.8,1.0,17.992299179641,0.0001604052564248892,1.3793369305702046,0.005006708827577632,0.288653,0.5411463428111474
0.0005,1.79999375,1.0,18.35100660353915,0.005768714818617706,1.3792941470385267,0.01336334091247712,0.2886527375,0.5412498406323868
0.001,1.799975,1.0,21.804358274721984,0.011345566198373031,1.3789193480062956,0.03639663249496248,0.28865195,0.5421560194722063
0.0015,1.79994375,1.0,31.49543936354848,0.01689113585217733,1.378010016346895,0.07167764255172752,0.2886506375,0.5443508531295289
0.002,1.7999,1.0,54.487055927511165,0.022405599244701358,1.3763096871404592,0.11599030421213133,0.2886488,0.5484407505237555
0.0025,1.79984375,1.0,98.62797795091497,0.027889130857279027,1.3738627305060356,0.16595789900805577,0.28864643749999996,0.5542941924061588
0.003,1.7997750000000001,1.0,162.91427082311307,0.033341904194306486,1.3711413460350586,0.21870653373962085,0.28864354999999997,0.5607592514773116
0.0035,1.79969375,1.0,239.88938723106742,0.03876409178393474,1.3685169388295408,0.27203080480509384,0.2886401375,0.5669491893995678
0.004,1.7996,1.0,323.8113668173219,0.044155865188506276,1.3660941058355294,0.3242883952102481,0.2886362,0.5726246992107278
0.0045000000000000005,1.7994937500000001,1.0,411.693990677862,0.04951739500984846,1.3638659452271187,0.3743372257151447,0.2886317375,0.577811141275432
0.005,1.799375,1.0,501.8879140163711,0.05484885088108204,1.3618058263120247,0.4214660931527217,0.28862675,0.5825782654549522
0.0055,1.79924375,1.0,593.2855918504482,0.06015040150630197,1.3598901367396017,0.46530186219451125,0.2886212375,0.5869868924666799
0.006,1.7991000000000001,1.0,685.0143741798355,0.0654222146229099,1.3581010806924023,0.5057166834844636,0.2886152,0.5910829592057831
0.006500000000000001,1.79894375,1.0,776.3618057021785,0.07066445702870477,1.3564249429159623,0.5427486364260459,0.2886086375,0.5949019772555901
0.007,1.798775,1.0,866.7354696392805,0.07587729462234002,1.3548508531618297,0.576540576832172,0.28860155,0.5984721684002601
0.0075,1.79859375,1.0,955.6442404606798,0.08106089220336503,1.3533698721702363,0.6072955977843154,0.2885939375,0.6018167520484403
0.008,1.7984,1.0,1042.7149499978875,0.08621541413158794,1.3519739713217591,0.6352458906158281,0.2885858,0.6049563887499665
0.0085,1.79819375,1.0,1127.6210991715648,0.09134102314416083,1.3506566013967651,0.660632839756894,0.2885771375,0.6079079971201218
0.009000000000000001,1.797975,1.0,1210.1186407860296,0.09643788139295884,1.3494117363344809,0.6836936349591742,0.28856795,0.6106869850501379
0.0095,1.79774375,1.0,1290.0450846624715,0.10150615055939696,1.3482336473532943,0.7046535663872079,0.2885582375,0.6133078024586144
0.01,1.7975,1.0,1367.263506214886,0.1065459906645494,1.3471174504771035,0.7237222563051392,0.288548,0.6157827664996033
0.0105,1.79724375,1.0,1441.6834805054316,0.11155756100641602,1.3460586236050893,0.7410916188560404,0.2885372375,0.6181231793002269
0.011,1.796975,1.0,1513.2707913362856,0.11654102064295002,1.3450527585979417,0.7569354420703918,0.28852595000000003,0.6203399036478016
0.0115,1.79669375,1.0,1582.0033173150343,0.12149652722931079,1.34409600271813,0.7714101871573702,0.2885141375,0.6224424136269284
0.012,1.7964,1.0,1647.873134478552,0.12642423702386957,1.3431849134067728,0.7846559754930208,0.28850180000000003,0.6244391428889855
0.0125,1.79609375,1.0,1710.906787204433,0.13132430585553512,1.3423161355859903,0.7967977638036715,0.2884889375,0.626338212109292
0.013000000000000001,1.7957750000000001,1.0,1771.1613166444629,0.1361968896845581,1.3414863962567924,0.8079467647362502,0.28847555,0.6281474527153984
0.0135,1.79544375,1.0,1828.6863586488007,0.14104214268495247,1.3406928806574985,0.8182019956076988,0.2884616375,0.6298736003485188
0.014,1.7951000000000001,1.0,1883.5278549295613,0.14586021725541157,1.3399331238276144,0.8276515463574348,0.2884472,0.6315225488673462
0.0145,1.79474375,1.0,1935.7557340326764,0.1506512657946285,1.339204660806646,0.8363736782564442,0.2884322375,0.6331001214510469
0.015,1.794375,1.0,1985.450107215309,0.15541543988935902,1.3385051515190294,0.8444379996555174,0.28841675,0.6346118061067569
0.0155,1.79399375,1.0,2032.7045815508607,0.16015289166409627,1.3378323180195644,0.8519064579780286,0.2884007375,0.6360628982829335
0.016,1.7936,1.0,2077.5934497900557,0.16486377059294793,1.3371842648788197,0.8588343398761882,0.2883842,0.6374578173409757
0.0165,1.7931937500000001,1.0,2120.1879131553255,0.16954822476933834,1.3365592762951695,0.8652709928570053,0.2883671375,0.6388005533790555
0.017,1.792775,1.0,2160.571598795514,0.1742064022866918,1.3359556364669867,0.8712604749874349,0.28834955,0.6400950584376974
0.0175,1.7923437500000001,1.0,2198.834374728586,0.1788384506869099,1.3353716814999963,0.876842194097864,0.2883314375,0.641345137907733
0.018000000000000002,1.7919,1.0,2235.06693845715,0.18344451725288408,1.3348058416633228,0.8820514655783475,0.2883128,0.6425543634825064
0.0185,1.79144375,1.0,2269.358117531163,0.18802474873176453,1.3342566557171567,0.8869199921402272,0.2882936375,0.6437260462652494
0.019,1.790975,1.0,2301.7751875950958,0.1925792886207855,1.3337229539752125,0.8914763242188701,0.28827395,0.644862850733604
0.0195,1.79049375,1.0,2332.391846807869,0.19710828041718123,1.333203566751204,0.8957461495037209,0.2882537375,0.6459674206131246
0.02,1.79,1.0,2361.2876830471414,0.20161186761818595,1.3326973243588462,0.8997526179323032,0.288233,0.6470423799887266
0.0205,1.78949375,1.0,2388.539751962618,0.20609019251530053,1.3322031340634677,0.9035166431789214,0.2882117375,0.6480901712959494
0.021,1.788975,1.0,2414.2315145268813,0.21054339847350276,1.331719887084972,0.9070571312522967,0.28818995000000003,0.6491132541847366
0.021500000000000002,1.78844375,1.0,2438.435937023093,0.21497162694507477,1.3312466175253805,0.9103912323905697,0.2881676375,0.650113770337992
0.022,1.7879,1.0,2461.211404488044,0.2193750164937356,1.3307825343951807,0.9135345357611362,0.2881448,0.6510934787598888
0.0225,1.78734375,1.0,2482.619351429755,0.2237537056832043,1.3303268467048595,0.9165012016617476,0.28812143749999997,0.652054127378904
0.023,1.786775,1.0,2502.7240086554752,0.22810783307719995,1.3298787634649047,0.919304112265589,0.28809755,0.6529974534912801
0.0235,1.78619375,1.0,2521.592163971692,0.2324375372394415,1.3294374936858033,0.9219550046827454,0.28807313749999996,0.6539251841645928
0.024,1.7856,1.0,2539.2506905884547,0.23674295348699695,1.3290026445036371,0.9244646597866165,0.2880482,0.6548382012423897
0.0245,1.78499375,1.0,2555.841956025647,0.24102422263660708,1.3285727529168319,0.9268427392712891,0.2880227375,0.6557396238541281
0.025,1.7843753923020318,1.0,2571.399333183013,0.24528147832393338,1.328147580462168,0.9290982960685601,0.2879967664766853,0.6566299918266101
0.025500000000000002,1.783753524002974,1.0,2586.347777915305,0.24951485381203242,1.3277269490591128,0.9312396334702062,0.2879706480081249,0.6575097157538446
0.026000000000000002,1.7831316557039163,1.0,2600.870977685308,0.2537244823639609,1.327310680627133,0.9332743680864106,0.2879445295395645,0.6583792039139122
0.0265,1.7825097874048585,1.0,2614.9841786669504,0.2579104972427753,1.326898597085696,0.9352094958738368,0.2879184110710041,0.6592388623195276
0.027,1.7818879191058008,1.0,2628.702954168506,0.2620730317115324,1.3264905203542685,0.9370514510155525,0.28789229260244364,0.6600890947665784
0.0275,1.7812660508067433,1.0,2642.0409403029576,0.26621221808645146,1.3260862931226918,0.9388061612403861,0.2878661741338832,0.6609302596859119
0.028,1.7806441825076855,1.0,2655.0049150531045,0.27032818764176214,1.325685823807173,0.9404791011261003,0.2878400556653228,0.6617625770760304
0.0285,1.7800223142086278,1.0,2667.6049545932274,0.2744210698743647,1.3252889922700013,0.942075319259716,0.28781393719676235,0.6625863249616296
0.029,1.77940044590957,1.0,2679.851669721135,0.2784909938796992,1.3248956754283123,0.9435994808794049,0.2877878187282019,0.6634017859948366
0.029500000000000002,1.7787785776105123,1.0,2691.7547685363916,0.2825380861727548,1.3245057603554504,0.9450559029176533,0.28776170025964154,0.6642092203320504
0.03,1.7781567093114548,1.0,2703.3207417663507,0.28656246451025685,1.3241191652272433,0.9464485851811525,0.2877355817910811,0.6650088224885045
0.0305,1.777534841012397,1.0,2714.571225145204,0.290564281200373,1.3237356715577078,0.9477812307116156,0.2877094633225207,0.6658010681156887
0.031,1.7769129727133393,1.0,2725.5149015593697,0.29454365854969844,1.3233551811027848,0.9490572821654875,0.28768334485396024,0.666586182570106
0.0315,1.7762911044142815,1.0,2736.16060203757,0.2985007188648286,1.3229775956184155,0.9502799387320603,0.2876572263853998,0.6673643900782757
0.032,1.7756692361152238,1.0,2746.5172993157744,0.3024355844523588,1.322602816860541,0.9514521763674348,0.2876311079168394,0.6681359137552431
0.0325,1.7750473678161662,1.0,2756.594101616899,0.30634837761888434,1.3222307465851024,0.9525767661131112,0.28760498944827895,0.6689009756224729
0.033,1.7744254995171085,1.0,2766.4002466439756,0.31023922067100057,1.3218612865480406,0.9536562907010586,0.28757887097971857,0.6696597966251279
0.0335,1.7738036312180507,1.0,2775.9450957872828,0.31410823591530285,1.3214943385052964,0.9546931596238535,0.28755275251115814,0.6704125966487305
0.034,1.773181762918993,1.0,2785.238128546071,0.31795554565838646,1.321129804212811,0.9556896228280974,0.2875266340425977,0.6711595945352095
0.0345,1.7725598946199352,1.0,2794.2889371635915,0.3217812722068467,1.3207675854265257,0.9566477831714639,0.2875005155740373,0.6719010080983308
0.035,1.7719380263208775,1.0,2803.1072214765786,0.325585537867279,1.320407583902381,0.9575696077680277,0.28747439710547684,0.6726370541385163
0.035500000000000004,1.77131615802182,1.0,2811.7027839785746,0.3293684649462786,1.3200497013963184,0.9584569383327481,0.28744827863691647,0.673367948457039
0.036000000000000004,1.7706942897227622,1.0,2820.084667520537,0.333130173698533,1.3196938473331077,0.9593115009372587,0.287422160168356,0.6740938902339146
0.0365,1.7700724214237045,1.0,2828.257579116685,0.3368707749749154,1.3193399706442879,0.9601349161971741,0.2873960416997956,0.6748149972860502
0.037,1.7694505531246467,1.0,2836.2359515930452,0.3405904036847989,1.318987934067665,0.9609287019525641,0.28736992323123517,0.6755315622424842
0.0375,1.768828684825589,1.0,2844.0257441509384,0.3442891738716806,1.3186376767789283,0.9616942868069851,0.28734380476267474,0.6762437210998955
0.038,1.7682068165265314,1.0,2851.6329749808388,0.34796719957905753,1.3182891379537676,0.9624330137215764,0.2873176862941143,0.6769516092495138
0.0385,1.7675849482274737,1.0,2859.0637189038994,0.35162459485042674,1.3179422567678725,0.9631461460934359,0.2872915678255539,0.6776553614839038
0.039,1.766963079928416,1.0,2866.3241050956685,0.35526147372928535,1.3175969723969327,0.9638348733389346,0.2872654493569935,0.6783551120035138
0.0395,1.7663412116293582,1.0,2873.42031489133,0.35887795025913033,1.317253224016638,0.964500316027205,0.287239330888433,0.6790509944229879
0.04,1.7657193433303005,1.0,2880.3585796738753,0.36247413848345883,1.316910950802678,0.9651435306044908,0.28721321241987263,0.6797431417772406
0.0405,1.7650974750312427,1.0,2887.145178843126,0.3660501524457679,1.3165700919307421,0.9657655137459834,0.2871870939513122,0.6804316865273006
0.041,1.7644756067321852,1.0,2893.7864378677896,0.3696061061895546,1.3162305865765205,0.9663672063681463,0.28716097548275177,0.6811167605659114
0.0415,1.7638537384331274,1.0,2900.288726418937,0.37314211375831596,1.3158923739157025,0.966949497331297,0.28713485701419134,0.6817984952229019
0.042,1.7632318701340697,1.0,2906.658278574954,0.37665828860627415,1.3155553946919452,0.9675132268922033,0.2871087385456309,0.6824770181148301
0.0425,1.762610001835012,1.0,2912.8986075422763,0.38015473654431403,1.315219613940903,0.9680591905897074,0.2870826200770705,0.6831524074838907
0.043000000000000003,1.7619881335359542,1.0,2919.017371188934,0.3836315781130654,1.3148849605036672,0.9685881408133814,0.28705650160851004,0.6838248139304972
0.043500000000000004,1.7613662652368967,1.0,2925.01845733196,0.38708892053045657,1.3145513967001623,0.9691007906692044,0.28703038313994966,0.6844943202614067
0.044,1.760744396937839,1.0,2930.9057794878445,0.39052687101441574,1.314218884850313,0.9695978159207661,0.28700426467138923,0.6851610089394955
0.0445,1.7601225286387812,1.0,2936.683275978716,0.3939455367828714,1.3138873872740435,0.9700798573150752,0.2869781462028288,0.6858249620863349
0.045,1.7595006603397234,1.0,2942.35490906898,0.39734502505375174,1.3135568662912789,0.9705475227414134,0.28695202773426837,0.6864862614846718
0.0455,1.7588787920406657,1.0,2947.924664133608,0.4007254430449851,1.3132272842219437,0.9710013892367452,0.28692590926570793,0.6871449885808218
0.046,1.7582569237416081,1.0,2953.3965488582458,0.4040868979744997,1.312898603385962,0.9714420048499757,0.28689979079714756,0.6878012244869722
0.0465,1.7576350554425504,1.0,2958.774592470187,0.40742949706022397,1.312570786103259,0.9718698903762601,0.2868736723285871,0.6884550499833888
0.047,1.7570131871434926,1.0,2964.062845001644,0.41075334752008613,1.312243794693759,0.9722855409715843,0.2868475538600267,0.689106545520541
0.0475,1.756391318844435,1.0,2969.259131866303,0.4140585201177621,1.311917645899562,0.9726894268449063,0.28682143539146626,0.6897556829606997
0.048,1.7557694505453771,1.0,2974.3744664440555,0.4173451653279521,1.3115922416114711,0.9730819976248943,0.28679531692290583,0.6904026625240389
0.0485,1.7551475822463196,1.0,2979.41262856377,0.4206133918932114,1.3112675470249464,0.9734636805156441,0.28676919845434545,0.6910475579370943
0.049,1.7545257139472619,1.0,2984.3756929377832,0.4238632984554543,1.3109435423054712,0.9738348823009307,0.28674307998578497,0.6916904129417273
0.0495,1.7539038456482041,1.0,2989.265745098172,0.42709498365659476,1.3106202076185285,0.9741959907281006,0.2867169615172246,0.6923312711065761
0.05,1.7532819773491464,1.0,2994.0848810968064,0.43030854613854697,1.3102975231296021,0.9745473755711014,0.28669084304866416,0.6929701758279146
0.0505,1.7526601090500886,1.0,2998.8352072158154,0.4335040845432249,1.3099754690041752,0.974889389624906,0.2866647245801037,0.69360717033049
0.051000000000000004,1.7520382407510309,1.0,3003.5188396856715,0.4366816975125428,1.309654025407731,0.9752223696363419,0.2866386061115433,0.6942422976683302
0.051500000000000004,1.7514163724519733,1.0,3008.1379044123764,0.43984148368841464,1.309333172505753,0.9755466371759173,0.28661248764298286,0.6948756007255293
0.052000000000000005,1.7507945041529156,1.0,3012.694536713543,0.44298354171275456,1.3090128904637246,0.975862499454876,0.2865863691744225,0.6955071222170095
0.0525,1.7501726358538578,1.0,3017.1908810624054,0.44610797022747667,1.3086931594471292,0.9761702500913703,0.286560250705862,0.6961369046892516
0.053,1.7495507675548,1.0,3021.6290908421734,0.449214867874495,1.3083739596214499,0.9764701698293367,0.2865341322373016,0.6967649905210089
0.0535,1.7489288992557424,1.0,3026.011328106831,0.4523043332957237,1.3080552711521702,0.9767625272133775,0.2865080137687412,0.6973914219239887
0.054,1.7483070309566848,1.0,3030.339763352903,0.4553764651330769,1.3077370742047736,0.9770475792226945,0.28648189530018076,0.6980162409435131
0.0545,1.747685162657627,1.0,3034.616575298457,0.4584313620284686,1.3074193489447434,0.9773255718668866,0.2864557768316203,0.6986394894591521
0.055,1.7470632943585693,1.0,3038.8439506714158,0.461469122623813,1.3071020755375629,0.9775967407462088,0.2864296583630599,0.699261209185335
0.0555,1.7464414260595116,1.0,3043.0240840065235,0.46448984556102413,1.3067852341487154,0.9778613115786934,0.2864035398944995,0.699881441671932
0.056,1.7458195577604538,1.0,3047.1591774507588,0.46749362948201606,1.3064688049436843,0.978119500696348,0.286377421425939,0.700500228304815
0.0565,1.745197689461396,1.0,3051.2473226237435,0.47048052628215686,1.3061528034901393,0.9783715133252964,0.28635130295737865,0.7011175411834444
0.057,1.7445758211623386,1.0,3055.293987929495,0.4734506847566238,1.3058371819477532,0.9786175514025502,0.2863251844888182,0.7017334762061763
0.0575,1.7439539528632808,1.0,3059.3007105946285,0.47640420103288234,1.3055219263638107,0.9788578058740441,0.2862990660202578,0.7023480628537826
0.058,1.743332084564223,1.0,3063.2684398000556,0.4793411638619732,1.3052070278754908,0.9790924596677678,0.28627294755169735,0.7029613205848513
0.0585,1.7427102162651653,1.0,3067.1981282659067,0.482261661994937,1.3048924776199726,0.9793216884422268,0.2862468290831369,0.7035732687842937
0.059000000000000004,1.7420883479661076,1.0,3071.0907321821287,0.48516578418281436,1.3045782667344352,0.9795456609327257,0.28622071061457655,0.7041839267635435
0.059500000000000004,1.74146647966705,1.0,3074.9472111408204,0.48805361917664597,1.3042643863560575,0.9797645392785245,0.2861945921460161,0.7047933137607519
0.06,1.7408446113679923,1.0,3078.768528070628,0.49092525572747236,1.3039508276220186,0.9799784793320712,0.2861684736774557,0.7054014489409755
0.0605,1.7402227430689345,1.0,3082.5556491725624,0.4937807825863344,1.3036375816694978,0.9801876309514209,0.28614235520889525,0.7060083513963618
0.061,1.7396008747698768,1.0,3086.3095438576024,0.4966202885042725,1.3033246396356741,0.9803921382768797,0.2861162367403348,0.7066140401463279
0.0615,1.738979006470819,1.0,3090.031184686237,0.4994438622323274,1.3030119926577266,0.9805921399928388,0.2860901182717744,0.7072185341377355
0.062,1.7383571381717615,1.0,3093.7215473095116,0.5022515925215397,1.3026996318728343,0.9807877695756952,0.28606399980321395,0.7078218522450592
0.0625,1.7377352698727038,1.0,3097.3816104120283,0.5050435681229501,1.3023875484181764,0.9809791555287033,0.2860378813346536,0.7084240132705517
0.063,1.737113401573646,1.0,3101.0123556562967,0.5078198777875993,1.3020757334309316,0.9811664216045342,0.28601176286609314,0.7090250359444028
0.0635,1.7364915332745883,1.0,3104.6147676295627,0.5105806102665278,1.3017641780482796,0.9813496870162743,0.2859856443975327,0.7096249389248923
0.064,1.7358696649755305,1.0,3108.189833791577,0.5133258543107763,1.301452873407399,0.9815290666375475,0.2859595259289723,0.7102237407985419
0.0645,1.735247796676473,1.0,3111.738544424485,0.5160556986713855,1.301141810645469,0.981704671192393,0.28593340746041185,0.7108214600802566
0.065,1.7346259283774152,1.0,3115.261892584781,0.5187702320993959,1.3008309808996688,0.9818766074354973,0.28590728899185147,0.7114181152134667
0.0655,1.7340040600783575,1.0,3118.7608740558044,0.5214695433458482,1.3005203753071775,0.9820449783233354,0.285881170523291,0.712013724570259
0.066,1.7333821917792998,1.0,3122.2354334436986,0.5241536951023238,1.3002099939616594,0.9822098818658936,0.2858550520547306,0.7126082893033816
0.0665,1.732760323480242,1.0,3125.686522472615,0.5268227853465636,1.2998998284048964,0.9823714145871875,0.2858289335861702,0.7132018269219187
0.067,1.7321384551811843,1.0,3129.115619891706,0.5294769218943349,1.2995898657259242,0.9825296700701398,0.28580281511760974,0.7137943633747537
0.0675,1.7315165868821267,1.0,3132.5231681344603,0.5321161843378645,1.2992801018373934,0.982684737245612,0.2857766966490493,0.7143859076664523
0.068,1.730894718583069,1.0,3135.9096109492557,0.5347406522693784,1.2989705326519552,0.9828367020074823,0.2857505781804889,0.7149764687685147
0.0685,1.7302728502840112,1.0,3139.2753933814574,0.5373504052811032,1.2986611540822603,0.9829856473375225,0.2857244597119285,0.7155660556194272
0.069,1.7296509819849535,1.0,3142.620961755749,0.5399455229652651,1.29835196204096,0.9831316534243092,0.285698341243368,0.7161546771247116
0.0695,1.7290291136858957,1.0,3145.946763659677,0.5425260849140905,1.298042952440705,0.983274797776494,0.28567222277480764,0.7167423421569762
0.07,1.7284072453868382,1.0,3149.253247926157,0.5450921707198058,1.2977341211941458,0.9834151553307342,0.2856461043062472,0.7173290595559622
0.07050000000000001,1.7277853770877805,1.0,3152.54086461755,0.5476438599746373,1.2974254642139338,0.9835527985545736,0.2856199858376868,0.7179148381285906
