Time [s],Phi [rad],STIM [ ],Fsee [N],Gamma [ ],Lcerel [ ],q [ ],Lmtc [m],fisomrel [ ]
0.0,1.8,1.0,18.002865139403713,0.000192636253436645,1.3793357478302917,0.005009661740862732,0.288653,0.541149204139137
0.0005,1.79999375,1.0,18.37194786117358,0.005800765025229214,1.379291826245845,0.013455322305618196,0.2886527375,0.5412554545379202
0.001,1.799975,1.0,21.849237862732245,0.011377436628670218,1.3789147861533473,0.036566635246537284,0.28865195,0.5421670434769232
0.0015,1.79994375,1.0,31.59247327229841,0.016922827514569402,1.3780018118311785,0.0719090146066861,0.2886506375,0.5443706321822268
0.002,1.7999,1.0,54.68761264720571,0.02243711314190247,1.3762967963711719,0.11626346227357551,0.2886488,0.5484716869923241
0.0025,1.79984375,1.0,98.95792257902835,0.027920467986453798,1.3738469665355213,0.1662545261474329,0.28864643749999996,0.5543317781000919
0.003,1.7997750000000001,1.0,163.33894878230913,0.03337306554695762,1.3711255559384752,0.21901219705018254,0.28864354999999997,0.5607966254124928
0.0035,1.79969375,1.0,240.36667339522808,0.03879507834602065,1.3685023121802788,0.2723345749755836,0.2886401375,0.5669835647888659
0.004,1.7996,1.0,324.31766571771243,0.044186677940471326,1.3660807497664915,0.3245823530941736,0.2886362,0.5726558821760313
0.0045000000000000005,1.7994937500000001,1.0,412.2172826384877,0.049548034926684185,1.363853701708729,0.37461614744518695,0.2886317375,0.5778395527833393
0.005,1.799375,1.0,502.42108385017315,0.054879318932453736,1.3617945274609649,0.42172696364117174,0.28862675,0.5826043364135751
0.0055,1.79924375,1.0,593.822901782457,0.060180698655655535,1.3598796634756418,0.4655433340987257,0.2886212375,0.5870109305378151
0.006,1.7991000000000001,1.0,685.5518160982654,0.06545234182942067,1.3580913311571519,0.5059385607118727,0.2886152,0.591105224968428
0.006500000000000001,1.79894375,1.0,776.8947347024543,0.0706944152410285,1.3564158615716784,0.5429514966599308,0.2886086375,0.5949226199621116
0.007,1.798775,1.0,867.2616546692336,0.07590708479985661,1.3548423668950067,0.5767254350704808,0.28860155,0.5984913732664205
0.0075,1.79859375,1.0,956.1632302090263,0.0810905153157657,1.353361900688012,0.6074637041053745,0.2885939375,0.6018347166522817
0.008,1.7984,1.0,1043.2209115353583,0.08624487103848978,1.3519665313822005,0.6353986511128616,0.2885858,0.6049730892435666
0.0085,1.79819375,1.0,1128.1130731657865,0.09137031479586513,1.3506496447401692,0.6607716251968904,0.2885771375,0.6079235543481922
0.009000000000000001,1.797975,1.0,1210.598401277224,0.09646700876992015,1.3494051876382642,0.6838197501591999,0.28856795,0.6107015779702467
0.0095,1.79774375,1.0,1290.5133207259578,0.10153511459710947,1.3482274570719024,0.7047682490263877,0.2885582375,0.6133215501952691
0.01,1.7975,1.0,1367.7152662586846,0.10657479218017596,1.3471116490717114,0.7238266872635749,0.288548,0.6157956093071335
0.0105,1.79724375,1.0,1442.1179239740081,0.11158620088559695,1.3460531904390798,0.7411868460415515,0.2885372375,0.6181351702389477
0.011,1.796975,1.0,1513.6907182158175,0.11656950002064008,1.345047632668753,0.7570223916642956,0.28852595000000003,0.6203511836405908
0.0115,1.79669375,1.0,1582.4051608111868,0.12152484685243582,1.3440912052394796,0.7714897260459935,0.2885141375,0.6224529415715636
0.012,1.7964,1.0,1648.2570895471647,0.12645239775229494,1.343180422018497,0.7847288584981564,0.28850180000000003,0.6244489730331833
0.0125,1.79609375,1.0,1711.2750892364727,0.1313523086485096,1.3423119073915772,0.7968646546322464,0.2884889375,0.6263474427867992
0.013000000000000001,1.7957750000000001,1.0,1771.5163336626526,0.13622473551203848,1.3414823904893751,0.8080082544721244,0.28847555,0.6281561766124424
0.0135,1.79544375,1.0,1829.0265972918091,0.14106983221967767,1.3406891024900354,0.8182586266865257,0.2884616375,0.629881809453234
0.014,1.7951000000000001,1.0,1883.8533518329673,0.14588775134656493,1.3399295623562721,0.827703795002669,0.2884472,0.6315302698860756
0.0145,1.79474375,1.0,1936.0681344024938,0.15067864546783794,1.3392012890507998,0.8364219622361038,0.2884322375,0.633107415517461
0.015,1.794375,1.0,1985.7445284620776,0.1554426660851349,1.3385020138225021,0.844482714807256,0.28841675,0.6346185798409139
0.0155,1.79399375,1.0,2032.987557487463,0.1601799654216292,1.3378293375503716,0.8519479167098813,0.2884007375,0.6360693198031795
0.016,1.7936,1.0,2077.8635095419445,0.16489069230665293,1.337181451340424,0.8588728471352501,0.2883842,0.6374638675764197
0.0165,1.7931937500000001,1.0,2120.4458928614463,0.16957499518860025,1.336556615738375,0.8653068140371861,0.2883671375,0.6388062640393233
0.017,1.792775,1.0,2160.8207296228693,0.17423302251586523,1.3359530912899393,0.8712938407539254,0.28834955,0.6401005116477478
0.0175,1.7923437500000001,1.0,2199.070339402774,0.17886492154389153,1.3353692918931233,0.8768733325274151,0.2883314375,0.6413502489002076
0.018000000000000002,1.7919,1.0,2235.2974599668187,0.18347084051897233,1.33480352617621,0.8820805489856055,0.2883128,0.642559307589209
0.0185,1.79144375,1.0,2269.574807832306,0.1880509241769726,1.3342544956613747,0.8869472158323198,0.2882936375,0.6437306509252554
0.019,1.790975,1.0,2301.975268725369,0.19260531664392616,1.3337209735765672,0.8915018499584257,0.28827395,0.6448670656731765
0.0195,1.79049375,1.0,2332.5783245523235,0.1971341620458667,1.3332017331497363,0.8957701095667548,0.2882537375,0.6459713170472319
0.02,1.79,1.0,2361.463234805518,0.2016376036178771,1.3326956087825415,0.8997751323498994,0.288233,0.6470460200791267
0.0205,1.78949375,1.0,2388.7143573291287,0.20611578517907655,1.332201437497339,0.9035378056225054,0.2882117375,0.6480937657037678
0.021,1.788975,1.0,2414.4067259489316,0.21056884887863647,1.3317181937126548,0.9070770438990743,0.28818995000000003,0.6491168366071864
0.021500000000000002,1.78844375,1.0,2438.6015398134496,0.21499693423545957,1.331245024979402,0.9104100107005164,0.2881676375,0.6501171346504957
0.022,1.7879,1.0,2461.3634662188156,0.21940018076844858,1.3307810788484937,0.9135522725305959,0.2881448,0.6510965493489368
0.0225,1.78734375,1.0,2482.760351551132,0.22377872799650628,1.3303255028708432,0.9165179695584665,0.28812143749999997,0.6520569583964433
0.023,1.786775,1.0,2502.8566877951175,0.22813271417297626,1.3298775040240158,0.9193199768384728,0.28809755,0.6530001031214459
0.0235,1.78619375,1.0,2521.7204313442476,0.23246227845430473,1.3294362806862783,0.9219700240571015,0.28807313749999996,0.6539277326772694
0.024,1.7856,1.0,2539.4177398578972,0.2367675594294179,1.3290010702597104,0.9244788210467281,0.2880482,0.6548415043621336
0.0245,1.78499375,1.0,2555.996791762066,0.24104869149132596,1.32857129851301,0.9268561854694084,0.2880227375,0.655742671535314
0.025,1.784375,1.0,2571.5074059336903,0.245305809033039,1.3281463912148745,0.9291111005207827,0.28799675,0.6566324806525974
0.025500000000000002,1.78374375,1.0,2586.0009042412044,0.24953904644756722,1.3277257741340016,0.9312517972487822,0.2879702375,0.6575121714549406
0.026000000000000002,1.7831000000000001,1.0,2599.5299813961237,0.25374853812792075,1.3273088730390892,0.9332858277485093,0.2879432,0.6583829771361014
0.0265,1.78244375,1.0,2612.1430741238796,0.2579344170810049,1.326895164876673,0.9352201378584372,0.2879156375,0.6592460177941736
0.027,1.781775,1.0,2623.886755811545,0.26209681645770483,1.3264841539262295,0.9370611213311676,0.28788755,0.6601023508771495
0.0275,1.7810937500000001,1.0,2634.8171497578487,0.26623587109522623,1.326075265006591,0.9388146557573627,0.2878589375,0.660953193720923
0.028,1.7804,1.0,2644.969419366015,0.27035170980497975,1.3256681251371112,0.9404861888655757,0.2878298,0.6617993375946394
0.0285,1.77969375,1.0,2654.379414625135,0.274444461398376,1.325262361337143,0.942080750177156,0.2878001375,0.6626415698258477
0.029,1.778975,1.0,2663.083612505151,0.2785142546868257,1.3248576006260402,0.943602988553255,0.28776995,0.6634806738376664
0.029500000000000002,1.7782437500000001,1.0,2671.119060436798,0.2825612184817395,1.3244534700231556,0.9450572059201909,0.2877392375,0.6643174291770831
0.03,1.7775,1.0,2678.523322875735,0.286585481594528,1.3240495965478432,0.9464473876037545,0.287708,0.6651526115343753
0.0305,1.77674375,1.0,2685.32902061694,0.29058717086244457,1.3236456568001391,0.9477772354585503,0.2876762375,0.6659868904158373
0.031,1.775975,1.0,2691.570683397248,0.29456641474054285,1.3232413135153736,0.9490501849650379,0.28764395,0.6668209605767091
0.0315,1.7751937500000001,1.0,2697.2830873760295,0.29852334077878284,1.3228362304840793,0.9502694286970691,0.2876111375,0.6676555111187195
0.032,1.7744,1.0,2702.4909065186957,0.30245807221746657,1.3224301667341756,0.9514379469733073,0.2875778,0.6684910318232518
0.0325,1.77359375,1.0,2707.219066336401,0.30637073229689615,1.3220228812935817,0.9525585149605335,0.2875439375,0.6693280099597569
0.033,1.772775,1.0,2711.4927196083577,0.3102614442573737,1.3216141331902171,0.9536337192843592,0.28750955,0.6701669302688306
0.0335,1.7719437500000002,1.0,2715.3372233929053,0.3141303313392012,1.3212036814520014,0.9546659731052426,0.2874746375,0.6710082749415855
0.034,1.7711000000000001,1.0,2718.7781173247795,0.31797751678268077,1.3207912851068537,0.9556575298179153,0.2874392,0.671852523595323
0.0345,1.7702437500000001,1.0,2721.831955845534,0.32180311859881394,1.3203767864456646,0.9566105033141112,0.2874032375,0.672699983121011
0.035,1.7693750000000001,1.0,2724.5272862738307,0.32560726376787347,1.3199599197854694,0.9575268615870595,0.28736675,0.6735511789887627
0.035500000000000004,1.76849375,1.0,2726.8896652402573,0.32939007553840804,1.3195404478522674,0.958408449247131,0.2873297375,0.6744065758494017
0.036000000000000004,1.7676,1.0,2728.9350788043644,0.33315167090761866,1.3191182213738708,0.959257002390375,0.2872922,0.675266456591764
0.0365,1.76669375,1.0,2730.6795951858703,0.336892166872706,1.3186930910780925,0.9600741490733401,0.2872541375,0.6761311023567942
0.037,1.765775,1.0,2732.1393554445644,0.3406116804308712,1.3182649076927448,0.9608614172524643,0.28721555,0.6770007925106142
0.0375,1.76484375,1.0,2733.330564655123,0.344310328579315,1.3178335219456403,0.9616202420548018,0.2871764375,0.6778758046161677
0.038,1.7639,1.0,2734.2694835747416,0.34798822831523823,1.3173987845645916,0.9623519724431693,0.28713679999999997,0.6787564144034439
0.0385,1.76294375,1.0,2734.9724208061416,0.3516454966358419,1.316960546277411,0.9630578773322519,0.28709663750000003,0.6796428957382818
0.039,1.761975,1.0,2735.455725453362,0.3552822505383268,1.316518657811911,0.9637391512063805,0.28705595,0.6805355205897525
0.0395,1.7609937500000001,1.0,2735.731976477076,0.35889860254770195,1.3160730044315543,0.9643969215785225,0.2870147375,0.6814344893801361
0.04,1.76,1.0,2735.8135098533808,0.36249466903652633,1.3156234738515082,0.9650322522615722,0.286973,0.6823399960264869
0.0405,1.7589937500000001,1.0,2735.7168893807584,0.366070570590681,1.3151699156050092,0.9656461441288476,0.2869307375,0.6832523096222303
0.041,1.757975,1.0,2735.451172303151,0.36962641742197266,1.3147122475403614,0.9662395460042075,0.28688795,0.6841715601023415
0.0415,1.75694375,1.0,2735.02543036016,0.37316231974220826,1.31425038750587,0.9668133541042232,0.2868446375,0.6850978761237582
0.042,1.7559,1.0,2734.448747065612,0.3766783877631944,1.3137842533498392,0.9673684154943751,0.28680079999999997,0.686031385043635
0.0425,1.75484375,1.0,2733.730215135789,0.38017473169673804,1.3133137629205733,0.9679055312839977,0.2867564375,0.6869722128971645
0.043000000000000003,1.753775,1.0,2732.8789340659746,0.3836514617546459,1.3128388340663772,0.9684254595821888,0.28671155,0.6879204843749671
0.043500000000000004,1.75269375,1.0,2731.9040078589073,0.38710868814872473,1.3123593846355552,0.968928918234801,0.28666613750000003,0.6888763228000551
0.044,1.7516,1.0,2730.8145429006267,0.39054652109078136,1.311875332476412,0.9694165873607636,0.2866202,0.6898398501043604
0.0445,1.75049375,1.0,2729.619645987601,0.39396507079262266,1.311386595437252,0.9698891117043023,0.2865737375,0.6908111868048381
0.045,1.7493750000000001,1.0,2728.3227810259273,0.39736443646459985,1.3108931426563046,0.9703471051604604,0.28652675,0.691790350284715
0.0455,1.74824375,1.0,2726.933194397784,0.4007447320666061,1.3103948907106007,0.970791148491745,0.2864792375,0.6927774611631194
0.046,1.7471,1.0,2725.4638445631435,0.4041060779019323,1.3098917223720579,0.9712217914981556,0.2864312,0.6937727053739777
0.0465,1.7459437500000001,1.0,2723.919103391273,0.4074485764732213,1.3093835984507605,0.9716395598118568,0.28638263750000004,0.6947761129134522
0.047,1.744775,1.0,2722.3033411529746,0.41077233028311594,1.3088704797567925,0.9720449530959373,0.28633355,0.6957877128023242
0.0475,1.74359375,1.0,2720.6209259388274,0.4140774418342589,1.3083523271002386,0.9724384465686541,0.28628393750000003,0.6968075330735569
0.048,1.7424,1.0,2718.876223110539,0.41736401362929304,1.3078291012911831,0.972820492424428,0.2862338,0.6978356007597657
0.0485,1.74119375,1.0,2717.073594787682,0.42063214817086114,1.3073007631397104,0.973191521159484,0.2861831375,0.6988719418805853
0.049,1.739975,1.0,2715.217399366755,0.42388194796160594,1.3067672734559048,0.9735519428093508,0.28613195,0.6999165814299431
0.0495,1.73874375,1.0,2713.3119910760306,0.4271135155041703,1.3062285930498505,0.9739021481048402,0.2860802375,0.7009695433632304
0.05,1.7375,1.0,2711.3617195633665,0.43032695330119697,1.3056846827316322,0.9742425095525642,0.286028,0.7020308505843793
0.0505,1.73624375,1.0,2709.370929518245,0.4335223638553288,1.3051355033113339,0.9745733824455557,0.2859752375,0.703100524932841
0.051000000000000004,1.734975,1.0,2707.3439603281818,0.4366998496692085,1.3045810155990403,0.9748951058090974,0.28592195,0.704178587170463
0.051500000000000004,1.73369375,1.0,2705.2851457689967,0.43985951324547884,1.3040211804048354,0.9752080032864541,0.2858681375,0.7052650569682735
0.052000000000000005,1.7324,1.0,2703.196828141857,0.44300145053975065,1.3034559766746325,0.9755123844247019,0.2858138,0.7063599177947859
0.0525,1.73109375,1.0,2701.0791486082517,0.4461257523245258,1.3028854034392126,0.9758085457193488,0.28575893750000003,0.7074631134676832
0.053,1.729775,1.0,2698.942288550194,0.4492325423456537,1.3023093679553872,0.9760967682821535,0.28570355000000003,0.7085747641786171
0.0535,1.72844375,1.0,2696.787829812781,0.45232191488330553,1.3017278559751106,0.9763773227103826,0.2856476375,0.709694837144971
0.054,1.7271,1.0,2694.6173519525264,0.4553939642176524,1.3011408532503375,0.9766504678802469,0.2855912,0.7108232987999321
0.0545,1.7257437500000001,1.0,2692.432432186068,0.45844878462886535,1.3005483455330218,0.9769164515511993,0.2855342375,0.7119601147875108
0.055,1.724375,1.0,2690.234645343838,0.46148647039711554,1.299950318575118,0.977175510934167,0.28547675,0.7131052499575422
0.0555,1.72299375,1.0,2688.0255638281265,0.4645071158025742,1.2993467581285802,0.9774278732261571,0.2854187375,0.7142586683606801
0.056,1.7216,1.0,2685.8067575751975,0.4675108151254123,1.298737649945363,0.9776737561134872,0.2853602,0.7154203332433732
0.0565,1.72019375,1.0,2683.5797940226535,0.4704976626458011,1.2981229797774205,0.977913368245722,0.28530113749999997,0.7165902070428307
0.057,1.718775,1.0,2681.346238080876,0.4734677526439116,1.297502733376707,0.9781469096822484,0.28524155,0.7177682513819769
0.0575,1.71734375,1.0,2679.107652108544,0.4764211793999151,1.296876896495177,0.9783745723132774,0.2851814375,0.7189544270643878
0.058,1.7159,1.0,2676.8655958935674,0.4793580371939825,1.2962454548847844,0.978596540256928,0.2851208,0.7201486940692194
0.0585,1.71444375,1.0,2674.6216266380943,0.48227842030628504,1.2956083942974839,0.9788129902339371,0.2850596375,0.7213510115461204
0.059000000000000004,1.7129750000000001,1.0,2672.3772989476333,0.4851824230169939,1.2949657004852295,0.9790240919214155,0.28499795,0.7225613378101335
0.059500000000000004,1.71149375,1.0,2670.134164825291,0.4880701396062801,1.2943173591999757,0.9792300082869856,0.2849357375,0.7237796303365831
0.06,1.71,1.0,2667.892187566527,0.49094163043120564,1.293663370776269,0.9794308939227542,0.284873,0.7250058184448965
0.0605,1.7084937500000001,1.0,2665.655641802068,0.49379702857567037,1.2930036958942772,0.9796269011875536,0.2848097375,0.7262399049499169
0.061,1.7069750000000001,1.0,2663.425163486322,0.4966364235967141,1.2923383286501662,0.9798181748115026,0.28474595,0.7274818290880977
0.0615,1.7054437500000001,1.0,2661.201154309111,0.4994599013593607,1.2916672652868642,0.9800048538108747,0.2846816375,0.7287315253829146
0.062,1.7039,1.0,2658.984015294982,0.502267547728634,1.2909905020473003,0.980187071928315,0.2846168,0.7299889276730234
0.0625,1.70234375,1.0,2656.774146807086,0.5050594485695579,1.2903080351744027,0.9803649578708528,0.2845514375,0.7312539691108985
0.063,1.7007750000000001,1.0,2654.5719485521204,0.5078356897471562,1.2896198609111003,0.9805386355354427,0.28448555,0.7325265821614635
0.0635,1.69919375,1.0,2652.3778195856175,0.5105963571264529,1.2889259755003213,0.9807082242227759,0.28441913750000003,0.7338066986007262
0.064,1.6976,1.0,2650.1921583166004,0.5133415365724718,1.2882263751849947,0.9808738388400507,0.2843522,0.735094249514409
0.0645,1.69599375,1.0,2648.015362513985,0.5160713139502369,1.287521056208049,0.981035590093354,0.2842847375,0.7363891652965814
0.065,1.694375,1.0,2645.847829312122,0.5187857751247718,1.2868100148124129,0.9811935846702504,0.28421675,0.7376913756482892
0.0655,1.69274375,1.0,2643.6899552171744,0.5214850059611005,1.2860932472410145,0.9813479254131532,0.2841482375,0.7390008095761855
0.066,1.6911,1.0,2641.5421361136455,0.5241690923242469,1.285370749736783,0.9814987114839949,0.2840792,0.7403173953911555
0.0665,1.6894437500000001,1.0,2639.4047672715415,0.5268381200792349,1.2846425185426467,0.9816460385207026,0.2840096375,0.7416410607069486
0.067,1.687775,1.0,2637.278243353137,0.5294921750910884,1.2839085499015341,0.9817899987859329,0.28393955,0.7429717324388014
0.0675,1.68609375,1.0,2635.162958420959,0.532131343224831,1.2831688400563739,0.9819306813085067,0.2838689375,0.7443093368020655
0.068,1.6844000000000001,1.0,2633.0593059453718,0.5347557103454869,1.2824233852500948,0.9820681720179477,0.2837978,0.7456537993108308
0.0685,1.68269375,1.0,2630.9637614841386,0.5373653349400778,1.2816722179933067,0.9822025538188967,0.2837261375,0.7470049796260558
0.069,1.680975,1.0,2628.875610847522,0.5399603006862942,1.2809153448203887,0.9823339071941218,0.28365395,0.7483627839427364
0.0695,1.67924375,1.0,2626.8012548022252,0.5425407338922412,1.280152706351928,0.9824623094970488,0.28358123749999997,0.7497272357260536
0.07,1.6775,1.0,2624.7404878803304,0.5451067112728963,1.2793843043501263,0.9825878351476796,0.283508,0.7510982477129975
0.07050000000000001,1.67574375,1.0,2622.6931050064222,0.547658309543237,1.278610140577185,0.9827105560692488,0.2834342375,0.7524757320394171
0.07100000000000001,1.673975,1.0,2620.6589014930964,0.5501956054182409,1.2778302167953057,0.982830541787342,0.28335995,0.7538596002406678
0.07150000000000001,1.67219375,1.0,2618.6376730364996,0.5527186756128853,1.2770445347666897,0.9829478595244276,0.2832851375,0.7552497632522592
0.07200000000000001,1.6704,1.0,2616.629215711784,0.555227596842148,1.2762530962535386,0.9830625742900474,0.2832098,0.7566461314105012
0.0725,1.66859375,1.0,2614.633325968687,0.5577224458210062,1.275455903018054,0.9831747489668867,0.2831339375,0.7580486144531521
0.073,1.6667750000000001,1.0,2612.6498006274765,0.5602032992644376,1.274652956822437,0.9832844443929447,0.28305755,0.7594571215200656
0.0735,1.66494375,1.0,2610.6784368743497,0.5626702338874195,1.2738442594288895,0.9833917194399975,0.2829806375,0.7608715611538364
0.074,1.6631,1.0,2608.7190322573524,0.5651233264049298,1.273029812599613,0.9834966310885512,0.2829032,0.7622918413004474
0.0745,1.6612437500000001,1.0,2606.771384682463,0.5675626535319456,1.2722096180968088,0.9835992344994597,0.2828252375,0.7637178693099156
0.075,1.659375,1.0,2604.835292409458,0.5699882919834446,1.2713836776826783,0.9836995830823758,0.28274675,0.7651495519369392
