Time [s],Phi [rad],STIM [ ],Fsee [N],Gamma [ ],Lcerel [ ],q [ ],Lmtc [m],fisomrel [ ]
0.0,1.8,1.0,18.052169803718428,0.00029523464582976696,1.3793302333127404,0.005022617207033973,0.288653,0.5411625449454782
0.0005,1.79999375,1.0,18.453489149694224,0.00590278792178562,1.379282802096848,0.013751327477304585,0.2886527375,0.541277283270291
0.001,1.799975,1.0,22.006820975310383,0.01147888725745444,1.3788988053741582,0.03711040308272209,0.28865195,0.5422056609886345
0.0015,1.79994375,1.0,31.917634491348583,0.01702370908556634,1.3779744099034112,0.07264736043055987,0.2886506375,0.54443668832324
0.002,1.7999,1.0,55.344539867563476,0.02253742884698696,1.3762547370979288,0.11713404192677587,0.2886488,0.5485726173831904
0.0025,1.79984375,1.0,100.02610580022323,0.02802022099980626,1.3737961107247112,0.16719919272758876,0.28864643749999996,0.5544530217062483
0.003,1.7997750000000001,1.0,164.7058442151555,0.03347225902475653,1.3710748718037653,0.21998517515368485,0.28864354999999997,0.560916580088709
0.0035,1.79969375,1.0,241.89846122508487,0.03889371542680065,1.368455467680538,0.27330119732258235,0.2886401375,0.5670936490316199
0.004,1.7996,1.0,325.93996487075145,0.044284761745199165,1.3660380238953223,0.3255175164025079,0.2886362,0.5727556283890545
0.0045000000000000005,1.7994937500000001,1.0,413.8923063077118,0.049645568558950824,1.3638145631601857,0.3755033122885407,0.2886317375,0.577930368726286
0.005,1.799375,1.0,504.1261709856316,0.05497630547845856,1.361758433709373,0.4225566057677795,0.28862675,0.5826876136484092
0.0055,1.79924375,1.0,595.5405295798909,0.06027714118350253,1.3598462151595765,0.4663112072459648,0.2886212375,0.5870876959034688
0.006,1.7991000000000001,1.0,687.2692284982339,0.06554824339132011,1.3580602018043828,0.5066440760850375,0.2886152,0.5911763134049894
0.006500000000000001,1.79894375,1.0,778.5996327093558,0.07078977886251475,1.3563868302623798,0.5435964881505769,0.2886086375,0.5949886071923906
0.007,1.798775,1.0,868.9465409283499,0.07600191352195666,1.3548152105001634,0.5773131535932857,0.28860155,0.598552826523357
0.0075,1.79859375,1.0,957.8187304748913,0.08118481210453371,1.3533364872892386,0.6079982117081321,0.2885939375,0.6018919858102734
0.008,1.7984,1.0,1044.8420977349688,0.08633863889313372,1.3519427047035868,0.6358842986694682,0.2885858,0.6050265708097065
0.0085,1.79819375,1.0,1129.6959679128925,0.09146355673345713,1.3506272724297521,0.6612127915481271,0.2885771375,0.6079735836367105
0.009000000000000001,1.797975,1.0,1212.1364081293764,0.09655972762162197,1.3493842026984242,0.6842206852313907,0.28856795,0.6107483383443446
0.0095,1.79774375,1.0,1292.0011352160334,0.101627313326121,1.3482077949765745,0.705132936110877,0.2885582375,0.6133652152983159
0.01,1.7975,1.0,1369.154268188371,0.10666647391081782,1.347093176101939,0.724158756570124,0.288548,0.6158365022432029
0.0105,1.79724375,1.0,1443.507317382722,0.11167736853402617,1.346035820125502,0.7414896212655615,0.2885372375,0.61817350507038
0.011,1.796975,1.0,1515.0159382774614,0.11666015572706068,1.3450314607413896,0.757298953829042,0.28852595000000003,0.6203867700850222
0.0115,1.79669375,1.0,1583.6817944014103,0.12161499416550305,1.3440759679670398,0.77174267462658,0.2885141375,0.6224863784041601
0.012,1.7964,1.0,1649.491562184713,0.12654203979036666,1.3431659850810123,0.7849605705512877,0.28850180000000003,0.6244805697811814
0.0125,1.79609375,1.0,1712.4633422210852,0.1314414481571245,1.3422982690674594,0.797077302163886,0.2884889375,0.6263772161780012
0.013000000000000001,1.7957750000000001,1.0,1772.64442431108,0.13631337440249114,1.3414696645551527,0.8082038133585615,0.28847555,0.6281838909074984
0.0135,1.79544375,1.0,1830.1010592516454,0.14115797354155252,1.3406771734733944,0.818438765504927,0.2884616375,0.6299077279151107
0.014,1.7951000000000001,1.0,1884.8905078360917,0.14597539872383392,1.3399182162158423,0.8278699604814038,0.2884472,0.6315548669790814
0.0145,1.79474375,1.0,1937.0680765206707,0.15076580156061342,1.3391904984442928,0.8365755052309287,0.2884322375,0.6331307581795669
0.015,1.794375,1.0,1986.7100414690901,0.1555293336631692,1.3384917258205424,0.8446248280758264,0.28841675,0.6346407893846644
0.0155,1.79399375,1.0,2033.895870925452,0.16026614562871827,1.337819772059625,0.8520797494203707,0.2884007375,0.6360899285892316
0.016,1.7936,1.0,2078.727791336616,0.1649763889598764,1.3371724483024676,0.8589953066014526,0.2883842,0.6374832273779331
0.0165,1.7931937500000001,1.0,2121.2785060356414,0.16966021186056038,1.336548030063615,0.8654207140153507,0.2883671375,0.6388246921565692
0.017,1.792775,1.0,2161.6213480998745,0.17431776169721452,1.3359449129832008,0.8713999466730596,0.28834955,0.6401180339308343
0.0175,1.7923437500000001,1.0,2199.840568292945,0.1789491858362833,1.3353614927013584,0.8769723243550015,0.2883314375,0.6413669298887652
0.018000000000000002,1.7919,1.0,2236.023471390214,0.18355463086530296,1.3347962344910216,0.8821730769895412,0.2883128,0.6425748768196202
0.0185,1.79144375,1.0,2270.262404642238,0.18813424372855583,1.334247642103412,0.8870338141239931,0.2882936375,0.6437452606770071
0.019,1.790975,1.0,2302.6381938413033,0.19268816954982307,1.3337144125731972,0.8915829804010947,0.28827395,0.6448810294672382
0.0195,1.79049375,1.0,2333.219109025493,0.19721655117226017,1.3331954329920896,0.8958462147318996,0.2882537375,0.6459847048252995
0.02,1.79,1.0,2362.079131086284,0.20171953143902266,1.3326895904518021,0.8998466235770518,0.288233,0.6470587895567991
0.0205,1.78949375,1.0,2389.2974745899373,0.2061972531932661,1.3321957720440472,0.9036050651877041,0.2882117375,0.6481057686098834
0.021,1.788975,1.0,2414.945255481104,0.21064985738852182,1.331712989350967,0.9071404250145074,0.28818995000000003,0.6491278466066496
0.021500000000000002,1.78844375,1.0,2439.1105869852727,0.21507748777838587,1.3312401299836119,0.9104697810773985,0.2881676375,0.6501274754095661
0.022,1.7879,1.0,2461.8567887068793,0.21948028375290432,1.3307763570368716,0.9136086782288954,0.2881448,0.6511065102851278
0.0225,1.78734375,1.0,2483.240870431645,0.22385838322422408,1.330320923461963,0.91657125432334,0.28812143749999997,0.6520666056225636
0.023,1.786775,1.0,2503.3225433544744,0.22821192410449204,1.3298730822101024,0.9193703713555679,0.28809755,0.6530094057181348
0.0235,1.78619375,1.0,2522.163994637579,0.23254104430585498,1.3294320862325062,0.9220177482530644,0.28807313749999996,0.6539365451546513
0.024,1.7856,1.0,2539.828373390769,0.2368458814608866,1.3289972007391433,0.9245240803462429,0.2880482,0.6548496234241322
0.0245,1.78499375,1.0,2556.368894840369,0.24112657061656356,1.3285678034526265,0.9268991595780149,0.2880227375,0.6557499953262634
0.025,1.784375,1.0,2571.8603146604705,0.2453832513945646,1.3281430864468002,0.9291519163297565,0.28799675,0.6566393967384178
0.025500000000000002,1.78374375,1.0,2586.345383671808,0.24961605639170167,1.3277225573501925,0.931290583858205,0.2879702375,0.6575188947826842
0.026000000000000002,1.7831000000000001,1.0,2599.868109281095,0.2538251182047868,1.3273057237913308,0.9333227161850727,0.2879432,0.6583895509356921
0.0265,1.78244375,1.0,2612.4736508247543,0.25801056943063194,1.326892093398743,0.9352552532980204,0.2879156375,0.6592524211523838
0.027,1.781775,1.0,2624.2082202875554,0.26217254266604917,1.3264811738009565,0.9370945792983979,0.28788755,0.6601085559743292
0.0275,1.7810937500000001,1.0,2635.118988396249,0.2663111705078504,1.3260724726264996,0.9388465743343705,0.2878589375,0.6609590006225786
0.028,1.7804007866314122,1.0,2645.2898382829962,0.270426581748779,1.3256655218186635,0.940516663069304,0.2878298330385193,0.6618047445745461
0.0285,1.7797052212436055,1.0,2655.182363155639,0.2745189119035592,1.3252601414041787,0.9421098982482257,0.28780061929223144,0.6626461747886916
0.029,1.7790096558557988,1.0,2664.922257558187,0.27858828915207134,1.3248563348686844,0.9436309724161197,0.28777140554594355,0.663483296223486
0.029500000000000002,1.7783140904679922,1.0,2674.507933139532,0.2826348404871907,1.3244541081765173,0.9450842268283558,0.28774219179965566,0.6643161086970051
0.03,1.7776185250801855,1.0,2683.937813448253,0.28665869290179247,1.3240534672920137,0.9464736823491487,0.2877129780533678,0.6651446120408924
0.0305,1.7769229596923786,1.0,2693.210334141571,0.29065997338875194,1.32365441817951,0.9478030671578602,0.28768376430707987,0.665968806099754
0.031,1.7762273943045719,1.0,2702.3239431960283,0.29463880894094446,1.3232569668033431,0.9490758417345883,0.28765455056079203,0.6667886907305558
0.0315,1.7755318289167652,1.0,2711.2771011177933,0.29859532655124515,1.3228611191278492,0.9502952214215271,0.28762533681450414,0.6676042658020178
0.032,1.7748362635289585,1.0,2720.0750928062607,0.3025295977915358,1.3224668190948143,0.9514641724061119,0.28759612306821625,0.6684156587464041
0.0325,1.7741406981411518,1.0,2728.711784118117,0.3064418191108408,1.3220741149664352,0.9525855066870689,0.28756690932192835,0.6692227821064651
0.033,1.7734451327533451,1.0,2737.1887250116183,0.31033211977191383,1.3216829851028837,0.9536618161024398,0.28753769557564046,0.6700256922681693
0.0335,1.7727495673655385,1.0,2745.50886292854,0.3142006166746401,1.3212933954835333,0.9546955135620397,0.2875084818293526,0.6708244707227738
0.034,1.7720540019777316,1.0,2753.675184093618,0.31804742671890485,1.3209053120877565,0.9556888521950905,0.28747926808306473,0.6716191985773584
0.0345,1.7713584365899249,1.0,2761.690712365658,0.32187266680459314,1.3205187008949268,0.9566439378217334,0.28745005433677684,0.6724099565581263
0.035,1.7706628712021182,1.0,2769.558508114169,0.32567645383159033,1.320133527884417,0.9575627403123343,0.28742084059048895,0.6731968250136389
0.035500000000000004,1.7699673058143115,1.0,2777.2816671216997,0.3294589046997814,1.3197497590356007,0.9584471039453961,0.28739162684420105,0.6739798839179698
0.036000000000000004,1.7692717404265048,1.0,2784.8633195119596,0.3332201363090517,1.3193673603278504,0.9592987568627467,0.2873624130979132,0.6747592128737914
0.0365,1.7685761750386981,1.0,2792.3066287032457,0.33696026555928615,1.3189862977405395,0.960119319710007,0.2873331993516253,0.6755348911153822
0.037,1.7678806096508914,1.0,2799.6147903881847,0.3406794093503702,1.3186065372530411,0.9609103135409033,0.28730398560533743,0.6763069975115642
0.0375,1.7671850442630848,1.0,2806.791031538581,0.3443776845821889,1.318228044844728,0.9616731670556519,0.28727477185904954,0.6770756105685642
0.038,1.7664894788752779,1.0,2813.8386094358875,0.3480552081546275,1.3178507864949738,0.9624092232362784,0.28724555811276165,0.6778408084328016
0.0385,1.7657939134874712,1.0,2820.760810727838,0.35171209696757105,1.3174747281831511,0.9631197454351902,0.2872163443664738,0.6786026688936042
0.039,1.7650983480996645,1.0,2827.5609505101743,0.35534846792090485,1.3170998358886332,0.9638059229675257,0.2871871306201859,0.6793612693858478
0.0395,1.7644027827118578,1.0,2834.242371434537,0.358964437914514,1.3167260755907932,0.9644688762526614,0.287157916873898,0.6801166869925228
0.04,1.7637072173240511,1.0,2840.808442841714,0.3625601238482837,1.316353413269004,0.9651096615456742,0.28712870312761013,0.6808689984472283
0.0405,1.7630116519362444,1.0,2847.262559920422,0.3661356426220991,1.3159818149026392,0.965729275295483,0.28709948938132224,0.6816182801365889
0.041,1.7623160865484375,1.0,2853.608142892409,0.3696911111358454,1.3156112464710712,0.9663286581627673,0.2870702756350344,0.6823646081026045
0.0415,1.7616205211606308,1.0,2859.84443522604,0.37322661016099595,1.31524171125878,0.9669086957272189,0.2870410618887465,0.6831079830441199
0.042,1.7609249557728242,1.0,2865.977970068912,0.37674227174858727,1.314873147935219,0.9674702284706643,0.2870118481424586,0.6838485354252735
0.0425,1.7602293903850175,1.0,2872.01556052909,0.38023823688881825,1.3145054930095095,0.9680140525187007,0.2869826343961707,0.6845863994478488
0.043000000000000003,1.7595338249972108,1.0,2877.9594597794,0.3837146103907799,1.3141387236733781,0.9685409187507883,0.28695342064988283,0.685321627196623
0.043500000000000004,1.758838259609404,1.0,2883.8119369484157,0.3871714970635633,1.3137728171185517,0.9690515383252655,0.286924206903595,0.686054270527704
0.044,1.7581426942215974,1.0,2889.575276678359,0.39060900171625934,1.3134077505367563,0.9695465851776854,0.2868949931573071,0.6867843810698033
0.0445,1.7574471288337907,1.0,2895.2517786945964,0.3940272291579592,1.313043501119719,0.9700266983381255,0.2868657794110192,0.6875120102254735
0.045,1.7567515634459838,1.0,2900.8437573867045,0.3974262841977537,1.3126800460591663,0.9704924840822486,0.2868365656647313,0.6882372091723139
0.0455,1.7560559980581771,1.0,2906.3535414008666,0.4008062716447341,1.3123173625468247,0.970944517929557,0.2868073519184434,0.688960028864143
0.046,1.7553604326703705,1.0,2911.78347324414,0.4041672963079912,1.3119554277744208,0.971383346501075,0.2867781381721556,0.689680520032137
0.0465,1.7546648672825638,1.0,2917.135908899586,0.4075094629966161,1.3115942189336813,0.9718094892476107,0.2867489244258677,0.6903987331859345
0.047,1.753969301894757,1.0,2922.413217454144,0.41083287651969985,1.3112337132163325,0.972223440058769,0.2867197106795798,0.691114718614712
0.0475,1.7532737365069504,1.0,2927.6177807366244,0.4141376416863334,1.3108738878141015,0.9726256687619965,0.2866904969332919,0.6918285263882189
0.048,1.7525781711191437,1.0,2932.751992968316,0.41742386330560777,1.3105147199187146,0.9730166225201419,0.286661283187004,0.6925402063577877
0.0485,1.7518826057313368,1.0,2937.8182604245876,0.42069164618661403,1.3101561867218985,0.9733967271352859,0.2866320694407162,0.6932498081573051
0.049,1.7511870403435301,1.0,2942.8190011080214,0.42394109513844314,1.3097982654153795,0.9737663882659431,0.2866028556944283,0.6939573812041522
0.0495,1.7504914749557234,1.0,2947.7566444334884,0.4271723149701861,1.3094409331908845,0.9741259925641287,0.2865736419481404,0.6946629747001103
0.05,1.7497959095679168,1.0,2952.633630924282,0.430385410490934,1.30908416724014,0.9744759087382587,0.2865444282018525,0.6953666376322357
0.0505,1.74910034418011,1.0,2957.4524119201255,0.4335804865097778,1.308727944754873,0.9748164885473433,0.2865152144555646,0.6960684187736993
0.051000000000000004,1.7484047787923034,1.0,2962.215118683829,0.4367576439337744,1.3083722458114955,0.9751480674866708,0.28648600070927677,0.6967683610113986
0.051500000000000004,1.7477092134044967,1.0,2966.9196884822545,0.43991693894737227,1.3080170871314938,0.9754709634225818,0.2864567869629889,0.6974664350606816
0.052000000000000005,1.7470136480166898,1.0,2971.5730595190844,0.4430585366003958,1.3076624069879732,0.9757854867951226,0.286427573216701,0.6981627657090776
0.0525,1.746318082628883,1.0,2976.176390805087,0.4461825308264793,1.3073081941683677,0.9760919298259946,0.2863983594704131,0.6988573781791352
0.053,1.7456225172410764,1.0,2980.730846813324,0.4492890155592573,1.3069544374601112,0.9763905719455903,0.2863691457241252,0.6995502975878403
0.0535,1.7449269518532697,1.0,2985.237597364512,0.45237808473236424,1.3066011256506376,0.9766816804624383,0.28633993197783736,0.700241548946945
0.054,1.744231386465463,1.0,2989.6978175147465,0.45544983227943453,1.3062482475273807,0.9769655111921012,0.28631071823154947,0.7009311571632915
0.0545,1.7435358210776564,1.0,2994.1126874466045,0.4585043521341026,1.3058957918777743,0.9772423090483052,0.2862815044852616,0.7016191470391244
0.055,1.7428402556898497,1.0,2998.48339236259,0.46154173823000294,1.3055437474892524,0.977512308598871,0.2862522907389737,0.7023055432723979
0.0555,1.742144690302043,1.0,3002.811122381462,0.4645620845007699,1.305192103149249,0.9777757345888146,0.2862230769926858,0.7029903704570731
0.056,1.741449124914236,1.0,3007.0970724373574,0.467565484880038,1.3048408476451978,0.9780328024328189,0.2861938632463979,0.7036736530834098
0.0565,1.7407535595264294,1.0,3011.3424421819377,0.47055203330144163,1.304489969764533,0.9782837186791031,0.28616464950011,0.7043554155382457
0.057,1.7400579941386227,1.0,3015.548435888914,0.4735218236986153,1.3041394582946881,0.9785286814465725,0.28613543575382216,0.7050356821052732
0.0575,1.739362428750816,1.0,3019.71626236156,0.47647495000519335,1.3037893020230975,0.9787678808369934,0.28610622200753427,0.7057144769653038
0.058,1.7386668633630094,1.0,3023.847134843158,0.47941150615481026,1.3034394897371946,0.9790014993238092,0.2860770082612464,0.7063918241965275
0.0585,1.7379712979752027,1.0,3027.942270930158,0.4823315860811005,1.3030900102244136,0.9792297121190987,0.28604779451495854,0.7070677477747603
0.059000000000000004,1.737275732587396,1.0,3032.002892487502,0.4852352837176984,1.3027408522721884,0.9794526875200679,0.2860185807686706,0.7077422715736894
0.059500000000000004,1.736580167199589,1.0,3036.030225568262,0.48812269299823857,1.3023920046679527,0.9796705872363709,0.28598936702238276,0.7084154193651049
0.06,1.7358846018117824,1.0,3040.0255003341235,0.49099390785635527,1.3020434561991405,0.9798835666994624,0.28596015327609486,0.7090872148191258
0.0605,1.7351890364239757,1.0,3043.98995098018,0.49384902222568305,1.301695195653186,0.9800917753550988,0.28593093952980697,0.7097576815044193
0.061,1.734493471036169,1.0,3047.9230236755684,0.4966880907200779,1.3013472272316875,0.9802953546918096,0.2859017257835191,0.7104268132645846
0.0615,1.7337979056483623,1.0,3051.8265031981714,0.49951122996281183,1.3009995350270398,0.980494444607458,0.2858725120372312,0.7110946425813325
0.062,1.7331023402605557,1.0,3055.7023123757026,0.5023185560191684,1.3006521019908979,0.9806891795974371,0.28584329829094335,0.7117612039810419
0.0625,1.732406774872749,1.0,3059.5509997366544,0.5051101526410933,1.300304922921011,0.9808796873067307,0.28581408454465546,0.7124265091498903
0.063,1.731711209484942,1.0,3063.3731157693965,0.5078861035805318,1.2999579926151295,0.9810660906737318,0.28578487079836756,0.7130905697267282
0.0635,1.7310156440971354,1.0,3067.1692128934565,0.5106464925894294,1.2996113058710022,0.9812485081387428,0.28575565705207967,0.7137533973031658
0.064,1.7303200787093287,1.0,3070.9398454305406,0.5133914034197317,1.2992648574863792,0.9814270538417553,0.2857264433057918,0.7144150034236516
0.0645,1.729624513321522,1.0,3074.685569577259,0.5161209198233841,1.29891864225901,0.9816018378101372,0.28569722955950394,0.7150753995855549
0.065,1.7289289479337153,1.0,3078.4069433775517,0.5188351255523322,1.2985726549866443,0.9817729661368045,0.28566801581321605,0.7157345972392419
0.0655,1.7282333825459086,1.0,3082.10452669634,0.5215341043585214,1.298226890467032,0.981940541149435,0.28563880206692815,0.7163926077881534
0.066,1.727537817158102,1.0,3085.7788811935666,0.5242179399938973,1.2978813434979222,0.9821046615712279,0.28560958832064026,0.7170494425888805
0.0665,1.7268422517702953,1.0,3089.4305702985275,0.5268867162104052,1.2975360088770649,0.9822654226736938,0.28558037457435237,0.7177051129512346
0.067,1.7261466863824884,1.0,3093.0601591854243,0.5295405167599906,1.2971908814022097,0.9824229164219208,0.28555116082806453,0.7183596301383217
0.0675,1.7254511209946817,1.0,3096.668214748861,0.5321794253945992,1.2968459558711063,0.9825772316127387,0.28552194708177664,0.7190130053666111
0.068,1.724755555606875,1.0,3100.255305580387,0.5348035258661762,1.2965012270815042,0.9827284540061773,0.28549273333548875,0.7196652498060022
0.0685,1.7240599902190683,1.0,3103.822001945615,0.5374129019266674,1.2961566898311532,0.9828766664505856,0.28546351958920085,0.720316374579892
0.069,1.7233644248312616,1.0,3107.368875761718,0.5400076373280179,1.2958123389178027,0.9830219490017621,0.28543430584291296,0.7209663907652393
0.0695,1.722668859443455,1.0,3110.89650057557,0.5425878158221735,1.2954681691392025,0.9831643790364206,0.2854050920966251,0.7216153093926264
0.07,1.721973294055648,1.0,3114.4054515424837,0.5451535211610796,1.2951241752931024,0.9833040313602984,0.28537587835033723,0.7222631414463206
0.07050000000000001,1.7212777286678413,1.0,3117.8963054061073,0.5477048370966817,1.2947803521772518,0.9834409783111919,0.28534666460404934,0.7229098978643347
