Time [s],Phi [rad],STIM [ ],Fsee [N],Gamma [ ],Lcerel [ ],q [ ],Lmtc [m],fisomrel [ ]
0.0,1.8,1.0,18.207547176919476,0.0004985619631704233,1.3793129040956327,0.0050642258197640165,0.288653,0.5412044667938054
0.0005,1.79999375,1.0,18.670401787100015,0.006104974733674429,1.3792588930457543,0.014352349944275384,0.2886527375,0.5413351149416744
0.001,1.799975,1.0,22.374580932390472,0.011679939961206316,1.3788617313238147,0.03819978787657348,0.28865195,0.5422952440635256
0.0015,1.79994375,1.0,32.62296471675111,0.017223634042533523,1.3779154461857253,0.07411895201375332,0.2886506375,0.5445788122903195
0.002,1.7999,1.0,56.71810337668846,0.02273623238296553,1.3761675948325538,0.11886421684004375,0.2886488,0.5487816983351137
0.0025,1.79984375,1.0,102.21190391261756,0.028217909405434637,1.3736928851349288,0.16907341904571502,0.28864643749999996,0.5546990676005514
0.003,1.7997750000000001,1.0,167.47306853422336,0.03366883855438485,1.3709729036679847,0.22191344322310413,0.28864354999999997,0.5611578595157657
0.0035,1.79969375,1.0,244.98197272370928,0.03908919230061042,1.36836161666755,0.27521537664802503,0.2886401375,0.5673141561418014
0.004,1.7996,1.0,329.1956623754149,0.04447914214826341,1.3659525994525796,0.32736832977125346,0.2886362,0.5729550221744255
0.0045000000000000005,1.7994937500000001,1.0,417.2400651263338,0.04983885861562209,1.3637365761411053,0.37725848541216184,0.2886317375,0.5781112983965111
0.005,1.799375,1.0,507.5383826341963,0.05516851137485627,1.361686385915368,0.4241973543034162,0.28862675,0.5828538209294625
0.0055,1.79924375,1.0,598.965204214912,0.06046826892487904,1.3597796682303613,0.46782957745552634,0.2886212375,0.5872404028317957
0.006,1.7991000000000001,1.0,690.6933042051803,0.06573829908368141,1.3579982537936413,0.5080389030355388,0.2886152,0.5913177623746928
0.006500000000000001,1.79894375,1.0,781.9949595458882,0.07097876848559033,1.3563291085548252,0.5448715492529089,0.2886086375,0.595119790805241
0.007,1.798775,1.0,872.3000855225505,0.07618984304406223,1.3547612375050377,0.578474926278499,0.28860155,0.5986749501399689
0.0075,1.79859375,1.0,961.1211320629538,0.08137168759580089,1.3532858580106968,0.6090546868099163,0.2885939375,0.6020060667399421
0.008,1.7984,1.0,1048.059411448905,0.08652446590740553,1.3518954743149962,0.636844327160645,0.2885858,0.605132573841275
0.0085,1.79819375,1.0,1132.8345479006002,0.09164834154275683,1.3505829586842786,0.6620849128631359,0.2885771375,0.6080726692607699
0.009000000000000001,1.797975,1.0,1215.1945596657074,0.09674347620325777,1.3493425160513657,0.6850132232315042,0.28856795,0.6108412196393538
0.0095,1.79774375,1.0,1294.956594946896,0.10181003100381003,1.3481687708827819,0.7058538600680047,0.2885582375,0.6134518717537403
0.01,1.7975,1.0,1372.0109556294005,0.10684816641221635,1.3470565325508879,0.7248152320035387,0.288548,0.6159176122887581
0.0105,1.79724375,1.0,1446.2799643312703,0.11185804222929394,1.3460011812279797,0.7420881176995978,0.2885372375,0.618249944479728
0.011,1.796975,1.0,1517.6988063149915,0.11683981633641038,1.3449987428016241,0.7578454417357667,0.28852595000000003,0.62045876105006
0.0115,1.79669375,1.0,1586.2494972482837,0.12179364618304206,1.3440453397123628,0.7722426162551721,0.2885141375,0.6225535848922349
0.012,1.7964,1.0,1651.9576982932315,0.12671968942276743,1.343137160225785,0.7854186449216733,0.28850180000000003,0.6245436520158925
0.0125,1.79609375,1.0,1714.8481168115445,0.13161810207353786,1.3422709117851956,0.7974976560590012,0.2884889375,0.6264369354136825
0.013000000000000001,1.7957750000000001,1.0,1774.9420461549762,0.13648903812678953,1.3414437577144211,0.8085902603461784,0.28847555,0.6282403071360194
0.0135,1.79544375,1.0,1832.2918615656786,0.14133265157395863,1.3406528613372888,0.8187947540414436,0.2884616375,0.6299605486693811
0.014,1.7951000000000001,1.0,1886.9696979215769,0.1461490958191035,1.3398954799680498,0.828198493360972,0.2884472,0.6316041540092125
0.0145,1.79474375,1.0,1939.0573330557302,0.15093852429830767,1.339169040195629,0.836879154376282,0.2884322375,0.633177175295841
0.015,1.794375,1.0,1988.6248415518735,0.15570108849386033,1.3384713301040598,0.8449059087998717,0.28841675,0.6346848172754738
0.0155,1.79399375,1.0,2035.737434319483,0.16043693808420967,1.337800385023426,0.8523403745280085,0.2884007375,0.6361316960396213
0.016,1.7936,1.0,2080.476290462544,0.1651462227478039,1.3371542402838106,0.859237427279268,0.2883842,0.6375223796512963
0.0165,1.7931937500000001,1.0,2122.9313535545302,0.16982909161002793,1.3365309913521197,0.8656460175636,0.2883671375,0.6388612623072689
0.017,1.792775,1.0,2163.195028367558,0.17448569362409244,1.3359288422738786,0.8716098865628469,0.28834955,0.6401524646955726
0.0175,1.7923437500000001,1.0,2201.356906658287,0.17911617700253826,1.335346142535298,0.8771681892941594,0.2883314375,0.6413997598427795
0.018000000000000002,1.7919,1.0,2237.4852898215763,0.18372068687384013,1.3347815563292802,0.8823560745508636,0.2883128,0.6426062166509725
0.0185,1.79144375,1.0,2271.656692904683,0.1882993683664727,1.334233747848728,0.8872050685741557,0.2882936375,0.6437748781855641
0.019,1.790975,1.0,2303.9551607306425,0.19285236660891072,1.3337013812865441,0.8917434943222097,0.28827395,0.6449087631615195
0.0195,1.79049375,1.0,2334.461172893087,0.19737982539834617,1.3331832235517418,0.895996862523237,0.2882537375,0.6460106490550703
0.02,1.79,1.0,2363.265718480543,0.20188188996302797,1.3326779977315606,0.8999881573538208,0.288233,0.6470833859225757
0.0205,1.78949375,1.0,2390.441935094007,0.20635870261114575,1.33218465469916,0.9037381785630149,0.2882117375,0.6481293213724484
0.021,1.788975,1.0,2416.052590546478,0.21081040362182327,1.3317022898626336,0.9072657636403244,0.28818995000000003,0.649150481185859
0.021500000000000002,1.78844375,1.0,2440.1643494799623,0.21523713327418442,1.3312299986300753,0.9105879720164883,0.2881676375,0.6501488775750011
0.022,1.7879,1.0,2462.8474490363687,0.21963903184735295,1.330766876409579,0.9137202774146479,0.2881448,0.6511265097903389
0.0225,1.78734375,1.0,2484.1703440859237,0.2240162386321368,1.3303120667115675,0.9166767461767283,0.28812143749999997,0.652085263344174
0.023,1.786775,1.0,2504.2011576185646,0.22836889298330823,1.3298647436873048,0.9194701825306292,0.28809755,0.6530269479340202
0.0235,1.78619375,1.0,2523.0098426725644,0.23269713451186091,1.3294240886882014,0.9221122552819453,0.28807313749999996,0.6539533475508548
0.024,1.7856,1.0,2540.646468548267,0.2370010983478954,1.3289894925201127,0.9246136485631135,0.2880482,0.6548657965923429
0.0245,1.78499375,1.0,2557.16294740921,0.2412809196215122,1.3285603459888944,0.9269841254620115,0.2880227375,0.6557656219504402
0.025,1.784375,1.0,2572.61288031331,0.24553673346281185,1.3281360399004019,0.9292326200521877,0.28799675,0.6566541432349551
0.025500000000000002,1.78374375,1.0,2587.051411472655,0.24976867500189487,1.3277159650604906,0.9313673191082098,0.2879702375,0.6575326729734416
0.026000000000000002,1.7831000000000001,1.0,2600.5280196154545,0.2539768776314421,1.3272995781233594,0.9333957447014191,0.2879432,0.6584023793375987
0.0265,1.78244375,1.0,2613.094836266233,0.2581614761273269,1.3268863223216827,0.9353248064795182,0.2879156375,0.6592644524202965
0.027,1.781775,1.0,2624.8060750012914,0.26232260505938987,1.326475631894938,0.9371608596043669,0.28788755,0.6601200949579111
0.0275,1.7810937500000001,1.0,2635.698543247993,0.2664603940313358,1.3260671114768334,0.9389097816572071,0.2878589375,0.66097014927664
0.028,1.7804,1.0,2645.809822378529,0.27057497264686964,1.3256603657010773,0.9405769929136059,0.2878298,0.6618154534803592
0.0285,1.77969375,1.0,2655.178200936464,0.2746664705096963,1.3252549992013773,0.9421674979205498,0.2878001375,0.6626568415003573
0.029,1.778975,1.0,2663.8426113282603,0.2787350172235206,1.3248506166114415,0.9436859227923026,0.28776995,0.6634951431350964
0.029500000000000002,1.7782437500000001,1.0,2671.8425699809272,0.28278074239204753,1.324446822564978,0.9451365487124725,0.2877392375,0.6643311840800056
0.03,1.7775,1.0,2679.2115247612824,0.2868037729595749,1.324043282212735,0.9465233492184983,0.287708,0.665165660882646
0.0305,1.77674375,1.0,2685.9894902692145,0.29080423940878614,1.3236396045789627,0.9478500034595846,0.2876762375,0.6659993824871578
0.031,1.775975,1.0,2692.208325965218,0.29478226849290673,1.3232354772360853,0.9491199361530667,0.28764395,0.6668329918876283
0.0315,1.7751937500000001,1.0,2697.894037569952,0.2987379842760138,1.322830644427503,0.9503363363982906,0.2876111375,0.6676670121764129
0.032,1.7744,1.0,2703.0729168202415,0.3026715108221844,1.3224248503966167,0.9515021710204199,0.2875778,0.6685019637969367
0.0325,1.77359375,1.0,2707.771514184047,0.30658297219549563,1.3220178393868263,0.9526202027829141,0.2875439375,0.6693383645301025
0.033,1.772775,1.0,2712.0166130248244,0.31047249246002456,1.321609355641532,0.9536930068982372,0.28750955,0.6701767294765261
0.0335,1.7719437500000002,1.0,2715.8352052169284,0.3143401956798483,1.3211991434041346,0.9547229860139907,0.2874746375,0.6710175710345988
0.034,1.7711000000000001,1.0,2719.245018492275,0.3181861981030237,1.3207870329741416,0.9557123913942682,0.2874392,0.671861222817752
0.0345,1.7702437500000001,1.0,2722.282178813317,0.32201063271442165,1.3203726884979596,0.9566633133017416,0.2874032375,0.6727083560733078
0.035,1.7693750000000001,1.0,2724.966325194007,0.3258136196331791,1.3199559256083098,0.9575777202517367,0.28736675,0.6735593292988831
0.035500000000000004,1.76849375,1.0,2727.314313447714,0.32959527657600496,1.3195365862638473,0.9584574575030034,0.2873297375,0.6744144452769352
0.036000000000000004,1.7676,1.0,2729.3430941622296,0.333355721259608,1.3191145124232269,0.9593042541516568,0.2872922,0.6752740049773157
0.0365,1.76669375,1.0,2731.069702223862,0.33709507140069717,1.3186895460451031,0.9601197317629486,0.2872541375,0.6761383075305041
0.037,1.765775,1.0,2732.51124689502,0.3408134447159813,1.3182615290881312,0.960905412268259,0.28721555,0.6770076501992495
0.0375,1.76484375,1.0,2733.6849024464213,0.3445109589221694,1.3178303035109655,0.9616627251973405,0.2871764375,0.6778823283486209
0.038,1.7639,1.0,2734.607899341905,0.3481877317359702,1.3173957112722614,0.9623930143085133,0.28713679999999997,0.678762635414462
0.0385,1.76294375,1.0,2735.2975159782004,0.35184388087409263,1.3169575943306733,0.9630975436729808,0.28709663750000003,0.6796488628702562
0.039,1.761975,1.0,2735.766268496005,0.3554795176801456,1.316515838247556,0.9637775060545548,0.28705595,0.6805412121761704
0.0395,1.7609937500000001,1.0,2736.0285825227584,0.35909476106058935,1.3160703115401957,0.96443402500429,0.2870147375,0.681439917611236
0.04,1.76,1.0,2736.1015547720735,0.36268973311971414,1.3156208587236893,0.9650681581046168,0.286973,0.6823452600080389
0.0405,1.7589937500000001,1.0,2735.994643440216,0.3662645443770845,1.3151673938598587,0.9656809070078768,0.2869307375,0.6832573783405125
0.041,1.757975,1.0,2735.7173243621714,0.3698193053522651,1.3147098310105267,0.9662732172485976,0.28688795,0.6841764102848396
0.0415,1.75694375,1.0,2735.279087981818,0.3733541265648206,1.314248084237516,0.9668459819678897,0.2868446375,0.6851024921972293
0.042,1.7559,1.0,2734.689436486006,0.3768691185343156,1.3137820676026488,0.9674000453535456,0.28680079999999997,0.6860357590912205
0.0425,1.75484375,1.0,2733.9578811021192,0.3803643917803148,1.3133116951677481,0.9679362058202438,0.2867564375,0.6869763446145155
0.043000000000000003,1.753775,1.0,2733.0939395593855,0.3838400568223828,1.312836880994636,0.9684552189519384,0.28671155,0.6879243810253441
0.043500000000000004,1.75269375,1.0,2732.107133714319,0.38729622418008436,1.3123575391451354,0.968957800226451,0.28666613750000003,0.6888799991683521
0.044,1.7516,1.0,2731.006987339125,0.39073300437298397,1.3118735836810684,0.9694446275404004,0.2866202,0.6898433284500243
0.0445,1.75049375,1.0,2729.8030240748967,0.3941505079206464,1.311384928664258,0.9699163435509529,0.2865737375,0.6908144968136318
0.045,1.7493750000000001,1.0,2728.497317242064,0.39754882824728355,1.3108915558712024,0.9703735605698165,0.28652675,0.6917934964540275
0.0455,1.74824375,1.0,2727.1028092611577,0.40092809066157603,1.3103933482741403,0.9708168568249644,0.2864792375,0.6927805144998986
0.046,1.7471,1.0,2725.628440915437,0.40428840913679,1.3098902251686224,0.9712467824613208,0.2864312,0.693775664365244
0.0465,1.7459437500000001,1.0,2724.0785726943236,0.4076298861079705,1.3093821474721337,0.9716638616427915,0.28638263750000004,0.6947789758467187
0.047,1.744775,1.0,2722.4575634950684,0.41095262401016286,1.3088690761021593,0.9720685926510039,0.28633355,0.6957904777672147
0.0475,1.74359375,1.0,2720.7697700418144,0.4142567252784121,1.3083509719761846,0.972461449403638,0.28628393750000003,0.6968101979634638
0.048,1.7424,1.0,2719.019546337283,0.4175422923477634,1.3078277960116942,0.9728428828699632,0.2862338,0.6978381632735421
0.0485,1.74119375,1.0,2717.21124314967,0.4208094276532619,1.3072995091261739,0.9732133223914338,0.2861831375,0.6988743995242748
0.049,1.739975,1.0,2715.34920753229,0.4240582336299528,1.3067660722371086,0.9735731769145267,0.28613195,0.6999189315185493
0.0495,1.73874375,1.0,2713.4377823779455,0.4272888127128812,1.3062274462619834,0.9739228361424059,0.2860802375,0.7009717830225257
0.05,1.7375,1.0,2711.481306006725,0.4305012673370922,1.3056835921182837,0.9742626716114472,0.286028,0.7020329767527512
0.0505,1.73624375,1.0,2709.4841117874466,0.4336956999376311,1.3051344707234944,0.9745930376981571,0.2859752375,0.7031025343631789
0.051000000000000004,1.734975,1.0,2707.4505277937837,0.4368722129495428,1.3045800429951009,0.9749142725615717,0.28592195,0.7041804764320871
0.051500000000000004,1.73369375,1.0,2705.38487649324,0.4400309088078727,1.3040202698505883,0.9752266990258056,0.2858681375,0.7052668224489014
0.052000000000000005,1.7324,1.0,2703.2914744706763,0.4431718899476658,1.3034551122074416,0.9755306254070442,0.2858138,0.7063615908009218
0.0525,1.73109375,1.0,2701.1729782201546,0.4462952290603918,1.3028845460956893,0.9758263441116273,0.28575893750000003,0.7074647695676285
0.053,1.729775,1.0,2699.0351225607733,0.4494010632753354,1.3023085193731092,0.9761141396292033,0.28570355000000003,0.7085764002373676
0.0535,1.72844375,1.0,2696.8795644126435,0.452489487628435,1.3017270171074233,0.9763942819193647,0.2856476375,0.7096964513630634
0.054,1.7271,1.0,2694.7078789355774,0.4555605960066669,1.3011400250922895,0.9766670291816976,0.2855912,0.7108248893093598
0.0545,1.7257437500000001,1.0,2692.5216389575844,0.45861448229700735,1.3005475291213662,0.9769326285346545,0.2855342375,0.711961679652556
0.055,1.724375,1.0,2690.322414928424,0.46165124038643274,1.299949514988311,0.9771913165816192,0.28547675,0.7131067871756284
0.0555,1.72299375,1.0,2688.1117748772995,0.4646709641619193,1.2993459684867816,0.9774433199434915,0.2854187375,0.7142601758632358
0.056,1.7216,1.0,2685.8912843749276,0.4676737475104433,1.2987368754104365,0.9776888557600347,0.2853602,0.7154218088967135
0.0565,1.72019375,1.0,2683.6625065004514,0.4706596843189812,1.298122221552933,0.9779281321620554,0.28530113749999997,0.7165916486490558
0.057,1.718775,1.0,2681.427001812748,0.47362886847450913,1.2975019927079299,0.9781613487163403,0.28524155,0.7177696566798815
0.0575,1.71734375,1.0,2679.186328325507,0.4765813938640035,1.2968761746690847,0.978388696845127,0.2851814375,0.7189557937303928
0.058,1.7159,1.0,2676.9420414880797,0.4795173543744406,1.2962447532300552,0.9786103602217598,0.2851208,0.7201500197183155
0.0585,1.71444375,1.0,2674.695694169597,0.4824368438927967,1.2956077141844995,0.9788265151440615,0.2850596375,0.7213522937328293
0.059000000000000004,1.7129750000000001,1.0,2672.4488366482865,0.48533995630604804,1.2949650433260755,0.9790373308868418,0.28499795,0.7225625740294846
0.059500000000000004,1.71149375,1.0,2670.2030166049594,0.48822678550117105,1.2943167264484414,0.9792429700348648,0.2849357375,0.7237808180251062
0.06,1.71,1.0,2667.9597791209835,0.4910974253651419,1.2936627493452548,0.9794435887975007,0.284873,0.725006982292685
0.0605,1.7084937500000001,1.0,2665.719941454575,0.49395191012420014,1.293003104480602,0.9796393328658444,0.2848097375,0.7262410100916116
0.061,1.7069750000000001,1.0,2663.4867159519254,0.49679040438591804,1.292337762267343,0.9798303515638611,0.28474595,0.7274828850526862
0.0615,1.7054437500000001,1.0,2661.2605388188413,0.4996129980285131,1.2916667186243693,0.9800167838855204,0.2846816375,0.728732542241368
0.062,1.7039,1.0,2659.041720372519,0.5024197753870977,1.2909899706232717,0.9801987631821153,0.2846168,0.7299899138924346
0.0625,1.70234375,1.0,2656.8305704218183,0.5052108207967843,1.2903075153356411,0.9803764177892236,0.2845514375,0.7312549315677503
0.063,1.7007750000000001,1.0,2654.6273982716875,0.5079862185926851,1.2896193498330684,0.9805498712511004,0.28448555,0.7325275261552002
0.0635,1.69919375,1.0,2652.432512727196,0.5107460531099127,1.2889254711871447,0.9807192425334149,0.28441913750000003,0.7338076278676224
0.064,1.6976,1.0,2650.2462220975294,0.5134904086835793,1.288225876469461,0.9808846462250149,0.2843522,0.7350951662417444
0.0645,1.69599375,1.0,2648.068834201046,0.5162193696487974,1.287520562751608,0.9810461927293628,0.2842847375,0.7363900701371131
0.065,1.694375,1.0,2645.900656369559,0.5189330203406793,1.286809527105177,0.981203988446244,0.28421675,0.737692267735028
0.0655,1.69274375,1.0,2643.7419954532875,0.5216314450943373,1.2860927666017585,0.9813581359443044,0.2841482375,0.7390016865374736
0.066,1.6911,1.0,2641.593157826068,0.5243147282448841,1.2853702783129437,0.9815087341249472,0.2840792,0.7403182533660493
0.0665,1.6894437500000001,1.0,2639.4544493907165,0.5269829541274317,1.2846420593103236,0.9816558783780753,0.2840096375,0.7416418943609
0.067,1.687775,1.0,2637.3261755839762,0.5296362070770927,1.2839081066654892,0.9817996607301419,0.28393955,0.7429725349796468
0.0675,1.68609375,1.0,2635.2086413828424,0.5322745714289794,1.283168417450031,0.9819401699849408,0.2838689375,0.7443100999963168
0.068,1.6844000000000001,1.0,2633.102151309919,0.5348981315182042,1.2824229887355405,0.9820774918575396,0.2837978,0.7456545135002703
0.0685,1.68269375,1.0,2631.007009439609,0.5375069716798795,1.2816718175936084,0.9822117091017345,0.2837261375,0.7470056988951308
0.069,1.680975,1.0,2628.923519404434,0.5401011762491177,1.2809149010958258,0.982342901631383,0.28365395,0.7483635788977117
0.0695,1.67924375,1.0,2626.851984401247,0.542680829561031,1.2801522363137834,0.9824711466359489,0.28358123749999997,0.7497280755369454
0.07,1.6775,1.0,2624.7927071980293,0.5452460159507321,1.2793838203190722,0.9825965186905717,0.283508,0.7510991101528074
0.07050000000000001,1.67574375,1.0,2622.7459901404877,0.547796819753333,1.278609650183283,0.9827190898609565,0.2834342375,0.7524766033952444
0.07100000000000001,1.673975,1.0,2620.7124224253607,0.5503333206918594,1.2778297203132216,0.9828389293995247,0.28335995,0.753860479944761
0.07150000000000001,1.67219375,1.0,2618.69138139588,0.552855595427638,1.2770440363537237,0.9829561045879239,0.2832851375,0.7552506438802189
0.07200000000000001,1.6704,1.0,2616.6824998070206,0.5553637228602692,1.2762526015879838,0.9830706805216622,0.2832098,0.756647002920506
0.0725,1.66859375,1.0,2614.685543790669,0.557857781508643,1.2754554180662638,0.9831827200883447,0.2831339375,0.7580494663837367
0.073,1.6667750000000001,1.0,2612.70027988823,0.5603378498916491,1.2746524878388261,0.9832922841303903,0.28305755,0.7594579429972688
0.0735,1.66494375,1.0,2610.726475045999,0.5628040065281775,1.2738438129559324,0.9833994315235914,0.2829806375,0.7608723408984577
0.074,1.6631,1.0,2608.763896610301,0.5652563299371178,1.2730293954678449,0.9835042192521596,0.2829032,0.7622925676354055
0.0745,1.6612437500000001,1.0,2606.813679365448,0.567694898108244,1.2722092247098866,0.9836067018907204,0.2828252375,0.7637185522412068
0.075,1.659375,1.0,2604.875761888625,0.5701197880006902,1.2713833011322269,0.9837069327049857,0.28274675,0.7651502036561706
0.0755,1.65749375,1.0,2602.949559646951,0.5725310760757143,1.2705516300555122,0.9838049634638967,0.2826677375,0.7665874217930653
