Time [s],Phi [rad],STIM [ ],Fsee [N],Gamma [ ],Lcerel [ ],q [ ],Lmtc [m],fisomrel [ ]
0.0,1.8,1.0,17.9665811603388,4.123457850608343e-05,1.379339810864348,0.005000448119607729,0.288653,0.5411393746600788
0.0005,1.79999375,1.0,18.286529845926847,0.005650212593935541,1.3793013009341917,0.01302745897649384,0.2886527375,0.5412325354261154
0.001,1.799975,1.0,21.651498245190627,0.011227728677465318,1.3789349210258741,0.03577153511104879,0.28865195,0.5421183852905439
0.0015,1.79994375,1.0,31.15177540467833,0.01677395930655024,1.3780391763196929,0.07082466385613562,0.2886506375,0.544280552192373
0.002,1.7999,1.0,53.76344287700416,0.022289079966937412,1.3763563956747558,0.11498182436792373,0.2886488,0.5483286461565902
0.0025,1.79984375,1.0,97.4253648155386,0.027773265160460324,1.3739204128946176,0.164861831281603,0.28864643749999996,0.5541566480252509
0.003,1.7997750000000001,1.0,161.35818558880922,0.03322668841245431,1.37119937996445,0.21757645182791138,0.28864354999999997,0.5606218760013008
0.0035,1.79969375,1.0,238.13603493595792,0.038649522271585114,1.3685707964046232,0.27090727788614244,0.2886401375,0.5668226021609114
0.004,1.7996,1.0,321.9488751061179,0.04404193832056828,1.366143328092647,0.3232008423767082,0.2886362,0.5725097681544653
0.0045000000000000005,1.7994937500000001,1.0,409.7673268191912,0.049404107181371316,1.3639110907894114,0.3733050803530375,0.2886317375,0.5777063711749386
0.005,1.799375,1.0,499.92351334267033,0.05473619850645387,1.3618475074596814,0.4205005980382084,0.28862675,0.5824820833712239
0.0055,1.79924375,1.0,591.305161437946,0.060038381024532815,1.35992878037229,0.46440806166188003,0.2886212375,0.5868981921547063
0.006,1.7991000000000001,1.0,683.0337047854563,0.06531082248788546,1.3581370443455325,0.5048953379503424,0.2886152,0.5910008210058868
0.006500000000000001,1.79894375,1.0,774.395046507926,0.07055368970995941,1.3564584843632306,0.5419976733458386,0.2886086375,0.5948257299919277
0.007,1.798775,1.0,864.7979004878079,0.07576714864550264,1.3548821243384428,0.5758561859384257,0.28860155,0.5984013961257463
0.0075,1.79859375,1.0,953.7403795984324,0.08095136406138814,1.3533991332889435,0.6066731453369335,0.2885939375,0.6017508054547946
0.008,1.7984,1.0,1040.8497664965644,0.08610650031852354,1.3520014136204739,0.6346803339262246,0.2885858,0.6048947857435845
0.0085,1.79819375,1.0,1125.8013544174219,0.09123272025634678,1.3506823463186652,0.6601190721810488,0.2885771375,0.6078504208559814
0.009000000000000001,1.797975,1.0,1208.3477364677901,0.09633018596739773,1.3494359202977717,0.6832267466905675,0.28856795,0.6106330918547491
0.0095,1.79774375,1.0,1288.3276592708428,0.10139905924982615,1.3482563620754384,0.7042289301137282,0.2885582375,0.6132573541899908
0.01,1.7975,1.0,1365.6012773357083,0.10643950010228202,1.3471388047184698,0.7233356203602412,0.288548,0.6157354918961483
0.0105,1.79724375,1.0,1440.0770029773014,0.11145166787636455,1.3460787213859626,0.74073911433929,0.2885372375,0.6180788220786265
0.011,1.796975,1.0,1511.7155487500672,0.11643572124990915,1.3450717492038349,0.7566136007198134,0.28852595000000003,0.6202981119305029
0.0115,1.79669375,1.0,1580.5088103254527,0.12139181853927933,1.3441138504995567,0.7711158167308135,0.2885141375,0.6224032458366351
0.012,1.7964,1.0,1646.4397949728686,0.12632011577553043,1.343201684795759,0.7843862709159064,0.28850180000000003,0.624402434800231
0.0125,1.79609375,1.0,1709.5323008672424,0.131220768959957,1.3423319190339051,0.7965502369801314,0.2884889375,0.6263037538602163
0.013000000000000001,1.7957750000000001,1.0,1769.8303072175893,0.13609393296862232,1.341501418025307,0.8077192565735326,0.28847555,0.628114736883624
0.0135,1.79544375,1.0,1827.4100883298545,0.14093976346610373,1.3407070560871146,0.8179924697779458,0.2884616375,0.6298427995295017
0.014,1.7951000000000001,1.0,1882.310095887886,0.14575841254635755,1.3399464508439638,0.8274582243245064,0.2884472,0.6314936561179608
0.0145,1.79474375,1.0,1934.591649629181,0.15055003226343802,1.339217227235532,0.8361950112012829,0.2884322375,0.6330729360543286
0.015,1.794375,1.0,1984.3365189360609,0.15531477458276133,1.3385170213203383,0.8442726027094248,0.28841675,0.6345861807283342
0.0155,1.79399375,1.0,2031.6281151220228,0.16005279015438928,1.3378436578939668,0.8517531299902225,0.2884007375,0.6360384656276288
0.016,1.7936,1.0,2076.5658477585835,0.16476423052615405,1.3371949723215515,0.8586919280754715,0.2883842,0.6374347915850387
0.0165,1.7931937500000001,1.0,2119.213900434738,0.16944924337180997,1.3365693227935118,0.8651384908181359,0.2883671375,0.63877898901249
0.017,1.792775,1.0,2159.648581498456,0.17410797636511133,1.3359650675002672,0.8711370047625229,0.28834955,0.6400748514653727
0.0175,1.7923437500000001,1.0,2197.9573099028726,0.17874057717981245,1.335380564632237,0.8767269765161144,0.2883314375,0.6413261379686286
0.018000000000000002,1.7919,1.0,2234.2236609458223,0.18334719206269484,1.334814313032325,0.8819438198427421,0.2883128,0.6425362748363914
0.0185,1.79144375,1.0,2268.5474121982943,0.18792796893824562,1.334264738067695,0.8868192785445215,0.2882936375,0.6437088165960945
0.019,1.790975,1.0,2301.001646586209,0.1924830519337295,1.3337306112769463,0.8913819533234263,0.28827395,0.6448465532420784
0.0195,1.79049375,1.0,2331.6560548882917,0.19701258405336583,1.3332108023735327,0.8956575996799907,0.2882537375,0.6459520445841407
0.02,1.79,1.0,2360.586113510637,0.20151670830137397,1.3327041810709088,0.8996694275682142,0.288233,0.6470278313071937
0.0205,1.78949375,1.0,2387.8725983718937,0.2059955676819733,1.3322096170825282,0.9034383872499343,0.2882117375,0.6480764359626277
0.021,1.788975,1.0,2413.586797317925,0.21044930319427346,1.3317261186363591,0.9069834491594043,0.28818995000000003,0.6491000708369139
0.021500000000000002,1.78844375,1.0,2437.8162985022723,0.21487805866831294,1.3312525768590693,0.9103217685203171,0.2881676375,0.6501011808808239
0.022,1.7879,1.0,2460.622914954071,0.21928197325728344,1.330788167886443,0.9134689609025272,0.2881448,0.6510815943441657
0.0225,1.78734375,1.0,2482.064410048539,0.22366118498946347,1.3303321360717484,0.9164392232505648,0.28812143749999997,0.6520429843057267
0.023,1.786775,1.0,2502.2012758790074,0.22801583189313146,1.3298837257682528,0.9192454704761902,0.28809755,0.6529870136264548
0.0235,1.78619375,1.0,2521.09650465941,0.23234605199656597,1.329442181329224,0.9218994689715391,0.28807313749999996,0.6539153353349574
0.024,1.7856,1.0,2538.810849242378,0.2366519824876496,1.3290067897414206,0.9244119619638111,0.2880482,0.6548295035205506
0.0245,1.78499375,1.0,2555.402036177613,0.2409337598073218,1.3285768854145878,0.9267927738767183,0.2880227375,0.6557309641940332
0.025,1.784375,1.0,2570.9409064922334,0.245191522315582,1.3281516965997497,0.9290508767143039,0.28799675,0.6566213776106691
0.025500000000000002,1.78374375,1.0,2585.4704113375756,0.24942540274801828,1.3277307283495177,0.9311945355021732,0.2879702375,0.6575018166310417
0.026000000000000002,1.7831000000000001,1.0,2599.0347679413194,0.2536355338402187,1.327313485716503,0.933231332957753,0.2879432,0.6583733484314815
0.0265,1.78244375,1.0,2611.679354059285,0.2578220483277714,1.3268994737533173,0.9351682350265627,0.2879156375,0.6592370346294778
0.027,1.781775,1.0,2623.4506078589047,0.2619850789462645,1.3264881975125717,0.9370116493250281,0.28788755,0.6600939313934693
0.0275,1.7810937500000001,1.0,2634.3959332337654,0.266124758431286,1.3260791620468777,0.9387674773336452,0.2878589375,0.6609450895370093
0.028,1.7804,1.0,2644.5582238953007,0.2702412155174758,1.325671922151588,0.9404411667693016,0.2878298,0.6617914512821748
0.0285,1.77969375,1.0,2653.9853015927843,0.2743345858919312,1.325265994148072,0.9420377444478324,0.2878001375,0.662634033963222
0.029,1.778975,1.0,2662.7102327936213,0.2784049970025634,1.324861036687444,0.9435618735688042,0.28776995,0.6634735549820125
0.029500000000000002,1.7782437500000001,1.0,2670.766333884156,0.2824525760939777,1.324456711129245,0.9450178694392042,0.2877392375,0.6643107225867146
0.03,1.7775,1.0,2678.1874155012174,0.2864774504107798,1.324052678833015,0.9464097296091581,0.287708,0.6651462415215144
0.0305,1.77674375,1.0,2685.0077366741716,0.2904797471975751,1.3236486011582944,0.9477411613043529,0.2876762375,0.6659808130366048
0.031,1.775975,1.0,2691.2619615095873,0.2944595936989691,1.323244139464624,0.949015606165865,0.28764395,0.6668151348908634
0.0315,1.7751937500000001,1.0,2696.9784836900276,0.2984171128381039,1.3228390157811958,0.9502362688042855,0.2876111375,0.6676497764331277
0.032,1.7744,1.0,2702.1848577146084,0.30235242931094114,1.322432962547951,0.9514061321212245,0.2875778,0.6684852827249734
0.0325,1.77359375,1.0,2706.9255534798394,0.3062656801410707,1.322025560243403,0.9525279591075121,0.2875439375,0.6693225081311303
0.033,1.772775,1.0,2711.2204806920454,0.31015698557350413,1.3216166160046736,0.9536043468077212,0.28750955,0.6701618377222651
0.0335,1.7719437500000002,1.0,2715.0897316612713,0.3140264658532531,1.321205936968884,0.9546377180052938,0.2874746375,0.671003654515119
0.034,1.7711000000000001,1.0,2718.5535641676843,0.31787424122532926,1.320793330273156,0.9556303349904336,0.2874392,0.6718483394523528
0.0345,1.7702437500000001,1.0,2721.6323851532256,0.3217004319347441,1.3203786030546114,0.9565843120854236,0.2874032375,0.6726962713800246
0.035,1.7693750000000001,1.0,2724.346735237532,0.3255051582265093,1.3199615624503716,0.9575016270525732,0.28736675,0.6735478270226944
0.035500000000000004,1.76849375,1.0,2726.7172740589435,0.32928854034563637,1.319542015597558,0.9583841314961496,0.2873297375,0.6744033809561545
0.036000000000000004,1.7676,1.0,2728.7647664395786,0.3330506985371371,1.3191197696332924,0.9592335603574795,0.2872922,0.6752633055777884
0.0365,1.76669375,1.0,2730.5100693759264,0.3367917530460228,1.3186946316946964,0.9600515405916488,0.2872541375,0.6761279710745595
0.037,1.765775,1.0,2731.974119853312,0.3405118241173054,1.3182664089188916,0.960839599104749,0.28721555,0.6769977453886253
0.0375,1.76484375,1.0,2733.1668278815714,0.34421102421575545,1.3178350092300708,0.96159917822259,0.2871764375,0.6778727898843138
0.038,1.7639,1.0,2734.1112918208673,0.34788947780380475,1.317400221233996,0.9623316246565609,0.28713679999999997,0.6787535062519466
0.0385,1.76294375,1.0,2734.8264581273997,0.3515473039614571,1.3169618717126779,0.9630382076825132,0.28709663750000003,0.6796402164553441
0.039,1.761975,1.0,2735.3234163824704,0.35518461551194475,1.3165198591559684,0.9637201275290925,0.28705595,0.6805330955353506
0.0395,1.7609937500000001,1.0,2735.613287277721,0.35880152527849984,1.316074082053719,0.9643785148004927,0.2870147375,0.6814323171361575
0.04,1.76,1.0,2735.7072182677,0.3623981460843546,1.3156244388957805,0.965014435256322,0.286973,0.6823380534812619
0.0405,1.7589937500000001,1.0,2735.6163794517142,0.36597459075274125,1.3151708281720047,0.9656288942144657,0.2869307375,0.6832504753487649
0.041,1.757975,1.0,2735.351959683848,0.3695309721068919,1.314713148372243,0.9662228406103368,0.28688795,0.6841697520460159
0.0415,1.75694375,1.0,2734.9251629116084,0.3730674029700388,1.314251297986347,0.9667971707426517,0.2868446375,0.6850960513835974
0.042,1.7559,1.0,2734.347204742999,0.37658399616541416,1.3137851755041676,0.9673527317329318,0.28680079999999997,0.6860295396486566
0.0425,1.75484375,1.0,2733.6293092421856,0.38008086451625006,1.3133146794155566,0.9678903247233422,0.2867564375,0.6869703815775734
0.043000000000000003,1.753775,1.0,2732.7778481197347,0.38355811473030416,1.3128397523397228,0.9684107104531012,0.28671155,0.6879186522832299
0.043500000000000004,1.75269375,1.0,2731.804344243231,0.3870158617486023,1.3123602901497449,0.9689146067881005,0.28666613750000003,0.6888745189335689
0.044,1.7516,1.0,2730.720529215813,0.39045421929248464,1.3118761868269304,0.9694026935025143,0.2866202,0.6898381507981302
0.0445,1.75049375,1.0,2729.5324999098316,0.39387329335353216,1.3113873875511297,0.9698756178336433,0.2865737375,0.6908096137566409
0.045,1.7493750000000001,1.0,2728.246354178205,0.39727318992332566,1.310893837502193,0.9703339937028529,0.28652675,0.6917889725866072
0.0455,1.74824375,1.0,2726.868189734289,0.40065401499344605,1.310395481859971,0.9707784037511892,0.2864792375,0.6927762909467998
0.046,1.7471,1.0,2725.404103098309,0.40401587455547416,1.3098922658043137,0.9712094012315938,0.2864312,0.6937716313605503
0.0465,1.7459437500000001,1.0,2723.8601886097977,0.4073588746009909,1.3093841345150716,0.971627511769103,0.28638263750000004,0.6947750551988523
0.047,1.744775,1.0,2722.2425375074245,0.4106831211215771,1.308871033172095,0.972033234999415,0.28633355,0.6957866226632736
0.0475,1.74359375,1.0,2720.5572370751183,0.4139887201088137,1.3083529069552342,0.9724270460953004,0.28628393750000003,0.6968063927686756
0.048,1.7424,1.0,2718.810369854536,0.41727577755428147,1.3078297010443396,0.972809397189522,0.2862338,0.6978344233257414
0.0485,1.74119375,1.0,2717.0047907355015,0.4205443910542964,1.3073013899750068,0.973180719709066,0.2861831375,0.6988707133910357
0.049,1.739975,1.0,2715.14613751284,0.42379466769948815,1.3067679229048865,0.9735414239931174,0.28613195,0.6999153108310638
0.0495,1.73874375,1.0,2713.2431928771343,0.4270267224026737,1.3062292202661456,0.9738919000170462,0.2860802375,0.7009683184157796
0.05,1.7375,1.0,2711.2988160775294,0.43024065392306005,1.305685256413178,0.9742325212596343,0.286028,0.7020297321798776
0.0505,1.73624375,1.0,2709.315863356233,0.433436561019854,1.3051360057003774,0.9745636439500487,0.2859752375,0.7030995472742962
0.051000000000000004,1.734975,1.0,2707.2971877378823,0.4366145424522625,1.3045814424821371,0.9748856080153947,0.28592195,0.7041777579575912
0.051500000000000004,1.73369375,1.0,2705.2456388325204,0.4397746969794925,1.3040215411128515,0.9751987379681021,0.2858681375,0.7052643575872664
0.052000000000000005,1.7324,1.0,2703.1640626542926,0.4429171233607508,1.303456275946914,0.9755033437374584,0.2858138,0.7063593386110665
0.0525,1.73109375,1.0,2701.0553014538746,0.44604192035524426,1.302885621338718,0.9757997214492683,0.28575893750000003,0.7074626925582228
0.053,1.729775,1.0,2698.922193565782,0.44914918672217996,1.302309551642658,0.9760881541572892,0.28570355000000003,0.7085744100306606
0.0535,1.72844375,1.0,2696.767573270389,0.4522390212207647,1.3017280412131271,0.9763689125298193,0.2856476375,0.7096944806941629
0.054,1.7271,1.0,2694.594270670399,0.4553115226102054,1.3011410644045192,0.9766422554945482,0.2855912,0.7108228932694938
0.0545,1.7257437500000001,1.0,2692.4051115817338,0.45836678964970895,1.3005485955712281,0.9769084308445374,0.2855342375,0.711959635523477
0.055,1.724375,1.0,2690.202917439267,0.46140492109848225,1.2999506090676478,0.9771676758079805,0.28547675,0.7131046942600354
0.0555,1.72299375,1.0,2687.9886113027896,0.46442598866853246,1.2993470965955525,0.9774202160510945,0.2854187375,0.7142580221932812
0.056,1.7216,1.0,2685.767050683586,0.46743012107039095,1.298738013791269,0.9776662710378151,0.2853602,0.7154196400384172
0.0565,1.72019375,1.0,2683.5397874603173,0.4704174148828837,1.2981233465213848,0.9779060498477641,0.28530113749999997,0.7165895097541145
0.057,1.718775,1.0,2681.307900786499,0.4733879607417883,1.2975030849646243,0.9781397526593233,0.28524155,0.7177675843001643
0.0575,1.71734375,1.0,2679.072468052312,0.47634184928288253,1.2968772192997118,0.978367571484489,0.2851814375,0.718953815882879
0.058,1.7159,1.0,2676.8345648755417,0.479279171141944,1.2962457397053717,0.9785896905654511,0.2851208,0.7201481559515853
0.0585,1.71444375,1.0,2674.5952650930867,0.4822000169547505,1.2956086363603283,0.9788062867488488,0.2850596375,0.7213505551951123
0.059000000000000004,1.7129750000000001,1.0,2672.3556407554875,0.48510447735707973,1.2949658994433058,0.9790175298391282,0.28499795,0.7225609635382706
0.059500000000000004,1.71149375,1.0,2670.116762123271,0.4879926429847093,1.2943175191330285,0.9792235829323181,0.2849357375,0.7237793301383273
0.06,1.71,1.0,2667.879697665495,0.49086460447341684,1.293663485608221,0.9794246027314601,0.284873,0.7250056033814738
0.0605,1.7084937500000001,1.0,2665.6455140603657,0.4937204524589803,1.2930037890476072,0.9796207398448289,0.2848097375,0.72623973087929
0.061,1.7069750000000001,1.0,2663.415276198258,0.49656027757717713,1.292338419629912,0.979812139068012,0.28474595,0.7274816594651963
0.0615,1.7054437500000001,1.0,2661.190047186319,0.4993841704637851,1.291667367533859,0.9799989396508353,0.2846816375,0.7287313351909082
0.062,1.7039,1.0,2658.9708883561193,0.502192221754582,1.2909906229381733,0.9801812755500594,0.2846168,0.7299887033228758
0.0625,1.70234375,1.0,2656.758859272276,0.5049845220853453,1.2903081760215787,0.9803592756687054,0.2845514375,0.7312537083387248
0.063,1.7007750000000001,1.0,2654.5550177442524,0.507761162091853,1.2896200169627996,0.980533064082813,0.28448555,0.7325262939236852
0.0635,1.69919375,1.0,2652.357002740435,0.5105222034659741,1.2889261674491423,0.980702759729749,0.28441913750000003,0.7338063449080043
0.064,1.6976,1.0,2650.1650351841377,0.5132677401883468,1.2882266253863466,0.9808684783501783,0.2843522,0.7350937895994855
0.0645,1.69599375,1.0,2647.9840927777745,0.5159978996293273,1.287521344779011,0.9810303316315664,0.2842847375,0.7363886361494549
0.065,1.694375,1.0,2645.8142302493447,0.5187127631161744,1.286810325006481,0.9811884261450455,0.28421675,0.7376908082578977
0.0655,1.69274375,1.0,2643.6555022749576,0.5214124119761465,1.286093565448102,0.9813428646273944,0.2841482375,0.7390002289833947
0.066,1.6911,1.0,2641.5079634803633,0.5240969275365024,1.285371065483219,0.9814937461449253,0.2840792,0.7403168207428963
0.0665,1.6894437500000001,1.0,2639.371668442447,0.5267663911245005,1.2846428244911774,0.981641166249227,0.2840096375,0.7416405053114948
0.067,1.687775,1.0,2637.246671689837,0.5294208840673996,1.2839088418513223,0.9817852171252229,0.28393955,0.7429712038221967
0.0675,1.68609375,1.0,2635.1330277050665,0.5320604876924582,1.2831691169429986,0.9819259877319765,0.2838689375,0.7443088367656963
0.068,1.6844000000000001,1.0,2633.030790925356,0.5346852833269347,1.282423649145552,0.982063563936647,0.2837978,0.745653323990147
0.0685,1.68269375,1.0,2630.9400157440855,0.537295352298088,1.2816724378383275,0.9821980286419697,0.2837261375,0.747004584700936
0.069,1.680975,1.0,2628.8607565122693,0.5398907759331765,1.2809154824006703,0.9823294619076223,0.28365395,0.748362537460455
0.0695,1.67924375,1.0,2626.7930675396906,0.5424716355594589,1.2801527822119256,0.9824579410658038,0.28358123749999997,0.7497271001878743
0.07,1.6775,1.0,2624.737003096621,0.5450380125041937,1.2793843366514386,0.9825835408313458,0.283508,0.7510981901589147
0.07050000000000001,1.67574375,1.0,2622.692617414679,0.5475899880946395,1.2786101450985548,0.9827063334066432,0.2834342375,0.7524757240056195
0.07100000000000001,1.673975,1.0,2620.659964688698,0.550127643658055,1.2778302069326188,0.9828263885816859,0.28335995,0.7538596177161294
0.07150000000000001,1.67219375,1.0,2618.639099077796,0.5526510605216988,1.2770445215329764,0.9829437738294506,0.2832851375,0.7552497866344521
0.07200000000000001,1.6704,1.0,2616.6300747070964,0.5551603200128293,1.2762530882789727,0.9830585543968932,0.2832098,0.7566461454602365
0.0725,1.66859375,1.0,2614.6329456687513,0.5576555034587053,1.2754559065499527,0.9831707933917782,0.2831339375,0.7580486082485451
0.073,1.6667750000000001,1.0,2612.6477660236815,0.5601366921865852,1.2746529757252618,0.9832805518655565,0.28305755,0.7594570884096261
0.0735,1.66494375,1.0,2610.674589802873,0.5626039675237279,1.273844295184245,0.983387888892498,0.2829806375,0.7608714987086865
0.074,1.6631,1.0,2608.712309329365,0.5650573971171906,1.2730298751071611,0.9834928613408478,0.2829032,0.7622917324584438
0.0745,1.6612437500000001,1.0,2606.7585022910716,0.5674970337593209,1.2722097379178068,0.983595523969353,0.2828252375,0.7637176612969354
0.075,1.659375,1.0,2604.817626844097,0.5699230076988756,1.2713838420538013,0.9836959313580402,0.28274675,0.7651492674493541
0.0755,1.65749375,1.0,2602.889343093809,0.5723353910801976,1.2705521905520136,0.9837941350373193,0.2826677375,0.7665864546795501
