Time [s],Phi [rad],STIM [ ],Fsee [N],Gamma [ ],Lcerel [ ],q [ ],Lmtc [m],fisomrel [ ]
0.0,1.8,1.0,19.694689448713916,0.001342186055782622,1.3791506461036263,0.005461477165776749,0.288653,0.5415968991046007
0.0005,1.79999375,1.0,20.38045957114513,0.006943866762196131,1.3790750691233884,0.017048195596794144,0.2886527375,0.5417796300035023
0.001,1.799975,1.0,24.718142885400475,0.01251412646977779,1.3786323085755718,0.042883090279147475,0.28865195,0.5428494097663679
0.0015,1.79994375,1.0,36.48418608437166,0.01805314142324296,1.377603388234076,0.0803389450225147,0.2886506375,0.5453306160527607
0.002,1.7999,1.0,63.47464528535016,0.023561086883251828,1.375753538463557,0.12610862114412832,0.2886488,0.5497744844774111
0.0025,1.79984375,1.0,112.26686128752073,0.029038137124244037,1.3732316632881028,0.17687725120823888,0.28864643749999996,0.5557975941300902
0.003,1.7997750000000001,1.0,179.7552401106086,0.03448446544408261,1.3705301747112877,0.22991326425221262,0.28864354999999997,0.5622046863151231
0.0035,1.79969375,1.0,258.4302658551262,0.03990024416919561,1.367959042030354,0.28313598908073373,0.2886401375,0.5682593858039037
0.004,1.7996,1.0,343.25889343681905,0.04528564465739326,1.3655883660548005,0.3350119231081311,0.2886362,0.5738046766753228
0.0045000000000000005,1.7994937500000001,1.0,431.6460750361002,0.05064083730271584,1.3634045005152733,0.3844963361338878,0.2886317375,0.5788812787157038
0.005,1.799375,1.0,522.1042149642866,0.05596599155940405,1.3613815225100483,0.43095704679829483,0.28862675,0.5835567448607126
0.0055,1.79924375,1.0,613.5797344151475,0.06126127590846585,1.3594977999538296,0.4740799916011277,0.2886212375,0.587886899962871
0.006,1.7991000000000001,1.0,705.2396225428091,0.06652685790097757,1.357736779449148,0.5137781682742512,0.2886152,0.5919145300680857
0.006500000000000001,1.79894375,1.0,796.3917001410308,0.07176290410970662,1.3560857400515909,0.5501162633920512,0.2886086375,0.5956726585838994
0.007,1.798775,1.0,886.4736623912122,0.0769695803259735,1.3545342612753262,0.5832529255135939,0.28860155,0.599188321371042
0.0075,1.79859375,1.0,975.0045748686634,0.08214705103807281,1.3530739557611622,0.6133997095804022,0.2885939375,0.6024833602141738
0.008,1.7984,1.0,1061.6290614010393,0.08729548040048299,1.3516970640663049,0.6407920987841074,0.2885858,0.6055777268084868
0.0085,1.79819375,1.0,1146.0405101681247,0.09241503119465168,1.3503971722526271,0.6656714723240124,0.2885771375,0.6084879517773047
0.009000000000000001,1.797975,1.0,1228.003615750632,0.09750586516646026,1.3491684790276604,0.688273106274233,0.28856795,0.6112288687930814
0.0095,1.79774375,1.0,1307.3615725804939,0.10256814345135072,1.3480054583936336,0.7088192605833927,0.2885582375,0.6138144162252455
0.01,1.7975,1.0,1384.0109102328925,0.10760202689222138,1.3469030207810417,0.7275157856681832,0.288548,0.6162573156026407
0.0105,1.79724375,1.0,1457.8496922031748,0.1126076739738743,1.345856996792706,0.7445509557338663,0.2885372375,0.6185680413569199
0.011,1.796975,1.0,1528.8350812389708,0.117585243107114,1.3448632425696967,0.7600949206056851,0.28852595000000003,0.62075683649335
0.0115,1.79669375,1.0,1596.961521927235,0.12253489178843299,1.3439178304185604,0.7743005293700742,0.2885141375,0.6228333096944845
0.012,1.7964,1.0,1662.2528799992601,0.12745677768379718,1.343017059158635,0.7873044890714554,0.28850180000000003,0.6248064321625049
0.0125,1.79609375,1.0,1724.7164049793294,0.13235105549795717,1.3421579080196464,0.7992288981236306,0.2884889375,0.6266835649860306
0.013000000000000001,1.7957750000000001,1.0,1784.3924870947778,0.13721787983931566,1.3413373751569138,0.8101823619257323,0.28847555,0.6284719270439678
0.0135,1.79544375,1.0,1841.343127557656,0.14205740466722658,1.3405525698592233,0.8202614303928731,0.2884616375,0.6301784029409401
0.014,1.7951000000000001,1.0,1895.6452394311052,0.14686978430268877,1.3398007465544328,0.8295519296875862,0.2884472,0.6318094790849813
0.0145,1.79474375,1.0,1947.3638756050582,0.15165517097020823,1.3390795556609312,0.8381302572100614,0.2884322375,0.6333707108826068
0.015,1.794375,1.0,1996.5594336785405,0.15641371501634252,1.3383869183365555,0.8460644209047393,0.28841675,0.6348670073300041
0.0155,1.79399375,1.0,2043.310114808476,0.1611455667876492,1.3377207557391428,0.8534149321310031,0.2884007375,0.636303224307979
0.016,1.7936,1.0,2087.7070548177703,0.16585087631949832,1.3370790237457215,0.8602357027385659,0.2883842,0.6376840935925744
0.0165,1.7931937500000001,1.0,2129.8388122023975,0.17052979276134708,1.3364598561030503,0.8665748695158918,0.2883671375,0.639013919742075
0.017,1.792775,1.0,2169.8002337247544,0.17518246554482364,1.33586145238823,0.8724754438761136,0.28834955,0.640296826529556
0.0175,1.7923437500000001,1.0,2207.6584498213783,0.17980904044120263,1.3352824074463259,0.8779760034392474,0.2883314375,0.6415360563041963
0.018000000000000002,1.7919,1.0,2243.48969846109,0.18440966322175878,1.3347213161224034,0.883111103635637,0.2883128,0.642734823129101
0.0185,1.79144375,1.0,2277.3785680507203,0.18898447965776669,1.3341767732615282,0.8879117466143579,0.2882936375,0.6438963144531671
0.019,1.790975,1.0,2309.4073862576747,0.19353363430518472,1.3336474715175657,0.8924058153331562,0.28827395,0.6450234845342322
0.0195,1.79049375,1.0,2339.668380083073,0.19805727291755298,1.333132072221945,0.8966184002216078,0.2882537375,0.6461193318147729
0.02,1.79,1.0,2368.2371776136392,0.20255553860278303,1.3326294591864791,0.90057217190394,0.288233,0.6471863612286685
0.0205,1.78949375,1.0,2395.1779565752595,0.20702857232384136,1.3321386770256303,0.9042876361474299,0.2882117375,0.6482267194632145
0.021,1.788975,1.0,2420.559223393408,0.21147651504369452,1.3316587703538605,0.9077833382043471,0.28818995000000003,0.6492425384163433
0.021500000000000002,1.78844375,1.0,2444.453453127839,0.215899507725309,1.3311887837856322,0.9110760771793626,0.2881676375,0.6502359358883729
0.022,1.7879,1.0,2466.9314194495114,0.22029769023252035,1.3307278128980342,0.9141811042788829,0.2881448,0.6512089087234786
0.0225,1.78734375,1.0,2488.0643008156676,0.2246712029110269,1.3302749800515672,0.9171122836324594,0.28812143749999997,0.6521633850508193
0.023,1.786775,1.0,2507.9205280336714,0.22902018558662565,1.329829461050442,0.9198822424264257,0.28809755,0.6531011690790018
0.0235,1.78619375,1.0,2526.552663075079,0.2333447741155807,1.329390605665028,0.9225025194352696,0.28807313749999996,0.6540236890931953
0.024,1.7856,1.0,2544.015329049958,0.23764510435415617,1.3289577636656948,0.9249836459693264,0.2880482,0.6549323651915333
0.0245,1.78499375,1.0,2560.3650374435597,0.24192131215861618,1.328530284822812,0.9273352477010021,0.2880227375,0.6558286095479657
0.025,1.784375,1.0,2575.6600247268225,0.24617353338522485,1.3281075189067493,0.9295661349644321,0.28799675,0.6567138266481415
0.025500000000000002,1.78374375,1.0,2589.950233746266,0.25040190146030944,1.3276889077371834,0.9316843971439513,0.2879702375,0.6575892211288639
0.026000000000000002,1.7831000000000001,1.0,2603.293676881685,0.25460655318939435,1.327273830357765,0.9336974497551253,0.2879432,0.6584561223308576
0.0265,1.78244375,1.0,2615.7413001283953,0.2587876226721897,1.3268617432293037,0.9356121185683143,0.2879156375,0.6593156913683059
0.027,1.781775,1.0,2627.331511246783,0.2629452401874093,1.3264522289370864,0.9374347020320207,0.28788755,0.6601688208609955
0.0275,1.7810937500000001,1.0,2638.1035807495546,0.2670795360137667,1.3260448700663992,0.9391710025496542,0.2878589375,0.66101639892661
0.028,1.7804,1.0,2648.097567777981,0.2711906404299757,1.3256392492025286,0.9408263720937526,0.2878298,0.6618593092436653
0.0285,1.77969375,1.0,2657.354249841393,0.27527868371474995,1.3252349489307613,0.9424057530740189,0.2878001375,0.6626984311033326
0.029,1.778975,1.0,2665.9150564195984,0.27934379614680305,1.3248315518363838,0.9439137150046251,0.28776995,0.6635346394501489
0.029500000000000002,1.7782437500000001,1.0,2673.8135722654056,0.28338610438468187,1.324428717962178,0.9453544966909276,0.2877392375,0.6643686446473773
0.03,1.7775,1.0,2681.092916171806,0.2874057408275061,1.3240260243579103,0.9467320167909093,0.287708,0.6652013250599711
0.0305,1.77674375,1.0,2687.786433962817,0.29140283308452375,1.323623142030205,0.9480499209595346,0.2876762375,0.6660333607860263
0.031,1.775975,1.0,2693.920970015485,0.29537750552355885,1.323219804994983,0.9493116014157392,0.28764395,0.666865298657542
0.0315,1.7751937500000001,1.0,2699.5236866564387,0.2993298825124356,1.3228157472681654,0.9505202112633918,0.2876111375,0.6676976827668877
0.032,1.7744,1.0,2704.6220343365776,0.3032600884189779,1.3224107028656729,0.9516786842954286,0.2875778,0.668531054456833
0.0325,1.77359375,1.0,2709.24372337464,0.30716824761100986,1.3220044058034268,0.9527897529286341,0.2875439375,0.6693659523060651
0.033,1.772775,1.0,2713.416697269153,0.31105448445635564,1.3215965900973479,0.9538559644655648,0.28750955,0.6702029121101991
0.0335,1.7719437500000002,1.0,2717.1677932589823,0.31491892199110877,1.321187001737107,0.9548796968586886,0.2874746375,0.6710424423314019
0.034,1.7711000000000001,1.0,2720.517915128921,0.318761677809198,1.3207754423844742,0.9558631758401481,0.2874392,0.671884934831138
0.0345,1.7702437500000001,1.0,2723.5005713240703,0.3225828857938376,1.3203616003389975,0.9568084738035754,0.2874032375,0.6727310109318764
0.035,1.7693750000000001,1.0,2726.1324364070356,0.32638266366171764,1.3199453184188865,0.9577175422163644,0.28736675,0.67358097328392
0.035500000000000004,1.76849375,1.0,2728.4302889419587,0.33016112912952833,1.31952643944235,0.9585922084032437,0.2873297375,0.674435122759229
0.036000000000000004,1.7676,1.0,2730.411000597754,0.33391839991395983,1.3191048062275972,0.9594341848645311,0.2872922,0.6752937584261725
0.0365,1.76669375,1.0,2732.091525799777,0.33765459373170226,1.3186802615928377,0.9602450777935189,0.2872541375,0.6761571775227058
0.037,1.765775,1.0,2733.488891928866,0.3413698282994459,1.3182526483562802,0.9610263948700323,0.28721555,0.6770256754279779
0.0375,1.76484375,1.0,2734.620190068322,0.34506422133388087,1.317821809336134,0.9617795523990392,0.2871764375,0.6778995456323536
0.038,1.7639,1.0,2735.502566298331,0.34873789055169735,1.3173875873506085,0.9625058818559861,0.28713679999999997,0.678779079705867
0.0385,1.76294375,1.0,2736.153213538916,0.35239095366958556,1.3169498252179128,0.9632066358941231,0.28709663750000003,0.6796645672650974
0.039,1.761975,1.0,2736.5826328308854,0.35602351828737844,1.3165084268602258,0.963882997535314,0.28705595,0.6805561725971463
0.0395,1.7609937500000001,1.0,2736.80760556114,0.3596357068335088,1.3160632394717728,0.9645360790624694,0.2870147375,0.6814541730057677
0.04,1.76,1.0,2736.845966179155,0.3632276435094842,1.3156141009327147,0.9651669285800799,0.286973,0.6823588625396498
0.0405,1.7589937500000001,1.0,2736.7068197281956,0.36679943824242955,1.3151609285550072,0.9657765392626225,0.2869307375,0.6832703734449798
0.041,1.757975,1.0,2736.39928820067,0.37035120095946994,1.3147036396506067,0.9663658487368195,0.28688795,0.6841888367049143
0.0415,1.75694375,1.0,2735.9325076599207,0.37388304158773034,1.3142421515314695,0.9669357427620537,0.2868446375,0.6851143820180898
0.042,1.7559,1.0,2735.315625513778,0.3773950700543357,1.3137763815095513,0.9674870586303161,0.28680079999999997,0.686047137776698
0.0425,1.75484375,1.0,2734.5577979392783,0.3808873962864112,1.3133062468968086,0.968020588309703,0.2867564375,0.6869872310441199
0.043000000000000003,1.753775,1.0,2733.6681874590117,0.38436013021108173,1.3128316650051974,0.9685370813532339,0.28671155,0.6879347875321299
0.043500000000000004,1.75269375,1.0,2732.655960669748,0.38781338175547236,1.3123525531466738,0.9690372475926942,0.28666613750000003,0.6888899315776607
0.044,1.7516,1.0,2731.5302861213777,0.3912472608467081,1.311868828633194,0.9695217596353907,0.2866202,0.6898527861191308
0.0445,1.75049375,1.0,2730.3003323490902,0.39466187741191394,1.3113804087767142,0.9699912551800492,0.2865737375,0.6908234726723417
0.045,1.7493750000000001,1.0,2728.975266055601,0.39805734137821497,1.3108872108891905,0.9704463391666192,0.28652675,0.6918021113059312
0.0455,1.74824375,1.0,2727.561422946225,0.40143375723640445,1.3103891779926056,0.9708875869463373,0.2864792375,0.6927887697228146
0.046,1.7471,1.0,2726.062099285062,0.40479122850263555,1.3098862807362799,0.9713155468430598,0.2864312,0.693783459857894
0.0465,1.7459437500000001,1.0,2724.490284439751,0.4081298767958886,1.3093784015873842,0.971730735835681,0.28638263750000004,0.6947863668087859
0.047,1.744775,1.0,2722.8500232593806,0.4114498041653758,1.3088655043089557,0.9721336486457384,0.28633355,0.6957975135458371
0.0475,1.74359375,1.0,2721.145358515513,0.41475111266030934,1.3083475526640314,0.9725247558412398,0.28628393750000003,0.6968169220857858
0.048,1.7424,1.0,2719.380330412381,0.4180339043299015,1.307824510415649,0.9729045052379482,0.2862338,0.6978446134801213
0.0485,1.74119375,1.0,2717.5589761275355,0.42129828122336443,1.3072963413268457,0.9732733232068189,0.2861831375,0.6988806078033634
0.049,1.739975,1.0,2715.6853293801328,0.4245443453899104,1.306763009160659,0.9736316158946793,0.28613195,0.6999249241412546
0.0495,1.73874375,1.0,2713.763420029551,0.4277721988787516,1.3062244776801257,0.9739797703646531,0.2860802375,0.7009775805788718
0.05,1.7375,1.0,2711.7972737024957,0.4309819437391003,1.3056807106482837,0.9743181556622824,0.286028,0.7020385941886487
0.0505,1.73624375,1.0,2709.7909114491226,0.43417368202016865,1.3051316718281702,0.9746471238128164,0.2859752375,0.7031079810183221
0.051000000000000004,1.734975,1.0,2707.7483494289586,0.43734751577116887,1.3045773249828223,0.9749670107546856,0.28592195,0.7041857560787891
0.051500000000000004,1.73369375,1.0,2705.673598625089,0.4405035470413132,1.3040176338752776,0.9752781372137754,0.2858681375,0.7052719333318804
0.052000000000000005,1.7324,1.0,2703.568054269716,0.44364187776086944,1.3034525861088924,0.9755808110295283,0.2858138,0.7063664795402591
0.0525,1.73109375,1.0,2701.411657099177,0.44676260565640896,1.3028823652970078,0.9758753382576573,0.28575893750000003,0.7074689821176336
0.053,1.729775,1.0,2699.28031687695,0.4498658306032367,1.3023062781574632,0.9761619570514707,0.28570355000000003,0.7085807212582349
0.0535,1.72844375,1.0,2697.142003718282,0.4529516493722319,1.3017246173081543,0.9764409556202941,0.2856476375,0.7097010692291068
0.054,1.7271038061590207,1.0,2695.1526486503712,0.4560201587342739,1.3011376753669763,0.9767126096906379,0.2855913598586789,0.7108294020235126
0.0545,1.725763560848945,1.0,2693.6943199384696,0.45907145546024186,1.3005457449518258,0.9769771831605273,0.28553506955565566,0.7119650994622195
0.055,1.7244233155388693,1.0,2692.749489035079,0.4621056363210152,1.299949118680598,0.9772349287144048,0.28547877925263254,0.7131075452893256
0.0555,1.7230830702287936,1.0,2692.2873879734298,0.46512279767760506,1.299348075676326,0.9774860875659422,0.2854224889496093,0.7142561530257672
0.056,1.7217428249187179,1.0,2692.2689764139955,0.4681230349330819,1.2987429721078236,0.9777308952857642,0.28536619864658613,0.7154101932914034
0.0565,1.7204025796086422,1.0,2692.6475544682257,0.4711064448466033,1.2981342353108696,0.9779695819623042,0.28530990834356296,0.7165688065548567
0.057,1.7190623342985665,1.0,2693.396029267246,0.4740731205120296,1.2975221139599733,0.9782023577203687,0.2852536180405398,0.717731478650474
0.0575,1.7177220889884908,1.0,2694.4873728995954,0.47702315502322107,1.296906856729645,0.9784294241761541,0.2851973277375166,0.7188976990654405
0.058,1.716381843678415,1.0,2695.894604436348,0.4799566414740379,1.296288712294394,0.9786509748568555,0.2851410374344934,0.7200669609914854
0.0585,1.7150415983683394,1.0,2697.5907733269783,0.48287367295834044,1.2956679293287305,0.9788671955964341,0.28508474713147025,0.7212387613726429
0.059000000000000004,1.7137013530582634,1.0,2699.550659605384,0.48577434191206365,1.2950447408282126,0.9790782639897976,0.2850284568284471,0.7224126304515716
0.059500000000000004,1.7123611077481877,1.0,2701.7512388763844,0.48865874062315484,1.294419359766477,0.9792843495945972,0.2849721665254239,0.7235881396514597
0.06,1.711020862438112,1.0,2704.1700624277705,0.49152696152725106,1.2937919938249516,0.9794856151337794,0.2849158762224007,0.7247648736108406
0.0605,1.7096806171280363,1.0,2706.7916974322043,0.49437909418091003,1.2931627865316486,0.9796822134192854,0.28485958591937754,0.7259425401562469
0.061,1.7083403718179606,1.0,2709.6007043650666,0.49721522814068925,1.2925318814145808,0.9798742914509224,0.2848032956163543,0.7271208493496355
0.0615,1.707000126507885,1.0,2712.5816313737055,0.5000354529631462,1.2918994220017603,0.9800619906855114,0.2847470053133312,0.7282995135045862
0.062,1.7056598811978092,1.0,2715.719009102221,0.5028398582048386,1.2912655518211995,0.9802454472916454,0.28469071501030796,0.7294782472011867
0.0625,1.7043196358877335,1.0,2719.0020033684555,0.5056285298508323,1.2906303719852945,0.9804247899246372,0.2846344247072848,0.7306568459173768
0.063,1.7029793905776578,1.0,2722.414982659064,0.5084015585865761,1.2899940271343453,0.9806001450955234,0.2845781344042616,0.7318350262321576
0.0635,1.701639145267582,1.0,2725.940018260606,0.5111590376838102,1.2893566825297527,0.9807716359439639,0.28452184410123843,0.733012468990357
0.064,1.7002988999575064,1.0,2729.5698799121296,0.5139010521004431,1.2887184058295453,0.9809393756270397,0.28446555379821525,0.7341890374210649
0.0645,1.6989586546474307,1.0,2733.297323617533,0.5166276867943835,1.288079264691752,0.9811034732406304,0.2844092634951921,0.7353645958375621
0.065,1.6976184093373548,1.0,2737.115090297929,0.51933902672354,1.2874393267744009,0.9812640339964552,0.2843529731921689,0.7365390096411965
0.0655,1.696278164027279,1.0,2741.015904545794,0.5220351568458214,1.2867986597355208,0.9814211593901813,0.2842966828891457,0.7377121453249649
0.066,1.6949379187172033,1.0,2744.9924734803512,0.524716162119136,1.2861573312331398,0.9815749473611098,0.28424039258612255,0.7388838704768084
0.0665,1.6935976734071276,1.0,2749.037485704674,0.5273821275013927,1.2855154089252872,0.9817254924439237,0.28418410228309937,0.7400540537826086
0.067,1.692257428097052,1.0,2753.1436103641504,0.5300331379505001,1.2848729604699909,0.9818728859129391,0.2841278119800762,0.7412225650288999
0.0675,1.6909171827869762,1.0,2757.30349630654,0.5326692784243668,1.2842300535252795,0.9820172159192828,0.284071521677053,0.742389275105283
0.068,1.6895769374769005,1.0,2761.5127108294373,0.5352906283420116,1.2835867291856755,0.9821585659986223,0.28401523137402984,0.7435541040490126
0.0685,1.6882366921668248,1.0,2765.7665312064137,0.537897271067875,1.2829430310505272,0.9822970172446225,0.2839589410710066,0.7447169680482794
0.069,1.686896446856749,1.0,2770.0551781814847,0.5404893003465019,1.282299048218425,0.9824326508265387,0.2839026507679835,0.7458777020885565
0.0695,1.6855562015466734,1.0,2774.376064781395,0.5430667953681582,1.2816548046739182,0.9825655412762989,0.28384636046496026,0.7470362595793909
0.07,1.6842159562365975,1.0,2778.7265962248975,0.5456298353231098,1.281010324401556,0.9826957606681153,0.2837900701619371,0.7481925943231258
0.07050000000000001,1.6828757109265218,1.0,2783.104169789591,0.5481784994016226,1.2803656313858882,0.9828233787168889,0.2837337798589139,0.7493466605152814
0.07100000000000001,1.681535465616446,1.0,2787.5061746929464,0.5507128667939626,1.2797207496114642,0.9829484628720476,0.2836774895558907,0.7504984127448997
0.07150000000000001,1.6801952203063704,1.0,2791.929991985418,0.5532330166903956,1.2790757030628332,0.9830710784070529,0.28362119925286755,0.7516478059948511
0.07200000000000001,1.6788549749962947,1.0,2796.3729944564093,0.5557390282811877,1.2784305157245448,0.9831912885048022,0.2835649089498444,0.7527947956421046
0.0725,1.677514729686219,1.0,2800.832546553196,0.5582309807566046,1.2777852115811483,0.9833091543391476,0.2835086186468212,0.7539393374579613
0.073,1.6761744843761432,1.0,2805.3060043121036,0.5607089533069124,1.2771398146171935,0.9834247351527238,0.283452328343798,0.7550813876082514
