Time [s],Phi [rad],STIM [ ],Fsee [N],Gamma [ ],Lcerel [ ],q [ ],Lmtc [m],fisomrel [ ]
0.0,1.8,1.0,18.01249804533294,0.00021516958634683675,1.379334669837642,0.005012043695375056,0.288653,0.5411518120509156
0.0005,1.79999375,1.0,18.38868712461892,0.005823171963963705,1.379289972085753,0.013519912909537246,0.2886527375,0.5412599396530253
0.001,1.799975,1.0,21.882652765054967,0.011399717882197484,1.3789113926875454,0.03668571512337507,0.28865195,0.5421752439144923
0.0015,1.79994375,1.0,31.662483726458902,0.016944983787887703,1.3779959000540234,0.07207092602249508,0.2886506375,0.5443848837447345
0.002,1.7999,1.0,54.83021123530063,0.022459145136031058,1.3762876452292545,0.11645451524751528,0.2886488,0.5484936481116796
0.0025,1.79984375,1.0,99.19091183063777,0.027942376398528517,1.373835850688115,0.1664619314055772,0.28864643749999996,0.5543582804218541
0.003,1.7997750000000001,1.0,163.6378594479727,0.03339485107015856,1.3711144543440323,0.21922588048383695,0.28864354999999997,0.5608229010743978
0.0035,1.79969375,1.0,240.7020636469121,0.03881674166965218,1.3684920426809601,0.2725469069309104,0.2886401375,0.5670076992372879
0.004,1.7996,1.0,324.67310819235854,0.04420821974998112,1.3660713794889499,0.3247878064010724,0.2886362,0.5726777586704632
0.0045000000000000005,1.7994937500000001,1.0,412.5844252031561,0.0495694559037056,1.3638451162728653,0.37481107778265893,0.2886317375,0.5778594750139833
0.005,1.799375,1.0,502.7949462615721,0.05490061975483214,1.3617866082031211,0.42190926966080966,0.28862675,0.5826226088165858
0.0055,1.79924375,1.0,594.1995752585993,0.06020187999714621,1.3598723241679964,0.4657120771172624,0.2886212375,0.5870277751847083
0.006,1.7991000000000001,1.0,685.9285653781709,0.06547340436045479,1.3580844989659604,0.5060936059852413,0.2886152,0.5911208278070699
0.006500000000000001,1.79894375,1.0,777.2687677268269,0.07071535962522293,1.3564094897446908,0.5430932451299613,0.2886086375,0.5949371033798762
0.007,1.798775,1.0,867.6314286435169,0.075927911707209,1.354836404752372,0.5768545979873996,0.28860155,0.5985048656326877
0.0075,1.79859375,1.0,956.5267548742944,0.08111122539328178,1.3533563183777702,0.6075811722530791,0.2885939375,0.6018472967554462
0.008,1.7984,1.0,1043.5773384955985,0.08626546495074111,1.3519612913652441,0.6355053780068601,0.2885858,0.6049848513409112
0.0085,1.79819375,1.0,1128.461614350016,0.09139079320501797,1.3506447171835463,0.660868572437086,0.2885771375,0.6079345736966545
0.009000000000000001,1.797975,1.0,1210.934400939566,0.09648737227715556,1.3494006020396265,0.6839078764036385,0.28856795,0.6107117962192172
0.0095,1.79774375,1.0,1290.8377974175671,0.10155536388902393,1.3482231680097352,0.704848411336382,0.2885582375,0.6133310754504584
0.01,1.7975,1.0,1368.0305888173357,0.10659492793652993,1.3471076003349256,0.7238996692047729,0.288548,0.6158045720335764
0.0105,1.79724375,1.0,1442.4242434815567,0.11160622377635378,1.3460493600879684,0.7412533775655914,0.2885372375,0.6181436236693483
0.011,1.796975,1.0,1513.9848526936946,0.11658941045052167,1.3450440426754147,0.7570831511204956,0.28852595000000003,0.62035908359122
0.0115,1.79669375,1.0,1582.69018328833,0.1215446455966572,1.3440878028181833,0.7715452880267432,0.2885141375,0.6224604080094229
0.012,1.7964,1.0,1648.533239712803,0.1264720854811167,1.3431771920222293,0.7847797524047155,0.28850180000000003,0.6244560423333481
0.0125,1.79609375,1.0,1711.5403332301273,0.1313718858949592,1.342308862609641,0.7969113633508316,0.2884889375,0.6263540898561666
0.013000000000000001,1.7957750000000001,1.0,1771.7697085061095,0.13624420287860972,1.3414795318276769,0.8080512026394561,0.28847555,0.628162402240914
0.0135,1.79544375,1.0,1829.2697928383163,0.14108919049845003,1.340686402149414,0.8182981807808178,0.2884616375,0.6298876766278307
0.014,1.7951000000000001,1.0,1884.086751134274,0.14590700116051028,1.3399270087735422,0.8277402862887686,0.2884472,0.631535805823572
0.0145,1.79474375,1.0,1936.290714288458,0.15069778727082053,1.3391988868987508,0.8364556905890285,0.2884322375,0.6331126120109964
0.015,1.794375,1.0,1985.9618609487864,0.15546170042940535,1.3384996978230224,0.8445139230521524,0.28841675,0.6346235796355949
0.0155,1.79399375,1.0,2033.1939215777543,0.16019889272965035,1.3378271641330477,0.8519768610437123,0.2884007375,0.6360740024675474
0.016,1.7936,1.0,2078.0611048833225,0.16490951361180095,1.3371793928670845,0.858899730020322,0.2883842,0.6374682940873223
0.0165,1.7931937500000001,1.0,2120.634806829449,0.16959371118380864,1.3365546675624238,0.8653318226266994,0.2883671375,0.6388104456056964
0.017,1.792775,1.0,2160.9988407351193,0.17425163355362502,1.3359512717563562,0.8713171485675988,0.28834955,0.6401044100933894
0.0175,1.7923437500000001,1.0,2199.242498622307,0.1788834282017856,1.335367548522984,0.8768950750774946,0.2883314375,0.6413539776711864
0.018000000000000002,1.7919,1.0,2235.4576657222397,0.18348924258470675,1.3348019170502234,0.8821008770028663,0.2883128,0.6425627434295131
0.0185,1.79144375,1.0,2269.7310764769113,0.1880692231981767,1.3342529379768804,0.886966229476294,0.2882936375,0.6437339714726523
0.019,1.790975,1.0,2302.1305154983293,0.19262351357878332,1.3337194370067054,0.8915196519775831,0.28827395,0.644870335981912
0.0195,1.79049375,1.0,2332.7301996962556,0.19715225726311436,1.333200239843449,0.8957868047915548,0.2882537375,0.6459744903324873
0.02,1.79,1.0,2361.610243601836,0.20165559778775763,1.3326941721908625,0.8997908135637082,0.288233,0.6470490682086631
0.0205,1.78949375,1.0,2388.846639910172,0.20613367731518503,1.3322001522050093,0.9035525738038686,0.2882117375,0.6480964887594663
0.021,1.788975,1.0,2414.525204562322,0.21058663952817006,1.3317170486828354,0.9070909683088147,0.28818995000000003,0.649119258970502
0.021500000000000002,1.78844375,1.0,2438.7168164769287,0.21501462548783992,1.3312439164346719,0.9104231353919369,0.2881676375,0.6501194764828448
0.022,1.7879,1.0,2461.4797658785665,0.21941777380565353,1.3307799656494688,0.9135646497842876,0.2881448,0.6510988977198223
0.0225,1.78734375,1.0,2482.8753881738025,0.2237962230930699,1.330324406516176,0.9165296588713739,0.28812143749999997,0.6520592680476281
0.023,1.786775,1.0,2502.9678112324773,0.22815011196154789,1.3298764492237438,0.919331033259167,0.28809755,0.6530023222179042
0.0235,1.78619375,1.0,2521.823716500437,0.23247957902254643,1.3294353039611224,0.9219804996792115,0.28807313749999996,0.653929784770545
0.024,1.7856,1.0,2539.498268314899,0.236784759521555,1.329000311391713,0.9244887804481808,0.2880482,0.6548430966331501
0.0245,1.78499375,1.0,2556.0688110490187,0.24106579431708622,1.32857062203609,0.9268656423371113,0.2880227375,0.6557440890778601
0.025,1.784375,1.0,2571.5799363199494,0.245322816776365,1.3281457119949514,0.9291200754606981,0.28799675,0.6566339021024441
0.025500000000000002,1.78374375,1.0,2586.077575523625,0.24955596024721544,1.327725058151266,0.9312603171851904,0.2879702375,0.6575136679201189
0.026000000000000002,1.7831000000000001,1.0,2599.608964685523,0.2537653580774616,1.327308137388003,0.9332939252624916,0.2879432,0.6583845127538145
0.0265,1.78244375,1.0,2612.2225326552066,0.25795114361492755,1.3268944265881308,0.9352278430764682,0.2879156375,0.6592475569694425
0.027,1.781775,1.0,2623.9677953685427,0.2621134502074374,1.3264834026346188,0.9370684578294876,0.28788755,0.6601039151917135
0.0275,1.7810937500000001,1.0,2634.88547834539,0.26625240707413805,1.3260746328687845,0.938821664426978,0.2878589375,0.6609545082891819
0.028,1.7804,1.0,2645.0323041681054,0.270368151064065,1.3256675444794404,0.9404928814068578,0.2878298,0.6618005435992722
0.0285,1.77969375,1.0,2654.443362278998,0.2744608109161152,1.3252617719130586,0.9420871383689972,0.2878001375,0.6626427925126832
0.029,1.778975,1.0,2663.1517390550403,0.2785305143010352,1.3248569737111353,0.9436090872219559,0.28776995,0.6634819726761567
0.029500000000000002,1.7782437500000001,1.0,2671.1910654795397,0.2825773888895715,1.324452808415167,0.9450630326701273,0.2877392375,0.6643187981872161
0.03,1.7775,1.0,2678.5954683203595,0.2866015623524705,1.3240489345666495,0.9464529625724971,0.287708,0.6651539796116688
0.0305,1.77674375,1.0,2685.3995238935627,0.2906031623604786,1.3236450107070794,0.9477825752861689,0.2876762375,0.6659882239936685
0.031,1.775975,1.0,2691.638214412116,0.29458231658434236,1.3232406953779527,0.9490553043269009,0.28764395,0.6668222348583468
0.0315,1.7751937500000001,1.0,2697.3332312884804,0.29853914571078094,1.3228357719830535,0.9502743540205394,0.2876111375,0.6676564551278887
0.032,1.7744,1.0,2702.529300713972,0.30247378428594524,1.3224298160071077,0.9514426840325574,0.2875778,0.6684917530281335
0.0325,1.77359375,1.0,2707.2545519071496,0.30638635722629676,1.322022557419608,0.9525630660895472,0.2875439375,0.6693286751050231
0.033,1.772775,1.0,2711.5304145328373,0.3102769856348514,1.3216137894229474,0.9536380899555019,0.28750955,0.6701676353731252
0.0335,1.7719437500000002,1.0,2715.378507457392,0.31414579061462505,1.3212033052195187,0.9546701717014465,0.2874746375,0.6710090456506911
0.034,1.7711000000000001,1.0,2718.8206202596502,0.31799289326863356,1.320790898011715,0.9556615674229904,0.2874392,0.671853315538385
0.0345,1.7702437500000001,1.0,2721.878695691154,0.3218184146998928,1.3203763610019295,0.9566143857201875,0.2874032375,0.672700852395285
0.035,1.7693750000000001,1.0,2724.5748130837974,0.32562247601141875,1.3199594873925553,0.9575305990644015,0.28736675,0.6735520613121596
0.035500000000000004,1.76849375,1.0,2726.9311727062977,0.3294051983062272,1.3195400703859852,0.9584120541630733,0.2873297375,0.6744073450820142
0.036000000000000004,1.7676,1.0,2728.970081067915,0.3331667026873341,1.3191179031846128,0.9592604814211568,0.2872922,0.6752671041679086
0.0365,1.76669375,1.0,2730.705699507062,0.33690710505767213,1.3186928538514993,0.9600775100085258,0.2872541375,0.6761315845152644
0.037,1.765775,1.0,2732.1590343484977,0.34062652793215054,1.318264728905687,0.9608646642441139,0.28721555,0.6770011554036657
0.0375,1.76484375,1.0,2733.352957626452,0.3443250931579043,1.317833318545085,0.9616233740910648,0.2871764375,0.6778762169088601
0.038,1.7639,1.0,2734.299738923974,0.3480029149637019,1.3173985097956193,0.9623549913969953,0.28713679999999997,0.6787569705979597
0.0385,1.76294375,1.0,2735.011691169935,0.35166010757831173,1.3169601896832166,0.9630607877844397,0.28709663750000003,0.6796436165688118
0.039,1.761975,1.0,2735.501165152854,0.3552967852305022,1.316518245233803,0.9637419602814761,0.28705595,0.6805363534251092
0.0395,1.7609937500000001,1.0,2735.7805443177017,0.3589130621490417,1.3160725634733046,0.9643996364986805,0.2870147375,0.6814353782506819
0.04,1.76,1.0,2735.862239845489,0.36250905256269866,1.3156230314276482,0.9650348793934239,0.286973,0.6823408865829776
0.0405,1.7589937500000001,1.0,2735.7586860161555,0.36608487070024154,1.31516953612276,0.9656486916584447,0.2869307375,0.683253072385728
0.041,1.757975,1.0,2735.4823358539807,0.36964063079043874,1.314711964584566,0.9662420197679772,0.28688795,0.6841721280208001
0.0415,1.75694375,1.0,2735.0456570563033,0.37317644706205866,1.314250203838993,0.9668157577114614,0.2868446375,0.6850982442192328
0.042,1.7559,1.0,2734.4613645759323,0.37669242437783695,1.313784138765398,0.9673707486987292,0.28680079999999997,0.6860316143471222
0.0425,1.75484375,1.0,2733.740435532144,0.38018868624681534,1.3133136700930241,0.9679077946011736,0.2867564375,0.6869723983827795
0.043000000000000003,1.753775,1.0,2732.8902441212153,0.38366534050833995,1.3128387313259282,0.9684276543398582,0.28671155,0.6879206893570909
0.043500000000000004,1.75269375,1.0,2731.91815853934,0.3871224948465094,1.3123592560679893,0.9689310465232553,0.28666613750000003,0.6888765789178963
0.044,1.7516,1.0,2730.83155029394,0.39056025694542235,1.3118751779230868,0.9694186520031028,0.2866202,0.6898401575109787
0.0445,1.75049375,1.0,2729.6377926211185,0.3939787344891774,1.3113864304950997,0.9698911162280592,0.2865737375,0.6908115143607156
0.045,1.7493750000000001,1.0,2728.344258999966,0.39737803516187326,1.3108929473879072,0.970349051428275,0.28652675,0.6917907374504464
0.0455,1.74824375,1.0,2726.958321764707,0.40075826664760844,1.3103946622053886,0.9707930386445629,0.2864792375,0.6927779135025598
0.046,1.7471,1.0,2725.487350815081,0.4041195366304816,1.3098915085514227,0.9712236296146276,0.2864312,0.6937731279583021
0.0465,1.7459437500000001,1.0,2723.938712423614,0.4074619527945914,1.309383420029889,0.9716413485276967,0.28638263750000004,0.6947764649572998
0.047,1.744775,1.0,2722.30499473752,0.4107855801571396,1.308870464706482,0.9720466977766342,0.28633355,0.6957877424489857
0.0475,1.74359375,1.0,2720.599068435726,0.4140905481826087,1.30835252610102,0.9724401504438623,0.28628393750000003,0.6968071417318871
0.048,1.7424,1.0,2718.84120166605,0.4173770068140492,1.3078294202452274,0.9728221544064463,0.2862338,0.6978349745902015
0.0485,1.74119375,1.0,2717.0340641950256,0.42064505381284834,1.3073011232798941,0.9731931405743798,0.2861831375,0.6988712360679699
0.049,1.739975,1.0,2715.180323726505,0.4238947869403932,1.306767611345809,0.9735535193981869,0.28613195,0.6999159203736818
0.0495,1.73874375,1.0,2713.28264566788,0.42712630395807083,1.3062288605837624,0.9739036820238177,0.2860802375,0.7009690208723552
0.05,1.7375,1.0,2711.3436929089166,0.43033970262726845,1.3056848471345432,0.9742440013722503,0.286028,0.7020305300775859
0.0505,1.73624375,1.0,2709.366125613055,0.4335350807093732,1.3051355471389414,0.9745748331493412,0.2859752375,0.7031004396435551
0.051000000000000004,1.734975,1.0,2707.3526010213927,0.43671253596577225,1.3045809367377463,0.9748965167910156,0.28592195,0.7041787403570057
0.051500000000000004,1.73369375,1.0,2705.305773269257,0.43987216615785263,1.3040209920717476,0.9752093763484715,0.2858681375,0.7052654221291785
0.052000000000000005,1.7324,1.0,2703.2282932153994,0.4430140690470016,1.3034556892817348,0.975513721317702,0.2858138,0.7063604739877143
0.0525,1.73109375,1.0,2701.122808284171,0.4461383423946061,1.3028850045084972,0.9758098474172903,0.28575893750000003,0.7074638840685192
0.053,1.729775,1.0,2698.991962319401,0.44924508396205354,1.3023089138928248,0.9760980373181272,0.28570355000000003,0.7085756396075914
0.0535,1.72844375,1.0,2696.8383954519495,0.45233439151073085,1.3017273935755067,0.9763785613284061,0.2856476375,0.7096957269328166
0.054,1.7271,1.0,2694.6647439793837,0.4554063628020253,1.3011404196973326,0.9766516780370003,0.2855912,0.7108241314557218
0.0545,1.7257437500000001,1.0,2692.4736402581493,0.45846109559732384,1.3005479683990924,0.9769176349180763,0.2855342375,0.7119608376631957
0.055,1.724375,1.0,2690.2677126084936,0.46149868765801383,1.299950015821575,0.9771766688995904,0.28547675,0.7131058291091736
0.0555,1.72299375,1.0,2688.0495852323015,0.4645192367454823,1.2993465381055704,0.9774290068981052,0.2854187375,0.7142590884062827
0.056,1.7216,1.0,2685.8218781429696,0.4675228406211164,1.298737511391868,0.9776748663221857,0.2853602,0.7154205972174539
0.0565,1.72019375,1.0,2683.5872071084505,0.4705095970463032,1.2981229118212576,0.9779144555464651,0.28530113749999997,0.7165903362474957
0.057,1.718775,1.0,2681.3481836068595,0.47347960378242987,1.2975027155345282,0.9781479743583109,0.28524155,0.7177682852346352
0.0575,1.71734375,1.0,2679.1074147938825,0.47643295859088364,1.29687689867247,0.9783756143788902,0.2851814375,0.7189544229420154
0.058,1.7159,1.0,2676.8664330706833,0.4793697429189614,1.2962454472007128,0.9785975585936432,0.2851208,0.7201487085868932
0.0585,1.71444375,1.0,2674.6251473232983,0.4822900598718241,1.2956083619691552,0.9788139853478584,0.2850596375,0.7213510724933448
0.059000000000000004,1.7129750000000001,1.0,2672.384388367469,0.4851940038897742,1.294965635360055,0.9790250646646369,0.28499795,0.7225614603209156
0.059500000000000004,1.71149375,1.0,2670.144962574644,0.48808166382422163,1.2943172599675425,0.9792309593928454,0.2849357375,0.7237798165982079
0.06,1.71,1.0,2667.90767496489,0.4909531285265764,1.293663228385748,0.9794318260038093,0.284873,0.7250060851213647
0.0605,1.7084937500000001,1.0,2665.6733292080926,0.4938084868482485,1.2930035332088021,0.9796278148885624,0.2848097375,0.726240208951398
0.061,1.7069750000000001,1.0,2663.442727626441,0.49664782764064785,1.2923381670308347,0.9798190706390242,0.28474595,0.7274821304115172
0.0615,1.7054437500000001,1.0,2661.2166711979025,0.4994712397551844,1.2916671224459761,0.980005732314086,0.2846816375,0.7287317910844515
0.062,1.7039,1.0,2658.9959595615223,0.5022788120432682,1.2909903920483572,0.9801879336915252,0.2846168,0.7299891318097684
0.0625,1.70234375,1.0,2656.781391022783,0.5050706333563091,1.2903079684321077,0.9803658035066043,0.2845514375,0.7312540926811938
0.063,1.7007750000000001,1.0,2654.573762561466,0.5078467925457171,1.2896198441913582,0.9805394656781518,0.28448555,0.7325266130439203
0.0635,1.69919375,1.0,2652.3738698401553,0.5106073784629022,1.2889260119202388,0.9807090395228683,0.28441913750000003,0.7338066314919197
0.064,1.6976,1.0,2650.182507213235,0.5133524799592742,1.2882264642128802,0.9808746399585562,0.2843522,0.7350940858652464
0.0645,1.69599375,1.0,2648.0005020594067,0.5160821849663003,1.2875211933466868,0.9810363776149327,0.2842847375,0.7363889138281159
0.065,1.694375,1.0,2645.831838207929,0.5187965178656729,1.2868101624456205,0.9811943531453978,0.28421675,0.7376911056056019
0.0655,1.69274375,1.0,2643.6741928836586,0.5214956522008183,1.2860933928215383,0.9813486769494756,0.2841482375,0.7390005439536382
0.066,1.6911,1.0,2641.5276083148,0.5241796679935568,1.285370883969698,0.9814994478547872,0.2840792,0.7403171510916874
0.0665,1.6894437500000001,1.0,2639.3921266997286,0.526848645265709,1.2846426353853564,0.9816467611855765,0.2840096375,0.7416408485997419
0.067,1.687775,1.0,2637.26779020727,0.5295026640390953,1.2839086465637715,0.9817907089101335,0.28393955,0.7429715574181361
0.0675,1.68609375,1.0,2635.1546409786347,0.5321418043355362,1.2831689170002003,0.9819313797810026,0.2838689375,0.744309197847365
0.068,1.6844000000000001,1.0,2633.052721128031,0.5347661461768521,1.2824234461899002,0.9820688594683747,0.2837978,0.7456536895478971
0.0685,1.68269375,1.0,2630.962072743545,0.5373757695848638,1.2816722336281292,0.9822032306870413,0.2837261375,0.7470049515399892
0.069,1.680975,1.0,2628.882737888832,0.5399707545813913,1.280915278810144,0.982334573317264,0.28365395,0.7483629022035045
0.0695,1.67924375,1.0,2626.8147586035857,0.5425511811882554,1.2801525812312027,0.982462964519887,0.28358123749999997,0.7497274592777244
0.07,1.6775,1.0,2624.7581769050503,0.5451171294272764,1.2793841403865622,0.9825884788460064,0.283508,0.7510985398611661
0.07050000000000001,1.67574375,1.0,2622.7130347888847,0.5476686793202749,1.27860995577148,0.9827111883414885,0.2834342375,0.7524760604113965
0.07100000000000001,1.673975,1.0,2620.679374230236,0.5502059108890713,1.277830026881214,0.9828311626466115,0.28335995,0.7538599367448467
0.07150000000000001,1.67219375,1.0,2618.6572371850684,0.552728904155486,1.277044353211021,0.9829484690910872,0.2832851375,0.7552500840366297
0.07200000000000001,1.6704,1.0,2616.64666559118,0.5552377391413397,1.2762529342561586,0.9830631727847093,0.2832098,0.7566464168203524
0.0725,1.66859375,1.0,2614.6477013691256,0.5577324958684526,1.2754557695118844,0.9831753367038545,0.2831339375,0.7580488489879325
0.073,1.6667750000000001,1.0,2612.660386423663,0.5602132543586453,1.2746528584734558,0.9832850217740509,0.28305755,0.7594572937894128
0.0735,1.66494375,1.0,2610.6847626446593,0.5626800946337384,1.2738442006361301,0.9833922869488211,0.2829806375,0.7608716638327772
0.074,1.6631,1.0,2608.7208719082514,0.5651330967155521,1.2730297954951648,0.9834971892849864,0.2829032,0.7622918710837643
0.0745,1.6612437500000001,1.0,2606.768756078024,0.5675723406259071,1.2722096425458171,0.983599784014614,0.2828252375,0.7637178268656839
0.075,1.659375,1.0,2604.828457006282,0.5699979063866238,1.2713837412833449,0.983700124613779,0.28274675,0.7651494418592301
0.0755,1.65749375,1.0,2602.900258186794,0.5724098686947372,1.2705520889536976,0.9837982624749557,0.2826677375,0.766586629983388
