Time [s],Phi [rad],STIM [ ],Fsee [N],Gamma [ ],Lcerel [ ],q [ ],Lmtc [m],fisomrel [ ]
0.0,1.8,1.0,19.12650144036435,0.0010988833613416308,1.379211891245153,0.005309918304943106,0.288653,0.5414487931705174
0.0005,1.79999375,1.0,19.752866546580996,0.006701928803497453,1.379141602747943,0.016237557094735993,0.2886527375,0.5416187661534468
0.001,1.799975,1.0,23.906431859928897,0.012273545590964365,1.3787104877432674,0.04150579469441548,0.28865195,0.5426606073764557
0.0015,1.79994375,1.0,35.21543329623338,0.017813910013709643,1.377704020664362,0.07852659673452186,0.2886506375,0.5450882422639516
0.002,1.7999,1.0,61.352340567946605,0.023323197372736273,1.3758811152233135,0.12400875572318938,0.2886488,0.5494687092425962
0.0025,1.79984375,1.0,109.20667501797006,0.028801581985935798,1.3733697651975183,0.17462228125080761,0.28864643749999996,0.5554688087893815
0.003,1.7997750000000001,1.0,176.0822129059711,0.034249237193131304,1.37066094421537,0.22760639996231918,0.28864354999999997,0.5618956136268186
0.0035,1.79969375,1.0,254.44787075957933,0.039666335361310215,1.3680771401275933,0.2808553014874233,0.2886401375,0.5679822031744006
0.004,1.7996,1.0,339.11356653307075,0.04505304789072665,1.3656949403376741,0.3328134428808355,0.2886362,0.5735561562864316
0.0045000000000000005,1.7994937500000001,1.0,427.41600836332213,0.05040954522252026,1.3635014261445584,0.3824162035195276,0.2886317375,0.5786566109402811
0.005,1.799375,1.0,517.8385800968283,0.05573599685011911,1.361470357128579,0.42901545161077276,0.28862675,0.5833519799660002
0.0055,1.79924375,1.0,609.3124200618611,0.061032571292663956,1.359579752715671,0.47228535971799174,0.2886212375,0.587698984173906
0.006,1.7991000000000001,1.0,700.9926478421157,0.06629943610527846,1.3578128390452704,0.5121308295509105,0.2886152,0.591740982826414
0.006500000000000001,1.79894375,1.0,792.1995205192026,0.07153675803730931,1.3561563777528092,0.5486110868913336,0.2886086375,0.5955122276339231
0.007,1.798775,1.0,882.340899050935,0.07674470261283392,1.3546002549112133,0.5818819355600717,0.28860155,0.5990390918906332
0.0075,1.79859375,1.0,970.9687306944301,0.08192343491179158,1.353135398216119,0.6121529386526928,0.2885939375,0.6023449953021145
0.008,1.7984,1.0,1057.6896389137585,0.08707311852719367,1.351754533509314,0.6396593049152368,0.2885858,0.605448814271827
0.0085,1.79819375,1.0,1142.1985361828195,0.09219391634763614,1.350451111670202,0.664642385691669,0.2885771375,0.6083674053862231
0.009000000000000001,1.797975,1.0,1224.287157041291,0.09728599083559072,1.3492188808025858,0.6873376472472574,0.28856795,0.6111166240146346
0.0095,1.79774375,1.0,1303.7721701255869,0.1023495026866011,1.3480526331944853,0.7079681942987652,0.2885582375,0.6137097083111769
0.01,1.7975,1.0,1380.528622900735,0.10738461201491184,1.346947499847405,0.7267407442736048,0.288548,0.616158904176132
0.0105,1.79724375,1.0,1454.4916939788948,0.1123914786296979,1.3458987857725546,0.7438440860400536,0.2885372375,0.6184758609728074
0.011,1.796975,1.0,1525.6117693369292,0.11737026080462651,1.3449024112087518,0.7594491830829904,0.28852595000000003,0.6206706847652714
0.0115,1.79669375,1.0,1593.8656618113757,0.12232111566243858,1.3439546375620741,0.7737097061764266,0.2885141375,0.6227525742970097
0.012,1.7964,1.0,1659.2619744333253,0.12724419970214093,1.343051911906248,0.7867630939095775,0.28850180000000003,0.6247301841118234
0.0125,1.79609375,1.0,1721.8520437078673,0.13213966994137194,1.342190675025028,0.7987318268945796,0.2884889375,0.6266120597127411
0.013000000000000001,1.7957750000000001,1.0,1781.6660177111814,0.13700768068525268,1.341368037744438,0.8097251228382691,0.28847555,0.6284051747656634
0.0135,1.79544375,1.0,1838.7429753225902,0.14184838525979354,1.3405813552539385,0.8198401269644828,0.2884616375,0.6301158815478014
0.014,1.7951000000000001,1.0,1893.1489528613133,0.1466619369910051,1.3398279827429906,0.8291631356167256,0.2884472,0.6317504532679517
0.0145,1.79474375,1.0,1944.9540458026547,0.15144848822714752,1.33910549653556,0.8377709011180825,0.2884322375,0.6333146116689137
0.015,1.794375,1.0,1994.2587267812385,0.15620819169674352,1.338411376999852,0.8457316246836457,0.28841675,0.6348142216743113
0.0155,1.79399375,1.0,2041.1278418590596,0.16094119703547932,1.337743687917402,0.8531061794461008,0.2884007375,0.6362538305865834
0.016,1.7936,1.0,2085.633084385488,0.16564765343474552,1.3371005844557442,0.8599488125401398,0.2883842,0.6376377422180985
0.0165,1.7931937500000001,1.0,2127.8600938250356,0.1703277100859327,1.3364802217824125,0.8663079018384904,0.2883671375,0.6389702179504415
0.017,1.792775,1.0,2167.8912532240006,0.1749815149401293,1.3358809182909501,0.8722266975521309,0.28834955,0.6402551298725385
0.0175,1.7923437500000001,1.0,2205.8318220492374,0.17960921682382264,1.3353008729583584,0.8777438481115398,0.2883314375,0.6414965707696518
0.018000000000000002,1.7919,1.0,2241.7520807732335,0.18421096100898976,1.3347387407571563,0.8828940934679114,0.2883128,0.6426976257535502
0.0185,1.79144375,1.0,2275.7267373154714,0.18878689248260863,1.3341932137258226,0.8877086079766626,0.2882936375,0.6438612751900723
0.019,1.790975,1.0,2307.8378633024163,0.19333715623165726,1.333662983902837,0.8922154030879711,0.28827395,0.6449904756793847
0.0195,1.79049375,1.0,2338.1637870346476,0.1978618958988922,1.3331468462566363,0.8964397133415714,0.2882537375,0.6460879426953354
0.02,1.79,1.0,2366.795681761568,0.2023612567501823,1.3326435278965374,0.9004042722763713,0.288233,0.6471565157798009
0.0205,1.78949375,1.0,2393.802461097004,0.2068353803743615,1.33215202575772,0.9041296656614036,0.2882117375,0.6481984431921013
0.021,1.788975,1.0,2419.249412154234,0.2112844072480235,1.33167141471809,0.9076345263905371,0.28818995000000003,0.6492157929174134
0.021500000000000002,1.78844375,1.0,2443.2057316865876,0.21570847784776198,1.331200769655553,0.9109357316159025,0.2881676375,0.6502106191950552
0.022,1.7879,1.0,2465.744196394618,0.2201077326501706,1.330739165448015,0.9140485924204806,0.2881448,0.651184963133771
0.0225,1.78734375,1.0,2486.927833851596,0.22448230972676336,1.3302858009418916,0.916987043997582,0.28812143749999997,0.6521405921434092
0.023,1.786775,1.0,2506.836039320475,0.22883235111680106,1.3298397460076001,0.9197637445741751,0.28809755,0.6530795342909497
0.0235,1.78619375,1.0,2525.523523168198,0.23315799336674173,1.329400329595652,0.9223902760690239,0.28807313749999996,0.6540032616781755
0.024,1.7856,1.0,2543.0416071070804,0.23745937189367539,1.3289669322870075,0.9248772173501185,0.2880482,0.6549131296609549
0.0245,1.78499375,1.0,2559.443458495237,0.24173662211469213,1.3285389346626266,0.9272342368242538,0.2880227375,0.6558104860036555
0.025,1.784375,1.0,2574.7839343992546,0.245989879446882,1.3281157173034694,0.9294701832773004,0.28799675,0.6566966711046867
0.025500000000000002,1.78374375,1.0,2589.1194341638115,0.25021927930733506,1.3276966607904959,0.9315931665453688,0.2879702375,0.6575730181975724
0.026000000000000002,1.7831000000000001,1.0,2602.4965383916433,0.25442495345883953,1.3272812501684663,0.933610644537293,0.2879432,0.6584406354852225
0.0265,1.78244375,1.0,2614.978011190033,0.2586070401774036,1.3268688310159773,0.9355294512173449,0.2879156375,0.6593009161678842
0.027,1.781775,1.0,2626.60389034171,0.2627656704145832,1.3264589705712344,0.9373559057339589,0.28788755,0.6601547848647
0.0275,1.7810937500000001,1.0,2637.411800182979,0.2669009740185248,1.3260512665057698,0.9390958333959136,0.2878589375,0.6610030982461208
0.028,1.7804,1.0,2647.4401411232434,0.2710130808373748,1.3256453164911162,0.9407546069841448,0.2878298,0.6618467086970689
0.0285,1.77969375,1.0,2656.7280218481073,0.2751021207192796,1.3252407181988055,0.9423371878353627,0.2878001375,0.6626864643671084
0.029,1.778975,1.0,2665.3151951112645,0.2791682235123856,1.32483706930037,0.943848162700664,0.28776995,0.6635232092102892
0.029500000000000002,1.7782437500000001,1.0,2673.2419354252065,0.28321151902006264,1.3244339680339456,0.9452917769206647,0.2877392375,0.664357781842311
0.03,1.7775,1.0,2680.5393484198053,0.28723212945088794,1.3240311015623005,0.9466719733392566,0.287708,0.6651908329729659
0.0305,1.77674375,1.0,2687.2564553764514,0.2912301935242725,1.3236279968121916,0.9479923939602776,0.2876762375,0.6660233408141841
0.031,1.775975,1.0,2693.418262975013,0.2952058347300742,1.3232244047021338,0.9492564441319552,0.28764395,0.6668558169800742
0.0315,1.7751937500000001,1.0,2699.050085298075,0.29915917655815094,1.3228200761506417,0.9504672890026167,0.2876111375,0.6676887705168811
0.032,1.7744,1.0,2704.177516034728,0.30309034249836053,1.3224147620762303,0.9516278734261571,0.2875778,0.6685227078932647
0.0325,1.77359375,1.0,2708.8264020598804,0.3069994560405609,1.322008213397414,0.9527409399877603,0.2875439375,0.6693581329866246
0.033,1.772775,1.0,2713.022818388864,0.3108866406746099,1.321600181032708,0.9538090453475229,0.28750955,0.6701955470654637
0.0335,1.7719437500000002,1.0,2716.7930445084785,0.3147520198903654,1.3211904159006267,0.9548345750769048,0.2874746375,0.6710354487678012
0.034,1.7711000000000001,1.0,2720.1635420821863,0.3185957171776852,1.320778668919685,0.9558197571430115,0.2874392,0.6718783340756223
0.0345,1.7702437500000001,1.0,2723.15572697039,0.32241785142468526,1.3203647383937018,0.9567666781878797,0.2874032375,0.672724599470456
0.035,1.7693750000000001,1.0,2725.791693079972,0.32621854490843705,1.3199484176562135,0.9576772907380646,0.28736675,0.6735746493599655
0.035500000000000004,1.76849375,1.0,2728.099821713667,0.3299979265336888,1.3195294439443397,0.958553418739507,0.2873297375,0.6744290001677968
0.036000000000000004,1.7676,1.0,2730.0951932140983,0.3337561126632299,1.31910767640145,0.9593967811185421,0.2872922,0.6752879172884805
0.0365,1.76669375,1.0,2731.792966484349,0.33749321965984946,1.3186829741709147,0.9602089900361296,0.2872541375,0.6761516644565693
0.037,1.765775,1.0,2733.208370303062,0.341209363886337,1.3182551963961038,0.9609915587189584,0.28721555,0.6770205037209102
0.0375,1.76484375,1.0,2734.356695079834,0.3449046617054816,1.317824202220387,0.9617459086322363,0.2871764375,0.6778946954176486
0.038,1.7639,1.0,2735.253285050037,0.34857922948007275,1.3173898507871347,0.9624733760561525,0.28713679999999997,0.6787744981419657
0.0385,1.76294375,1.0,2735.913530909973,0.3522331835728996,1.3169520012397162,0.9631752181215925,0.28709663750000003,0.6796601687185553
0.039,1.761975,1.0,2736.3528628910935,0.35586664034675153,1.3165105127215024,0.9638526183549614,0.28705595,0.680551962170828
0.0395,1.7609937500000001,1.0,2736.5867442756676,0.3594797161644178,1.3160652443758625,0.9645066917769112,0.2870147375,0.6814501316888595
0.04,1.760000037920551,1.0,2736.6384498010566,0.36307252522176076,1.315616001806158,0.9651384844143223,0.28697300159266315,0.6823550363644619
0.0405,1.7590010115805386,1.0,2736.8714496118473,0.366645177029189,1.3151627135491524,0.9657489931177979,0.2869310424863826,0.6832667856770884
0.041,1.758001985240526,1.0,2737.4822294781457,0.37019779626795046,1.314705996396002,0.9663392210546452,0.2868890833801021,0.6841841066084171
0.0415,1.7570029589005136,1.0,2738.4477534931452,0.37373049221170307,1.3142460605390192,0.9669100780202399,0.2868471242738216,0.6851065479454946
0.042,1.7560039325605012,1.0,2739.7450414228483,0.37724337413410486,1.3137831161705167,0.9674624238214609,0.28680516516754107,0.6860336607344389
0.0425,1.7550049062204889,1.0,2741.351154195682,0.3807365513088138,1.313317373482807,0.9679970715396043,0.28676320606126054,0.6869649983221788
0.043000000000000003,1.7540058798804765,1.0,2743.243180371865,0.38421013300948786,1.3128490426682027,0.9685147905487611,0.28672124695498,0.6879001163953734
0.043500000000000004,1.7530068535404641,1.0,2745.3982235921367,0.387664228509785,1.3123783339190165,0.96901630931025,0.2866792878486995,0.6888385730165161
0.044,1.7520078272004516,1.0,2747.79339100633,0.3910989470833631,1.311905457427561,0.9695023179617707,0.286637328742419,0.689779928657219
0.0445,1.7510088008604392,1.0,2750.40578268098,0.39451439800388033,1.311430623386149,0.9699734707182301,0.28659536963613846,0.6907237462286818
0.045,1.7500097745204268,1.0,2753.212481987242,0.3979106905449946,1.3109540419870926,0.970430388099647,0.28655341052985794,0.6916695911093413
0.0455,1.7490107481804145,1.0,2756.1905469675744,0.40128793398036383,1.3104759234227048,0.9708736590001354,0.2865114514235774,0.6926170311697026
0.046,1.748011721840402,1.0,2759.327502658891,0.4046462329353385,1.3099963829616348,0.9713038349248085,0.2864694923172969,0.6935658244601514
0.0465,1.7470126955003895,1.0,2762.605290703394,0.4079856973498546,1.3095155861847811,0.9717214443071944,0.2864275332110163,0.6945156310863883
0.047,1.7460136691603771,1.0,2766.0133327413264,0.41130643109536075,1.3090336308437736,0.97212698378552,0.28638557410473586,0.6954662468351859
0.0475,1.7450146428203648,1.0,2769.541154350488,0.4146085379659763,1.3085506135968208,0.9725209256817623,0.2863436149984553,0.6964174708195963
0.048,1.7440156164803524,1.0,2773.1782617880676,0.4178921217558207,1.3080666311021325,0.9729037195053839,0.2863016558921748,0.6973691033207354
0.0485,1.74301659014034,1.0,2776.914139817529,0.4211572862590133,1.3075817800179177,0.973275793269171,0.28625969678589425,0.6983209457940347
0.049,1.7420175638003275,1.0,2780.7382497444287,0.4244041352696735,1.307096157002386,0.9736375547175399,0.2862177376796138,0.6992728008748912
0.0495,1.741018537460315,1.0,2784.6423309994143,0.4276327694660797,1.3066098379855682,0.9739893907041647,0.2861757785733332,0.7002245129160193
0.05,1.7400195111203027,1.0,2788.619884689531,0.4308432884348579,1.3061228828735418,0.9743316689373127,0.28613381946705274,0.7011759584859432
0.0505,1.7390204847802904,1.0,2792.654596888266,0.4340358065262107,1.3056354396276444,0.9746647477172474,0.28609186036077217,0.7021268432513283
0.051000000000000004,1.738021458440278,1.0,2796.742151186069,0.43721042168101376,1.3051475480653287,0.9749889600975056,0.2860499012544917,0.7030770851712944
0.051500000000000004,1.7370224321002654,1.0,2800.8782196260718,0.44036723184014276,1.3046592480040484,0.9753046241326093,0.2860079421482111,0.7040266026964532
0.052000000000000005,1.736023405760253,1.0,2805.058462327146,0.44350633494447333,1.3041705792612561,0.9756120436861946,0.2859659830419306,0.7049753147699998
0.0525,1.7350243794202407,1.0,2809.278527139855,0.44662782893488107,1.3036815816544052,0.9759115091888168,0.2859240239356501,0.7059231408286952
0.053,1.7340253530802283,1.0,2813.5340493391836,0.4497318117522418,1.3031922950009487,0.976203298348976,0.2858820648293696,0.7068700008037554
0.0535,1.733026326740216,1.0,2817.8206513512564,0.4528183813374311,1.3027027591183398,0.9764876768206264,0.28584010572308904,0.7078158151216338
0.054,1.7320273004002036,1.0,2822.133942516471,0.45588763563132456,1.3022130138240313,0.976764898830185,0.2857981466168086,0.7087605047047062
0.0545,1.731028274060191,1.0,2826.4695188861856,0.45893967257479795,1.3017230989354764,0.9770352077658154,0.285756187510528,0.7097039909718517
0.055,1.7300292477201786,1.0,2830.822963056191,0.4619745901087269,1.3012330542701285,0.97729883673156,0.2857142284042475,0.7106461958389345
0.0555,1.7290302213801663,1.0,2835.191051499186,0.4649924814969254,1.300742908876553,0.977556007995854,0.28567226929796696,0.7115870623739458
0.056,1.728031195040154,1.0,2839.573719225528,0.4679934322784837,1.3002526635666105,0.9778069322560461,0.28563031019168644,0.7125265880776652
0.0565,1.7270321687001415,1.0,2843.9626711259916,0.47097756233376825,1.2997623924379818,0.9780518189075139,0.2855883510854059,0.7134646303566883
0.057,1.7260331423601292,1.0,2848.3567024742642,0.473944962281397,1.2992721062700097,0.9782908625271661,0.2855463919791254,0.7144011683951277
0.0575,1.7250341160201166,1.0,2852.754604807469,0.47689572273998804,1.2987818158420366,0.9785242498395029,0.2855044328728449,0.7153361815119113
0.058,1.7240350896801042,1.0,2857.155165923693,0.4798299343281595,1.2982915319334056,0.9787521600968782,0.28546247376656436,0.7162696491607846
0.0585,1.7230360633400919,1.0,2861.5571698825547,0.48274768766452947,1.2978012653234592,0.9789747654384237,0.28542051466028384,0.7172015509303147
0.059000000000000004,1.7220370370000795,1.0,2865.9593970075857,0.485649073367716,1.2973110267915402,0.9791922312289942,0.2853785555540033,0.7181318665438778
0.059500000000000004,1.7210380106600671,1.0,2870.360623892186,0.4885341820563373,1.2968208271169912,0.9794047163793907,0.2853365964477228,0.7190605758596468
0.06,1.7200389843200545,1.0,2874.7596234071552,0.4914031043490113,1.2963306770791547,0.9796123736490351,0.2852946373414423,0.7199876588705667
0.0605,1.7190399579800422,1.0,2879.155164711535,0.4942559308643562,1.295840587457374,0.9798153499321899,0.28525267823516176,0.7209130957043236
0.061,1.7180409316400298,1.0,2883.546013265758,0.49709275222099014,1.295350569030991,0.9800137865287353,0.28521071912888124,0.7218368666233095
0.0615,1.7170419053000174,1.0,2887.930930847247,0.4999136590375311,1.294860632579349,0.9802078194004462,0.2851687600226007,0.7227589520245732
0.062,1.716042878960005,1.0,2892.308675568709,0.5027187419325972,1.2943707888817906,0.9803975794136569,0.2851268009163202,0.7236793324397713
0.0625,1.7150438526199925,1.0,2896.6780018992595,0.5055080915248066,1.2938810487176584,0.9805831925691261,0.2850848418100397,0.7245979885351062
0.063,1.7140448262799801,1.0,2901.0381042088793,0.5082817915490151,1.293391418955859,0.980764779512273,0.28504288270375916,0.7255149084281491
0.0635,1.7130457999399678,1.0,2905.389926905593,0.5110399082767456,1.29290189102718,0.9809424544335786,0.28500092359747864,0.726430109160402
0.064,1.7120467735999554,1.0,2909.730538405679,0.5137825719629722,1.2924124905114358,0.9811163337123484,0.2849589644911981,0.72734354398246
0.0645,1.711047747259943,1.0,2914.0597898357155,0.516509864965091,1.2919232184332785,0.9812865248691586,0.2849170053849176,0.7282552121797078
0.065,1.7100487209199304,1.0,2918.3775320854143,0.5192218696404979,1.291434075817359,0.9814531315913201,0.2848750462786371,0.7291651130500059
0.0655,1.709049694579918,1.0,2922.68361581004,0.5219186683465888,1.290945063688329,0.9816162538974358,0.28483308717235656,0.7300732459036803
0.066,1.7080506682399057,1.0,2926.977891433942,0.52460034344076,1.2904561830708399,0.9817759882937531,0.28479112806607604,0.7309796100635164
0.0665,1.7070516418998933,1.0,2931.2602091531194,0.5272669772804072,1.2899674349895431,0.9819324279227787,0.2847491689597955,0.7318842048647484
0.067,1.706052615559881,1.0,2935.5304189384265,0.5299186522229263,1.28947882046909,0.9820856627045902,0.284707209853515,0.7327870296550524
0.0675,1.7050535892198684,1.0,2939.788370538392,0.5325554506257136,1.2889903405341319,0.9822357794712523,0.2846652507472345,0.7336880837945361
0.068,1.704054562879856,1.0,2944.0339134826036,0.535177454846165,1.2885019962093205,0.9823828620947188,0.28462329164095396,0.734587366655731
0.0685,1.7030555365398437,1.0,2948.2668970844375,0.5377847472416764,1.2880137885193068,0.9825269916085823,0.28458133253467344,0.7354848776235843
0.069,1.7020565101998313,1.0,2952.4871704442526,0.5403774101696437,1.2875257184887428,0.9826682463240035,0.2845393734283929,0.7363806160954472
0.0695,1.701057483859819,1.0,2956.6945824526765,0.5429555259874631,1.2870377871422793,0.9828067019401419,0.2844974143221124,0.73727458148107
0.07,1.7000584575198066,1.0,2960.8889817935756,0.5455191770525304,1.286549995504568,0.9829424316493776,0.2844554552158319,0.7381667732025894
0.07050000000000001,1.699059431179794,1.0,2965.070216947112,0.5480684457222418,1.2860623446002606,0.9830755062376113,0.28441349610955136,0.7390571906945209
0.07100000000000001,1.6980604048397816,1.0,2969.2381361932057,0.5506034143539931,1.2855748354540082,0.9832059941798977,0.28437153700327084,0.7399458334037505
0.07150000000000001,1.6970613784997692,1.0,2973.3925876146045,0.5531241653051803,1.2850874690904621,0.9833339617316641,0.2843295778969903,0.7408327007895243
0.07200000000000001,1.6960623521597569,1.0,2977.5334191000125,0.5556307809331994,1.2846002465342738,0.9834594730157409,0.2842876187907098,0.7417177923234393
