Time [s],Phi [rad],STIM [ ],Fsee [N],Gamma [ ],Lcerel [ ],q [ ],Lmtc [m],fisomrel [ ]
0.0,1.8,1.0,18.979449089809336,0.0010264210136995322,1.3792278897263626,0.0052705600940873894,0.288653,0.5414101009365109
0.0005,1.79999375,1.0,19.587400832256918,0.006629872912325412,1.3791593198505816,0.01600128977013875,0.2886527375,0.5415759252884067
0.001,1.799975,1.0,23.68462772935222,0.012201893877262523,1.3787320806196053,0.04109974053708932,0.28865195,0.5426084537931914
0.0015,1.79994375,1.0,34.86174600134095,0.017742660208549615,1.3777323956017518,0.0779896879405191,0.2886506375,0.5450198893908218
0.002,1.7999,1.0,60.747420247016294,0.023252347222692742,1.3759178810618582,0.12338498032346187,0.2886488,0.549380569827687
0.0025,1.79984375,1.0,108.32115800505856,0.028731129249015868,1.3734100872627817,0.17395132747729794,0.28864643749999996,0.5553727893188831
0.003,1.7997750000000001,1.0,175.00976640103752,0.0341791796403876,1.3706993828600702,0.22691926848898422,0.28864354999999997,0.5618047434539639
0.0035,1.79969375,1.0,253.27566228506953,0.03959667077700936,1.368112077792517,0.2801755023549125,0.2886401375,0.5679001855334052
0.004,1.7996,1.0,337.8925875576953,0.04498377407208776,1.3657264551285715,0.3321577391340562,0.2886362,0.5734826531220951
0.0045000000000000005,1.7994937500000001,1.0,426.1647452967302,0.05034065996454864,1.3635301887889044,0.3817955814778623,0.2886317375,0.5785899293338761
0.005,1.799375,1.0,516.5747982630842,0.0556674979940642,1.3614967464061283,0.42843599452994646,0.28862675,0.5832911426587482
0.0055,1.79924375,1.0,608.0399571586383,0.06096445663185731,1.359604245570652,0.47174973470667425,0.2886212375,0.5876428143098283
0.006,1.7991000000000001,1.0,699.7350818611305,0.06623170357215034,1.357835405136369,0.5116389830899274,0.2886152,0.5916894860678912
0.006500000000000001,1.79894375,1.0,790.9460558517588,0.07146940533867016,1.3561775347525462,0.5481617647081835,0.2886086375,0.5954641700816287
0.007,1.798775,1.0,881.1188292274171,0.07667772786175489,1.3546197990099975,0.5814725067146788,0.28860155,0.5989948920602965
0.0075,1.79859375,1.0,969.7638879392756,0.08185683571904419,1.3531537657104604,0.6117806975585675,0.2885939375,0.6023036280756418
0.008,1.7984,1.0,1056.5125492456546,0.08700689286941245,1.351771725995396,0.6393210971372388,0.2885858,0.6054102448667729
0.0085,1.79819375,1.0,1141.0625375519273,0.09212806239265163,1.350467077901298,0.6643350461542112,0.2885771375,0.6083317197299922
0.009000000000000001,1.797975,1.0,1223.1742179334224,0.09722050604982917,1.3492339891118885,0.6870583798968087,0.28856795,0.6110829746460374
0.0095,1.79774375,1.0,1302.6855959862928,0.10228438484712331,1.348066926622663,0.7077142081502856,0.2885582375,0.6136779802023398
0.01,1.7975,1.0,1379.4955932511616,0.10731986008637133,1.3469607054652109,0.7265093176095133,0.288548,0.6161296838746276
0.0105,1.79724375,1.0,1453.4965732952696,0.1123270900363711,1.3459111789255291,0.7436330180043268,0.2885372375,0.6184485213467812
0.011,1.796975,1.0,1524.6422743427224,0.11730623296592053,1.3449142002896157,0.7592564585243535,0.28852595000000003,0.620644752674027
0.0115,1.79669375,1.0,1592.9257995326395,0.12225744652817508,1.3439658187971382,0.7735334241486537,0.2885141375,0.6227280468724947
0.012,1.7964,1.0,1658.376330337087,0.12718088847333014,1.3430622382622515,0.7866014553409786,0.28850180000000003,0.6247075914492801
0.0125,1.79609375,1.0,1721.0085802748854,0.13207671404930504,1.3422003290611062,0.7985834071531701,0.2884889375,0.6265909910410417
0.013000000000000001,1.7957750000000001,1.0,1780.8484299515678,0.1369450774506351,1.341377237121976,0.8095886692320086,0.28847555,0.628385146603846
0.0135,1.79544375,1.0,1837.9526801937513,0.1417861328718556,1.3405901083731342,0.8197144473104265,0.2884616375,0.6300968688723747
0.014,1.7951000000000001,1.0,1892.3855308545305,0.14660003354825668,1.3398363157826685,0.8290471771530087,0.2884472,0.6317323930971379
0.0145,1.79474375,1.0,1944.24188135241,0.15138693301509448,1.3391131657831297,0.8376636344839976,0.2884322375,0.6332980254864273
0.015,1.794375,1.0,1993.5811887473558,0.15614698176374364,1.3384185825508945,0.8456322824853282,0.28841675,0.6347986702303681
0.0155,1.79399375,1.0,2040.4726001766014,0.1608803298892591,1.3377505758462136,0.8530140615059616,0.2884007375,0.6362389939909157
0.016,1.7936,1.0,2085.0012134200515,0.16558712748669568,1.3371071554293372,0.8598632501737217,0.2883842,0.6376236153008312
0.0165,1.7931937500000001,1.0,2127.2526399187855,0.1702675233128479,1.336486475815446,0.8662282974390831,0.2883671375,0.6389567971725169
0.017,1.792775,1.0,2167.328639756923,0.17492166700387748,1.3358866569039114,0.8721524612678617,0.28834955,0.6402428370979405
0.0175,1.7923437500000001,1.0,2205.2976275793485,0.17954970456824154,1.3353062746136124,0.8776745547258157,0.2883314375,0.6414850197855254
0.018000000000000002,1.7919,1.0,2241.2362599505122,0.18415178192833842,1.3347439146501419,0.8828293437864195,0.2883128,0.6426865803721254
0.0185,1.79144375,1.0,2275.2296120663746,0.18872804500656648,1.334198162719092,0.8876480167394434,0.2882936375,0.6438507271530081
0.019,1.790975,1.0,2307.355456134972,0.19327863796830785,1.3336677528353833,0.8921586335580269,0.28827395,0.6449803275439591
0.0195,1.79049375,1.0,2337.7132278630147,0.19780370748221798,1.3331512713523737,0.8963864142091214,0.2882537375,0.6460785408045189
0.02,1.79,1.0,2366.369907856261,0.20230339545847584,1.332647684183913,0.9003541797612495,0.288233,0.6471476983644122
0.0205,1.78949375,1.0,2393.3925980467006,0.20677784320423073,1.3321560040856828,0.9040825448105192,0.2882117375,0.6481900157839027
0.021,1.788975,1.0,2418.8528316896627,0.21122719202663187,1.3316752438133639,0.9075901515608035,0.28818995000000003,0.6492076933716379
0.021500000000000002,1.78844375,1.0,2442.8261999724887,0.2156515832328286,1.3312044161226375,0.9108938856329774,0.2881676375,0.6502029169032615
0.022,1.7879,1.0,2465.37862949479,0.22005115595295152,1.3307426616485252,0.9140090906981475,0.2881448,0.6511775885384222
0.0225,1.78734375,1.0,2486.5913163057076,0.22442605255240333,1.3302890055740904,0.9169496868655327,0.28812143749999997,0.652133841826781
0.023,1.786775,1.0,2506.5219312920603,0.22877641055609774,1.3298427253269351,0.9197283874598583,0.28809755,0.6530732670564414
0.0235,1.78619375,1.0,2525.2234565643175,0.23310236619549252,1.3294031651777949,0.9223567898675556,0.28807313749999996,0.6539973047539872
0.024,1.7856,1.0,2542.7509578216886,0.2374040557020456,1.3289696693974042,0.9248454780335249,0.2880482,0.6549073871701613
0.0245,1.78499375,1.0,2559.161409346116,0.24168161530721483,1.3285415822564988,0.9272041249710077,0.2880227375,0.655804938547182
0.025,1.784375,1.0,2574.513528530047,0.245935181242458,1.3281182480258131,0.9294415836595781,0.28799675,0.6566913753586447
0.025500000000000002,1.78374375,1.0,2588.8581692973225,0.25016488602164555,1.3276990991812576,0.9315659806809219,0.2879702375,0.6575679221804601
0.026000000000000002,1.7831000000000001,1.0,2602.2577518892285,0.2543708687287991,1.3272834730280751,0.9335847614651622,0.2879432,0.6584359957993662
0.0265,1.78244375,1.0,2614.7529563225994,0.25855326046059895,1.3268709210392022,0.9355047981402095,0.2879156375,0.6592965592442079
0.027,1.781775,1.0,2626.3846922681837,0.26271219201185286,1.3264610016926277,0.9373324142661625,0.28788755,0.6601505560390502
0.0275,1.7810937500000001,1.0,2637.1947643214266,0.2668477941773686,1.32605327346634,0.9390734350476379,0.2878589375,0.6609989249422326
0.028,1.7804,1.0,2647.2257931304966,0.27096019775195374,1.3256472948383273,0.9407332331917022,0.2878298,0.6618426000142842
0.0285,1.77969375,1.0,2656.5211408462596,0.27504953353041617,1.3252426242865785,0.9423167699908628,0.2878001375,0.6626825106734042
0.029,1.778975,1.0,2665.1097440360527,0.27911593134949597,1.3248389591614373,0.9438286512367116,0.28776995,0.6635192940399045
0.029500000000000002,1.7782437500000001,1.0,2673.0508928358695,0.2831595207856009,1.324435722747378,0.9452731019702069,0.2877392375,0.6643541511651355
0.03,1.7775004829538577,1.0,2680.4042210011194,0.2871804299862343,1.3240325591097257,0.9466540664118159,0.287708020284062,0.66518782090817
0.0305,1.7767539576979403,1.0,2687.5928437235975,0.29117878491088184,1.3236295252544772,0.9479752560515059,0.2876766662233135,0.6660201861720718
0.031,1.776007432442023,1.0,2694.7706746676968,0.295154711519029,1.3232266781876296,0.9492401161381602,0.28764531216256495,0.6668511304457606
0.0315,1.7752609071861059,1.0,2701.931392400067,0.2991083357701614,1.3228240749151794,0.9504518480895809,0.28761395810181645,0.6676805378034396
0.032,1.7745143819301885,1.0,2709.0686461058376,0.30303978347968613,1.322421772412345,0.9516134297100786,0.28758260404106795,0.6685082929670982
0.0325,1.7737678566742712,1.0,2716.172823407029,0.306949179282275,1.3220198570781947,0.9527276367491326,0.2875512499803194,0.669334220814219
0.033,1.7730213314183538,1.0,2723.235881206113,0.31083664650267057,1.3216184005874425,0.9537970540404209,0.28751989591957083,0.6701581773073194
0.0335,1.7722748061624367,1.0,2730.251689515647,0.3147023079244621,1.321217456867693,0.9548240907253364,0.28748854185882233,0.6709800554957006
0.034,1.7715282809065194,1.0,2737.220067691851,0.31854627675217284,1.3208170255833922,0.9558109877376835,0.28745718779807383,0.6717998599994423
0.0345,1.770781755650602,1.0,2744.126777972701,0.32236868986166245,1.3204172338492774,0.9567598596721999,0.2874258337373253,0.6726173349884486
0.035,1.7700352303946847,1.0,2750.968348152516,0.3261696682229224,1.3200181106899402,0.9576726697199203,0.2873944796765767,0.6734324261174782
0.035500000000000004,1.7692887051387676,1.0,2757.7436731042,0.3299493290527897,1.319619663606426,0.9585512527430721,0.2873631256158282,0.6742451232018978
0.036000000000000004,1.7685421798828502,1.0,2764.4516466399805,0.33370778956810115,1.3192219000997794,0.9593973281454078,0.2873317715550797,0.675055416124638
0.0365,1.7677956546269329,1.0,2771.0911616247026,0.3374451669856937,1.3188248276710461,0.9602125084548961,0.28730041749433116,0.6758632948358665
0.037,1.7670491293710155,1.0,2777.6611100903706,0.34116157852240453,1.318428453821271,0.9609983071759732,0.28726906343358266,0.6766687493526617
0.0375,1.7663026041150984,1.0,2784.160383351006,0.34485714139507034,1.3180327860514993,0.9617561459809476,0.2872377093728341,0.6774717697586775
0.038,1.765556078859181,1.0,2790.587872120316,0.34853197282052817,1.3176378318627762,0.9624873613028625,0.2872063553120856,0.6782723462038098
0.0385,1.7648095536032637,1.0,2796.9424666291143,0.3521861900156149,1.3172435987561466,0.9631932103856509,0.2871750012513371,0.6790704689038555
0.039,1.7640630283473464,1.0,2803.2230567446195,0.3558199101971675,1.316850094232656,0.963874876841677,0.28714364719058855,0.6798661281401691
0.0395,1.7633165030914293,1.0,2809.4295653170784,0.35943324044059244,1.3164573165362816,0.9645334729992543,0.28711229312984005,0.6806593329421418
0.04,1.762569977835512,1.0,2815.562851122855,0.3630262949610057,1.316065255574063,0.9651700482061342,0.2870809390690915,0.6814501091163974
0.0405,1.7618234525795946,1.0,2821.6218901327074,0.3665992087947399,1.3156739181601242,0.9657855976926288,0.287049585008343,0.682238448320903
0.041,1.7610769273236773,1.0,2827.6078198334512,0.3701520906032106,1.3152832918067277,0.9663810545662826,0.28701823094759443,0.6830243810826334
0.0415,1.76033040206776,1.0,2833.521787038346,0.3736850490478334,1.3148933640261367,0.9669573003940429,0.28698687688684593,0.6838079377943336
0.042,1.7595838768118428,1.0,2839.3649476915484,0.37719819279002403,1.3145041223306142,0.9675151685824988,0.2869555228260974,0.6845891487150831
0.0425,1.7588373515559255,1.0,2845.138466676861,0.38069163049119803,1.314115554232423,0.9680554475030749,0.2869241687653489,0.6853680439708474
0.043000000000000003,1.7580908263000081,1.0,2850.8435176290027,0.3841654708127711,1.3137276472438262,0.9685788833838354,0.2868928147046003,0.6861446535550171
0.043500000000000004,1.7573443010440908,1.0,2856.4812827494366,0.3876198224161588,1.3133403888770865,0.96908618298751,0.2868614606438518,0.6869190073289421
0.044,1.7565977757881737,1.0,2862.0529526243563,0.3910547939627767,1.312953766644467,0.96957801609354,0.28683010658310326,0.6876911350224504
0.0445,1.7558512505322563,1.0,2867.5597260474974,0.39447049411404056,1.3125677680582308,0.9700550178002928,0.28679875252235476,0.6884610662343623
0.045,1.755104725276339,1.0,2873.002809845337,0.39786703153136593,1.3121823806306405,0.9705177906621255,0.28676739846160626,0.6892288304329908
0.0455,1.7543582000204216,1.0,2878.3834187060174,0.4012445148761684,1.3117975918739595,0.9709669066746504,0.2867360444008577,0.689994456956632
0.046,1.7536116747645045,1.0,2883.702775012568,0.4046030528098637,1.3114133893004503,0.9714029091203558,0.2867046903401092,0.6907579750140505
0.0465,1.7528651495085872,1.0,2888.9621086779716,0.40794275399386737,1.311029760422376,0.9718263142856579,0.28667333627936065,0.6915194136849472
0.047,1.7521186242526698,1.0,2894.1613799540423,0.4112636939612281,1.3106467040246879,0.9722376095389806,0.28664198221861215,0.692278779587366
0.0475,1.7513720989967525,1.0,2899.3030080669146,0.41456599480468864,1.3102641972291922,0.9726372630924234,0.2866106281578636,0.6930361221866229
0.048,1.7506255737408354,1.0,2904.389863699701,0.4178497962814328,1.3098822132789063,0.9730257224512026,0.2865792740971151,0.6937914983844593
0.0485,1.749879048484918,1.0,2909.423038137096,0.4211151966349585,1.3095007411930633,0.9734034096131051,0.28654792003636653,0.6945449336764812
0.049,1.7491325232290007,1.0,2914.4036287490308,0.4243622941087634,1.3091197699908959,0.973770726667716,0.28651656597561803,0.6952964534463509
0.0495,1.7483859979730834,1.0,2919.3327388672265,0.4275911869463455,1.3087392886916367,0.9741280569170752,0.28648521191486953,0.6960460829661423
0.05,1.7476394727171662,1.0,2924.2114776644767,0.43080197339120263,1.3083592863145186,0.9744757659234483,0.286453857854121,0.6967938473966862
0.0505,1.746892947461249,1.0,2929.0409600370585,0.4339947516868325,1.3079797518787741,0.9748142024895682,0.2864225037933724,0.6975397717879105
0.051000000000000004,1.7461464222053316,1.0,2933.822306489263,0.4371696200767331,1.3076006744036361,0.9751436995762638,0.2863911497326239,0.6982838810791716
0.051500000000000004,1.7453998969494142,1.0,2938.5566430206736,0.44032667680440213,1.3072220429083374,0.9754645751620001,0.2863597956718754,0.699026200099578
0.052000000000000005,1.7446533716934969,1.0,2943.245101016349,0.4434660201133375,1.3068438464121106,0.9757771330484848,0.28632844161112686,0.699766753568307
0.0525,1.7439068464375798,1.0,2947.888817139893,0.44658774824703706,1.3064660739341882,0.9760816636161691,0.28629708755037836,0.7005055660949129
0.053,1.7431603211816624,1.0,2952.488933228235,0.4496919594489987,1.3060887144938034,0.9763784445331676,0.2862657334896298,0.7012426621796267
0.0535,1.742413795925745,1.0,2957.0465961904524,0.45277875196272016,1.3057117571101886,0.9766677414208482,0.2862343794288813,0.7019780662136513
0.054,1.7416672706698277,1.0,2961.56295790797,0.4558482240316993,1.3053351908025765,0.9769498084790865,0.28620302536813275,0.7027118024794458
0.0545,1.7409207454139106,1.0,2966.0391751383863,0.458900473899434,1.3049590045902002,0.9772248890739522,0.28617167130738425,0.703443895151002
0.055,1.7401742201579933,1.0,2970.476409421394,0.46193559980942206,1.304583187492292,0.9774932162903834,0.2861403172466357,0.7041743682941177
0.0555,1.739427694902076,1.0,2974.875826987715,0.46495370000516134,1.3042077285280849,0.9777550134522102,0.2861089631858872,0.7049032458666551
0.056,1.7386811696461586,1.0,2979.238598670437,0.46795487273014974,1.3038326167168113,0.9780104946117107,0.2860776091251387,0.7056305517187986
0.0565,1.7379346443902415,1.0,2983.565899819192,0.470939216227885,1.3034578410777042,0.9782598650107245,0.28604625506439013,0.7063563095932998
0.057,1.7371881191343241,1.0,2987.8577034705922,0.4739067997166152,1.3030834011139105,0.9785033195391969,0.28601490100364163,0.7070805228610473
0.0575,1.7364415938784068,1.0,2992.11522649208,0.4768577264913419,1.3027092855381106,0.9787410476305187,0.2859835469428931,0.7078032157174956
0.058,1.7356950686224895,1.0,2996.3406325446704,0.4797921223885951,1.3023354748874563,0.9789732325788353,0.2859521928821446,0.7085244280120417
0.0585,1.7349485433665723,1.0,3000.5345468570004,0.4827100751882937,1.301961963096822,0.9792000478539433,0.285920838821396,0.7092441736055917
0.059000000000000004,1.734202018110655,1.0,3004.6975972164073,0.48561167267035643,1.3015887441010827,0.9794216601028858,0.2858894847606475,0.709962466299527
0.059500000000000004,1.7334554928547377,1.0,3008.830413928972,0.48849700261470214,1.3012158118351127,0.9796382294717981,0.28585813069989896,0.7106793198358227
0.06,1.7327089675988203,1.0,3012.933629780694,0.4913661528012497,1.300843160233787,0.9798499099101514,0.28582677663915046,0.7113947478971554
0.0605,1.731962442342903,1.0,3017.007879999065,0.4942192110099179,1.3004707832319806,0.9800568494584797,0.2857954225784019,0.7121087641070157
0.061,1.7312159170869859,1.0,3021.053802216321,0.49705626502062555,1.3000986747645675,0.980259190520612,0.2857640685176534,0.7128213820298162
0.0615,1.7304693918310685,1.0,3025.072036432131,0.4998774026132915,1.299726828766423,0.9804570701213544,0.28573271445690485,0.7135326151709929
0.062,1.7297228665751512,1.0,3029.063224978652,0.5026827115678346,1.2993552391724215,0.980650620150504,0.28570136039615635,0.7142424769771121
0.0625,1.728976341319234,1.0,3033.0280124851274,0.5054722796641735,1.2989838999174377,0.980839967594018,0.28567000633540784,0.7149509808359682
0.063,1.7282298160633167,1.0,3036.9670458438795,0.5082461946822273,1.2986128049363466,0.9810252347531052,0.2856386522746593,0.7156581400766819
0.0635,1.7274832908073994,1.0,3040.880974177438,0.5110045444019146,1.2982419481640224,0.981206539451956,0.2856072982139108,0.7163639679697977
0.064,1.726736765551482,1.0,3044.770448805543,0.5137474166031543,1.2978713235353403,0.9813839952347795,0.28557594415316223,0.7170684777273745
0.0645,1.7259902402955647,1.0,3048.636123214041,0.5164748990658652,1.2975009249851746,0.9815577115527725,0.28554459009241373,0.7177716825030789
0.065,1.7252437150396476,1.0,3052.478653023696,0.519187079569966,1.2971307464484003,0.9817277939416058,0.28551323603166523,0.7184735953922718
0.0655,1.7244971897837302,1.0,3056.298695960193,0.5218840458953758,1.296760781859892,0.981894344189972,0.2854818819709167,0.7191742294320969
0.066,1.723750664527813,1.0,3060.096911825445,0.5245658858220132,1.2963910251545245,0.9820574604997077,0.2854505279101681,0.7198735976015626
0.0665,1.7230041392718956,1.0,3063.8739624686464,0.5272326871297972,1.2960214702671724,0.9822172376379671,0.2854191738494196,0.7205717128216249
0.067,1.7222576140159784,1.0,3067.6297260072574,0.5298845052256331,1.2956521178697837,0.982373765288379,0.2853878197886711,0.7212685752522688
0.0675,1.721511088760061,1.0,3071.3647706998554,0.5325214318341495,1.2952829627212874,0.9825271321442872,0.28535646572792256,0.7219641961943202
0.068,1.7207645635041438,1.0,3075.0804778043907,0.5351435910428383,1.2949139926333675,0.9826774255913712,0.285325111667174,0.7226585999650703
0.0685,1.7200180382482264,1.0,3078.7771621481065,0.5377510607875468,1.2945452045762516,0.9828247275335803,0.2852937576064255,0.72335179356229
0.069,1.719271512992309,1.0,3082.455139631233,0.540343919004122,1.2941765955201665,0.982969117125354,0.285262403545677,0.7240437839546057
0.0695,1.718524987736392,1.0,3086.1147272152766,0.5429222436284116,1.2938081624353395,0.9831106708828549,0.28523104948492845,0.7247345780815344
0.07,1.7177784624804746,1.0,3089.756242910998,0.5454861125962626,1.293439902291998,0.9832494627899726,0.28519969542417994,0.7254241828535162
0.07050000000000001,1.7170319372245573,1.0,3093.3800057664084,0.5480356038435221,1.2930718120603693,0.9833855643993747,0.2851683413634314,0.7261126051519502
0.07100000000000001,1.71628541196864,1.0,3096.986335855747,0.5505707953060377,1.29270388871068,0.9835190449288747,0.2851369873026829,0.7267998518292277
