Time [s],Phi [rad],STIM [ ],Fsee [N],Gamma [ ],Lcerel [ ],q [ ],Lmtc [m],fisomrel [ ]
0.0,1.8,1.0,17.96683551809966,1.8341202739818402e-05,1.3793397823674154,0.005000089228372278,0.288653,0.5411394436015368
0.0005,1.79999375,1.0,18.279009632336116,0.005627447631894832,1.3793021361458757,0.012963688417746269,0.2886527375,0.5412305150356365
0.001,1.799975,1.0,21.626865140061533,0.0112050914088626,1.3789374357256277,0.035652059203897725,0.28865195,0.542112308053845
0.0015,1.79994375,1.0,31.09083034962272,0.016751449015115643,1.3780443642844684,0.07066122212489419,0.2886506375,0.5442680441095413
0.002,1.7999,1.0,53.63006343033426,0.022266695940459057,1.376365039427992,0.1147883216375046,0.2886488,0.5483078989042284
0.0025,1.79984375,1.0,97.1998264648938,0.027751006690657363,1.373931270231734,0.16465135514200507,0.28864643749999996,0.5541307561954146
0.003,1.7997750000000001,1.0,161.063990281551,0.03320455479507074,1.3712103833342726,0.21735933617280168,0.28864354999999997,0.5605958268648674
0.0035,1.79969375,1.0,237.80321727495502,0.03862751280630902,1.3685810419010125,0.2706913459221423,0.2886401375,0.5667985189769262
0.004,1.7996,1.0,321.59453386428464,0.044020052310998065,1.3661527087910197,0.3229917704050838,0.2886362,0.572487863026144
0.0045000000000000005,1.7994937500000001,1.0,409.40022274636175,0.049382343934968584,1.363919704796398,0.37310662248951465,0.2886317375,0.5776863790207352
0.005,1.799375,1.0,499.5487907749687,0.05471455733436488,1.3618554677123091,0.42031493044651536,0.28862675,0.5824637132866901
0.0055,1.79924375,1.0,590.9270244472228,0.06001686124276701,1.3599361662167206,0.4642361652133182,0.2886212375,0.5868812380395704
0.006,1.7991000000000001,1.0,682.6549826344352,0.06528942341522306,1.3581439268615587,0.5047373692413664,0.2886152,0.5909851009317044
0.006500000000000001,1.79894375,1.0,774.0195003934482,0.07053241068092608,1.3564648938319255,0.5418532275856982,0.2886086375,0.5948111590095475
0.007,1.798775,1.0,864.4251595047887,0.07574598894112662,1.354888144165511,0.5757245683006744,0.28860155,0.5983877714628811
0.0075,1.79859375,1.0,953.3815445150557,0.08093032313879042,1.3534046516237452,0.6065533672289692,0.2885939375,0.6017383680188115
0.008,1.7984,1.0,1040.495495542461,0.08608557732678075,1.3520066287591352,0.6345715266409089,0.2885858,0.6048830781557026
0.0085,1.79819375,1.0,1125.4547103872867,0.09121191461775188,1.350687252839581,0.660020236777804,0.2885771375,0.6078394473718998
0.009000000000000001,1.797975,1.0,1208.0131907363084,0.09630949710132572,1.349440490937263,0.6831369091939425,0.28856795,0.6106229059104739
0.0095,1.79774375,1.0,1287.9758171918197,0.10137848540519595,1.348261017418016,0.7041474153036228,0.2885582375,0.6132470144992612
0.01,1.7975,1.0,1365.2803182438906,0.10641904234345806,1.3471429294968924,0.7232612722122457,0.288548,0.6157263600137615
0.0105,1.79724375,1.0,1439.7951782418165,0.11143132576685952,1.3460822483000285,0.7406711565187506,0.2885372375,0.6180710376645325
0.011,1.796975,1.0,1511.449816904019,0.11641549352614772,1.3450749949535612,0.7565515160495647,0.28852595000000003,0.6202909689343103
0.0115,1.79669375,1.0,1580.2292025324264,0.12137170347207021,1.3441171905836267,0.7710591656882159,0.2885141375,0.6223959156404081
0.012,1.7964,1.0,1646.1602107308972,0.12630011316476078,1.3432049570389966,0.7843344262882073,0.28850180000000003,0.6243952725250654
0.0125,1.79609375,1.0,1709.2705931583366,0.13120087884851972,1.3423349249846517,0.796502625796624,0.2884889375,0.626297191121661
0.013000000000000001,1.7957750000000001,1.0,1769.5892331925688,0.13607415508076298,1.3415041393901699,0.807675442247335,0.28847555,0.6281088098832253
0.0135,1.79544375,1.0,1827.1648037653872,0.14092009586517268,1.3407097810096613,0.8179521800566709,0.2884616375,0.6298368785852955
0.014,1.7951000000000001,1.0,1882.0591687048263,0.1457388543985305,1.339949197498114,0.8274211183203986,0.2884472,0.6314877012767486
0.0145,1.79474375,1.0,1934.3611803134675,0.15053058441329448,1.3392197156273864,0.8361606822067412,0.2884322375,0.6330675527094232
0.015,1.794375,1.0,1984.1289674852544,0.15529543651433955,1.3385192339913476,0.8442407773404247,0.28841675,0.6345814037560945
0.0155,1.79399375,1.0,2031.4349569857661,0.16003356107299122,1.3378456930073035,0.8517236028079135,0.2884007375,0.6360340807283638
0.016,1.7936,1.0,2076.3649938851154,0.16474510816293902,1.3371970654951009,0.8586645574098026,0.2883842,0.6374302902471067
0.0165,1.7931937500000001,1.0,2119.009814260441,0.16943022725302698,1.336571428142142,0.8651130666102133,0.2883671375,0.6387744698927265
0.017,1.792775,1.0,2159.462212319465,0.17408906766097187,1.3359669719928942,0.8711132922867798,0.28834955,0.6400707708224678
0.0175,1.7923437500000001,1.0,2197.790693902648,0.17872177549205479,1.3353822523611358,0.8767048197147017,0.2883314375,0.6413225280649598
0.018000000000000002,1.7919,1.0,2234.073213464063,0.18332849685155692,1.3348158245606456,0.881923094170891,0.2883128,0.6425330472696906
0.0185,1.79144375,1.0,2268.3963842113153,0.18790937784475933,1.3342662439052015,0.8867999044635061,0.2882936375,0.6437056064588913
0.019,1.790975,1.0,2300.839352213629,0.19246456283438432,1.3337322179963287,0.891363843334846,0.28827395,0.6448431335180196
0.0195,1.79049375,1.0,2331.501039730998,0.19699419858047434,1.3332123269054392,0.8956406075323122,0.2882537375,0.6459488048413989
0.02,1.79,1.0,2360.4498148918115,0.20149842730890813,1.3327055132885433,0.899653437864278,0.288233,0.6470250045516803
0.0205,1.78949375,1.0,2387.752239041121,0.2059773903882434,1.3322107867624609,0.903423326386588,0.2882117375,0.6480739577763609
0.021,1.788975,1.0,2413.4793822256847,0.21043122918703794,1.3317271569440121,0.9069692511756213,0.28818995000000003,0.6490978741895497
0.021500000000000002,1.78844375,1.0,2437.7064446975437,0.21486008507384952,1.3312536334500171,0.9103083971788063,0.2881676375,0.6500989487441381
0.022,1.7879,1.0,2460.502041045938,0.21926409758159066,1.3307893250713052,0.9134563696624011,0.2881448,0.651079153121398
0.0225,1.78734375,1.0,2481.9439668720775,0.22364340867297047,1.3303332841416295,0.9164273338781213,0.28812143749999997,0.6520405656511653
0.023,1.786775,1.0,2502.093353704308,0.22799815663269435,1.3298847503382365,0.9192342109122033,0.28809755,0.6529848580812481
0.0235,1.78619375,1.0,2521.003672011129,0.23232847773798612,1.329443059335016,0.9218887896544624,0.28807313749999996,0.6539134906121976
0.024,1.7856,1.0,2538.730523045513,0.23663450826606972,1.3290075468058578,0.9244018260527144,0.2880482,0.6548279150025234
0.0245,1.78499375,1.0,2555.3314598003526,0.24091638449416897,1.3285775484246514,0.9267831478462841,0.2880227375,0.6557295748445341
0.025,1.784375,1.0,2570.8658177493335,0.24517424269950777,1.3281523998652867,0.9290417474113439,0.28799675,0.6566199058120313
0.025500000000000002,1.78374375,1.0,2585.383672397862,0.24940821565868831,1.3277315384433834,0.9311858795419528,0.2879702375,0.6575001234360112
0.026000000000000002,1.7831000000000001,1.0,2598.948521113548,0.253618442377902,1.3273142891095462,0.9332231024419012,0.2879432,0.6583716713798228
0.0265,1.78244375,1.0,2611.6025440162525,0.25780505465056525,1.326900187507476,0.9351603902485659,0.2879156375,0.6592355465802839
0.027,1.781775,1.0,2623.3860529271574,0.2619681832619093,1.3264887960385843,0.9370041617051953,0.28788755,0.6600926851443741
0.0275,1.7810937500000001,1.0,2634.340265122423,0.2661079589971653,1.3260796771042833,0.9387603283684011,0.2878589375,0.6609440184297396
0.028,1.7804,1.0,2644.5072243915606,0.27022451264156433,1.3256723931059844,0.9404343413921191,0.2878298,0.6617904731142257
0.0285,1.77969375,1.0,2653.9297263407198,0.2743179749803376,1.3252665064450997,0.9420312334295209,0.2878001375,0.6626329712531885
0.029,1.778975,1.0,2662.648642567843,0.2783884756070052,1.3248616035003524,0.9435556591294582,0.28776995,0.6634723806478948
0.029500000000000002,1.7782437500000001,1.0,2670.698153397019,0.28243614162249764,1.3244573376454418,0.9450119339948079,0.2877392375,0.6643094261735707
0.03,1.7775,1.0,2678.1276267009193,0.2864611082453817,1.3240532274751509,0.9464040405856254,0.287708,0.6651451076624303
0.0305,1.77674375,1.0,2684.9637334305667,0.29046350013903527,1.3236490044330878,0.9477356966277165,0.2876762375,0.6659799806424462
0.031,1.775975,1.0,2691.2335041731094,0.29444344196683614,1.323244399962861,0.9490103533782432,0.28764395,0.6668145978719706
0.0315,1.7751937500000001,1.0,2696.9642970099176,0.2984010583921621,1.322839145508079,0.9502312180473717,0.2876111375,0.6676495093355019
0.032,1.7744,1.0,2702.1837669745632,0.30233647407839087,1.3224329725123507,0.951401274071889,0.2875778,0.6684852622348524
0.0325,1.77359375,1.0,2706.9198371097314,0.30624981368890036,1.322025612419284,0.952523299469701,0.2875439375,0.6693224009757178
0.033,1.772775,1.0,2711.20067112258,0.3101412018870683,1.3216167966724877,0.9535998834774788,0.28750955,0.6701614671496421
0.0335,1.7719437500000002,1.0,2715.054208736429,0.3140107628600916,1.3212062607156374,0.9546334419776408,0.2874746375,0.671002991317213
0.034,1.7711000000000001,1.0,2718.504008289225,0.3178586156857353,1.3207937816253823,0.9556262341824902,0.2874392,0.6718474160410923
0.0345,1.7702437500000001,1.0,2721.5794729383447,0.32168488991881616,1.3203790847036503,0.9565803686071623,0.2874032375,0.6726952872590921
0.035,1.7693750000000001,1.0,2724.2979650312623,0.3254897040120259,1.319962006174172,0.9574978267400743,0.28736675,0.6735469215720638
0.035500000000000004,1.76849375,1.0,2726.676956122092,0.3292731764180564,1.3195423822606775,0.9583804636489307,0.2873297375,0.6744026337346015
0.036000000000000004,1.7676,1.0,2728.7340154182007,0.33303542558959937,1.3191200491868973,0.9592300174968516,0.2872922,0.675262736629312
0.0365,1.76669375,1.0,2730.486798822041,0.33677656997934646,1.3186948431765617,0.9600481182383698,0.2872541375,0.676127541239371
0.037,1.765775,1.0,2731.9530385669023,0.34049672803998965,1.318266600453401,0.9608362955744021,0.28721555,0.6769973566193727
0.0375,1.76484375,1.0,2733.1505334484045,0.3441960182242205,1.3178351572411457,0.9615959862369006,0.2871764375,0.6778724898644648
0.038,1.7639,1.0,2734.097139649677,0.34787455898473096,1.317400349763526,0.9623285406664613,0.28713679999999997,0.6787532460777785
0.0385,1.76294375,1.0,2734.7955545609107,0.3515324503461015,1.316962152341531,0.9630352384582023,0.28709663750000003,0.6796396491805617
0.039,1.761975,1.0,2735.2833814157857,0.3551698352286804,1.3165202226724422,0.9637172632198197,0.28705595,0.6805323617327412
0.0395,1.7609937500000001,1.0,2735.5706795093183,0.3587868252616272,1.3160744689107597,0.9643757466898594,0.2870147375,0.681431537317542
0.04,1.76,1.0,2735.6669722408346,0.36238353141078306,1.3156248043030474,0.9650117560310874,0.286973,0.6823373179485428
0.0405,1.7589937500000001,1.0,2735.5818043728145,0.36596006464198944,1.3151711420958694,0.9656262978871022,0.2869307375,0.6832498443558206
0.041,1.757975,1.0,2735.3247387783845,0.36951653592108763,1.3147133955357897,0.9662203224466583,0.28688795,0.684169255964074
0.0415,1.75694375,1.0,2734.905353355608,0.37305305621391893,1.3142514778693721,0.9667947271941876,0.2868446375,0.6850956908702663
0.042,1.7559,1.0,2734.3332381090363,0.3765697364863248,1.313785302343181,0.9673503603737498,0.28680079999999997,0.6860292858207861
0.0425,1.75484375,1.0,2733.617992397801,0.3800666877041464,1.31331478220378,0.9678880241910284,0.2867564375,0.686970176188131
0.043000000000000003,1.753775,1.0,2732.7692223503045,0.38354402083322525,1.3128398306977336,0.9684084777756561,0.28671155,0.687918495947109
0.043500000000000004,1.75269375,1.0,2731.796538446667,0.3870018468394026,1.3123603610716055,0.9689124399240502,0.28666613750000003,0.6888743776505621
0.044,1.7516,1.0,2730.7095532669564,0.3904402766885197,1.3118762865719598,0.9694005916410664,0.2866202,0.6898379524046072
0.0445,1.75049375,1.0,2729.51787940717,0.39385942134641805,1.3113875204453607,0.9698735784970792,0.2865737375,0.6908093498433996
0.045,1.7493750000000001,1.0,2728.22684195212,0.39725937857550264,1.3108940149020158,0.9703320138961284,0.28652675,0.6917886208485496
0.0455,1.74824375,1.0,2726.8459529801708,0.40064026883393017,1.3103956840815907,0.9707764803563282,0.2864792375,0.6927758906362288
0.046,1.7471,1.0,2725.3824025007475,0.40400220352242394,1.3098924632031022,0.9712075312645555,0.2864312,0.6937712412305931
0.0465,1.7459437500000001,1.0,2723.8410502319616,0.4073452855990855,1.3093843086560017,0.9716256927647986,0.28638263750000004,0.6947747115990046
0.047,1.744775,1.0,2722.226753977257,0.4106696180220164,1.3088711768297405,0.9720314649980846,0.28633355,0.6957863396805203
0.0475,1.74359375,1.0,2720.544368958775,0.4139753037493182,1.3083530241137704,0.9724253236291208,0.28628393750000003,0.6968061623721062
0.048,1.7424,1.0,2718.7987471922256,0.41726244573909244,1.3078298068975425,0.9728077212694932,0.2862338,0.6978342155147377
0.0485,1.74119375,1.0,2716.9947369047836,0.4205311469494406,1.3073014815705082,0.9731790888053211,0.2861831375,0.6988705338793706
0.049,1.739975,1.0,2715.1371819943656,0.4237815103384643,1.306768004522119,0.9735398366366139,0.28613195,0.699915151152797
0.0495,1.73874375,1.0,2713.2309215316272,0.4270136388642651,1.3062293321418268,0.9738903558349539,0.2860802375,0.700968099923376
0.05,1.7375,1.0,2711.280789304001,0.43022763548494447,1.3056854208190825,0.9742310192255786,0.286028,0.702029411666647
0.0505,1.73624375,1.0,2709.291613401605,0.433423603158604,1.3051362269433378,0.9745621823994469,0.2859752375,0.7030991167308159
0.051000000000000004,1.734975,1.0,2707.2682158458115,0.43660164484334524,1.3045817069040437,0.9748841846603955,0.28592195,0.7041772443221276
0.051500000000000004,1.73369375,1.0,2705.2122156755254,0.4397618491845319,1.3040218462765258,0.9751973502320517,0.2858681375,0.7052637659011878
0.052000000000000005,1.7324,1.0,2703.1252976045353,0.4429043151431145,1.303456630020132,0.9755019898696464,0.2858138,0.7063586533699768
0.0525,1.73109375,1.0,2701.015943383836,0.44602917098277733,1.3028859809688036,0.9757983996484942,0.28575893750000003,0.7074619978717014
0.053,1.729775,1.0,2698.885893669123,0.4491365110029917,1.3023098834599727,0.9760868628108669,0.28570355000000003,0.7085737702883219
0.0535,1.72844375,1.0,2696.7368866836237,0.45222642950322844,1.3017283218310718,0.9763676502194923,0.2856476375,0.7096939407047359
0.054,1.7271,1.0,2694.5706581525424,0.45529902078295864,1.3011412804195333,0.9766410210014822,0.2855912,0.7108224784033292
0.0545,1.7257437500000001,1.0,2692.3889412427798,0.4583543791416534,1.3005487435627892,0.9769072231534924,0.2855342375,0.7119593518585102
0.055,1.724375,1.0,2690.1934665081885,0.4613925988787837,1.2999506955982718,0.9771664941107653,0.28547675,0.7131045287312274
0.0555,1.72299375,1.0,2687.985961840567,0.46441377429382064,1.299347120863414,0.9774190612824838,0.2854187375,0.7142579758634714
0.056,1.7216,1.0,2685.7681524255936,0.4674179996862352,1.2987380036956473,0.9776651425557021,0.2853602,0.715419659272766
0.0565,1.72019375,1.0,2683.541760704405,0.4704053693554984,1.2981233284324045,0.9779049467699341,0.28530113749999997,0.7165895441466348
0.057,1.718775,1.0,2681.30850634103,0.4733759776010814,1.2975030794111178,0.9781386741643346,0.28524155,0.7177675948370605
0.0575,1.71734375,1.0,2679.0701061942573,0.4763299187224551,1.2968772409692193,0.9783665167992691,0.2851814375,0.7189537748549237
0.058,1.7159,1.0,2676.8282742959823,0.4792672870190907,1.2962457974441415,0.9785886589539267,0.2851208,0.7201480468644283
0.0585,1.71444375,1.0,2674.58472183457,0.48218817679045906,1.2956087331733166,0.9788052775015221,0.2850596375,0.7213503726775093
0.059000000000000004,1.7129750000000001,1.0,2672.341157143428,0.4850926823360313,1.2949660324941772,0.9790165422635162,0.28499795,0.722560713248227
0.059500000000000004,1.71149375,1.0,2670.099285695509,0.48798089795527855,1.2943176797441551,0.9792226163441824,0.2849357375,0.7237790286671459
0.06,1.71,1.0,2667.8584972840695,0.4908529176040827,1.2936636805248058,0.9794236575725532,0.284873,0.7250052383310739
0.0605,1.7084937500000001,1.0,2665.6209073903037,0.493708829725295,1.2930040153765157,0.9796198158441837,0.2848097375,0.7262393079503782
0.061,1.7069750000000001,1.0,2663.400174174509,0.4965487234032495,1.2923385585943574,0.9798112296587935,0.28474595,0.7274814003793797
0.0615,1.7054437500000001,1.0,2661.18672692457,0.4993726875336903,1.2916673980986824,0.9799980434661287,0.2846816375,0.7287312783365585
0.062,1.7039,1.0,2658.9710108759527,0.5021808110123614,1.290990621809841,0.9801803962471469,0.2846168,0.7299887054168434
0.0625,1.7023463026684216,1.0,2656.8686148346505,0.5049731827350072,1.2903083176481849,0.98035842176376,0.2845515447120737,0.7312534461233438
0.063,1.7007917912046167,1.0,2655.3183351965363,0.5077498912837926,1.2896205650650145,0.9805322483354906,0.2844862552305939,0.7325252815415233
0.0635,1.6992372797408115,1.0,2654.316232012383,0.510511024826117,1.2889277635995418,0.9807020158704599,0.2844209657491141,0.7338034037671152
0.064,1.6976827682770066,1.0,2653.805923370588,0.5132566714741192,1.288230430137542,0.9808678651719336,0.28435567626763425,0.7350867957357383
0.0645,1.6961282568132017,1.0,2653.752275707741,0.515986917195227,1.2875288872472583,0.981029922105819,0.2842903867861545,0.7363748054794432
0.065,1.6945737453493965,1.0,2654.120280985739,0.5187018479568681,1.286823457496933,0.9811883080715925,0.28422509730467466,0.7376667864461257
0.0655,1.6930192338855916,1.0,2654.875027740362,0.5214015497264705,1.2861144634548098,0.9813431402022135,0.28415980782319483,0.7389620975828006
0.066,1.6914647224217865,1.0,2655.9830869327384,0.5240861081072486,1.2854022146735966,0.9814945308886582,0.28409451834171506,0.7402601271026986
0.0665,1.6899102109579816,1.0,2657.413605678697,0.5267556084655202,1.284686997408207,0.981642587491995,0.28402922886023524,0.7415603109269757
0.067,1.6883556994941766,1.0,2659.138108667934,0.5294101358406628,1.2839690762862541,0.9817874126304034,0.2839639393787554,0.7428621291872819
0.0675,1.6868011880303715,1.0,2661.1351295387753,0.5320497733682494,1.2832486515485877,0.9819291022158191,0.2838986498972756,0.7441651830226619
0.068,1.6852466765665666,1.0,2663.3832132803727,0.5346746041838534,1.2825259234360569,0.9820677489211499,0.28383336041579577,0.7454690771256485
0.0685,1.6836921651027614,1.0,2665.860905561722,0.5372847114230478,1.2818010921895109,0.9822034423174438,0.283768070934316,0.7467734197729553
0.069,1.6821376536389565,1.0,2668.5508951050965,0.53988017620714,1.2810743198796943,0.9823362670774065,0.2837027814528362,0.7480778912760436
0.0695,1.6805831421751516,1.0,2671.4333821262153,0.5424610814249307,1.280345791358396,0.9824663062590178,0.28363749197135635,0.7493821341442434
0.07,1.6790286307113464,1.0,2674.4827381809846,0.5450275135595921,1.279615744803357,0.9825936429124515,0.2835722024898766,0.7506856991647448
0.07050000000000001,1.6774741192475415,1.0,2677.688191604344,0.5475795518893614,1.278884281662956,0.9827183506552267,0.28350691300839675,0.7519883846981411
0.07100000000000001,1.6759196077837366,1.0,2681.038958264858,0.5501172756924753,1.2781515033855708,0.9828405007244216,0.28344162352691693,0.7532899909577385
0.07150000000000001,1.6743650963199315,1.0,2684.524238491787,0.552640764247171,1.2774175114195803,0.9829601620721258,0.2833763340454371,0.7545903200183899
0.07200000000000001,1.6728105848561265,1.0,2688.1332142315755,0.5551500968316854,1.2766824072133625,0.9830774014564837,0.2833110445639573,0.7558891758246782
0.0725,1.6712560733923216,1.0,2691.8550464317495,0.5576453527242555,1.2759462922152958,0.9831922835285607,0.2832457550824775,0.7571863641984394
0.073,1.6697015619285165,1.0,2695.678872653316,0.5601266112031185,1.2752092678737585,0.9833048709152443,0.2831804656009977,0.7584816928456308
0.0735,1.6681470504647116,1.0,2699.5938049114475,0.562593951546511,1.274471435637129,0.9834152242983899,0.28311517611951786,0.7597749713625427
0.074,1.6665925390009064,1.0,2703.5907142956144,0.5650474510362443,1.2737328806370798,0.9835234016551332,0.2830498866380381,0.7610660397261678
