Time [s],Phi [rad],STIM [ ],Fsee [N],Gamma [ ],Lcerel [ ],q [ ],Lmtc [m],fisomrel [ ]
0.0,1.8,1.0,17.983437642982228,0.00012913238012393627,1.379337922786988,0.005004355370395128,0.288653,0.5411439423968532
0.0005,1.79999375,1.0,18.332041552050335,0.005737617358416864,1.3792962499631614,0.013274556963336015,0.2886527375,0.5412447537113617
0.001,1.799975,1.0,21.762186091662024,0.011314643170332723,1.3789236389414647,0.03623206523217484,0.28865195,0.5421456500362196
0.0015,1.79994375,1.0,31.402889011000756,0.01686038627786444,1.3780178535485064,0.07145342328221511,0.2886506375,0.5443319591791453
0.002,1.7999,1.0,54.29436789095152,0.02237502215121022,1.3763220945160208,0.11572543111846206,0.2886488,0.5484109731475609
0.0025,1.79984375,1.0,98.30967995748533,0.027858725277086473,1.3738779630357554,0.16567016511643975,0.28864643749999996,0.5542578723094207
0.003,1.7997750000000001,1.0,162.50370676349314,0.03331166916538372,1.3711566309357168,0.21840996581693084,0.28864354999999997,0.5607230717871432
0.0035,1.79969375,1.0,239.42748234726497,0.038734026349633945,1.3685311079738438,0.27173602474686476,0.2886401375,0.5669158879323057
0.004,1.7996,1.0,323.3211129346699,0.044125968397528165,1.3661070485940978,0.32400310203196603,0.2886362,0.5725944801330323
0.0045000000000000005,1.7994937500000001,1.0,411.18710743261533,0.0494876659161823,1.3638778122502617,0.3740665010598566,0.2886317375,0.5777836025253931
0.005,1.799375,1.0,501.37131065584686,0.05481928854384274,1.3618167798151481,0.42121287301821114,0.28862675,0.5825529905746065
0.0055,1.79924375,1.0,592.7648724558288,0.06012100499090571,1.3599002911463594,0.4650674609680387,0.2886212375,0.5869635855636663
0.006,1.7991000000000001,1.0,684.4938508584498,0.06539298299863221,1.3581105269602023,0.5055012915988362,0.2886152,0.5910613854600963
0.006500000000000001,1.79894375,1.0,775.8447953969458,0.07063538936784522,1.356433755977824,0.5425517100829476,0.2886086375,0.5948819438760877
0.007,1.798775,1.0,866.228310523241,0.07584839001554186,1.354859035018624,0.5763610896472188,0.28860155,0.5984536519950605
0.0075,1.79859375,1.0,955.150507853326,0.08103214978888366,1.3533774577218913,0.6071323132046147,0.2885939375,0.6017996568048881
0.008,1.7984,1.0,1042.2277583645757,0.08618683279596114,1.351981136964266,0.6350975617675378,0.2885858,0.6049403036394854
0.0085,1.79819375,1.0,1127.1456568591386,0.09131260224359197,1.3506633257326153,0.6604980951912603,0.2885771375,0.6078929591394827
0.009000000000000001,1.797975,1.0,1209.6543599970817,0.09640961997795941,1.3494180749699767,0.6835711974103186,0.28856795,0.6106728599626141
0.0095,1.79774375,1.0,1289.582155050311,0.10147804720576095,1.3482397685856145,0.704542296782608,0.2885582375,0.6132942078298396
0.01,1.7975,1.0,1366.8220415468463,0.10651804529155398,1.3471231205974779,0.7236208999609006,0.288548,0.6157702141156532
0.0105,1.79724375,1.0,1441.2642342567965,0.11152977280258046,1.3460638674903354,0.7409991639079726,0.2885372375,0.6181116059235703
0.011,1.796975,1.0,1512.8560542150806,0.11651338808493847,1.3450578218753415,0.7568510797820669,0.28852595000000003,0.6203287613604755
0.0115,1.79669375,1.0,1581.5863869147208,0.1214690489543678,1.3441009809585054,0.7713331227915442,0.2885141375,0.6224314888501095
0.012,1.7964,1.0,1647.4795699296428,0.12639691317945026,1.3431895177468811,0.7845853338079378,0.28850180000000003,0.6244290653975229
0.0125,1.79609375,1.0,1710.5474936359199,0.13129713615333688,1.3423202607996694,0.7967328429591084,0.2884889375,0.6263292061417294
0.013000000000000001,1.7957750000000001,1.0,1770.814634757143,0.1361698723091961,1.341490308363791,0.8078870880639052,0.28847555,0.628138932696438
0.0135,1.79544375,1.0,1828.3371600314042,0.1410152760801964,1.3406967586861664,0.8181471058995688,0.2884616375,0.6298651741732784
0.014,1.7951000000000001,1.0,1883.1855999596626,0.14583350075265336,1.3399368689916815,0.8276009352719446,0.2884472,0.6315144295284834
0.0145,1.79474375,1.0,1935.4399143308633,0.15062469991834432,1.3392080697441153,0.8363268589604148,0.2884322375,0.6330927468765032
0.015,1.794375,1.0,1985.1582894274004,0.15538902405618968,1.3385082616996349,0.8443946203333873,0.28841675,0.6346050917126642
0.0155,1.79399375,1.0,2032.4168370337957,0.16012662361808247,1.3378353489269936,0.8518662629179263,0.2884007375,0.636056368033726
0.016,1.7936,1.0,2077.3009914936106,0.16483764841124784,1.3371873119761368,0.8587970622271905,0.2883842,0.6374512648032762
0.0165,1.7931937500000001,1.0,2119.9042930151954,0.1695222484046224,1.3365622014697645,0.8652363257578429,0.2883671375,0.6387942746869442
0.017,1.792775,1.0,2160.3192503861314,0.17418057286990024,1.335958214665181,0.8712281202924763,0.28834955,0.6400895344355364
0.0175,1.7923437500000001,1.0,2198.612510280221,0.17881276771553248,1.3353739284312809,0.8768119512807461,0.2883314375,0.6413403320426343
0.018000000000000002,1.7919,1.0,2234.8600730496732,0.1834189788499703,1.3348079196369587,0.8820231934046977,0.2883128,0.6425499264935326
0.0185,1.79144375,1.0,2269.1465154438743,0.1879993521816648,1.3342587651511086,0.8868935729620786,0.2882936375,0.643721549488699
0.019,1.790975,1.0,2301.5576365196716,0.1925540327847701,1.3337251073886691,0.8914516061479881,0.28827395,0.644858267533231
0.0195,1.79049375,1.0,2332.181531448962,0.19708316584864674,1.3332056348315193,0.8957229625737388,0.2882537375,0.6459630258817736
0.02,1.79,1.0,2361.0996589481506,0.2015868954140224,1.3326991618916002,0.8997308055175683,0.288233,0.6470384811116927
0.0205,1.78949375,1.0,2388.37560216827,0.20606536251431035,1.332204729093799,0.903496093194249,0.2882117375,0.6480867919888891
0.021,1.788975,1.0,2414.0773636983645,0.21051870818292404,1.3317213769630039,0.9070377734779312,0.28818995000000003,0.6491101022505379
0.021500000000000002,1.78844375,1.0,2438.2769995515782,0.21494707345327674,1.3312481460241017,0.9103730043072146,0.2881676375,0.6501105413124855
0.022,1.7879,1.0,2461.046092283358,0.21935059858622427,1.3307841168274452,0.9135173552234758,0.2881448,0.6510901404805072
0.0225,1.78734375,1.0,2482.4539055890186,0.22372942337663992,1.3303284235730746,0.9164849797675699,0.28812143749999997,0.6520508054200492
0.023,1.786775,1.0,2502.575313345934,0.22808368858583192,1.3298801749770466,0.9192887498908169,0.28809755,0.6529944839193659
0.0235,1.78619375,1.0,2521.462226679301,0.23241353015830232,1.3294387225088915,0.9219404366944423,0.28807313749999996,0.6539226023970331
0.024,1.7856,1.0,2539.168652230652,0.23671908403855318,1.3290034176381393,0.9244507801371022,0.2880482,0.654836579025587
0.0245,1.78499375,1.0,2555.7505179282657,0.24100048617108652,1.3285736118343208,0.9268295935601473,0.2880227375,0.6557378239992
0.025,1.784375,1.0,2571.265508083013,0.24525787250040437,1.3281486565669658,0.9290858563514159,0.28799675,0.6566277397745394
0.025500000000000002,1.78374375,1.0,2585.765145118796,0.24949137715627312,1.3277279758000577,0.9312278075078969,0.2879702375,0.6575075697640204
0.026000000000000002,1.7831000000000001,1.0,2599.305644055508,0.2537011360428106,1.3273109625801038,0.9332630021206685,0.2879432,0.6583786153535902
0.0265,1.78244375,1.0,2611.9415494820946,0.2578872839954909,1.3268970373922195,0.9351983851088254,0.2879156375,0.6592421139801972
0.027,1.781775,1.0,2623.711452968866,0.26204995149235005,1.3264857791420712,0.9370403677923815,0.28788755,0.6600989668941157
0.0275,1.7810937500000001,1.0,2634.6548295221883,0.2661892690114242,1.3260767667353253,0.9387948549833156,0.2878589375,0.6609500707762637
0.028,1.7804,1.0,2644.811961946052,0.27030536703074926,1.325669579077648,0.9404672916970075,0.2878298,0.6617963178041695
0.0285,1.77969375,1.0,2654.2238691351727,0.27439837602836137,1.3252637950747057,0.942062704990453,0.2878001375,0.6626385957066323
0.029,1.778975,1.0,2662.932238299423,0.2784684264822965,1.3248589936321649,0.9435857414886201,0.28776995,0.6634777878070698
0.029500000000000002,1.7782437500000001,1.0,2670.9734846540755,0.2825156456438154,1.324454807652557,0.9450407073079031,0.2877392375,0.6643146613237954
0.03,1.7775,1.0,2678.3892167995937,0.2865401657176219,1.3240508270816609,0.9464315876316733,0.287708,0.6651500684556491
0.0305,1.77674375,1.0,2685.2095922311705,0.29054211299558574,1.3236467512629688,0.9477620906284647,0.2876762375,0.6659846313677487
0.031,1.775975,1.0,2691.4629486377285,0.2945216124829546,1.3232422996692268,0.9490356609464888,0.28764395,0.6668189276293042
0.0315,1.7751937500000001,1.0,2697.1779576160156,0.29847878918497617,1.3228371917731798,0.9502554997406373,0.2876111375,0.667653531913288
0.032,1.7744,1.0,2702.383592769165,0.30241376810689813,1.3224311470475736,0.9514245848938414,0.2875778,0.6684890159872001
0.0325,1.77359375,1.0,2707.1090995496293,0.30632667425396803,1.3220238849651538,0.9525456893246976,0.2875439375,0.6693259486988183
0.033,1.772775,1.0,2711.3816456512545,0.310217630732852,1.321615146167833,0.9536213995187764,0.28750955,0.6701648525364907
0.0335,1.7719437500000002,1.0,2715.224258666189,0.3140867577885599,1.3212047109437366,0.9546541322716188,0.2874746375,0.6710061660317304
0.034,1.7711000000000001,1.0,2718.673098136512,0.31793418874900753,1.320792241581244,0.9556461346076806,0.2874392,0.6718505667770431
0.0345,1.7702437500000001,1.0,2721.7458142124733,0.32176004222456067,1.320377570548927,0.956599521551183,0.2874032375,0.6726983810241307
0.035,1.7693750000000001,1.0,2724.4601801031918,0.3255644368255849,1.319960530315356,0.957516271531888,0.28736675,0.6735499331642734
0.035500000000000004,1.76849375,1.0,2726.8340795973722,0.3293474911624458,1.3195409533491032,0.9583982367881971,0.2873297375,0.6744055457039104
0.036000000000000004,1.7676,1.0,2728.8854952058773,0.3331093238455091,1.319118672118739,0.9592471528636153,0.2872922,0.6752655392384337
0.0365,1.76669375,1.0,2730.632496927206,0.33685005348514035,1.3186935190928353,0.9600646472849531,0.2872541375,0.6761302324241858
0.037,1.765775,1.0,2732.0932316345993,0.3405697986917053,1.3182653267399629,0.9608522475011744,0.28721555,0.6769999419486756
0.0375,1.76484375,1.0,2733.285913085792,0.34426867807556943,1.3178339275286934,0.9616113881534226,0.2871764375,0.6778749824989964
0.038,1.7639,1.0,2734.2288125550053,0.34794681024709845,1.317399153927598,0.9623434177393544,0.28713679999999997,0.6787556667284598
0.0385,1.76294375,1.0,2734.9303726204985,0.3516043069651813,1.3169609280984302,0.9630496118105112,0.28709663750000003,0.6796421239125694
0.039,1.761975,1.0,2735.4127105326584,0.3552412914370133,1.3165190483769516,0.9637311618330732,0.28705595,0.6805347321892506
0.0395,1.7609937500000001,1.0,2735.6918795703177,0.35885788002158897,1.316073368483257,0.9643891939053176,0.2870147375,0.6814337555345893
0.04,1.76,1.0,2735.7781787780877,0.36245418452963984,1.3156237946278946,0.9650247734178296,0.286973,0.6823393503338285
0.0405,1.7589937500000001,1.0,2735.6819289982272,0.36603031677189735,1.3151702330214123,0.9656389053538756,0.2869307375,0.6832516716110608
0.041,1.757975,1.0,2735.413469326521,0.36958638855909287,1.314712589874358,0.9662325383454609,0.28688795,0.6841708730056575
0.0415,1.75694375,1.0,2734.9831537631567,0.37312251170195804,1.3142507713972793,0.9668065684162492,0.2868446375,0.6850971067481343
0.042,1.7559,1.0,2734.4013480591248,0.3766387980112242,1.3137846838007243,0.9673618424385192,0.28680079999999997,0.6860305236354575
0.0425,1.75484375,1.0,2733.678426756927,0.3801353592976228,1.3133142332952412,0.967899161328723,0.2867564375,0.6869712730057882
0.043000000000000003,1.753775,1.0,2732.824770426674,0.3836123073718854,1.3128393260913778,0.968419283003876,0.28671155,0.6879195027126678
0.043500000000000004,1.75269375,1.0,2731.850231844996,0.38706975223959506,1.3123598732264903,0.9689229252257943,0.28666613750000003,0.6888753494831981
0.044,1.7516,1.0,2730.7630287745187,0.3905078004678382,1.311875800609846,0.9694107686877913,0.2866202,0.6898389189858658
0.0445,1.75049375,1.0,2729.5729074861706,0.3939265698435427,1.3113870202650761,0.9698834592707583,0.2865737375,0.6908103431455264
0.045,1.7493750000000001,1.0,2728.285664961082,0.39732616576761187,1.3108934801012329,0.970341610519979,0.28652675,0.6917896812198481
0.0455,1.74824375,1.0,2726.9070981986347,0.40070669364094885,1.3103951280273691,0.9707858047271845,0.2864792375,0.6927769913803352
0.046,1.7471,1.0,2725.443003223964,0.40406825886445696,1.3098919119525374,0.9712165948207234,0.2864312,0.6937723306964312
0.0465,1.7459437500000001,1.0,2723.89917415582,0.40741096683903943,1.3093837797857903,0.9716345061238976,0.28638263750000004,0.6947757551194438
0.047,1.744775,1.0,2722.2814023341653,0.41073492296559944,1.3088706794361802,0.9720400379918238,0.28633355,0.6957873194663025
0.0475,1.74359375,1.0,2720.595475508685,0.4140402326450403,1.30835255881276,0.9724336653362902,0.28628393750000003,0.6968070774031359
0.048,1.7424,1.0,2718.847177086512,0.4173270012782652,1.307829365824582,0.9728158400472481,0.2862338,0.697835081428685
0.0485,1.74119375,1.0,2717.042285441028,0.42059533426617746,1.307301048380699,0.973186992318845,0.2861831375,0.6988713828575359
0.049,1.739975,1.0,2715.176405212236,0.4238453120443733,1.3067676470574356,0.9735475352367201,0.28613195,0.6999158505065197
0.0495,1.73874375,1.0,2713.263520631694,0.42707706426012,1.3062290349421686,0.973897856975281,0.2860802375,0.7009686803520029
0.05,1.7375,1.0,2711.31206755399,0.4302907036745878,1.3056851355587895,0.9742383289285176,0.286028,0.7020299677882796
0.0505,1.73624375,1.0,2709.3244998586424,0.43348632756253064,1.3051359269060214,0.9745693071385677,0.2859752375,0.703099700609704
0.051000000000000004,1.734975,1.0,2707.3032686718057,0.43666403319870206,1.3045813869825882,0.9748911313621175,0.28592195,0.70417786576455
0.051500000000000004,1.73369375,1.0,2705.25082220792,0.4398239178578559,1.3040214937872132,0.9752041259564768,0.2858681375,0.7052644493475494
0.052000000000000005,1.7324,1.0,2703.1696056218625,0.4429660788147459,1.3034562253186202,0.9755086007099182,0.2858138,0.7063594365923942
0.0525,1.73109375,1.0,2701.0620608721565,0.4460906133441258,1.3028855595755322,0.9758048516202406,0.28575893750000003,0.7074628118642114
0.053,1.729775,1.0,2698.9306265942964,0.44919761872074937,1.302309474556673,0.9760931616252072,0.28570355000000003,0.7085745586520035
0.0535,1.72844375,1.0,2696.7777379855834,0.4522871922193703,1.3017279482607662,0.9763738012882228,0.2856476375,0.7096946595610599
0.054,1.7271,1.0,2694.6058267001126,0.4553594311147424,1.3011409586865355,0.9766470294423464,0.2855912,0.7108230963053391
0.0545,1.7257437500000001,1.0,2692.4173207547765,0.4584144326816194,1.3005484838327037,0.9769130937955076,0.2855342375,0.7119598496998183
0.055,1.724375,1.0,2690.2146444457167,0.46145229419475503,1.2999505016979949,0.9771722314995704,0.28547675,0.7131048996528099
0.0555,1.72299375,1.0,2688.0002182758944,0.46447311292890303,1.2993469902811325,0.9774246696856814,0.2854187375,0.7142582251582511
0.056,1.7216,1.0,2685.776458893033,0.46747698615881716,1.2987379275808402,0.9776706259681698,0.2853602,0.7154198042879614
0.0565,1.72019375,1.0,2683.545779038755,0.4704640111592511,1.298123291595841,0.977910308919087,0.28530113749999997,0.7165896141838686
0.057,1.718775,1.0,2681.3105875079236,0.4734342852049588,1.297503060324859,0.9781439185153213,0.28524155,0.7177676310502019
0.0575,1.71734375,1.0,2679.0714833776915,0.47638787910479685,1.2968772283338752,0.9783716451604447,0.2851814375,0.7189537987780489
0.058,1.7159,1.0,2676.8315560631354,0.4793249158198243,1.2962457673220755,0.9785936748487464,0.2851208,0.7201481037747279
0.0585,1.71444375,1.0,2674.591904281517,0.48224548964009156,1.2956086672208058,0.9788101846002377,0.2850596375,0.7213504970151112
0.059000000000000004,1.7129750000000001,1.0,2672.353276664786,0.4851496892393536,1.2949659211605382,0.9790213440830935,0.28499795,0.7225609226846784
0.059500000000000004,1.71149375,1.0,2670.1164205925015,0.48803760329136514,1.2943175222717453,0.9792273162680768,0.2849357375,0.7237793242468773
0.06,1.71,1.0,2667.882082192221,0.4909093204698811,1.2936634636848994,0.9794282577432122,0.284873,0.7250056444406499
0.0605,1.7084937500000001,1.0,2665.651006341447,0.4937649294486564,1.2930037385304722,0.9796243190113073,0.2848097375,0.7262398252779549
0.061,1.7069750000000001,1.0,2663.4239366702377,0.4966045189014459,1.2923383399389363,0.9798156447713872,0.28474595,0.7274818080412848
0.0615,1.7054437500000001,1.0,2661.201615564761,0.49942817750200447,1.291667261040764,0.9800023741850211,0.2846816375,0.7287315332811826
0.062,1.7039,1.0,2658.984784172742,0.502235993924087,1.2909904949664275,0.9801846411284656,0.2846168,0.729988940813755
0.0625,1.70234375,1.0,2656.774182408591,0.5050280568414482,1.290308034846399,0.9803625744314797,0.2845514375,0.7312539697181821
0.063,1.7007750000000001,1.0,2654.570548960848,0.5078044549278432,1.2896198738111508,0.9805362981036061,0.28448555,0.7325265583342253
0.0635,1.69919375,1.0,2652.3746213000522,0.5105652768570268,1.2889260049911553,0.9807059315486724,0.28441913750000003,0.7338066442597286
0.064,1.6976,1.0,2650.1871356874317,0.5133106113027537,1.2882264215168844,0.9808715897681993,0.2843522,0.7350941643481228
0.0645,1.69599375,1.0,2648.00882718555,0.516040546938779,1.2875211165188105,0.9810333835543734,0.2842847375,0.7363890547059202
0.065,1.694375,1.0,2645.840429668927,0.5187551724388574,1.2868100831274059,0.981191419673187,0.28421675,0.7376912506902122
0.0655,1.69274375,1.0,2643.680061213189,0.5214545336130622,1.2860933386217408,0.9813457992371345,0.2841482375,0.7390006428452358
0.066,1.6911,1.0,2641.5300097098548,0.5241387524488658,1.2853708617814346,0.9814966231566277,0.2840792,0.7403171914736013
0.0665,1.6894437500000001,1.0,2639.3919114327755,0.5268079371883333,1.284642637375172,0.9816439880654184,0.2840096375,0.741640844987584
0.067,1.687775,1.0,2637.265730617255,0.5294621673484505,1.2839086656092165,0.9817879859753293,0.28393955,0.7429715229336546
0.0675,1.68609375,1.0,2635.151431604638,0.5321015224462029,1.2831689466898304,0.9819287056814705,0.2838689375,0.7443091442301403
0.068,1.6844000000000001,1.0,2633.0489788411305,0.5347260819985762,1.2824234808232766,0.9820662328956581,0.2837978,0.7456536271672969
0.0685,1.68269375,1.0,2630.958336877399,0.5373359255225559,1.2816722682158181,0.9822006503733908,0.2837261375,0.7470048894073859
0.069,1.680975,1.0,2628.8794703684616,0.5399311325351277,1.2809153090737178,0.9823320380347439,0.28365395,0.7483628479847502
0.0695,1.67924375,1.0,2626.8123440728373,0.5425117825532771,1.280152603603238,0.9824604730795071,0.28358123749999997,0.7497274193058896
0.07,1.6775,1.0,2624.7569228523384,0.54507795509399,1.2793841520106417,0.9825860300968773,0.283508,0.7510985191495365
0.07050000000000001,1.67574375,1.0,2622.71317167145,0.5476297296742518,1.278609954502192,0.9827087811700009,0.2834342375,0.7524760626667298
0.07100000000000001,1.673975,1.0,2620.68105559693,0.5501671858110483,1.2778300112841516,0.9828287959756399,0.28335995,0.7538599643808934
0.07150000000000001,1.67219375,1.0,2618.6605397973844,0.5526904030213649,1.277044322562783,0.9829461418792168,0.2832851375,0.7552501381879102
0.07200000000000001,1.6704,1.0,2616.6515895428374,0.5551994608221873,1.2762528885443492,0.9830608840254864,0.2832098,0.756646497356197
0.0725,1.66859375,1.0,2614.654170203986,0.5576944387305011,1.275455709435113,0.9831730854250597,0.2831339375,0.7580489545267811
0.073,1.6667750000000001,1.0,2612.6682472522857,0.560175416263292,1.2746527854413374,0.983282807036996,0.28305755,0.7594574217133758
0.0735,1.66494375,1.0,2610.693786258919,0.5626424729375457,1.2738441167692849,0.9833901078476678,0.2829806375,0.7608718103024562
0.074,1.6631,1.0,2608.730752894659,0.5650956882702476,1.2730297036252185,0.9834950449460864,0.2829032,0.7622920310533334
0.0745,1.6612437500000001,1.0,2606.779112929416,0.5675351417783836,1.2722095462154008,0.9835976735958727,0.2828252375,0.763717994098232
0.075,1.659375,1.0,2604.8388322317182,0.569960912978939,1.2713836447460947,0.9836980473040381,0.28274675,0.7651496089423644
