Time [s],Phi [rad],STIM [ ],Fsee [N],Gamma [ ],Lcerel [ ],q [ ],Lmtc [m],fisomrel [ ]
0.0,1.8,1.0,17.97107630920011,6.353083345149296e-05,1.3793393072807543,0.005001060126640827,0.288653,0.5411405929584104
0.0005,1.79999375,1.0,18.29820630844801,0.005672383784528506,1.3793000044605026,0.013089793719286431,0.2886527375,0.5412356716079806
0.001,1.799975,1.0,21.679628843717573,0.011249775505210375,1.3789320510292982,0.03588806302789634,0.28865195,0.5421253211183972
0.0015,1.79994375,1.0,31.21535651137392,0.016795882469031444,1.378033769366263,0.07098393785121561,0.2886506375,0.5442935880699461
0.002,1.7999,1.0,53.89779307177914,0.02231088015779385,1.376347699843968,0.11517030854260794,0.2886488,0.5483495179277886
0.0025,1.79984375,1.0,97.649379998296,0.027794943069496494,1.3739096413154521,0.1650668003353203,0.28864643749999996,0.554182334602519
0.003,1.7997750000000001,1.0,161.6486331147604,0.03324824472555808,1.3711885266032628,0.21778785910464696,0.28864354999999997,0.5606475692541417
0.0035,1.79969375,1.0,238.46361440428313,0.038670957670803856,1.368560719150373,0.27111751437418335,0.2886401375,0.5668462892198975
0.004,1.7996,1.0,322.2969985107622,0.04406325348413893,1.3661341170288301,0.3234043870712932,0.2886362,0.5725312766183639
0.0045000000000000005,1.7994937500000001,1.0,410.1275312957358,0.04942530278376467,1.363902642429428,0.37349828284781394,0.2886317375,0.577725978421173
0.005,1.799375,1.0,500.2908318657278,0.05475727521854782,1.3618397073865753,0.42068134347013314,0.28862675,0.5825000834132574
0.0055,1.79924375,1.0,591.6755155406761,0.060059339512544205,1.3599215488335705,0.46457539809015397,0.2886212375,0.5869147917259048
0.006,1.7991000000000001,1.0,683.4043042626033,0.06533166341524757,1.3581303112897092,0.5050491155055767,0.2886152,0.5910161994117857
0.006500000000000001,1.79894375,1.0,774.7643742980564,0.07057441375491488,1.3564521825386449,0.542138264264997,0.2886086375,0.5948400560058565
0.007,1.798775,1.0,865.154864575687,0.0757877563296026,1.3548763605267724,0.5759843857237733,0.28860155,0.5984144411328834
0.0075,1.79859375,1.0,954.1007663512174,0.08097185627252694,1.353393592136592,0.606789654289349,0.2885939375,0.6017632941224363
0.008,1.7984,1.0,1041.2035662517121,0.08612687764007083,1.3519962063039062,0.634786187531914,0.2885858,0.604906475598399
0.0085,1.79819375,1.0,1126.1367411913964,0.09125298317839783,1.3506775998558234,0.6602153124808287,0.2885771375,0.6078610362224459
0.009000000000000001,1.797975,1.0,1208.6720458040425,0.09635033518794976,1.3494314901141644,0.6833142206509448,0.28856795,0.6106429646575084
0.0095,1.79774375,1.0,1288.6477443360122,0.10141909556376531,1.348252127472925,0.704308447800708,0.2885582375,0.6132667592811911
0.01,1.7975,1.0,1365.9120290744706,0.10645942401778295,1.3471348115807975,0.7234080149231227,0.288548,0.6157443322345797
0.0105,1.79724375,1.0,1440.3768288886797,0.11147147999446462,1.3460749695738636,0.7408051203317976,0.2885372375,0.6180871027884227
0.011,1.796975,1.0,1512.0034468528606,0.11645542219373962,1.345068233028969,0.7566738777988751,0.28852595000000003,0.620305849981713
0.0115,1.79669375,1.0,1580.7853740494863,0.12141140900701151,1.3441105470693582,0.771170948445351,0.2885141375,0.62241049552177
0.012,1.7964,1.0,1646.706069012604,0.12633959640574458,1.343198568592914,0.7844367769409504,0.28850180000000003,0.6244092554712211
0.0125,1.79609375,1.0,1709.7889280057157,0.13124014029266365,1.3423289716615465,0.7965965829143131,0.2884889375,0.6263101886516202
0.013000000000000001,1.7957750000000001,1.0,1770.0724631660091,0.1361131956034951,1.3414986846337347,0.8077618823218333,0.28847555,0.6281206900300671
0.0135,1.79544375,1.0,1827.6395001127034,0.14095891798068608,1.3407045076644473,0.8180317371435868,0.2884616375,0.6298483369168577
0.014,1.7951000000000001,1.0,1882.5319741910585,0.1457774596926527,1.3399440223119625,0.8274944416277943,0.2884472,0.6314989212192728
0.0145,1.79474375,1.0,1934.8077195938708,0.15056897265199193,1.339214894449003,0.8362284669272249,0.2884322375,0.633077982729438
0.015,1.794375,1.0,1984.54583556184,0.15533360877130062,1.3385147899482903,0.8443035636168623,0.28841675,0.6345909980429365
0.0155,1.79399375,1.0,2031.8264932580746,0.1600715187612318,1.337841567883433,0.8517818449318654,0.2884007375,0.636042968782091
0.016,1.7936,1.0,2076.752307774946,0.1647828539225106,1.3371930292423924,0.8587186074541251,0.2883842,0.6374389701222549
0.0165,1.7931937500000001,1.0,2119.3903385774306,0.16946776219298015,1.3365675027430912,0.8651633137087404,0.2883671375,0.6387828957183651
0.017,1.792775,1.0,2159.8164276238263,0.17412639128205187,1.3359633523636614,0.871160132910882,0.28834955,0.6400785263666144
0.0175,1.7923437500000001,1.0,2198.1174972652198,0.17875888889913716,1.3353789420822355,0.876748556337432,0.2883314375,0.6413296084432415
0.018000000000000002,1.7919,1.0,2234.3730057006446,0.18336540126309597,1.3348128126333056,0.8819639939410344,0.2883128,0.6425394786242824
0.0185,1.79144375,1.0,2268.6890785673204,0.18794607621999054,1.334263325616564,0.8868381580304264,0.2882936375,0.6437118276395248
0.019,1.790975,1.0,2301.134693801,0.1925010574428648,1.333729294147609,0.8913996482004909,0.28827395,0.6448493565935542
0.0195,1.79049375,1.0,2331.7810870683097,0.19703048823381852,1.3332095727529742,0.8956742055845885,0.2882537375,0.645954657607718
0.02,1.79,1.0,2360.7053188197347,0.20153451189495164,1.3327030159591922,0.8996850274374164,0.288233,0.6470303034810508
0.0205,1.78949375,1.0,2387.9857900021525,0.20601327111165374,1.3322085170868712,0.9034530611466791,0.2882117375,0.6480787665017285
0.021,1.788975,1.0,2413.7009095503504,0.21046690825517275,1.331725015617378,0.9069972554106983,0.28818995000000003,0.6491024043802623
0.021500000000000002,1.78844375,1.0,2437.928825780931,0.21489556555316872,1.3312514945789158,0.9103347784497534,0.2881676375,0.6501034672807224
0.022,1.7879,1.0,2460.7277331816936,0.2192993815981327,1.3307871644334495,0.913481245997254,0.2881448,0.6510837112438714
0.0225,1.78734375,1.0,2482.1588754243207,0.22367849498255582,1.3303312356429455,0.9164508420913585,0.28812143749999997,0.652044881245551
0.023,1.786775,1.0,2502.2862925661416,0.2280330442989292,1.3298829186693695,0.9192564701531021,0.28809755,0.6529887116395987
0.0235,1.78619375,1.0,2521.1747350976234,0.2323631677878908,1.329441441442837,0.9219098894279256,0.28807313749999996,0.6539168898599037
0.024,1.7856,1.0,2538.8795233741744,0.23666900153520753,1.3290061425057471,0.9244218484802866,0.2880482,0.6548308615863776
0.0245,1.78499375,1.0,2555.4792777559423,0.24095068578550538,1.328576159800648,0.926802134944051,0.2880227375,0.6557324847278667
0.025,1.784375,1.0,2571.018452455662,0.24520835394849033,1.3281509703311765,0.9290597605141225,0.28799675,0.6566228975468984
0.025500000000000002,1.78374375,1.0,2585.5429272868614,0.24944213943386845,1.3277300511009684,0.9312029818965268,0.2879702375,0.6575032321599383
0.026000000000000002,1.7831000000000001,1.0,2599.0998896561696,0.25365217565134573,1.3273128791136601,0.9332393743106612,0.2879432,0.6583746146885412
0.0265,1.78244375,1.0,2611.7377226203157,0.25783859601062814,1.3268989313728883,0.9351758969397017,0.2879156375,0.6592381653930602
0.027,1.781775,1.0,2623.5058990077905,0.26200153392142184,1.3264876848822889,0.9370189512968037,0.28788755,0.6600949987889135
0.0275,1.7810937500000001,1.0,2634.4475143286563,0.2661411190600176,1.326078684808583,0.9387744420688108,0.2878589375,0.6609460819945943
0.028,1.7804,1.0,2644.61496723269,0.2702574875344144,1.3256713981611554,0.9404478053451277,0.2878298,0.6617925396038207
0.0285,1.77969375,1.0,2654.043194657478,0.2743507679235856,1.32526546049097,0.9420440813348028,0.2878001375,0.6626351409808586
0.029,1.778975,1.0,2662.7663564078953,0.27842108812063604,1.3248605201892978,0.9435679301773477,0.28776995,0.6634746250712336
0.029500000000000002,1.7782437500000001,1.0,2670.819166936298,0.2824685760186708,1.3244562256474108,0.9450236640878967,0.2877392375,0.6643117271640192
0.03,1.7775,1.0,2678.236844929958,0.28649335951079485,1.32405222525658,0.9464152777884156,0.287708,0.6651471789102636
0.0305,1.77674375,1.0,2685.0550656396044,0.2904955664901133,1.3236481674080776,0.9477464759154723,0.2876762375,0.6659817083335237
0.031,1.775975,1.0,2691.3066839454095,0.2944753226782074,1.3232437300785767,0.9490207008066764,0.28764395,0.6668159788421182
0.0315,1.7751937500000001,1.0,2697.0189961739384,0.29843275102760214,1.32283864532584,0.9502411573948657,0.2876111375,0.6676505391714811
0.032,1.7744,1.0,2702.2368030327266,0.3023679884603736,1.3224324880064788,0.9514108121120071,0.2875778,0.6684862585393874
0.0325,1.77359375,1.0,2706.981507905061,0.3062811562124376,1.3220250495251067,0.9525324485058505,0.2875439375,0.6693235570100529
0.033,1.772775,1.0,2711.274725130825,0.3101723755197099,1.3216161212863369,0.9536086609309888,0.28750955,0.6701628524513146
0.0335,1.7719437500000002,1.0,2715.138260306176,0.3140417676181061,1.321205494694783,0.9546418696819189,0.2874746375,0.671004560516198
0.034,1.7711000000000001,1.0,2718.5940915474257,0.31788945374354194,1.3207929611550588,0.9556343347441781,0.2874392,0.6718490946217122
0.0345,1.7702437500000001,1.0,2721.6643517202356,0.3217155551319332,1.3203783120717774,0.9565881683043549,0.2874032375,0.6726968659248688
0.035,1.7693750000000001,1.0,2724.3713116327585,0.3255201930191955,1.3199613388495521,0.9575053461440448,0.28736675,0.673548283295925
0.035500000000000004,1.76849375,1.0,2726.7373641944864,0.3293034886412446,1.3195418328929966,0.9583877180289964,0.2873297375,0.6744037532888527
0.036000000000000004,1.7676,1.0,2728.7850095387785,0.3330655632339962,1.3191195856067244,0.9592370171925155,0.2872922,0.6752636801090324
0.0365,1.76669375,1.0,2730.529704844583,0.3368065321368175,1.3186944532490414,0.960054874251454,0.2872541375,0.6761283337636943
0.037,1.765775,1.0,2731.9918477416154,0.34052651786619903,1.318266247852329,0.96084281672212,0.28721555,0.6769980723150506
0.0375,1.76484375,1.0,2733.193908230378,0.3442256437345045,1.3178347632457161,0.9616022776611347,0.2871764375,0.6778732884966185
0.038,1.7639,1.0,2734.148279538527,0.34790402374868695,1.3173998853143927,0.9623346109698813,0.28713679999999997,0.678754186232176
0.0385,1.76294375,1.0,2734.8673985628798,0.3515617719156995,1.3169614999435486,0.9630410901819955,0.28709663750000003,0.6796409679640811
0.039,1.761975,1.0,2735.363740315816,0.3551990022424952,1.3165194930183741,0.9637229141053744,0.28705595,0.6805338346281614
0.0395,1.7609937500000001,1.0,2735.6498126616184,0.3588158287360272,1.3160737504240592,0.964381212009486,0.2870147375,0.6814329856277729
0.04,1.76,1.0,2735.7381513406485,0.3624123654032485,1.3156241580457937,0.9650170483990971,0.286973,0.6823386188070276
0.0405,1.7589937500000001,1.0,2735.6413152824066,0.36598872625111234,1.3151706017687679,0.9656314274114443,0.2869307375,0.6832509304231911
0.041,1.757975,1.0,2735.3718822076435,0.3695450252865717,1.3147129674781715,0.9662252968702111,0.28688795,0.6841701151182507
0.0415,1.75694375,1.0,2734.9424445186337,0.3730813765165797,1.3142511410591948,0.9667995520264052,0.2868446375,0.6850963658896494
0.042,1.7559,1.0,2734.3627581092096,0.37659788926036686,1.3137850342555106,0.9673550404002693,0.28680079999999997,0.6860298223127169
0.0425,1.75484375,1.0,2733.64289635797,0.3800946766540188,1.313314556007275,0.9678925639206353,0.2867564375,0.6869706281695286
0.043000000000000003,1.753775,1.0,2732.7953746171925,0.383571856017376,1.31283959312631,0.9684128803100914,0.28671155,0.6879189699380257
0.043500000000000004,1.75269375,1.0,2731.827111515289,0.38702953446979704,1.3123600832915765,0.9689167095015454,0.28666613750000003,0.6888749310142839
0.044,1.7516,1.0,2730.7450291526616,0.3904678191306405,1.311875964182036,0.969404733592682,0.2866202,0.6898385936400685
0.0445,1.75049375,1.0,2729.5560516278388,0.39388681711926504,1.311387173476649,0.969877599205103,0.2865737375,0.6908100388846409
0.045,1.7493750000000001,1.0,2728.2671036488614,0.39728663555502924,1.3108936488543768,0.9703359196739605,0.28652675,0.6917893466263121
0.0455,1.74824375,1.0,2726.885109231084,0.4006673815572917,1.31039532799418,0.9707802770818043,0.2864792375,0.6927765955337546
0.046,1.7471,1.0,2725.4169904812793,0.40402916224541097,1.3098921485750203,0.9712112241491273,0.2864312,0.6937718630470584
0.0465,1.7459437500000001,1.0,2723.869666467694,0.40737208473874564,1.309384048275858,0.9716292859929961,0.28638263750000004,0.6947752253585509
0.047,1.744775,1.0,2722.2500521759207,0.4106962561566543,1.308870964775655,0.9720349617641378,0.28633355,0.6957867573933552
0.0475,1.74359375,1.0,2720.561643502503,0.41400177584790504,1.308352866836716,0.9724287273920877,0.28628393750000003,0.6968064716631969
0.048,1.7424,1.0,2718.807514372279,0.41728874682768663,1.3078297270505754,0.9728110364881472,0.2862338,0.6978343722703069
0.0485,1.74119375,1.0,2717.0002863618415,0.4205572921787442,1.3073014310121163,0.973182317307737,0.2861831375,0.6988706329652601
0.049,1.739975,1.0,2715.1432639253935,0.42380751142460954,1.306767949093669,0.9735429806534216,0.28613195,0.6999152595945921
0.0495,1.73874375,1.0,2713.2397485364318,0.42703950408881447,1.3062292516675638,0.9738934179945125,0.2860802375,0.700968257089043
0.05,1.7375,1.0,2711.293038395714,0.43025336969489075,1.305685309106131,0.9742340025488784,0.286028,0.7020296294537284
0.0505,1.73624375,1.0,2709.306428158626,0.4334492077663702,1.3051360917817012,0.9745650902948132,0.2859752375,0.7030993797582564
0.051000000000000004,1.734975,1.0,2707.283208682203,0.4366271178267846,1.304581570066605,0.9748870209180668,0.28592195,0.7041775101267914
0.051500000000000004,1.73369375,1.0,2705.226666791615,0.43978719939966576,1.3040217143331725,0.9752001186987335,0.2858681375,0.7052640217280577
0.052000000000000005,1.7324,1.0,2703.1400850658542,0.4429295520085455,1.3034564949537344,0.975504693342313,0.2858138,0.7063589147652876
0.0525,1.73109375,1.0,2701.026741643307,0.4460542751769556,1.3028858823006209,0.975801040758916,0.28575893750000003,0.7074621884661175
0.053,1.729775,1.0,2698.8899100464328,0.4491614684284279,1.3023098467461625,0.9760894437942687,0.28570355000000003,0.7085738410724227
0.0535,1.72844375,1.0,2696.732859025993,0.4522512312864942,1.3017283586626898,0.9763701729158925,0.2856476375,0.7096938698300996
0.054,1.7271,1.0,2694.5588524251157,0.45532366327468626,1.301141388422533,0.9766434868575612,0.2855912,0.7108222709787919
0.0545,1.7257437500000001,1.0,2692.3711490619294,0.4583788639165359,1.3005489063980225,0.9769096332249093,0.2855342375,0.7119590397415585
0.055,1.724375,1.0,2690.1701892307233,0.4614169067319374,1.299950908720498,0.9771688481015264,0.28547675,0.7131041210387359
0.0555,1.72299375,1.0,2687.9604780227764,0.46443791940099144,1.2993473542841318,0.9774213605780335,0.2854187375,0.7142575302394467
0.056,1.7216,1.0,2685.7435461430027,0.46744199800100217,1.2987382291715424,0.9776673887201464,0.2853602,0.7154192296921271
0.0565,1.72019375,1.0,2683.520475003259,0.4704292338145858,1.2981235235614952,0.9779071413348704,0.28530113749999997,0.7165891731482099
0.057,1.718775,1.0,2681.292344271695,0.47339971812435855,1.2975032276327547,0.978140818639047,0.28524155,0.7177673136099916
0.0575,1.71734375,1.0,2679.060231859322,0.4763535422129367,1.2968773315640865,0.9783686126800594,0.2851814375,0.7189536033271284
0.058,1.7159,1.0,2676.825213909623,0.47929079736293634,1.2962458255342555,0.9785907077326638,0.2851208,0.7201479937931361
0.0585,1.71444375,1.0,2674.588364789695,0.4822115748569738,1.2956086997220264,0.9788072806734753,0.2850596375,0.7213504357418776
0.059000000000000004,1.7129750000000001,1.0,2672.3507570833553,0.4851159659776652,1.294965944306165,0.9790185013345368,0.28499795,0.7225608791440447
0.059500000000000004,1.71149375,1.0,2670.1134615871756,0.48800406200762686,1.2943175494654355,0.9792245328372917,0.2849357375,0.7237792732036381
0.06,1.71,1.0,2667.8775473076407,0.49087595422947483,1.2936635053786039,0.9794255319081955,0.284873,0.7250055663544346
0.0605,1.7084937500000001,1.0,2665.644081461459,0.49373173392582553,1.2930038022244346,0.9796216491771021,0.2848097375,0.7262397062564555
0.061,1.7069750000000001,1.0,2663.4141294772257,0.49657149237929504,1.2923384301816927,0.9798130294594977,0.28474595,0.7274816397924222
0.0615,1.7054437500000001,1.0,2661.1887549993944,0.49939532087249966,1.2916673794291436,0.9799998120235692,0.2846816375,0.7287313130642092
0.062,1.7039,1.0,2658.9690198950284,0.5022033106880556,1.2909906401455522,0.9801821308430321,0.2846168,0.7299886713892914
0.0625,1.70234375,1.0,2656.755984261593,0.5049955531085789,1.2903082025096837,0.9803601148365768,0.2845514375,0.7312536592971827
0.063,1.7007750000000001,1.0,2654.5493276909415,0.5077720867679703,1.2896200694082813,0.9805338848074623,0.28448555,0.7325261970533875
0.0635,1.69919375,1.0,2652.352518384702,0.5105330619270008,1.2889262087987725,0.9807035636004979,0.28441913750000003,0.7338062687154596
0.064,1.6976,1.0,2650.165985334072,0.5132785704195433,1.2882266166215262,0.9808692666045404,0.2843522,0.735093805710803
0.0645,1.69599375,1.0,2647.9898051944847,0.5160086943189524,1.2875212920621748,0.9810311044441185,0.2842847375,0.7363887328153622
0.065,1.694375,1.0,2645.8240545265485,0.5187235156985825,1.286810234306351,0.9811891837339787,0.28421675,0.7376909741617859
0.0655,1.69274375,1.0,2643.668809797663,0.5214231166317884,1.2860934425396873,0.9813436072518027,0.2841482375,0.7390004532391283
0.066,1.6911,1.0,2641.524147383616,0.5241075791919246,1.2853709159478164,0.9814944741022789,0.2840792,0.740317092892552
0.0665,1.6894437500000001,1.0,2639.39014357058,0.5267769854523456,1.2846426537163709,0.9816418798730162,0.2840096375,0.74164081532303
0.067,1.687775,1.0,2637.266874555967,0.529431417486406,1.283908655030983,0.9817859167827642,0.28393955,0.742971542087048
0.0675,1.68609375,1.0,2635.154416450907,0.5320709573674604,1.2831689190772857,0.9819266738223673,0.2838689375,0.7443091940963062
0.068,1.6844000000000001,1.0,2633.052845281291,0.5346956871688632,1.2824234450409115,0.982064236888859,0.2837978,0.745653691617421
0.0685,1.68269375,1.0,2630.962236989731,0.5373056889639691,1.2816722321074927,0.9821986889130746,0.2837261375,0.7470049542716287
0.069,1.680975,1.0,2628.8826674372476,0.5399010448261328,1.2809152794626621,0.9823301099811369,0.28365395,0.7483629010344848
0.0695,1.67924375,1.0,2626.8142124047718,0.5424818368287085,1.2801525862920524,0.9824585774501503,0.28358123749999997,0.749727450235568
0.07,1.6775,1.0,2624.7569475950895,0.5450481470450512,1.2793841517812958,0.9825841660584176,0.283508,0.751098519558182
0.07050000000000001,1.67574375,1.0,2622.7109486345053,0.5476000575485152,1.2786099751160251,0.9827069480304707,0.2834342375,0.7524760260390557
0.07100000000000001,1.673975,1.0,2620.676291074359,0.550137650412455,1.277830055481873,0.9828269931771942,0.28335995,0.7538598860680467
0.07150000000000001,1.67219375,1.0,2618.653050393205,0.5526610077102254,1.2770443920644716,0.9829443689913044,0.2832851375,0.7552500153878423
0.07200000000000001,1.6704,1.0,2616.64130199823,0.5551702115151808,1.2762529840494539,0.9830591407384235,0.2832098,0.7566463290936614
0.0725,1.66859375,1.0,2614.6411212272037,0.5576653439006757,1.2754558306224524,0.9831713715439836,0.2831339375,0.7580487416329554
0.073,1.6667750000000001,1.0,2612.652583350312,0.5601464869400649,1.2746529309690995,0.9832811224761768,0.28305755,0.7594571668051119
0.0735,1.66494375,1.0,2610.680221396558,0.562613657363465,1.2738442428432368,0.9833884469999897,0.2829806375,0.7608715901199437
0.074,1.6631,1.0,2608.720212778062,0.5650670121670716,1.2730298016235322,0.9834934083450619,0.2829032,0.7622918604126744
0.0745,1.6612437500000001,1.0,2606.7721959989253,0.5675066261544826,1.2722096105506462,0.9835960616191931,0.2828252375,0.7637178824102855
0.075,1.659375,1.0,2604.8359321101293,0.5699325719465068,1.2713836717305262,0.9836964600107537,0.28274675,0.7651495622387052
0.0755,1.65749375,1.0,2602.911182570141,0.5723449221639534,1.2705519872691196,0.9837946550319949,0.2826677375,0.7665868054360019
