Time [s],Phi [rad],STIM [ ],Fsee [N],Gamma [ ],Lcerel [ ],q [ ],Lmtc [m],fisomrel [ ]
0.0,1.8,1.0,18.360270802743525,0.0006390251603027062,1.3792959427608762,0.00510529796180035,0.288653,0.5412454968276088
0.0005,1.79999375,1.0,18.863809147495076,0.0062446500433484195,1.3792376917126297,0.014778683405542972,0.2886527375,0.541386394083152
0.001,1.799975,1.0,22.672450195888196,0.011818831802842673,1.3788319257591213,0.03896140981793458,0.28865195,0.5423672577348075
0.0015,1.79994375,1.0,33.160734199906585,0.017361746810701024,1.3778709171784924,0.0751419286049995,0.2886506375,0.5446861286692759
0.002,1.7999,1.0,57.724796192800646,0.022873570447749035,1.3761043959907044,0.12006315162032842,0.2886488,0.5489333013917965
0.0025,1.79984375,1.0,103.7824064281736,0.02835447711145513,1.3736193971134139,0.17036964836076315,0.28864643749999996,0.5548741903718404
0.003,1.7997750000000001,1.0,169.42887275030918,0.033804640224225226,1.3709013424330323,0.22324554726585782,0.28864354999999997,0.5613271498130565
0.0035,1.79969375,1.0,247.14548150560617,0.03922423223104475,1.3682961193836476,0.2765366393848744,0.2886401375,0.5674680116292922
0.004,1.7996,1.0,331.47181741001157,0.04461342461182369,1.365893127336023,0.32864504274119577,0.2886362,0.5730938117610485
0.0045000000000000005,1.7994937500000001,1.0,419.5891708396813,0.049972387884613396,1.3636820396813096,0.3784684662836345,0.2886317375,0.5782377997871249
0.005,1.799375,1.0,509.90939110154056,0.05530129158718555,1.3616364653250026,0.42532831923561665,0.28862675,0.5829689634797137
0.0055,1.79924375,1.0,601.365428918083,0.06060030441285688,1.359733141337641,0.46887564864625236,0.2886212375,0.5873471524979362
0.006,1.7991000000000001,1.0,693.0801808213913,0.06586959391627308,1.3579551614608767,0.5089998201969737,0.2886152,0.5914161428045845
0.006500000000000001,1.79894375,1.0,784.3662238075188,0.07110932688312835,1.356288870544278,0.5457497951632052,0.2886086375,0.5952112268057487
0.007,1.798775,1.0,874.6376854284911,0.07631966910957821,1.3547236767826067,0.5792751182646112,0.28860155,0.598759927072158
0.0075,1.79859375,1.0,963.403992849794,0.08150078529606038,1.3532509101908847,0.6097824963606687,0.2885939375,0.6020848037286719
0.008,1.7984,1.0,1050.306130622763,0.08665283979580826,1.3518625352962936,0.6375054859073099,0.2885858,0.6052064931596446
0.0085,1.79819375,1.0,1135.0200237453264,0.09177599519925002,1.3505521381022196,0.6626855816886045,0.2885771375,0.608141576760084
0.009000000000000001,1.797975,1.0,1217.3089252611078,0.09687041355867411,1.3493137251166494,0.6855592014378107,0.28856795,0.610905361751052
0.0095,1.79774375,1.0,1297.0145343552701,0.10193625655902945,1.3481416240033595,0.7063504155714402,0.2885582375,0.6135121480749474
0.01,1.7975,1.0,1374.0034046511216,0.10697368418526038,1.3470309974122026,0.7252673940243858,0.288548,0.6159741289384307
0.0105,1.79724375,1.0,1448.188819853537,0.11198285560789657,1.3459773530396972,0.7425005162575055,0.2885372375,0.6183025229070304
0.011,1.796975,1.0,1519.5310259399607,0.11696392933432115,1.344976415250228,0.7582221052503139,0.28852595000000003,0.6205078855902497
0.0115,1.79669375,1.0,1588.0283230317125,0.12191706384964536,1.3440241359298302,0.7725870795405444,0.2885141375,0.6226001080922632
0.012,1.7964,1.0,1653.6673129705803,0.12684241499875437,1.3431171904202772,0.7857342731335714,0.28850180000000003,0.6245873521622936
0.0125,1.79609375,1.0,1716.471921290733,0.13174013846374663,1.3422522949647602,0.797787447588392,0.2884889375,0.626477572038759
0.013000000000000001,1.7957750000000001,1.0,1776.485464117427,0.13661038916949675,1.3414263643154405,0.8088567819817528,0.28847555,0.6282781816018499
0.0135,1.79544375,1.0,1833.7838618716992,0.14145332253583184,1.3406363123820413,0.8190401927209336,0.2884616375,0.6299965009144273
0.014,1.7951000000000001,1.0,1888.4173469715763,0.14626909109119707,1.339879657109964,0.8284248875262764,0.2884472,0.6316384524324403
0.0145,1.79474375,1.0,1940.4424804702164,0.15105784649479875,1.3391541050139188,0.8370884123112813,0.2884322375,0.6332094803960706
0.015,1.794375,1.0,1989.9366764964575,0.1558197404058432,1.3384573626086156,0.8450996997118061,0.28841675,0.6347149671429213
0.0155,1.79399375,1.0,2036.9798586651127,0.16055492351553108,1.3377873103695235,0.8525201347005106,0.2884007375,0.6361598627338113
0.016,1.7936,1.0,2081.674041642765,0.1652635470417816,1.337141771901605,0.8594043719589309,0.2883842,0.6375491889000195
0.0165,1.7931937500000001,1.0,2124.091742792709,0.16994575910537144,1.336519033208615,0.8658012878960153,0.2883671375,0.6388869269398568
0.017,1.792775,1.0,2164.307074381975,0.17460170714158293,1.3359174893822134,0.8717545563601781,0.28834955,0.6401767867574953
0.0175,1.7923437500000001,1.0,2202.405007271361,0.17923153858569835,1.33533553551406,0.8773032314691896,0.2883314375,0.6414224445838606
0.018000000000000002,1.7919,1.0,2238.4703842530666,0.18383539981268218,1.3347716676713464,0.8824823167656136,0.2883128,0.6426273294787808
0.0185,1.79144375,1.0,2272.597661478089,0.1884134381680591,1.3342243733904346,0.8873232098505262,0.2882936375,0.6437948604329442
0.019,1.790975,1.0,2304.8612359771714,0.1929657978716122,1.3336924179038279,0.8918541878225923,0.28827395,0.6449278387547739
0.0195,1.79049375,1.0,2335.3321806305617,0.19749262197441286,1.3331746635163664,0.8961007191129748,0.2882537375,0.6460288379807272
0.02,1.79,1.0,2364.0873222694213,0.2019940535275327,1.3326699725328908,0.9000857590340361,0.288233,0.6471004125477223
0.0205,1.78949375,1.0,2391.2075656459174,0.206470235401651,1.332177218812471,0.9038300341296569,0.2882117375,0.6481450743048845
0.021,1.788975,1.0,2416.76195277295,0.21092130846937351,1.3316954370261243,0.9073523205960002,0.28818995000000003,0.6491649778572974
0.021500000000000002,1.78844375,1.0,2440.8415016050253,0.21534741686312087,1.3312234893350097,0.9106695890311313,0.2881676375,0.6501626279105253
0.022,1.7879,1.0,2463.502509769811,0.21974869875012365,1.3307606085203316,0.9137973069174564,0.2881448,0.6511397316685585
0.0225,1.78734375,1.0,2484.804244573843,0.22412529229761244,1.3303060273632945,0.9167495257423367,0.28812143749999997,0.6520979856105822
0.023,1.786775,1.0,2504.808699269885,0.2284773356728178,1.329858978645103,0.9195390302209181,0.28809755,0.6530390759158468
0.0235,1.78619375,1.0,2523.5803623755337,0.23280496704297027,1.3294186951469613,0.922177470030314,0.28807313749999996,0.6539646788509993
0.024,1.7856,1.0,2541.1654350178037,0.23710832282343922,1.3289846033811383,0.924675510731942,0.2880482,0.6548760546497294
0.0245,1.78499375,1.0,2557.6504120384084,0.24138754137450485,1.328555768465322,0.9270428353150892,0.2880227375,0.6557752136739852
0.025,1.7843774909772068,1.0,2573.204706514652,0.24564275882657574,1.3281316240974348,0.9292883688583587,0.2879968546210427,0.6566633841427926
0.025500000000000002,1.783760382392173,1.0,2588.2780636333036,0.2498741080571191,1.3277120251630647,0.9314203590751134,0.28797093606047125,0.6575409074091927
0.026000000000000002,1.783143273807139,1.0,2602.922673394477,0.2540817219436022,1.3272968265477998,0.9334463723274495,0.28794501749989987,0.6584081228690672
0.0265,1.7825261652221054,1.0,2617.150173319124,0.2582657333634923,1.326885883137228,0.9353733590731559,0.28791909893932843,0.6592653680025333
0.027,1.7819090566370714,1.0,2630.972494349354,0.26242627519425665,1.3264790498169374,0.9372077122345998,0.287893180378757,0.6601129784139977
0.0275,1.7812919480520377,1.0,2644.4016673660026,0.2665634798309474,1.3260761831349928,0.9389553193749325,0.28786726181818556,0.6609512844136309
0.028,1.7806748394670038,1.0,2657.4484426304084,0.2706774786563376,1.3256771538795695,0.9406216109699254,0.2878413432576141,0.6617805849518597
0.0285,1.78005773088197,1.0,2670.123726533962,0.27476840195921054,1.3252818335919678,0.9422116000235329,0.28781542469704274,0.6626011758132888
0.029,1.7794406222969361,1.0,2682.4385469424487,0.2788363781621028,1.3248900947766125,0.9437299193468104,0.2877895061364713,0.6634133492220784
0.029500000000000002,1.7788235137119024,1.0,2694.4041469208487,0.28288153568755126,1.3245018099379284,0.945180855875465,0.2877635875758999,0.6642173958769406
0.03,1.7782064051268685,1.0,2706.031974789313,0.2869040029580926,1.3241168515803403,0.9465683809224789,0.2877376690153285,0.6650136049797438
0.0305,1.7775892965418347,1.0,2717.3132704984614,0.2909038630760366,1.3237352780883762,0.9478961863347996,0.28771175045475705,0.6658018804880157
0.031,1.7769721879568008,1.0,2728.2904647724463,0.2948813095392755,1.3233566826371115,0.9491676768810421,0.2876858318941856,0.6665830860775586
0.0315,1.776355079371767,1.0,2738.9722378118418,0.298836463992301,1.3229809685071723,0.9503860318872304,0.2876599133336142,0.6673574425451818
0.032,1.7757379707867331,1.0,2749.3664793169505,0.3027694460848681,1.3226080474037278,0.9515542095346123,0.2876339947730428,0.6681251522651597
0.0325,1.7751208622016994,1.0,2759.4812057711188,0.30668037546673177,1.3222378310319476,0.9526749645922263,0.28760807621247136,0.6688864166193431
0.033,1.7745037536166655,1.0,2769.3245550600104,0.31056937178764676,1.3218702310970005,0.9537508648775433,0.28758215765189993,0.6696414360126386
0.0335,1.7738866450316317,1.0,2778.9047812627723,0.31443655469736803,1.321505159304056,0.9547843061976415,0.28755623909132855,0.6703904098879896
0.034,1.7732695364465978,1.0,2788.2302496165403,0.3182820438456506,1.3211425273582837,0.95577752592731,0.2875303205307571,0.6711335367408608
0.0345,1.772652427861564,1.0,2797.309431653803,0.32210595888224924,1.3207822469648527,0.9567326153628498,0.2875044019701857,0.6718710141332279
0.035,1.7720353192765304,1.0,2806.150900512504,0.325908419456919,1.320424229828932,0.9576515309748453,0.28747848340961424,0.6726030387070657
0.035500000000000004,1.7714182106914964,1.0,2814.763326418766,0.3296895452194147,1.3200683876556913,0.9585361046695605,0.28745256484904286,0.673329806197341
0.036000000000000004,1.7708011021064627,1.0,2823.1554723429645,0.3334494558194912,1.3197146321502997,0.9593880531566181,0.2874266462884714,0.6740515114445107
0.0365,1.7701839935214287,1.0,2831.3361898282433,0.3371882709069035,1.3193628750179267,0.9602089865100534,0.2874007277279,0.6747683484065183
0.037,1.769566884936395,1.0,2839.3144149922186,0.34090611013140654,1.3190130279637413,0.9610004160004918,0.2873748091673286,0.6754805101702972
0.0375,1.768949776351361,1.0,2847.0991647007945,0.34460309314275517,1.318665002692913,0.9617637612679646,0.28734889060675717,0.6761881889627736
0.038,1.7683326677663274,1.0,2854.6995329160627,0.34827933959070434,1.3183187109106111,0.9625003568975641,0.28732297204618573,0.6768915761613736
0.0385,1.7677155591812934,1.0,2862.124687215882,0.3519349691250089,1.3179740643220048,0.9632114584536896,0.2872970534856143,0.6775908623040356
0.039,1.7670984505962597,1.0,2869.3792339215306,0.35557008888108604,1.317631015692461,0.9638982493705949,0.2872711349250429,0.6782861539227536
0.0395,1.7664813420112258,1.0,2876.46995119147,0.359184817943006,1.3172894989491932,0.9645618452631355,0.2872452163644715,0.678977595205899
0.04,1.765864233426192,1.0,2883.4068684030526,0.3627792824751536,1.3169494197342277,0.9652032967100835,0.28721929780390004,0.6796653868945675
0.0405,1.765247124841158,1.0,2890.1946106397418,0.3663535921831499,1.3166107320080687,0.9658235961061167,0.28719337924332866,0.6803496313052134
0.041,1.7646300162561244,1.0,2896.8378406481434,0.36990785677261573,1.31627338973122,0.9664236804080352,0.2871674606827572,0.6810304303186347
0.0415,1.7640129076710904,1.0,2903.341257441389,0.37344218594917217,1.3159373468641853,0.9670044348104063,0.2871415421221858,0.6817078853839906
0.042,1.7633957990860567,1.0,2909.709594949114,0.3769566894184402,1.3156025573674686,0.9675666961408852,0.28711562356161435,0.6823820975226841
0.0425,1.7627786905010228,1.0,2915.947620714764,0.38045147688604075,1.3152689752015736,0.9681112559992486,0.28708970500104297,0.6830531673321096
0.043000000000000003,1.762161581915989,1.0,2922.060134639154,0.3839266580575948,1.3149365543270044,0.9686388636619222,0.28706378644047154,0.683721194989266
0.043500000000000004,1.761544473330955,1.0,2928.0519677723114,0.3873823426387234,1.3146052487042643,0.9691502287717103,0.2870378678799001,0.6843862802542346
0.044,1.7609273647459214,1.0,2933.9279811510246,0.39081864033504743,1.3142750122938578,0.9696460238306246,0.2870119493193287,0.685048522473519
0.0445,1.7603102561608877,1.0,2939.6930646840674,0.394235660852188,1.3139457990562882,0.970126886512037,0.2869860307587573,0.6857080205832549
0.045,1.7596931475758537,1.0,2945.3521360843497,0.39763351389576596,1.3136175629520597,0.9705934218069242,0.28696011219818585,0.6863648731122797
0.0455,1.75907603899082,1.0,2950.9101398480966,0.4010123091714024,1.3132902579416756,0.9710462040176078,0.2869341936376144,0.6870191781850712
0.046,1.758458930405786,1.0,2956.3685680654035,0.4043721392869537,1.3129638683640068,0.9714857785156441,0.28690827507704303,0.6876709728910606
0.0465,1.7578418218207523,1.0,2961.73241941093,0.40771311863920784,1.3126383480665125,0.9719126643368127,0.2868823565164716,0.6883203549688846
0.047,1.7572247132357184,1.0,2967.00898619629,0.41103537288924874,1.3123136311127213,0.9723273550027864,0.28685643795590016,0.6889674611644996
0.0475,1.7566076046506847,1.0,2972.2006983871133,0.4143390026471564,1.3119896941940614,0.9727303197328855,0.2868305193953288,0.6896123428466072
0.048,1.7559904960656507,1.0,2977.3099994303902,0.41762410852301074,1.311666514001961,0.9731220051474235,0.28680460083475734,0.6902550511794179
0.0485,1.755373387480617,1.0,2982.3393458572154,0.42089079112689165,1.3113440672278485,0.9735028365654387,0.2867786822741859,0.6908956371237914
0.049,1.754756278895583,1.0,2987.2912068979495,0.42413915106887906,1.3110223305631519,0.9738732192163618,0.28675276371361447,0.6915341514383466
0.0495,1.7541391703105493,1.0,2992.1680641090143,0.42736928895905285,1.3107012806992997,0.974233539372064,0.2867268451530431,0.6921706446805325
0.05,1.7535220617255154,1.0,2996.972411011841,0.4305813054074929,1.3103808943277202,0.9745841654051952,0.28670092659247165,0.6928051672076677
0.0505,1.7529049531404817,1.0,3001.7067527444065,0.4337753010242792,1.3100611481398412,0.974925448779238,0.2866750080319002,0.6934377691779448
0.051000000000000004,1.7522878445554477,1.0,3006.373605724032,0.4369513764194916,1.3097420188270914,0.9752577249752533,0.28664908947132883,0.6940685005513959
0.051500000000000004,1.751670735970414,1.0,3010.975497322395,0.44010963220321003,1.3094234830808988,0.9755813143598951,0.2866231709107574,0.6946974110908314
0.052000000000000005,1.75105362738538,1.0,3015.5149655533064,0.44325016898551445,1.3091055175926918,0.9758965229989043,0.28659725235018596,0.6953245503627363
0.0525,1.7504365188003463,1.0,3019.9945587715465,0.4463730873764846,1.3087880990538987,0.9762036434199508,0.2865713337896145,0.6959499677381367
0.053,1.7498194102153124,1.0,3024.4168353843497,0.44947848798620066,1.3084712041559474,0.9765029553283936,0.2865454152290431,0.6965737123934306
0.0535,1.7492023016302787,1.0,3028.784363574779,0.4525664714247423,1.3081548095902664,0.9767947262792471,0.2865194966684717,0.697195833311182
0.054,1.748585193045245,1.0,3033.0989993316375,0.4556371309926121,1.307838898271343,0.9770792119645497,0.28649357810790027,0.6978163670634113
0.0545,1.747968084460211,1.0,3037.359740911548,0.4586905359174023,1.3075234778000826,0.9773566563301441,0.2864676595473289,0.6984353016637185
0.055,1.7473509758751773,1.0,3041.573149215732,0.4617268344251946,1.3072084906500558,0.9776272967397599,0.28644174098675745,0.699052752782253
0.0555,1.7467338672901433,1.0,3045.7403731596605,0.46474611756070877,1.3068939260349732,0.9778913578722247,0.286415822426186,0.6996687441417104
0.056,1.7461167587051096,1.0,3049.8625662980667,0.46774847636866457,1.306579773168545,0.9781490550910923,0.2863899038656146,0.7002832993747563
0.0565,1.7454996501200757,1.0,3053.940886725149,0.47073400189378184,1.3062660212644819,0.9784005949070369,0.28636398530504314,0.700896442024311
0.057,1.744882541535042,1.0,3057.976496977708,0.4737027851807803,1.3059526595364943,0.9786461754136578,0.28633806674447176,0.7015081955438329
0.0575,1.744265432950008,1.0,3061.9705639400913,0.47665491727437975,1.3056396771982925,0.9788859866984271,0.28631214818390033,0.7021185832975878
0.058,1.7436483243649743,1.0,3065.9242587526273,0.4795904892193,1.3053270634635874,0.9791202112303843,0.28628622962332895,0.7027276285609135
0.0585,1.7430312157799404,1.0,3069.8387567217314,0.4825095920602607,1.3050148075460895,0.9793490242260734,0.2862603110627575,0.7033353545204784
0.059000000000000004,1.7424141071949066,1.0,3073.715237233569,0.4854123168419817,1.3047028986595088,0.9795725939951009,0.2862343925021861,0.7039417842745315
0.059500000000000004,1.7417969986098727,1.0,3077.5548836692833,0.4882987546091829,1.3043913260175561,0.9797910822666067,0.28620847394161464,0.7045469408331437
0.06,1.741179890024839,1.0,3081.358883323644,0.4911689964065838,1.304080078833942,0.9800046444978391,0.2861825553810432,0.7051508471184428
0.0605,1.740562781439805,1.0,3085.1284273257843,0.4940231332789044,1.3037691463223766,0.9802134301659486,0.2861566368204718,0.7057535259648423
0.061,1.7399456728547713,1.0,3088.8647105624136,0.49686125627086447,1.303458517696571,0.9804175830440338,0.2861307182599004,0.70635500011926
0.0615,1.7393285642697374,1.0,3092.5689316044127,0.49968345642718365,1.303148182170235,0.9806172414624065,0.28610479969932895,0.7069552922413328
0.062,1.7387114556847036,1.0,3096.2422926350305,0.5024898247925819,1.3028381289570798,0.9808125385559687,0.28607888113875757,0.7075544249036195
0.0625,1.7380943470996697,1.0,3099.8859993810447,0.5052804524117788,1.3025283472708153,0.981003602498546,0.28605296257818613,0.7081524205918015
0.063,1.737477238514636,1.0,3103.5012610468875,0.5080554303294942,1.3022188263251522,0.9811905567249505,0.2860270440176147,0.7087493017048709
0.0635,1.7368601299296023,1.0,3107.088378666141,0.510814830941001,1.3019095630999813,0.9813735191923676,0.28600112545704326,0.709345075601972
0.064,1.7362430213445683,1.0,3110.647974158571,0.513558741892194,1.3016005518537548,0.9815526045324923,0.2859752068964719,0.7099397548517556
0.0645,1.7356259127595344,1.0,3114.1821122129672,0.5162872791839431,1.3012917745841426,0.9817279246131687,0.28594928833590044,0.7105333755355172
0.065,1.7350088041745007,1.0,3117.6913342639605,0.5190005247510004,1.3009832262880987,0.9818995855484514,0.285923369775329,0.7111259486390535
0.0655,1.734391695589467,1.0,3121.1761834245663,0.5216985605281181,1.3006749019625776,0.9820676896900259,0.2858974512147576,0.7117174851077626
0.066,1.733774587004433,1.0,3124.6372044610303,0.5243814684500481,1.3003667966045334,0.9822323357876377,0.2858715326541862,0.7123079958467184
0.0665,1.7331574784193993,1.0,3128.0749437686104,0.5270493304515425,1.3000589052109202,0.9823936191415797,0.28584561409361475,0.71289749172074
0.067,1.7325403698343653,1.0,3131.4899493471457,0.5297022284673534,1.2997512227786925,0.982551631747681,0.2858196955330433,0.71348598355446
0.0675,1.7319232612493316,1.0,3134.8827707780206,0.5323402444322329,1.2994437443048044,0.9827064624352163,0.28579377697247194,0.7140734821323946
0.068,1.7313061526642977,1.0,3138.253959200843,0.534963460280933,1.2991364647862103,0.9828581969981304,0.2857678584119005,0.7146599981990064
0.0685,1.730689044079264,1.0,3141.604067291446,0.5375719579482059,1.2988293792198642,0.9830069183199441,0.28574193985132906,0.7152455424587711
0.069,1.73007193549423,1.0,3144.93364924003,0.5401658193688035,1.2985224826027204,0.9831527064926889,0.2857160212907577,0.7158301255762388
0.0695,1.7294548269091963,1.0,3148.243260729571,0.5427451264774781,1.2982157699317332,0.9832956389301919,0.28569010273018625,0.7164137581760956
0.07,1.7288377183241623,1.0,3151.533458915703,0.5453099612089815,1.297909236203857,0.9834357904760208,0.2856641841696148,0.7169964508432226
0.07050000000000001,1.7282206097391286,1.0,3154.804802406134,0.5478604054980659,1.2976028764160457,0.9835732335063712,0.2856382656090434,0.7175782141227547
