Time [s],Phi [rad],STIM [ ],Fsee [N],Gamma [ ],Lcerel [ ],q [ ],Lmtc [m],fisomrel [ ]
0.0,1.8,1.0,18.117804371405082,0.000395060733801581,1.3793229040366048,0.0050404034076724355,0.288653,0.5411802757437394
0.0005,1.79999375,1.0,18.549815280889874,0.006002054064351632,1.3792721673634458,0.014044021290365975,0.2886527375,0.5413030072175841
0.001,1.799975,1.0,22.177220882188454,0.011577596595455745,1.3788815890744037,0.037643311835688406,0.28865195,0.5422472623101234
0.0015,1.79994375,1.0,32.2534276909226,0.017121864742244693,1.3779462581049287,0.07336848149200949,0.2886506375,0.5445045471443962
0.002,1.7999,1.0,56.00628354545469,0.02263503392799241,1.376212621072655,0.11798270029985018,0.2886488,0.5486736726582999
0.0025,1.79984375,1.0,101.08711147220723,0.028117278593521353,1.3737458647488194,0.16811903397510625,0.28864643749999996,0.5545727952269043
0.003,1.7997750000000001,1.0,166.05362903773613,0.03356877220209476,1.3710251017977835,0.2209318973702753,0.28864354999999997,0.5610343553442105
0.0035,1.79969375,1.0,243.40334594823247,0.03898968724150577,1.3684095901347748,0.27424124763773317,0.2886401375,0.567201447374768
0.004,1.7996,1.0,327.53065458922595,0.04438019523389814,1.3659962336290337,0.3264266233009027,0.2886362,0.5728531791114855
0.0045000000000000005,1.7994937500000001,1.0,415.53270245322796,0.049740466741339126,1.3637763104010951,0.376365514054369,0.2886317375,0.578019119869152
0.005,1.799375,1.0,505.79413922112036,0.05507067135671366,1.3617231847137679,0.42336274369725946,0.28862675,0.5827689338027084
0.0055,1.79924375,1.0,597.2202694955795,0.060370977744003435,1.3598135512738614,0.4670572101326628,0.2886212375,0.5871626540806516
0.006,1.7991000000000001,1.0,688.946669765512,0.06564155360258223,1.3580298344823991,0.5073294425576209,0.2886152,0.5912456556776337
0.006500000000000001,1.79894375,1.0,780.2645219609161,0.07088256568396746,1.356358510888189,0.5442230142604739,0.2886086375,0.5950529710381137
0.007,1.798775,1.0,870.5877918666118,0.07609417987076048,1.3547887827063871,0.5778840593152808,0.28860155,0.5986126264850766
0.0075,1.79859375,1.0,959.4311459868658,0.08127656092687045,1.3533117563834731,0.608517416495267,0.2885939375,0.6019477130141115
0.008,1.7984,1.0,1046.4188458958865,0.08642987308024135,1.3519195488589755,0.6363560565046141,0.2885858,0.6050785431469872
0.0085,1.79819375,1.0,1131.2319307610771,0.09155427913277321,1.3506055784237665,0.6616413691532472,0.2885771375,0.608022093042526
0.009000000000000001,1.797975,1.0,1213.6278121634966,0.09664994118225123,1.3493638663292635,0.684610191295642,0.28856795,0.6107936508401419
0.0095,1.79774375,1.0,1293.4497204897941,0.10171702091341758,1.3481886621861117,0.7054871917135025,0.2885582375,0.6134077025671104
0.01,1.7975,1.0,1370.5572403144884,0.10675567818526001,1.3470751750031298,0.7244813205413394,0.288548,0.6158763485221519
0.0105,1.79724375,1.0,1444.8636395283484,0.11176607232836527,1.3460188713332661,0.7417837255160441,0.2885372375,0.6182109077846065
0.011,1.796975,1.0,1516.3364806830575,0.116748362398581,1.345015352930457,0.7575674502833836,0.28852595000000003,0.620422213782756
0.0115,1.79669375,1.0,1584.9535952275526,0.1217027059548827,1.3440607944815677,0.7719882564595859,0.2885141375,0.6225196737905372
0.012,1.7964,1.0,1650.7088187809054,0.12662925924235985,1.3431517547708882,0.7851856048691619,0.28850180000000003,0.624511713002743
0.0125,1.79609375,1.0,1713.6294418998211,0.13152817805018124,1.3422848896101613,0.7972838542320727,0.2884889375,0.626406423292601
0.013000000000000001,1.7957750000000001,1.0,1773.7736489774786,0.13639961835557896,1.3414569298829115,0.8083936754066438,0.28847555,0.6282116231981392
0.0135,1.79544375,1.0,1831.1902932994321,0.14124373420039738,1.3406650840261611,0.8186136081941772,0.2884616375,0.6299339940224764
0.014,1.7951000000000001,1.0,1885.9259932310301,0.1460606779797127,1.3399068914649355,0.8280313106740199,0.2884472,0.631579416883433
0.0145,1.79474375,1.0,1938.0512391453801,0.15085060208860102,1.3391798916242599,0.8367246615513471,0.2884322375,0.6331537025438627
0.015,1.794375,1.0,1987.645337733166,0.15561365807349195,1.338481762175911,0.8447629355505745,0.28841675,0.6346622980685268
0.0155,1.79399375,1.0,2034.8035368046994,0.16034999805634487,1.3378102155217448,0.8522077765418202,0.2884007375,0.6361105175036745
0.016,1.7936,1.0,2079.599294114712,0.16505977134900796,1.3371633719400133,0.8591142112855049,0.2883842,0.6375027443304855
0.0165,1.7931937500000001,1.0,2122.1042425601713,0.16974312606683714,1.3365395169629315,0.8655313538917166,0.2883671375,0.6388429640381275
0.017,1.792775,1.0,2162.402388778131,0.17440021032518827,1.3359369361227138,0.8715030566513047,0.28834955,0.640135124197971
0.0175,1.7923437500000001,1.0,2200.5825506090655,0.17903117154821702,1.3353539808201176,0.877068549617807,0.2883314375,0.6413829960079727
0.018000000000000002,1.7919,1.0,2236.7375761833373,0.1836361573215203,1.3347890635446131,0.8822629825700247,0.2883128,0.6425901879174777
0.0185,1.79144375,1.0,2270.9519186906655,0.1882153138534811,1.3342407704776893,0.8871179281172539,0.2882936375,0.6437599086431143
0.019,1.790975,1.0,2303.2940228240045,0.19276878471790226,1.3337079227298911,0.8916618075239909,0.28827395,0.6448948415411384
0.0195,1.79049375,1.0,2333.83876293147,0.19729671348858677,1.333189341411764,0.8959201940835322,0.2882537375,0.6459976491377393
0.02,1.79,1.0,2362.666907164929,0.2017992437393375,1.3326838476338527,0.8999161362865954,0.288233,0.6470709742459677
0.0205,1.78949375,1.0,2389.853197830379,0.20627651743433575,1.3321903733890492,0.9036704651062571,0.2882117375,0.6481172060830487
0.021,1.788975,1.0,2415.485886039364,0.2107286786522916,1.3317077652685652,0.9072019983901278,0.28818995000000003,0.6491388981522146
0.021500000000000002,1.78844375,1.0,2439.6326728064564,0.21515586792758085,1.3312351101387767,0.9105278275063615,0.2881676375,0.6501380797555882
0.022,1.7879,1.0,2462.3523490467314,0.2195582239238002,1.3307716142820556,0.9136634781397492,0.2881448,0.6511165152590659
0.0225,1.78734375,1.0,2483.706751040125,0.22393588530454647,1.3303164839807724,0.9166230538434373,0.28812143749999997,0.652075957941901
0.023,1.786775,1.0,2503.76050688771,0.22828899073341638,1.3298689255172986,0.919419385990859,0.28809755,0.6530181504402516
0.0235,1.78619375,1.0,2522.5785102768373,0.2326176784684125,1.3294281667945411,0.9220641699800032,0.28807313749999996,0.6539447797270026
0.024,1.7856,1.0,2540.216174883476,0.23692208473405102,1.3289935466587985,0.9245680971373363,0.2880482,0.654857290359901
0.0245,1.78499375,1.0,2556.752139271563,0.24120234940890345,1.3285642040105212,0.9269409035015422,0.2880227375,0.6557575377644534
0.025,1.784375,1.0,2572.230643722444,0.24545860589559268,1.3281396187920473,0.9291915547496348,0.28799675,0.6566466536320468
0.025500000000000002,1.78374375,1.0,2586.6973423436775,0.2496909875967416,1.3277192709457148,0.9313282660723334,0.2879702375,0.6575257635548761
0.026000000000000002,1.7831000000000001,1.0,2600.1991861203483,0.2538996279149732,1.3273026404138624,0.9333585751802896,0.2879432,0.6583959871751082
0.0265,1.78244375,1.0,2612.784311963348,0.2580846602529103,1.3268892071388276,0.9352894073184347,0.2879156375,0.6592584383168005
0.027,1.781775,1.0,2624.5019377538906,0.2622462180131759,1.326478451062949,0.937127133248297,0.28788755,0.6601142251005663
0.0275,1.7810937500000001,1.0,2635.3960334238163,0.26638443079044216,1.326069909758679,0.9388776281162069,0.2878589375,0.6609643301975987
0.028,1.7804,1.0,2645.517810103566,0.2704994346815983,1.3256630617089566,0.9405463040396946,0.2878298,0.6618098540763657
0.0285,1.77969375,1.0,2654.9017601877727,0.2745913578906203,1.3252575469343404,0.9421381782255982,0.2878001375,0.662651556639845
0.029,1.778975,1.0,2663.5825543690285,0.27866032837938676,1.324853009443272,0.9436578887915882,0.28776995,0.6634901857641883
0.029500000000000002,1.7782437500000001,1.0,2671.595418170897,0.2827064741097765,1.3244490932441928,0.9451097278712217,0.2877392375,0.664326485628256
0.03,1.7775,1.0,2678.9760810825187,0.2867299230436681,1.324045442345544,0.946497671851401,0.287708,0.6651611967317623
0.0305,1.77674375,1.0,2685.7607285035006,0.2907308031429405,1.3236417007557675,0.9478254086078003,0.2876762375,0.6659950559053389
0.031,1.775975,1.0,2691.9769083703472,0.2947092373317413,1.3232375952985078,0.9490963709885724,0.28764395,0.6668286255919582
0.0315,1.7751937500000001,1.0,2697.6588551926266,0.29866535466800115,1.3228327946785854,0.9503137440497236,0.2876111375,0.6676625850765763
0.032,1.7744,1.0,2702.8477052193093,0.30259928824440674,1.3224269075103408,0.9514804847583016,0.2875778,0.6684977337797136
0.0325,1.77359375,1.0,2707.5647753567514,0.30651115926721756,1.3220197261253142,0.9525993651875383,0.2875439375,0.6693344897518421
0.033,1.772775,1.0,2711.831591850684,0.310401088942693,1.3216110428550458,0.9536729691402782,0.28750955,0.6701732688574296
0.0335,1.7719437500000002,1.0,2715.6698707314713,0.3142691984770927,1.3212006500310758,0.9547037071973087,0.2874746375,0.6710144847564234
0.034,1.7711000000000001,1.0,2719.1014992148225,0.318115609076676,1.320788339984944,0.9556938303924486,0.2874392,0.6718585488829845
0.0345,1.7702437500000001,1.0,2722.1485180593,0.32194044194770244,1.320373905048191,0.9566454426542208,0.2874032375,0.6727058704214689
0.035,1.7693750000000001,1.0,2724.8331048798655,0.3257438182964314,1.3199571375523567,0.9575605121383254,0.28736675,0.673556856279663
0.035500000000000004,1.76849375,1.0,2727.177558417243,0.3295258593291224,1.319537829828981,0.9584408815613966,0.2873297375,0.6744119110592639
0.036000000000000004,1.7676,1.0,2729.2042837638764,0.33328668625203484,1.3191157742096045,0.9592882776344552,0.2872922,0.6752714370236121
0.0365,1.76669375,1.0,2730.931123125398,0.3370264162187874,1.318690805330673,0.9601043230582652,0.2872541375,0.6761357480793595
0.037,1.765775,1.0,2732.3754632967357,0.3407451685057751,1.3182627626448062,0.960890541770268,0.28721555,0.6770051464084685
0.0375,1.76484375,1.0,2733.560603054294,0.3444430675997424,1.31783143249316,0.9616483610673912,0.2871764375,0.6778800399213837
0.038,1.7639,1.0,2734.4989071772848,0.34812022755166644,1.317396701054033,0.9623791299971686,0.28713679999999997,0.6787606318878086
0.0385,1.76294375,1.0,2735.202783698238,0.3517767624125241,1.3169584545057258,0.9630841175813524,0.28709663750000003,0.6796471240986663
0.039,1.761975,1.0,2735.684678383719,0.35541278623329237,1.3165165790265378,0.9637645184302627,0.28705595,0.6805397168409995
0.0395,1.7609937500000001,1.0,2735.957069503147,0.3590284130649483,1.3160709607947687,0.9644214579049486,0.2870147375,0.6814386088720401
0.04,1.76,1.0,2736.032462883794,0.36262375695846893,1.315621485988718,0.9650559968680307,0.286973,0.6823439973924535
0.0405,1.7589937500000001,1.0,2735.923387253591,0.36619893196483116,1.315168040786686,0.9656691360600234,0.2869307375,0.683256078018756
0.041,1.757975,1.0,2735.6423898712,0.369754052135012,1.314710511366972,0.9662618201342972,0.28688795,0.6841750447549076
0.0415,1.75694375,1.0,2735.2020324429723,0.37328923151998855,1.3142487839078754,0.9668349413805989,0.2868446375,0.6851010899630787
0.042,1.7559,1.0,2734.607533789768,0.37680457178462384,1.313782811366081,0.9673893466966296,0.28680079999999997,0.6860342706989746
0.0425,1.75484375,1.0,2733.876226045819,0.3803001980698255,1.3133124367815328,0.9679258318382102,0.2867564375,0.6869748627487821
0.043000000000000003,1.753775,1.0,2733.019163233861,0.38377622487441504,1.312837560240792,0.9684451527498428,0.28671155,0.6879230258373368
0.043500000000000004,1.75269375,1.0,2732.042887716902,0.38723275877702434,1.3123581228417098,0.9689480272805956,0.28666613750000003,0.6888788363992453
0.044,1.7516,1.0,2730.9539453356415,0.3906699063562853,1.3118740656821368,0.9694351355788369,0.2866202,0.6898423697541269
0.0445,1.75049375,1.0,2729.7588840316753,0.39408777419082985,1.3113853298599236,0.9699071224414958,0.2865737375,0.6908137000893704
0.045,1.7493750000000001,1.0,2728.464252546343,0.3974864688592898,1.3108918564729208,0.9703645994946424,0.28652675,0.6917929004426684
0.0455,1.74824375,1.0,2727.0765991968933,0.400866096940297,1.3103935866189793,0.9708081472190266,0.2864792375,0.6927800426843309
0.046,1.7471,1.0,2725.602470730065,0.40422676501248345,1.3098904613959497,0.9712383168329991,0.2864312,0.6937751974993795
0.0465,1.7459437500000001,1.0,2724.048411251931,0.4075685796544809,1.3093824219016825,0.9716556320441277,0.28638263750000004,0.6947784343694174
0.047,1.744775,1.0,2722.420961234935,0.4108916474449213,1.3088694092340285,0.9720605906798383,0.28633355,0.6957898215542802
0.0475,1.74359375,1.0,2720.72665660214,0.41419607496243654,1.3083513644908384,0.972453666206496,0.28628393750000003,0.6968094260734634
0.048,1.7424,1.0,2718.9720278874856,0.41748196878565846,1.307828228769963,0.9728353091455425,0.2862338,0.6978373136873322
0.0485,1.74119375,1.0,2717.1584994816767,0.4207494183788397,1.3072999896313975,0.9732059495151228,0.2861831375,0.6988734578206091
0.049,1.739975,1.0,2715.2952536838243,0.42399854511961443,1.3067665639358745,0.9735659959534732,0.28613195,0.6999179695503093
0.0495,1.73874375,1.0,2713.387796142415,0.4272294571111214,1.3062279019628722,0.973915838490827,0.2860802375,0.7009708930466121
0.05,1.7375,1.0,2711.4389713862165,0.43044225289987303,1.3056839782019571,0.974255849465279,0.286028,0.7020322240772494
0.0505,1.73624375,1.0,2709.4516209461,0.43363703103238155,1.305134767142696,0.9745863840289073,0.2859752375,0.703101957527974
0.051000000000000004,1.734975,1.0,2707.428583145517,0.4368138900551593,1.3045802432746558,0.9749077810912334,0.28592195,0.7041800873939779
0.051500000000000004,1.73369375,1.0,2705.372692905241,0.43997292851471864,1.3040203810874027,0.9752203642028157,0.2858681375,0.7052666067712705
0.052000000000000005,1.7324,1.0,2703.2867815624327,0.44311424495757185,1.3034551550705038,0.9755244423832611,0.2858138,0.7063615078480118
0.0525,1.73109375,1.0,2701.1736767046687,0.4462379379302312,1.3028845397135256,0.9758203108976143,0.28575893750000003,0.7074647818958092
0.053,1.729775,1.0,2699.0362020177686,0.4493441059792091,1.3023085095060347,0.9761082519847557,0.28570355000000003,0.7085764192609685
0.0535,1.72844375,1.0,2696.8771771483157,0.4524328476510179,1.301727038937598,0.9763885355411639,0.2856476375,0.7096964093557057
0.054,1.7271,1.0,2694.699417580804,0.4555042614921698,1.301140102497782,0.9766614197631379,0.2855912,0.7108247406493156
0.0545,1.7257437500000001,1.0,2692.5057345288196,0.4585584460491773,1.3005476746761535,0.9769271517503287,0.2855342375,0.7119614006593016
0.055,1.724375,1.0,2690.2989348408482,0.46159549986855253,1.2999497299622793,0.9771859680732218,0.28547675,0.713106375942461
0.0555,1.72299375,1.0,2688.082072570377,0.46461552139876966,1.2993462405407703,0.9774380951613705,0.2854187375,0.7142596564863115
0.056,1.7216,1.0,2685.8600384172382,0.4676186049496687,1.2987371617215897,0.9776837485850307,0.2853602,0.7154212634136758
0.0565,1.72019375,1.0,2683.6317200415174,0.4706048438226875,1.2981225037707407,0.9779231380596736,0.28530113749999997,0.7165911120709971
0.057,1.718775,1.0,2681.3967227928797,0.4735743320670376,1.2975022703897376,0.9781564643637438,0.28524155,0.7177691298244625
0.0575,1.71734375,1.0,2679.1547557856516,0.47652716367850567,1.2968764643345485,0.9783839200234119,0.2851814375,0.7189552452940611
0.058,1.7159,1.0,2676.9114423341866,0.47946343203895914,1.2962450340827223,0.978605686663905,0.2851208,0.7201494890986184
0.0585,1.71444375,1.0,2674.668335362284,0.4823832309862139,1.2956079654011725,0.9788219407307475,0.2850596375,0.7213518201255714
0.059000000000000004,1.7129750000000001,1.0,2672.425746078079,0.48528665209230176,1.2949652554395579,0.979032852077275,0.28499795,0.7225621750110854
0.059500000000000004,1.71149375,1.0,2670.1839851691298,0.4881737869292546,1.2943169013475377,0.9792385838489505,0.2849357375,0.7237804897359175
0.06,1.71,1.0,2667.943362802421,0.49104472706910407,1.2936629002747706,0.9794392927989338,0.284873,0.7250066996243947
0.0605,1.7084950647159327,1.0,2665.769100092632,0.4938995633051889,1.293003246078047,0.979635129346818,0.28480979271806917,0.7262407454965799
0.061,1.7069882977690738,1.0,2664.094181713371,0.4967383868964039,1.2923381783891197,0.9798262512399459,0.2847465085063011,0.7274821092351124
0.0615,1.7054815308222147,1.0,2662.9665031948657,0.49956128697339736,1.2916680793258783,0.9800128175950442,0.284683224294533,0.728730011168218
0.062,1.7039747638753557,1.0,2662.344295288043,0.5023683524686069,1.2909933301161507,0.9801949815111879,0.2846199400827649,0.7299836792981919
0.0625,1.7024679969284968,1.0,2662.185960117325,0.50515967231447,1.2903143119877643,0.9803728904131388,0.2845566558709969,0.7312423477521399
0.063,1.7009612299816377,1.0,2662.4591034622804,0.507935333220269,1.289631322694319,0.9805466818502571,0.2844933716592288,0.732505411078888
0.0635,1.6994544630347788,1.0,2663.115315833731,0.510695426510442,1.2889448083193762,0.980716496277027,0.2844300874474607,0.7337719953612212
0.064,1.6979476960879198,1.0,2664.123134613662,0.5134400395800827,1.2882550596358378,0.980882460947462,0.28436680323569263,0.7350415197523585
0.0645,1.6964409291410607,1.0,2665.458818732935,0.5161692578995165,1.2875622968525644,0.9810446948795832,0.28430351902392453,0.7363135377196353
0.065,1.6949341621942018,1.0,2667.098666603747,0.5188831669390692,1.2868667401784166,0.9812033128622971,0.2842402348121565,0.7375876064394413
0.0655,1.6934273952473426,1.0,2669.019001941108,0.5215818521690665,1.2861686098222553,0.9813584256421559,0.2841769506003884,0.7388632868380032
0.066,1.6919206283004837,1.0,2671.19616065972,0.5242653990598337,1.2854681259929408,0.981510140100631,0.28411366638862035,0.7401401436290768
0.0665,1.6904138613536248,1.0,2673.606478845606,0.5269338930816967,1.2847655088993342,0.9816585594224482,0.28405038217685225,0.7414177453485435
0.067,1.6889070944067657,1.0,2676.2284585581992,0.5295874188202372,1.2840609587684626,0.9818037822288023,0.28398709796508415,0.7426957005852737
0.0675,1.6874003274599068,1.0,2679.0432867077598,0.5322260608492508,1.2833546510466933,0.9819459025952296,0.2839238137533161,0.7439736662315264
0.068,1.6858935605130476,1.0,2682.0330028526555,0.5348499035695309,1.2826467531948664,0.9820850110275505,0.283860529541548,0.7452513166721948
0.0685,1.6843867935661887,1.0,2685.1850541556787,0.5374590288448655,1.2819373829090694,0.9822211924773644,0.2837972453297799,0.7465284187448493
0.069,1.6828800266193298,1.0,2688.4868728390725,0.5400535185390429,1.2812266578853906,0.9823545290640993,0.28373396111801186,0.7478047413731297
0.0695,1.6813732596724706,1.0,2691.9258724955175,0.542633454515851,1.2805146958199176,0.9824851001918631,0.28367067690624376,0.7490800555773569
0.07,1.6798664927256117,1.0,2695.4894447070333,0.5451989186390781,1.279801614408738,0.9826129826607364,0.28360739269447566,0.7503541344842598
0.07050000000000001,1.6783597257787528,1.0,2699.1653412310475,0.5477499924882521,1.2790875278264415,0.9827382505928917,0.2835441084827076,0.7516267596037157
0.07100000000000001,1.6768529588318937,1.0,2702.94384828375,0.5502867563577905,1.2783725268528734,0.9828609745685362,0.2834808242709395,0.7528977560380941
0.07150000000000001,1.6753461918850348,1.0,2706.8132022168847,0.5528092926338058,1.2776567207788656,0.9829812238718709,0.28341754005917147,0.7541669177497674
0.07200000000000001,1.6738394249381756,1.0,2710.7664992897526,0.5553176799180374,1.2769401742989082,0.9830990633429234,0.28335425584740337,0.7554341194492677
0.0725,1.6723326579913167,1.0,2714.7968189340586,0.5578119968122242,1.2762229521074913,0.9832145557678896,0.2832909716356353,0.756699237018567
0.073,1.6708258910444578,1.0,2718.897222737993,0.5602923219181056,1.2755051188991045,0.9833277619593406,0.2832276874238672,0.7579621475139997
0.0735,1.6693191240975986,1.0,2723.060753523574,0.5627587338374207,1.2747867393682382,0.9834387408328091,0.2831644032120991,0.7592227291689158
0.074,1.6678123571507397,1.0,2727.2804345167797,0.5652113111719087,1.2740678782093822,0.9835475494799456,0.2831011190003311,0.7604808613960691
