Time [s],Phi [rad],STIM [ ],Fsee [N],Gamma [ ],Lcerel [ ],q [ ],Lmtc [m],fisomrel [ ]
0.0,1.8,1.0,18.5436271245529,0.0007745871938618862,1.3792756723064863,0.005154461943972894,0.288653,0.5412945293254554
0.0005,1.79999375,1.0,19.08499778021353,0.006379451681098098,1.3792135777845722,0.015198724431140648,0.2886527375,0.5414447143616844
0.001,1.799975,1.0,22.994749122588576,0.01195287731003519,1.3787998954042606,0.0397034024390787,0.28865195,0.5424446404391621
0.0015,1.79994375,1.0,33.71930603063261,0.01749504042850504,1.377825046313484,0.07613407735181384,0.2886506375,0.5447966657468548
0.002,1.7999,1.0,58.74114830454087,0.023006116393776203,1.3760411473454683,0.1212230604607124,0.2886488,0.5490849984155095
0.0025,1.79984375,1.0,105.32769983717058,0.028486279580413314,1.3735476294542,0.17162203130001755,0.28864643749999996,0.5550451802587619
0.003,1.7997750000000001,1.0,171.34744888132028,0.033935703385123486,1.3708315435571437,0.2245311991202198,0.28864354999999997,0.5614922394866909
0.0035,1.79969375,1.0,249.26564184969604,0.039354560230470764,1.3682322119583459,0.2778108312835055,0.2886401375,0.5676181061105352
0.004,1.7996,1.0,333.69783849394554,0.04474302157383629,1.3658351623089826,0.32987562110478813,0.2886362,0.5732290625585471
0.0045000000000000005,1.7994937500000001,1.0,421.8720533266151,0.05010125791284317,1.3636291867257813,0.3796344294378227,0.2886317375,0.5783603780648818
0.005,1.799375,1.0,512.2259814213171,0.055429438775493514,1.361587802459015,0.4264176482523014,0.28862675,0.5830811897731518
0.0055,1.79924375,1.0,603.6837777682842,0.06072773276053415,1.3596882896310303,0.46988331338183015,0.2886212375,0.587450045606837
0.006,1.7991000000000001,1.0,695.3944865057201,0.06599630750593877,1.357913450108726,0.5099252162734027,0.2886152,0.5915113591558308
0.006500000000000001,1.79894375,1.0,786.6550614608648,0.07123532968836663,1.3562500888796942,0.5465955999240837,0.2886086375,0.5952993436645726
0.007,1.798775,1.0,876.8894570175254,0.07644496516575461,1.354687542589179,0.5800457490095795,0.28860155,0.5988416681506677
0.0075,1.79859375,1.0,965.6149404390076,0.08162537858275357,1.3532171027225621,0.610483282690403,0.2885939375,0.6021609641080325
0.008,1.7984,1.0,1052.4640953101084,0.08677673412259264,1.3518309306556047,0.6381422412581719,0.2885858,0.6052774114604946
0.0085,1.79819375,1.0,1137.1230031849152,0.09189919461931222,1.3505225089233255,0.6632640501015272,0.2885771375,0.6082078148536263
0.009000000000000001,1.797975,1.0,1219.3512328586376,0.09699292193051565,1.3492859391131617,0.6860849496094571,0.28856795,0.6109672600058567
0.0095,1.79774375,1.0,1298.9932490664544,0.10205807767172427,1.348115542501557,0.7068286463632923,0.2885582375,0.6135700544287204
0.01,1.7975,1.0,1375.9223151374927,0.10709482209488976,1.34700642223619,0.7257028607254554,0.288548,0.616028516986094
0.0105,1.79724375,1.0,1450.043785384798,0.11210331405806959,1.3459542125991295,0.7428975995039819,0.2885372375,0.6183535803090443
0.011,1.796975,1.0,1521.3153562155064,0.11708371199533438,1.344954684215866,0.758584773506167,0.28852595000000003,0.6205556946349879
0.0115,1.79669375,1.0,1589.742475554195,0.1220361744188764,1.3440037142920473,0.7729188535913104,0.2885141375,0.6226449124785569
0.012,1.7964,1.0,1655.3239429048122,0.12696085770615037,1.3430978493686476,0.7860382400680828,0.28850180000000003,0.6246296739751556
0.0125,1.79609375,1.0,1718.068754876586,0.1318579169921,1.3422339959497243,0.7980664349575834,0.2884889375,0.6265175128070285
0.013000000000000001,1.7957750000000001,1.0,1778.0215948982527,0.136727507411669,1.3414090605393354,0.809113300676436,0.28847555,0.6283158589976034
0.0135,1.79544375,1.0,1835.2418527931789,0.14156978305013207,1.3406201471543386,0.8192765441353568,0.2884616375,0.6300316178334079
0.014,1.7951000000000001,1.0,1889.8095098995093,0.14638489828478254,1.3398644464368723,0.8286429978715864,0.2884472,0.6316714223474438
0.0145,1.79474375,1.0,1941.7762614963578,0.15117300439575973,1.339139728720888,0.8372900153804909,0.2884322375,0.6332405752650592
0.015,1.794375,1.0,1991.2119818316028,0.1559342525213572,1.338443788467472,0.845286366621958,0.28841675,0.6347442667340085
0.0155,1.79399375,1.0,2038.2009707511206,0.1606687934325919,1.3377744638799667,0.8526932502368395,0.2884007375,0.6361875368322739
0.016,1.7936,1.0,2082.8335671609493,0.16537677744843607,1.3371297048585875,0.8595652089080303,0.2883842,0.6375751342537044
0.0165,1.7931937500000001,1.0,2125.2015302087793,0.17005835454346802,1.3365075995868108,0.8659509244000941,0.2883671375,0.6389114649882738
0.017,1.792775,1.0,2165.3723208932083,0.17471367152107137,1.335906617002031,0.871893976643707,0.28834955,0.6402000786168712
0.0175,1.7923437500000001,1.0,2203.423945551676,0.17934287518462969,1.3353252260416433,0.8774333364488888,0.2883314375,0.6414444922835487
0.018000000000000002,1.7919,1.0,2239.4440731869317,0.18394611233752653,1.334761895643042,0.8826039071075478,0.2883128,0.6426481926832814
0.0185,1.79144375,1.0,2273.5145147389167,0.1885235282076943,1.3342152410490455,0.8874370355733318,0.2882936375,0.6438143260539808
0.019,1.790975,1.0,2305.733749236793,0.19307526997784635,1.333683788199289,0.8919608658533531,0.28827395,0.6449462037403448
0.0195,1.79049375,1.0,2336.172557150556,0.19760148073440764,1.333166406029519,0.8962008067060506,0.2882537375,0.6460463835885641
0.02,1.79,1.0,2364.8990024787845,0.20210230255562095,1.3326620456342424,0.9001797789767357,0.288233,0.6471172302118662
0.0205,1.78949375,1.0,2391.986173667132,0.2065778775197291,1.332169658107966,0.9039184757845407,0.2882117375,0.6481610913024137
0.021,1.788975,1.0,2417.511761690386,0.21102834770497483,1.3316881945451968,0.907435609399126,0.28818995000000003,0.6491802984673076
0.021500000000000002,1.78844375,1.0,2441.544880662707,0.21545385324053742,1.3312167288829448,0.9107481528376254,0.2881676375,0.650176908507914
0.022,1.7879,1.0,2464.1691080418273,0.21985453698483187,1.3307542310906144,0.9138714832426295,0.2881448,0.6511531843611493
0.0225,1.78734375,1.0,2485.445579586714,0.224230537509278,1.3302999179681163,0.9168196184717045,0.28812143749999997,0.6521108551985193
0.023,1.786775,1.0,2505.4290541555906,0.22858199185649575,1.3298530927378276,0.9196053289867975,0.28809755,0.6530514579441649
0.0235,1.78619375,1.0,2524.176653395397,0.23290903706910518,1.329413058622124,0.9222402515555085,0.28807313749999996,0.6539765204375545
0.024,1.7856,1.0,2541.7476642364786,0.23721181018972634,1.3289791188433822,0.9247350055487437,0.2880482,0.6548875617507393
0.0245,1.78499375,1.0,2558.203352151232,0.24149044826097926,1.3285505766239787,0.9270992959064616,0.2880227375,0.6557860924746528
0.025,1.784375,1.0,2573.5955780444688,0.2457450846648402,1.328126840094936,0.929342020613815,0.28799675,0.6566733954378582
0.025500000000000002,1.78374375,1.0,2587.9933843689096,0.2499758591066641,1.3277071711158404,0.93147131256746,0.2879702375,0.6575510522935375
0.026000000000000002,1.7831000000000001,1.0,2601.4381078569927,0.25418290327634835,1.327291103856797,0.9334946759246883,0.2879432,0.6584200680363501
0.0265,1.78244375,1.0,2613.9721810637366,0.2583663488606357,1.3268781725836591,0.9354190055697286,0.2879156375,0.65928144224607
0.027,1.781775,1.0,2625.639049485917,0.26252632754626887,1.3264679115622804,0.9372506447320655,0.28788755,0.6601361693882751
0.0275,1.7810937500000001,1.0,2636.483083292187,0.2666629710199905,1.3260598550585143,0.9389954364671976,0.2878589375,0.660985238900576
0.028,1.7804,1.0,2646.549493862341,0.2707764109685433,1.325653537338214,0.940658769707844,0.2878298,0.6618296352650145
0.0285,1.77969375,1.0,2655.8697513626885,0.2748667741836595,1.325248626315831,0.9422456377646283,0.2878001375,0.6626700608407684
0.029,1.778975,1.0,2664.4983752997414,0.2789341965251025,1.3248445833252862,0.9437606310316297,0.28776995,0.6635076424879502
0.029500000000000002,1.7782437500000001,1.0,2672.4747620253115,0.28297880768372474,1.324441014850139,0.9452080156978686,0.2877392375,0.6643432011575632
0.03,1.7775,1.0,2679.827210270631,0.28700073314615027,1.3240376339113658,0.94659175720268,0.287708,0.6651773335750119
0.0305,1.77674375,1.0,2686.5844244355267,0.29100009839900304,1.3236341535299423,0.9479155334117605,0.2876762375,0.6660106335107071
0.031,1.775975,1.0,2692.7754783895252,0.2949770289289071,1.3232302867268444,0.9491827590856228,0.28764395,0.6668436917808737
0.0315,1.7751937500000001,1.0,2698.4297810985836,0.29893165022248636,1.3228257465230484,0.9503966079792155,0.2876111375,0.6676770962431011
0.032,1.7744,1.0,2703.5770440779243,0.3028640877663648,1.3224202459395302,0.95156003282764,0.2875778,0.6685114317866481
0.0325,1.77359375,1.0,2708.247250671241,0.3067744670471665,1.3220134979972658,0.9526757834429269,0.2875439375,0.6693472803174902
0.033,1.772775,1.0,2712.467148253497,0.3106629115163602,1.3216052474382523,0.9537464262440872,0.28750955,0.6701851556765961
0.0335,1.7719437500000002,1.0,2716.260955083142,0.3145295438800529,1.321195263927221,0.9547743584350488,0.2874746375,0.671025517955111
0.034,1.7711000000000001,1.0,2719.6613791227032,0.31837449211167534,1.32078324142891,0.95576181163707,0.2874392,0.6718689796503878
0.0345,1.7702437500000001,1.0,2722.6865062972156,0.32219787527526444,1.3203690085816133,0.9567108842911051,0.2874032375,0.6727158748100579
0.035,1.7693750000000001,1.0,2725.3545455324925,0.325999812434857,1.3199523940236255,0.9576235395069841,0.28736675,0.6735665355821132
0.035500000000000004,1.76849375,1.0,2727.6838160312655,0.32978042265448976,1.3195332263932407,0.9585016153563855,0.2873297375,0.6744212921898151
0.036000000000000004,1.7676,1.0,2729.6927351989793,0.33353982499819956,1.3191113343287537,0.95934683426989,0.2872922,0.675280472904727
0.0365,1.76669375,1.0,2731.399807222123,0.3372781385300232,1.3186865464684585,0.9601608116253473,0.2872541375,0.6761444040178797
0.037,1.765775,1.0,2732.82361229638,0.3409954823139975,1.3182586914506498,0.9609450636054508,0.28721555,0.6770134098090566
0.0375,1.76484375,1.0,2733.982796506692,0.34469197541415925,1.317827597913622,0.9617010143941478,0.2871764375,0.6778878125142125
0.038,1.7639,1.0,2734.885965187518,0.3483677253251971,1.3173931861846293,0.9624300091709804,0.28713679999999997,0.678767746695055
0.0385,1.76294375,1.0,2735.563199591655,0.35202286481223566,1.3169551819862397,0.9631333001701723,0.28709663750000003,0.6796537391966507
0.039,1.761975,1.0,2736.026013612197,0.35565750715117217,1.3165134800240423,0.963812078051122,0.28705595,0.6805459724587697
0.0395,1.7609937500000001,1.0,2736.284955277737,0.35927176451044657,1.3160679840451774,0.964467465117483,0.2870147375,0.6814446092526067
0.04,1.76,1.0,2736.3505982268402,0.3628657490584989,1.3156185977967854,0.965100519400528,0.286973,0.6823498109846653
0.0405,1.7589937500000001,1.0,2736.233537860637,0.3664395729637691,1.3151652250260062,0.9657122390168121,0.2869307375,0.6832617376731724
0.041,1.757975,1.0,2735.9443877001,0.3699933483946972,1.3147077694799802,0.9663035661862557,0.28688795,0.6841805479239018
0.0415,1.75694375,1.0,2735.4937759492273,0.3735271875197233,1.3142461349058479,0.9668753909403708,0.2868446375,0.6851063989054071
0.042,1.7559,1.0,2734.8923422637054,0.37704120250728723,1.313780225050749,0.9674285545475015,0.28680079999999997,0.6860394463236648
0.0425,1.75484375,1.0,2734.1507347245824,0.38053550552582915,1.3133099436618243,0.9679638526793496,0.2867564375,0.686979844396124
0.043000000000000003,1.753775,1.0,2733.2796070173545,0.38401020874378894,1.3128351944862138,0.9684820383407745,0.28671155,0.6879277458251685
0.043500000000000004,1.75269375,1.0,2732.2868375735816,0.38746541828686,1.3123559065113548,0.9689838256668384,0.28666613750000003,0.6888832514906562
0.044,1.7516,1.0,2731.181422450507,0.39090124726672226,1.3118719985946503,0.9694698915778757,0.2866202,0.6898464811625589
0.0445,1.75049375,1.0,2729.973109598836,0.39431781040541025,1.311383382761008,0.969940877510792,0.2865737375,0.6908175667739529
0.045,1.7493750000000001,1.0,2728.667754517554,0.39771521285549993,1.3108900064003401,0.9703973932196238,0.28652675,0.6917965686237133
0.0455,1.74824375,1.0,2727.271212587323,0.40109355976956756,1.3103918169025592,0.9708400174360116,0.2864792375,0.6927835459181382
0.046,1.7471,1.0,2725.789338069184,0.4044529563001893,1.3098887616575774,0.9712692997431085,0.2864312,0.6937785567548891
0.0465,1.7459437500000001,1.0,2724.227983164733,0.40779350759994126,1.309380788055307,0.9716857623189404,0.28638263750000004,0.6947816581067514
0.047,1.744775,1.0,2722.5929971375936,0.41111531882139957,1.3088678434856604,0.9720899015594694,0.28633355,0.6957929058052219
0.0475,1.74359375,1.0,2720.8902254965874,0.4144184951171404,1.3083498753385499,0.9724821895907203,0.28628393750000003,0.6968123545239182
0.048,1.7424,1.0,2719.125509239479,0.41770314163974,1.3078268310038876,0.9728630756785258,0.2862338,0.6978400577618112
0.0485,1.74119375,1.0,2717.3046841593427,0.4209693635417744,1.307298657871586,0.9732329875437078,0.2861831375,0.6988760678262818
0.049,1.739975,1.0,2715.4335802109094,0.42421726597581977,1.3067653033315572,0.973592332589858,0.28613195,0.6999204358160005
0.0495,1.73874375,1.0,2713.5175146950096,0.42744692721425376,1.306226719388813,0.9739414961840922,0.2860802375,0.70097320259045
0.05,1.7375,1.0,2711.5612514037407,0.43065848666165457,1.3056828630397133,0.9742808532537512,0.286028,0.702034398098992
0.0505,1.73624375,1.0,2709.5675184903234,0.4338520427050238,1.3051337097987887,0.9746107578383372,0.2859752375,0.7031040151289177
0.051000000000000004,1.734975,1.0,2707.5390152592086,0.4370276925805456,1.3045792354155368,0.9749315476842397,0.28592195,0.7041820451329306
0.051500000000000004,1.73369375,1.0,2705.478437768646,0.44018553352440415,1.3040194156394544,0.9752435452463173,0.2858681375,0.705268478680627
0.052000000000000005,1.7324,1.0,2703.388478662668,0.4433256627727837,1.3034542262200384,0.9755470585114601,0.2858138,0.7063633054502481
0.0525,1.73109375,1.0,2701.2718270167534,0.44644817756186833,1.3028836429067858,0.9758423817708578,0.28575893750000003,0.7074665142203911
0.053,1.729775,1.0,2699.131168196017,0.4495531751278424,1.3023076414491939,0.97612979634458,0.28570355000000003,0.7085780928616889
0.0535,1.72844375,1.0,2696.969183726692,0.45264075270689,1.3017261975967591,0.9764095712617996,0.2856476375,0.7096980283284486
0.054,1.7271,1.0,2694.7885511806903,0.45571100753519544,1.301139287098979,0.9766819638997292,0.2855912,0.7108263066502508
0.0545,1.7257437500000001,1.0,2692.591944072935,0.4587640368489428,1.3005468857053504,0.9769472205841053,0.2855342375,0.7119629129235174
0.055,1.724375,1.0,2690.3820317718973,0.46179993788431634,1.2999489691653703,0.9772055771538376,0.28547675,0.7131078313030349
0.0555,1.72299375,1.0,2688.1614794233687,0.46481880787750024,1.2993455132285356,0.977457259492242,0.2854187375,0.7142610449934458
0.056,1.7216,1.0,2685.9329478868135,0.4678207440646787,1.2987364936443433,0.977702484027096,0.2853602,0.7154225362406992
0.0565,1.72019375,1.0,2683.6990936851853,0.47080584368203593,1.2981218861622905,0.9779414582015872,0.28530113749999997,0.716592286323464
0.057,1.718775,1.0,2681.456349181905,0.4737741737948235,1.2975017235715691,0.9781743814807543,0.28524155,0.7177701673212553
0.0575,1.71734375,1.0,2679.204867650697,0.47672583173767824,1.2968760045789638,0.9784014459933059,0.2851814375,0.7189561157692317
0.058,1.7159,1.0,2676.9551969083273,0.4796609587096996,1.2962446324842403,0.9786228345317823,0.2851208,0.7201502478452724
0.0585,1.71444375,1.0,2674.7078414397856,0.48257964206281906,1.2956076026450782,0.9788387229683978,0.2850596375,0.7213525040128492
0.059000000000000004,1.7129750000000001,1.0,2672.46330488142,0.48548196914896813,1.294964910419157,0.9790492801876167,0.28499795,0.7225628240478914
0.059500000000000004,1.71149375,1.0,2670.222090022736,0.4883680273200783,1.294316551164156,0.9792546684166545,0.2849357375,0.7237811470371072
0.06,1.71,1.0,2667.9846988078866,0.4912379039280811,1.293662520237755,0.9794550435378512,0.284873,0.7250074113763079
0.0605,1.7084937500000001,1.0,2665.751632338877,0.4940916863249081,1.293002812997633,0.9796505553840432,0.2848097375,0.7262415547687313
0.061,1.7069750000000001,1.0,2663.5233908778146,0.49692946186249065,1.2923374248014698,0.9798413480179887,0.28474595,0.7274835142233578
0.0615,1.7054437500000001,1.0,2661.3004738507834,0.4997513178927604,1.291666351006945,0.9800275599968118,0.2846816375,0.728733226053232
0.062,1.7039,1.0,2659.0833798517924,0.5025573417676488,1.290989586971738,0.9802093246223841,0.2846168,0.7299906258737797
0.0625,1.70234375,1.0,2656.8726066468557,0.5053476208390875,1.2903071280535283,0.9803867701784901,0.2845514375,0.7312556486011235
0.063,1.7007750000000001,1.0,2654.6686511791963,0.5081222424590077,1.2896189696099951,0.9805600201555612,0.28448555,0.7325282284503978
0.0635,1.69919375,1.0,2652.4720095745024,0.5108812939793411,1.2889251069988181,0.9807291934637274,0.28441913750000003,0.733808298934061
0.064,1.6976,1.0,2650.2831771464735,0.5136248627520192,1.288225535577677,0.9808944046348647,0.2843522,0.735095792860208
0.0645,1.69599375,1.0,2648.102648403746,0.5163530361289735,1.2875202507042511,0.9810557640142917,0.2842847375,0.7363906423308819
0.065,1.694375,1.0,2645.9309170561332,0.5190659014621356,1.2868092477362196,0.9812133779427092,0.28421675,0.737692778740382
0.0655,1.69274375,1.0,2643.7684760220245,0.5217635461034369,1.2860925220312625,0.9813673489289542,0.2841482375,0.7390021327735703
0.066,1.6911,1.0,2641.615817436322,0.5244460574048089,1.285370068947059,0.9815177758140855,0.2840792,0.7403186344041797
0.0665,1.6894437500000001,1.0,2639.473432658634,0.527113522718183,1.2846418838412885,0.9816647539273026,0.2840096375,0.7416422128931199
0.067,1.687775,1.0,2637.341812281491,0.529766029395491,1.2839079620716307,0.981808375234154,0.28393955,0.7429727967867777
0.0675,1.68609375,1.0,2635.221446140333,0.5324036647886642,1.2831682989957651,0.9819487284774693,0.2838689375,0.744310313915322
0.068,1.6844000000000001,1.0,2633.10631414264,0.535026509970223,1.2824229502105704,0.9820859017746854,0.2837978,0.7456545828901712
0.0685,1.68269375,1.0,2631.018039263958,0.5376346439671852,1.2816717154774389,0.9822199679664166,0.2837261375,0.7470058823341733
0.069,1.680975,1.0,2628.945911077269,0.5402281484656792,1.2809146937076377,0.9823510115833081,0.28365395,0.7483639504436994
0.0695,1.67924375,1.0,2626.8783838250265,0.5428071050977838,1.2801519917101332,0.9824791146777783,0.28358123749999997,0.7497285125664717
0.07,1.6775031765913528,1.0,2624.9587029238696,0.5453715954955778,1.279383716293892,0.9826043565656168,0.2835081334168368,0.7510992955032338
0.07050000000000001,1.6757620880886355,1.0,2623.6046292959722,0.5479217009359246,1.278609970593008,0.9827268137464338,0.2834350076997227,0.7524760340757755
0.07100000000000001,1.674020999585918,1.0,2622.7913655007887,0.5504575026214441,1.277831213114005,0.9828465765015202,0.2833618819826086,0.7538578348839295
0.07150000000000001,1.672279911083201,1.0,2622.466929929807,0.5529790810385744,1.277047923562402,0.9829637332194744,0.28328875626549443,0.7552437756688823
0.07200000000000001,1.6705388225804836,1.0,2622.5951320190056,0.5554865152668,1.2762604366923278,0.9830783629207903,0.2832156305483803,0.7566331987199119
0.0725,1.6687977340777664,1.0,2623.139901335686,0.5579798843856059,1.2754690872579117,0.9831905421847881,0.2831425048312662,0.7580254526954496
0.073,1.667056645575049,1.0,2624.0652576681637,0.5604592674744765,1.2746742100132824,0.9833003452502035,0.2830693791141521,0.7594198927091175
0.0735,1.6653155570723317,1.0,2625.338586101204,0.5629247429382436,1.2738761091043675,0.9834078427099858,0.28299625339703793,0.7608159338707033
0.074,1.6635744685696146,1.0,2626.9269970818054,0.5653763897249293,1.2730750916093683,0.9835131031973918,0.2829231276799238,0.7622129921636962
0.0745,1.6618333800668972,1.0,2628.8056758287617,0.5678142849792452,1.2722713900088016,0.9836161899223103,0.2828500019628097,0.7636106192049587
