Time [s],Phi [rad],STIM [ ],Fsee [N],Gamma [ ],Lcerel [ ],q [ ],Lmtc [m],fisomrel [ ]
0.0,1.8,1.0,17.965789576613748,1.5208521494370823e-05,1.379339899550599,0.005000061441719105,0.288653,0.541139160105043
0.0005,1.79999375,1.0,18.277003366027497,0.005624332522513015,1.3793023589953144,0.012954983579541713,0.2886527375,0.5412299759585129
0.001,1.799975,1.0,21.622579555280034,0.011201993772781239,1.3789378733708582,0.035635733655451064,0.28865195,0.5421112503991438
0.0015,1.79994375,1.0,31.081591908920494,0.01674836875432243,1.3780451511529663,0.07063888132740913,0.2886506375,0.5442661469698049
0.002,1.7999,1.0,53.61090742973696,0.022263632957495748,1.3763662817290383,0.11476186586456412,0.2886488,0.5483049170199559
0.0025,1.79984375,1.0,97.16807512189011,0.02774796088860488,1.3739327997413227,0.16462257310452938,0.28864643749999996,0.554127108665867
0.003,1.7997750000000001,1.0,161.02290287040034,0.03320152607755981,1.3712119208679199,0.21732964120383644,0.28864354999999997,0.5605921868799401
0.0035,1.79969375,1.0,237.75692620461396,0.03862450107751028,1.3685824674983458,0.27066180890920083,0.2886401375,0.5667951678980577
0.004,1.7996,1.0,321.5453782901575,0.04401705747561753,1.3661540105255288,0.3229631688652155,0.2886362,0.5724848232655324
0.0045000000000000005,1.7994937500000001,1.0,409.3493924284992,0.04937936589824145,1.3639208978216801,0.3730794709119021,0.2886317375,0.5776836101041526
0.005,1.799375,1.0,499.49698871524214,0.054711596002048474,1.3618565683812451,0.42028952714993395,0.28862675,0.5824611732122107
0.0055,1.79924375,1.0,590.8747974590528,0.06001391652121938,1.3599371865100094,0.46421264518904537,0.2886212375,0.5868788959415139
0.006,1.7991000000000001,1.0,682.6027288802188,0.06528649521124942,1.3581448766186721,0.5047157540729662,0.2886152,0.5909829316064927
0.006500000000000001,1.79894375,1.0,773.9678724759972,0.07052949890434441,1.3564657750903386,0.5418334606135545,0.2886086375,0.5948091555779469
0.007,1.798775,1.0,864.3729354294763,0.07574309349084514,1.3548889876964132,0.5757065667092545,0.28860155,0.5983858622825737
0.0075,1.79859375,1.0,953.3297888184446,0.08092744393835653,1.353405447632896,0.6065369987191719,0.2885939375,0.6017365739266338
0.008,1.7984,1.0,1040.4400134760422,0.08608271420043377,1.3520074455778757,0.6345566959568127,0.2885858,0.6048812444443206
0.0085,1.79819375,1.0,1125.4026342427674,0.09120906761843872,1.350687990008836,0.6600067476432876,0.2885771375,0.6078377986720744
0.009000000000000001,1.797975,1.0,1207.9686608697086,0.09630666623514002,1.3494410993621024,0.6831246045760905,0.28856795,0.610621549989175
0.0095,1.79774375,1.0,1287.9519808726277,0.10137567118741975,1.348261332827484,0.7041360893412824,0.2885582375,0.6132463139579862
0.01,1.7975,1.0,1365.2374249900456,0.10641624318208966,1.3471434807726148,0.7232510905200701,0.288548,0.6157251395314836
0.0105,1.79724375,1.0,1439.7327053910856,0.11142854156461972,1.3460830301673388,0.7406620025159177,0.2885372375,0.6180693119585232
0.011,1.796975,1.0,1511.3809087444902,0.11641272459029367,1.345075836670588,0.7565432059171183,0.28852595000000003,0.6202891165372886
0.0115,1.79669375,1.0,1580.1764941705085,0.12136895044920537,1.3441178202499657,0.7710514899094617,0.2885141375,0.6223945337576922
0.012,1.7964,1.0,1646.1290219646169,0.12629737640167882,1.343205322088348,0.7843272951426167,0.28850180000000003,0.6243944735020195
0.0125,1.79609375,1.0,1709.242133557732,0.1311981574453722,1.342335251882887,0.7964960747022817,0.2884889375,0.6262964774179856
0.013000000000000001,1.7957750000000001,1.0,1769.5555771959723,0.13607144857794362,1.3415045193307351,0.8076694484329265,0.28847555,0.6281079823873839
0.0135,1.79544375,1.0,1827.1259169841344,0.14091740400418368,1.3407102130286397,0.8179466876390247,0.2884616375,0.6298359398532493
0.014,1.7951000000000001,1.0,1882.0354498722065,0.14573617838974154,1.3399494571344193,0.8274159971862508,0.2884472,0.631487138373768
0.0145,1.79474375,1.0,1934.3426766487844,0.1505279235715573,1.339219915419059,0.8361559342240705,0.2884322375,0.633067120481781
0.015,1.794375,1.0,1984.1090774780635,0.1552927903618146,1.3385194460414358,0.8442363905809831,0.28841675,0.6345809459559931
0.0155,1.79399375,1.0,2031.414631664877,0.16003092957269702,1.3378459071604274,0.8517195401138438,0.2884007375,0.6360336193078695
0.016,1.7936,1.0,2076.345156591289,0.16474249116284884,1.3371972722324734,0.8586607856898778,0.2883842,0.6374298456600103
0.0165,1.7931937500000001,1.0,2118.997238209225,0.1694276255859635,1.3365715578797348,0.8651095393654323,0.2883671375,0.6387741914107409
0.017,1.792775,1.0,2159.447885000174,0.17408648057999496,1.3359671184060944,0.871110013919938,0.28834955,0.6400704571106677
0.0175,1.7923437500000001,1.0,2197.7708257466356,0.17871920262529423,1.335382453618952,0.876701778871588,0.2883314375,0.6413220975909806
0.018000000000000002,1.7919,1.0,2234.049448840162,0.1833259382022124,1.3348160633257076,0.8819202659168628,0.2883128,0.6425325374332774
0.0185,1.79144375,1.0,2268.37045960375,0.18790683312986498,1.3342665023937674,0.8867972659730808,0.2882936375,0.643705055412747
0.019,1.790975,1.0,2300.8222431844206,0.19246203321578806,1.3337323873795566,0.8913613524369824,0.28827395,0.6448427730036403
0.0195,1.79049375,1.0,2331.4904118326754,0.1969916836256463,1.3332124314297848,0.8956382573612296,0.2882537375,0.6459485827189124
0.02,1.79,1.0,2360.439811185146,0.2014959262030647,1.3327056110688515,0.8996512299418692,0.288233,0.6470247970768561
0.0205,1.78949375,1.0,2387.7402968397887,0.2059749027916682,1.3322109028211548,0.9034212549340052,0.2882117375,0.6480737118837794
0.021,1.788975,1.0,2413.466319795727,0.2104287552350818,1.331727283211094,0.9069673040104717,0.28818995000000003,0.649097607057993
0.021500000000000002,1.78844375,1.0,2437.692115434655,0.21485762452631177,1.3312537712728474,0.9103065649791301,0.2881676375,0.6500986575813652
0.022,1.7879,1.0,2460.4906258499,0.21926165154072527,1.3307894343560118,0.9134546363262864,0.2881448,0.6510789225715234
0.0225,1.78734375,1.0,2481.9356635109825,0.22364097743632005,1.3303333632906749,0.9164256919238182,0.28812143749999997,0.6520403989064765
0.023,1.786775,1.0,2502.0819070335488,0.22799573901819467,1.3298848590096488,0.9192326645127813,0.28809755,0.6529846294521178
0.0235,1.78619375,1.0,2520.9864262982683,0.23232607309144762,1.3294432224457464,0.9218873363960557,0.28807313749999996,0.6539131479099568
0.024,1.7856,1.0,2538.7084830918725,0.2366321164611775,1.3290077545317798,0.9244004576648251,0.2880482,0.6548274791388908
0.0245,1.78499375,1.0,2555.309342582481,0.2409140059324828,1.3285777562005614,0.9267818508519181,0.2880227375,0.655729139445805
0.025,1.784375,1.0,2570.8414102872757,0.24517187586048686,1.3281526284627079,0.9290405197552554,0.28799675,0.656619427401199
0.025500000000000002,1.78374375,1.0,2585.367229646408,0.24940586419637165,1.3277316920111473,0.9311847023541212,0.2879702375,0.6574998024601738
0.026000000000000002,1.7831000000000001,1.0,2598.9384085739343,0.2536161054450886,1.3273143833091765,0.9332219743903887,0.2879432,0.658371474741497
0.0265,1.78244375,1.0,2611.595450147227,0.2578027309115776,1.3269002534274912,0.9351593123739418,0.2879156375,0.659235409148731
0.027,1.781775,1.0,2623.3798621986034,0.26196587190077847,1.326488853436787,0.9370031334751239,0.28788755,0.6600925656298862
0.0275,1.7810937500000001,1.0,2634.3340717204564,0.2661056597176309,1.3260797344077593,0.9387593478200367,0.2878589375,0.6609438992620063
0.028,1.7804,1.0,2644.5013437388357,0.27022222566707477,1.3256724474111041,0.9404334052614529,0.2878298,0.6617903603229005
0.0285,1.77969375,1.0,2653.925704655516,0.27431570105404984,1.325266543517517,0.942030337268787,0.2878001375,0.662632894350023
0.029,1.778976255149039,1.0,2662.7122091684632,0.2783862126912182,1.3248615853405388,0.9435547944094744,0.28777000271625963,0.6634724182717853
0.029500000000000002,1.7782568568207509,1.0,2671.324585207274,0.28243389554014203,1.3244575008213033,0.9450111333614994,0.28773978798647154,0.6643090885229399
0.03,1.7775374584924628,1.0,2679.851196783498,0.28645887617951366,1.3240543306106627,0.946403401124179,0.28770957325668345,0.6651428278459035
0.0305,1.776818060164175,1.0,2688.2876974337473,0.2904612800834073,1.323652110157727,0.9477353487239767,0.28767935852689536,0.6659735701226102
0.031,1.776098661835887,1.0,2696.629722236337,0.2944412327258972,1.323250874911607,0.9490104575844469,0.28764914379710727,0.6668012495818898
0.0315,1.775379263507599,1.0,2704.8728885716805,0.29839885958105755,1.322850660321413,0.950231962264726,0.2876189290673191,0.667625800797282
0.032,1.774659865179311,1.0,2713.0127969109203,0.3023342861229626,1.3224515018362553,0.9514028710170367,0.2875887143375311,0.6684471586847687
0.0325,1.773940466851023,1.0,2721.0450316312317,0.3062476378256865,1.3220534349052442,0.9525259843957377,0.28755849960774293,0.6692652585004262
0.033,1.7732210685227352,1.0,2728.969668038533,0.310139027925464,1.321656454014042,0.9536039038558374,0.2875282848779549,0.6700801198696187
0.0335,1.7725016701944472,1.0,2736.7819850050346,0.31400859060068614,1.3212605972914773,0.9546390669395297,0.28749807014816675,0.6708916729206738
0.034,1.771782271866159,1.0,2744.478007289898,0.3178564590282603,1.3208658959620467,0.9556337481315534,0.28746785541837866,0.6716998622719166
0.0345,1.7710628735378713,1.0,2752.059013215215,0.32168275084560044,1.3204723335973927,0.9565900634598725,0.28743764068859057,0.6725047302252598
0.035,1.7703434752095832,1.0,2759.5262998204435,0.32548758369012043,1.3200798937691574,0.9575099921982311,0.2874074259588025,0.6733063188926178
0.035500000000000004,1.7696240768812952,1.0,2766.881182450903,0.32927107519923426,1.319688560048983,0.9583953872953199,0.2873772112290144,0.6741046701970913
0.036000000000000004,1.7689046785530074,1.0,2774.1249943514313,0.333033343010356,1.3192983160085117,0.9592479848942772,0.2873469964992263,0.6748998258741347
0.0365,1.7681852802247193,1.0,2781.259086266817,0.3367745047608994,1.318909145219386,0.9600694130312535,0.2873167817694382,0.675691827472706
0.037,1.7674658818964313,1.0,2788.2848260478177,0.34049467808827866,1.3185210312532478,0.9608611995922681,0.2872865670396501,0.6764807163564015
0.0375,1.7667464835681435,1.0,2795.203598263163,0.3441939806299076,1.3181339576817397,0.9616247795991638,0.287256352309862,0.6772665337045698
0.038,1.7660270852398554,1.0,2802.0168038175416,0.34787253002320023,1.317747908076504,0.9623615018880337,0.2872261375800739,0.6780493205134106
0.0385,1.7653076869115676,1.0,2808.7258595759704,0.35153044390557053,1.3173628660091825,0.9630726352368953,0.28719592285028583,0.6788291175970589
0.039,1.7645882885832795,1.0,2815.332197993351,0.35516783991443246,1.316978815051418,0.9637593739935484,0.28716570812049774,0.6796059655886448
0.0395,1.7638688902549915,1.0,2821.83726675084,0.3587848356872,1.3165957387748524,0.9644228432493528,0.28713549339070965,0.6803799049413439
0.04,1.7631494919267037,1.0,2828.2420672884155,0.36238151666661284,1.3162136248686216,0.9650640980023818,0.28710527866092156,0.6811509676257865
0.0405,1.7624300935984156,1.0,2834.5512655029956,0.3659580382518847,1.3158324284475182,0.9656841435054324,0.28707506393113347,0.6819192510871916
0.041,1.7617106952701276,1.0,2840.7670298339126,0.36951451159414883,1.3154521271295203,0.9662839225295111,0.2870448492013454,0.682684807045475
0.0415,1.7609912969418398,1.0,2846.8914182330736,0.3730510448030614,1.315072699662096,0.9668643252358239,0.2870146344715573,0.6834476847182354
0.042,1.7602718986135517,1.0,2852.926504094207,0.3765677459882786,1.3146941247927135,0.9674261930767613,0.28698441974176914,0.6842079331025129
0.0425,1.7595525002852637,1.0,2858.8743758463766,0.3800647232594566,1.3143163812688408,0.9679703219615602,0.2869542050119811,0.684965600975959
0.043000000000000003,1.7588331019569758,1.0,2864.7371365564727,0.3835420847262517,1.3139394478379463,0.9684974651851863,0.28692399028219295,0.6857207368979765
0.043500000000000004,1.7581137036286878,1.0,2870.5169035435642,0.38699993849832004,1.3135633032474976,0.9690083361403663,0.2868937755524049,0.686473389210835
0.044,1.7573943053004,1.0,2876.215808001077,0.3904383926853178,1.3131879262449633,0.9695036108308477,0.28686356082261677,0.6872236060407508
0.0445,1.756674906972112,1.0,2881.835994631046,0.39385755539690137,1.3128132955778113,0.9699839302022927,0.2868333460928287,0.687971435298944
0.045,1.7559555086438239,1.0,2887.3796212868233,0.3972575347427268,1.31243938999351,0.9704499023057168,0.2868031313630406,0.6887169246826637
0.0455,1.755236110315536,1.0,2892.8488586267176,0.4006384388324503,1.3120661882395273,0.9709021043070246,0.2867729166332525,0.6894601216761861
0.046,1.754516711987248,1.0,2898.2458897771726,0.4040003757757281,1.3116936690633314,0.9713410843549891,0.2867427019034644,0.6902010735517807
0.0465,1.75379731365896,1.0,2903.572910006161,0.40734345368221647,1.3113218112123906,0.9717673633189182,0.2867124871736763,0.6909398273706526
0.047,1.7530779153306721,1.0,2908.8321264066994,0.4106677806615715,1.3109505934341728,0.9721814364062598,0.2866822724438882,0.6916764299838514
0.0475,1.752358517002384,1.0,2914.025757590132,0.41397346482344954,1.310579994476146,0.9725837746695066,0.28665205771410013,0.6924109280331541
0.048,1.751639118674096,1.0,2919.1500817596957,0.4172605337090495,1.3102100453969983,0.972974819961742,0.28662184298431204,0.6931432644604345
0.0485,1.7509197203458082,1.0,2924.2146099597203,0.42052919231765923,1.309840660962241,0.9733550071264668,0.28659162825452394,0.6938736122910765
0.049,1.7502003220175202,1.0,2929.2210499924618,0.4237795436173628,1.3094718247208763,0.9737247424058882,0.28656141352473585,0.6946020079844746
0.0495,1.7494809236892324,1.0,2934.170651731241,0.42701168437965564,1.3091035243106017,0.9740844125560325,0.28653119879494776,0.695328479779226
0.05,1.7487615253609443,1.0,2939.064671748193,0.4302257113760333,1.3087357473691148,0.9744343864111695,0.28650098406515967,0.6960530557922007
0.0505,1.7480421270326563,1.0,2943.9043731691672,0.4334217213779913,1.308368481534113,0.9747750158751864,0.2864707693353716,0.6967757640189586
0.051000000000000004,1.7473227287043684,1.0,2948.6910255319053,0.43659981115702506,1.3080017144432938,0.9751066368495748,0.2864405546055835,0.6974966323341572
0.051500000000000004,1.7466033303760804,1.0,2953.4259046475813,0.4397600774846302,1.3076354337343548,0.9754295701026097,0.2864103398757954,0.6982156884919497
0.052000000000000005,1.7458839320477924,1.0,2958.110292465962,0.44290261713230217,1.3072696270449935,0.9757441220839357,0.2863801251460073,0.6989329601263732
0.0525,1.7451645337195045,1.0,2962.745476943485,0.44602752687153635,1.3069042820129075,0.9760505856884397,0.28634991041621916,0.6996484747517275
0.053,1.7444451353912165,1.0,2967.332751915705,0.4491349034738285,1.3065393862757944,0.976349240972975,0.2863196956864311,0.7003622597629444
0.0535,1.7437257370629284,1.0,2971.8734169712984,0.45222484371067395,1.3061749274713512,0.9766403558292366,0.28628948095664297,0.7010743424359465
0.054,1.7430063387346406,1.0,2976.3687773319025,0.4552974443535682,1.305810893237276,0.9769241866158176,0.28625926622685494,0.7017847499279954
0.0545,1.7422869404063526,1.0,2980.8201437330276,0.45835280217400687,1.305447271211266,0.9772009787522531,0.2862290514970668,0.7024935092780338
0.055,1.7415675420780645,1.0,2985.2288323099947,0.4613910139434854,1.305084049031019,0.9774709672776344,0.2861988367672787,0.7032006474070116
0.0555,1.7408481437497767,1.0,2989.5961644863733,0.4644121764334993,1.3047212143342322,0.9777343773761932,0.2861686220374906,0.703906191118211
0.056,1.7401287454214887,1.0,2993.9234668662552,0.467416386415544,1.304358754758603,0.9779914248720595,0.2861384073077025,0.7046101670975526
0.0565,1.7394093470932008,1.0,2998.2120711294315,0.4704037406611151,1.3039966579418296,0.9782423166952471,0.2861081925779144,0.7053126019138976
0.057,1.7386899487649128,1.0,3002.463313930681,0.4733743359417081,1.303634911521609,0.9784872513207583,0.28607797784812633,0.7060135220193389
0.0575,1.7379705504366247,1.0,3006.678536801697,0.4763282690288185,1.3032735031356386,0.978726419182567,0.28604776311833824,0.7067129537494827
0.058,1.737251152108337,1.0,3010.859086056906,0.47926563669394173,1.3029124204216165,0.9789600030641069,0.28601754838855015,0.7074109233237177
0.0585,1.7365317537800489,1.0,3015.0063127025496,0.48218653570857334,1.3025516510172395,0.9791881784667786,0.28598733365876206,0.70810745684548
0.059000000000000004,1.7358123554517608,1.0,3019.11923755539,0.48509101421836803,1.3021912027390203,0.9794111110211262,0.28595711892897396,0.7088025414130877
0.059500000000000004,1.735092957123473,1.0,3023.200293404939,0.4879792056982441,1.3018310539194045,0.9796289653442517,0.28592690419918587,0.7094962209499412
0.06,1.734373558795185,1.0,3027.251094609045,0.4908512190666085,1.3014711900186389,0.9798418979860779,0.2858966894693978,0.7101885254743168
0.0605,1.7336541604668971,1.0,3031.272241717841,0.49370714005535243,1.3011116052850977,0.9800500580679733,0.2858664747396097,0.7108794679930852
0.061,1.732934762138609,1.0,3035.2643375768234,0.4965470543963667,1.3007522939671554,0.9802535890297541,0.2858362600098216,0.7115690614588448
0.0615,1.732215363810321,1.0,3039.2279872914864,0.4993710478215423,1.3003932503131865,0.9804526288895257,0.2858060452800335,0.7122573187700232
0.062,1.7314959654820332,1.0,3043.163798193023,0.5021792060627702,1.300034468571565,0.9806473104897347,0.28577583055024536,0.7129442527709775
0.0625,1.7307765671537452,1.0,3047.072379804635,0.5049716148519413,1.2996759429906652,0.9808377617302665,0.2857456158204573,0.7136298762520905
0.063,1.7300571688254571,1.0,3050.954343807837,0.5077483599209467,1.2993176678188616,0.9810241057893592,0.2857154010906692,0.714314201949865
0.0635,1.7293377704971693,1.0,3054.8103040112323,0.5105095270016773,1.2989596373045282,0.9812064613330569,0.28568518636088114,0.7149972425470184
0.064,1.7286183721688813,1.0,3058.640876317735,0.513255201826024,1.2986018456960398,0.9813849427138782,0.285654971631093,0.7156790106725717
0.0645,1.7278989738405932,1.0,3062.4466786949147,0.5159854701258778,1.2982442872417703,0.9815596601593312,0.2856247569013049,0.71635951890194
0.065,1.7271795755123054,1.0,3066.2283311440306,0.5187004176331298,1.297886956190094,0.9817307199508601,0.2855945421715168,0.7170387797570184
0.0655,1.7264601771840173,1.0,3069.986455671119,0.5214001300796707,1.2975298467893854,0.9818982245937812,0.2855643274417287,0.7177168057062655
0.066,1.7257407788557293,1.0,3073.721676258116,0.5240846931973916,1.2971729532880187,0.9820622729787166,0.2855341127119406,0.7183936091647865
0.0665,1.7250213805274415,1.0,3077.4346188350964,0.5267541927181836,1.2968162699343684,0.9822229605350158,0.28550389798215253,0.7190692024944139
0.067,1.7243019821991534,1.0,3081.1259112531134,0.5294087143739373,1.2964597909768085,0.9823803793766098,0.28547368325236444,0.7197435980037852
0.0675,1.7235825838708654,1.0,3084.796183257726,0.5320483438965441,1.2961035106637135,0.9825346184407281,0.28544346852257635,0.7204168079484186
0.068,1.7228631855425776,1.0,3088.446066463271,0.5346731670178947,1.2957474232434578,0.9826857636198716,0.28541325379278826,0.7210888445307877
0.0685,1.7221437872142895,1.0,3092.0761943278953,0.5372832694698801,1.2953915229644155,0.9828338978874146,0.28538303906300017,0.7217597199003929
0.069,1.7214243888860017,1.0,3095.6872021295,0.5398787369843913,1.2950358040749608,0.982979101417187,0.2853528243332121,0.7224294461538309
0.0695,1.7207049905577136,1.0,3099.2787416401015,0.5424596153174837,1.2946802692282475,0.9831214496368188,0.285322609603424,0.7230980195394374
0.07,1.7199855922294256,1.0,3102.851826195025,0.5450260177170311,1.2943249094655234,0.9832610190550529,0.2852923948736359,0.7237654581253554
0.07050000000000001,1.7192661939011378,1.0,3106.4072956191712,0.5475780447301083,1.293969717328833,0.9833978829351177,0.2852621801438478,0.724431777084203
