Time [s],Phi [rad],STIM [ ],Fsee [N],Gamma [ ],Lcerel [ ],q [ ],Lmtc [m],fisomrel [ ]
0.0,1.8,1.0,17.970251235245378,4.760666780634738e-05,1.3793393997076138,0.005000596641443995,0.288653,0.5411403693541685
0.0005,1.79999375,1.0,18.292028077471095,0.0056565489408548445,1.3793006903970173,0.013045244987768708,0.2886527375,0.5412340123225321
0.001,1.799975,1.0,21.661565111280435,0.011234029482489187,1.3789338937496889,0.03580480198428328,0.28865195,0.5421208678816949
0.0015,1.79994375,1.0,31.171947521219202,0.016780224769041348,1.3780374602806837,0.07087014118536716,0.2886506375,0.5442846894914875
0.002,1.7999,1.0,53.80386444857741,0.022295310285133724,1.3763537782426236,0.11503564882462755,0.2886488,0.5483349285794072
0.0025,1.79984375,1.0,97.49137630419683,0.027779460531501085,1.3739172375026774,0.1649203715100756,0.28864643749999996,0.5541642203391786
0.003,1.7997750000000001,1.0,161.44304263494908,0.03323284903236151,1.3711962080409803,0.21763683902474626,0.28864354999999997,0.5606293849999913
0.0035,1.79969375,1.0,238.23131691091285,0.03865564833528277,1.3685678645520118,0.27096733730149236,0.2886401375,0.5668294936848528
0.004,1.7996,1.0,322.04984644777903,0.04404803002189068,1.3661406559600704,0.323258995032568,0.2886362,0.5725160078224789
0.0045000000000000005,1.7994937500000001,1.0,409.8715907417142,0.04941016471307517,1.3639086449657014,0.37336028179190256,0.2886317375,0.577712047574066
0.005,1.799375,1.0,500.0296572994389,0.05474222206024375,1.3618452531798861,0.4205522430260717,0.28862675,0.5824872855586227
0.0055,1.79924375,1.0,591.4120728630443,0.060044370790871986,1.3599266925860434,0.46445587687614687,0.2886212375,0.5869029845793108
0.006,1.7991000000000001,1.0,683.1405820673014,0.06531677865635076,1.3581351024103827,0.5049392801821362,0.2886152,0.5910052564461247
0.006500000000000001,1.79894375,1.0,774.5019714328764,0.07055961247788407,1.3564566597531982,0.5420378430360783,0.2886086375,0.5948298779259973
0.007,1.798775,1.0,864.9027702690669,0.07577303817049613,1.3548804309083957,0.5758928001212543,0.28860155,0.5984052288210184
0.0075,1.79859375,1.0,953.8435473115088,0.08095722055470643,1.3533975469194397,0.6067064451909135,0.2885939375,0.6017543808396761
0.008,1.7984,1.0,1040.9521091644715,0.08611232398937384,1.3519999072235769,0.6347105790695556,0.2885858,0.604898167457249
0.0085,1.79819375,1.0,1125.8995274790318,0.09123851123183258,1.3506809568800582,0.6601465613329157,0.2885771375,0.6078535283217052
0.009000000000000001,1.797975,1.0,1208.4418242405118,0.09633594447558538,1.349434634963328,0.6832517386107917,0.28856795,0.6106359562756561
0.0095,1.79774375,1.0,1288.4198293015577,0.10140478548186511,1.3482551426473977,0.7042516536252028,0.2885582375,0.6132600625626299
0.01,1.7975,1.0,1365.6905307152317,0.10644519416360325,1.3471376577724086,0.7233563096513926,0.288548,0.6157380311106064
0.0105,1.79724375,1.0,1440.163856102176,0.11145732990613803,1.3460776345264247,0.7407579729815666,0.2885372375,0.6180812209202629
0.011,1.796975,1.0,1511.8048110593381,0.11644135172473967,1.3450706589840846,0.7566307890202527,0.28852595000000003,0.6203005111871479
0.0115,1.79669375,1.0,1580.591910170903,0.121397417369639,1.344112857878634,0.771131552635043,0.2885141375,0.6224054242429814
0.012,1.7964,1.0,1646.5162901216515,0.12632568309922143,1.3432007895478815,0.7844007045469357,0.28850180000000003,0.6244043943039247
0.0125,1.79609375,1.0,1709.6034718699511,0.13122630472269606,1.342331101610089,0.7965634933035556,0.2884889375,0.6263055384898691
0.013000000000000001,1.7957750000000001,1.0,1769.9105679199508,0.13609943824796766,1.3415005120432504,0.8077313899188431,0.28847555,0.6281167100580287
0.0135,1.79544375,1.0,1827.4873572605582,0.14094523790357466,1.3407061977267007,0.8180036433078631,0.2884616375,0.6298446646384385
0.014,1.7951000000000001,1.0,1882.379201019387,0.14576385606663633,1.3399456944499133,0.8274685528242162,0.2884472,0.6314952959979789
0.0145,1.79474375,1.0,1934.6554872994623,0.15055544511427194,1.339216538002362,0.8362045652296122,0.2884322375,0.6330744271227429
0.015,1.794375,1.0,1984.3980873684063,0.15532015669839322,1.3385163649719207,0.8442814446748749,0.28841675,0.6345875977238437
0.0155,1.79399375,1.0,2031.697939940407,0.16005814283002462,1.3378429222437722,0.8517612919605354,0.2884007375,0.6360400506689684
0.016,1.7936,1.0,2076.630817718867,0.1647695532430788,1.3371942952668958,0.8586995153916358,0.2883842,0.6374362475748134
0.0165,1.7931937500000001,1.0,2119.267427029016,0.16945453596939708,1.3365687706310854,0.8651455760017749,0.2883671375,0.6387801742215558
0.017,1.792775,1.0,2159.690913308636,0.17411323904082074,1.3359646349261347,0.8711436319321436,0.28834955,0.6400757783129752
0.0175,1.7923437500000001,1.0,2197.9926700412984,0.17874581014780827,1.335380206461615,0.8767331738280483,0.2883314375,0.6413269040617493
0.018000000000000002,1.7919,1.0,2234.259171831243,0.18335239601119407,1.3348139562660202,0.8819496054872603,0.2883128,0.642537036637422
0.0185,1.79144375,1.0,2268.5861885456857,0.18793314419623072,1.3342643514528822,0.8868246794677661,0.2882936375,0.6437096407773726
0.019,1.790975,1.0,2301.039359900282,0.19248819806185205,1.3337302379220666,0.8913870118852282,0.28827395,0.6448473478841864
0.0195,1.79049375,1.0,2331.690708314936,0.19701770096699175,1.3332104615734386,0.8956623485506767,0.2882537375,0.6459527688074491
0.02,1.79,1.0,2360.6181128372273,0.20152179627058356,1.3327038683068637,0.8996738908967002,0.288233,0.6470284949414831
0.0205,1.78949375,1.0,2387.901892832567,0.20600062680704379,1.3322093323966158,0.9034425877461736,0.2882117375,0.6480770391217949
0.021,1.788975,1.0,2413.6177059279853,0.21045433446130998,1.3317258198684123,0.9069873987348065,0.28818995000000003,0.6491007029101712
0.021500000000000002,1.78844375,1.0,2437.846312734028,0.21488306231712176,1.3312522881816695,0.9103254916026917,0.2881676375,0.65010179073472
0.022,1.7879,1.0,2460.6460984143796,0.21928694875958257,1.3307879459431216,0.9134724858497167,0.2881448,0.6510820625597273
0.0225,1.78734375,1.0,2482.0785008395046,0.22366613217379605,1.3303320017595026,0.9164425689043741,0.28812143749999997,0.6520432672626275
0.023,1.786775,1.0,2502.2077572356084,0.22802075094486568,1.3298836642375471,0.9192486472440732,0.28809755,0.6529871430778358
0.0235,1.78619375,1.0,2521.1006647202553,0.232350943457895,1.3294421419839888,0.9219024797844575,0.28807313749999996,0.6539154180006421
0.024,1.7856,1.0,2538.814437074744,0.23665684535154033,1.3290067559268253,0.9244148148093099,0.2880482,0.6548295744722782
0.0245,1.78499375,1.0,2555.4172323950006,0.24093859681408508,1.3285767426591661,0.9267954607393656,0.2880227375,0.6557312633402173
0.025,1.784375,1.0,2570.960056443519,0.2451963328108986,1.3281515172469354,0.9290534207739763,0.28799675,0.6566217529608874
0.025500000000000002,1.78374375,1.0,2585.488221768436,0.24943018631823297,1.3277305620115962,0.9311969543441441,0.2879702375,0.6575021642970769
0.026000000000000002,1.7831000000000001,1.0,2599.048342015428,0.2536402903123403,1.327313359274612,0.9332336391399433,0.2879432,0.6583736123736248
0.0265,1.78244375,1.0,2611.688221093178,0.2578267777694726,1.326899391357446,0.9351704365867615,0.2879156375,0.6592372064098575
0.027,1.781775,1.0,2623.4567482807965,0.2619897816658821,1.3264881405815616,0.9370137502345619,0.28788755,0.6600940499349314
0.0275,1.7810937500000001,1.0,2634.400161957291,0.2661294337688208,1.3260791229217315,0.938769482481068,0.2878589375,0.6609451709011299
0.028,1.7804,1.0,2644.558567391949,0.2702458644965185,1.3256719189795871,0.9404430851833179,0.2878298,0.6617914578703866
0.0285,1.77969375,1.0,2653.986418037289,0.27433920921166277,1.3252659838566543,0.942039575515181,0.2878001375,0.6626340553117434
0.029,1.778975,1.0,2662.7150877345225,0.27840959499730633,1.3248609920078545,0.9435636187808284,0.28776995,0.6634736475499768
0.029500000000000002,1.7782437500000001,1.0,2670.7764809045257,0.2824571489365018,1.3244566178881099,0.9450195319041202,0.2877392375,0.6643109155249014
0.03,1.7775,1.0,2678.2029861684273,0.28648199811230174,1.324052535952342,0.9464113139032088,0.287708,0.6651465368075767
0.0305,1.77674375,1.0,2685.027432318055,0.29048426960775886,1.323648420655473,0.9477426733374428,0.2876762375,0.6659811856097512
0.031,1.775975,1.0,2691.283046636468,0.2944640905059258,1.3232439464524246,0.9490170530602616,0.28764395,0.6668155327865499
0.0315,1.7751937500000001,1.0,2697.003415567174,0.29842158788985523,1.3228387877981185,0.9502376525717318,0.2876111375,0.6676502458324025
0.032,1.7744,1.0,2702.215691476209,0.3023568846928281,1.3224326808685285,0.9514074545041978,0.2875778,0.6684858619513191
0.0325,1.77359375,1.0,2706.9544781042055,0.30627011061168063,1.3220252962361918,0.9525292303156292,0.2875439375,0.6693230503316101
0.033,1.772775,1.0,2711.2440410706176,0.31016138878274774,1.3216164011294802,0.9536055726044812,0.28750955,0.670162278458295
0.0335,1.7719437500000002,1.0,2715.1059419305248,0.3140308403970519,1.3212057892333846,0.9546389025265343,0.2874746375,0.6710039571522912
0.034,1.7711000000000001,1.0,2718.561912995411,0.31787858664561586,1.320793254232895,0.9556314808621678,0.2874392,0.6718484950212664
0.0345,1.7702437500000001,1.0,2721.6338398356297,0.3217047487194621,1.3203785898130018,0.956585420532155,0.2874032375,0.6726962984356899
0.035,1.7693750000000001,1.0,2724.343744725985,0.3255094478096132,1.3199615896586956,0.9575026979968545,0.28736675,0.67354777150217
0.035500000000000004,1.76849375,1.0,2726.7137710359593,0.3292928051070919,1.3195420474549666,0.9583851636501013,0.2873297375,0.6744033160340812
0.036000000000000004,1.7676,1.0,2728.761627402362,0.33305493705269396,1.3191197981698064,0.9592345544704708,0.2872922,0.6752632475001978
0.0365,1.76669375,1.0,2730.506815566016,0.33679596330759526,1.3186946612651365,0.9600524984928002,0.2872541375,0.6761279109728953
0.037,1.765775,1.0,2731.976526912651,0.34051601332004955,1.318266387049546,0.9608405188882503,0.28721555,0.6769977897781526
0.0375,1.76484375,1.0,2733.183549161112,0.3442152013925995,1.3178348573421805,0.9616000558655373,0.2871764375,0.6778730977623589
0.038,1.7639,1.0,2734.140720789378,0.3478936418277876,1.3173999539621857,0.9623324631338529,0.28713679999999997,0.678754047272967
0.0385,1.76294375,1.0,2734.8609249280667,0.35155144892815654,1.3169615587287071,0.963039014044706,0.28709663750000003,0.6796408491335088
0.039,1.761975,1.0,2735.3570835628084,0.35518873699624903,1.316519553460891,0.9637209072333422,0.28705595,0.680533712617724
0.0395,1.7609937500000001,1.0,2735.6421520477347,0.3588056203346076,1.316073819977882,0.9643792718054799,0.2870147375,0.6814328454227978
0.04,1.76,1.0,2735.729113926883,0.362402213245775,1.3156242400988267,0.9650151721104906,0.286973,0.6823384536417034
0.0405,1.7589937500000001,1.0,2735.630976066913,0.36597863003229375,1.3151706956428704,0.9656296121380432,0.2869307375,0.6832507417346594
0.041,1.757975,1.0,2735.36076409833,0.36953498499670656,1.3147130684291588,0.9662235395715716,0.28688795,0.6841699124996926
0.0415,1.75694375,1.0,2734.931518166607,0.37307139244155607,1.3142512402768374,0.9667978495286708,0.2868446375,0.6850961670423132
0.042,1.7559,1.0,2734.3514974252953,0.3765879585250689,1.3137851365199231,0.9673533903069228,0.28680079999999997,0.6860296176631799
0.0425,1.75484375,1.0,2733.6321139414513,0.3800848018182651,1.3133146539411686,0.9678909638565748,0.2867564375,0.6869704324799928
0.043000000000000003,1.753775,1.0,2732.7841383760497,0.3835620371308703,1.312839695198003,0.9684113289023504,0.28671155,0.6879187662896065
0.043500000000000004,1.75269375,1.0,2731.814648688665,0.3870197714662149,1.3123601965258302,0.9689152053196195,0.28666613750000003,0.6888747054411503
0.044,1.7516,1.0,2730.730726304045,0.39045811182762963,1.3118760941600545,0.96940327515238,0.2866202,0.6898383351131022
0.0445,1.75049375,1.0,2729.5394545957765,0.393877165218445,1.3113873243360792,0.9698761849720672,0.2865737375,0.6908097392946985
0.045,1.7493750000000001,1.0,2728.247917457984,0.39727703864199154,1.3108938232893084,0.9703345480668822,0.28652675,0.69178900076708
0.0455,1.74824375,1.0,2726.8631979685692,0.4006578391015999,1.3103955272551462,0.970778946475356,0.2864792375,0.6927762010841831
0.046,1.7471,1.0,2725.392377142456,0.4040196736006006,1.3098923724689964,0.9712099328766397,0.2864312,0.69377142055337
0.0465,1.7459437500000001,1.0,2723.842532774268,0.4073626491423241,1.3093842951662629,0.9716280323488946,0.28638263750000004,0.6947747382157996
0.047,1.744775,1.0,2722.2207383717387,0.4106868727301011,1.3088712315823496,0.9720337440061589,0.28633355,0.6957862318265388
0.0475,1.74359375,1.0,2720.5340621794394,0.41399245136726215,1.3083531179526604,0.9724275425231645,0.28628393750000003,0.6968059778344156
0.048,1.7424,1.0,2718.7817845231993,0.4172794657267823,1.3078299613851734,0.9728098812333558,0.2862338,0.6978339122244983
0.0485,1.74119375,1.0,2716.976972017406,0.42054805323436684,1.307301643418065,0.9731811900673699,0.2861831375,0.6988702166854477
0.049,1.739975,1.0,2715.1242171493864,0.4237983189558629,1.3067681226790868,0.9735418797648542,0.28613195,0.6999149199870814
0.0495,1.73874375,1.0,2713.2264150934066,0.42703036165098374,1.3062293732262886,0.973892342013694,0.2860802375,0.7009680196856966
0.05,1.7375,1.0,2711.286458246868,0.43024428007944254,1.3056853691177204,0.974232950242397,0.286028,0.7020295124597036
0.0505,1.73624375,1.0,2709.307235998072,0.43344017300095244,1.3051360844114321,0.9745640606323465,0.2859752375,0.7030993941009547
0.051000000000000004,1.734975,1.0,2707.291634509109,0.4366181391752267,1.304581493165474,0.9748860130652025,0.28592195,0.7041776595060278
0.051500000000000004,1.73369375,1.0,2705.2425365135305,0.4397782773619784,1.304021569437896,0.9751991320101495,0.2858681375,0.7052643026674699
0.052000000000000005,1.7324,1.0,2703.1628211292755,0.4429206863209208,1.3034562872867481,0.9755037273552978,0.2858138,0.7063593166649955
0.0525,1.73109375,1.0,2701.0553636860573,0.44604546481176705,1.3028856207700803,0.9758000951872183,0.28575893750000003,0.7074626936566426
0.053,1.729775,1.0,2698.9230355680625,0.4491527115942304,1.3023095439459424,0.9760885185222647,0.28570355000000003,0.7085744248698862
0.0535,1.72844375,1.0,2696.7687040712785,0.45224252542802396,1.3017280308723846,0.9763692679930549,0.2856476375,0.7096945005927082
0.054,1.7271,1.0,2694.5952322760713,0.455315005072861,1.301141055607457,0.976642602493217,0.2855912,0.7108229101646254
0.0545,1.7257437500000001,1.0,2692.40547893422,0.4583702492884546,1.3005485922092095,0.9769087697832778,0.2855342375,0.7119596419676733
0.055,1.724375,1.0,2690.2022983712727,0.46140835683451803,1.299950614735692,0.9771680070603338,0.28547675,0.7131046834173483
0.0555,1.72299375,1.0,2687.988540403785,0.46442942647076446,1.2993470972449548,0.977420541493959,0.2854187375,0.7142580209535063
0.056,1.7216,1.0,2685.7606923273083,0.46743352166112634,1.2987380720550044,0.9776665908604871,0.2853602,0.7154195290333516
0.0565,1.72019375,1.0,2683.5282963059253,0.47042077942418037,1.298123451862396,0.9779063637608092,0.28530113749999997,0.7165893094695459
0.057,1.718775,1.0,2681.293258126385,0.4733912956130854,1.297503219251821,0.9781400604104564,0.28524155,0.717767329511489
0.0575,1.71734375,1.0,2679.0563788863537,0.47634515998144566,1.2968773669143179,0.9783678728797643,0.2851814375,0.7189535363967522
0.058,1.7159,1.0,2676.8184583588486,0.4792824622828654,1.2962458875409255,0.9785899854693572,0.2851208,0.7201478766425042
0.0585,1.71444375,1.0,2674.580294988775,0.48220329227094894,1.295608773822682,0.9788065750843283,0.2850596375,0.7213502960428904
0.059000000000000004,1.7129750000000001,1.0,2672.342685890289,0.4851077396993005,1.294966018450626,0.97901781158753,0.28499795,0.7225607396664062
0.059500000000000004,1.71149375,1.0,2670.1064268456034,0.48799589432152435,1.2943176141157964,0.9792238581332963,0.2849357375,0.723779151853269
0.06,1.71,1.0,2667.8723123053373,0.49086784589122473,1.2936635535092313,0.9794248714828244,0.284873,0.7250054762127897
0.0605,1.7084937500000001,1.0,2665.641135389399,0.49372368416200596,1.2930038293219694,0.9796210023023586,0.2848097375,0.726239655620734
0.061,1.7069750000000001,1.0,2663.413687889606,0.49656349888747237,1.2923384342450492,0.9798123954452373,0.28474595,0.727481632216687
0.0615,1.7054437500000001,1.0,2661.1907602729702,0.4993873798212281,1.2916673609695095,0.9799991902187944,0.2846816375,0.728731347401409
0.062,1.7039,1.0,2658.973141686914,0.5021954167168775,1.2909906021863886,0.9801815206370379,0.2846168,0.729988741834193
0.0625,1.70234375,1.0,2656.761619964825,0.5049876993280249,1.290308150586725,0.9803595156599595,0.2845514375,0.7312537554302148
0.063,1.7007750000000001,1.0,2654.5569816332873,0.5077643174082744,1.2896199988615573,0.9805332994202847,0.28448555,0.7325263273578813
0.0635,1.69919375,1.0,2652.3600119205553,0.5105253607112304,1.2889261397019243,0.9807029914384059,0.28441913750000003,0.7338063960361739
0.064,1.6976,1.0,2650.171494765664,0.5132709189904971,1.288226565798864,0.9808687068261958,0.2843522,0.7350938991319933
0.0645,1.69599375,1.0,2647.9913889109816,0.5160010727352666,1.2875212774469131,0.9810305561973479,0.2842847375,0.7363887596150995
0.065,1.694375,1.0,2645.8181773205392,0.5187158834659332,1.286810288566134,0.9811886454933793,0.28421675,0.7376908749126623
0.0655,1.69274375,1.0,2643.6568464630614,0.5214154864055854,1.2860935530331528,0.9813430790510737,0.2841482375,0.7390002516354165
0.066,1.6911,1.0,2641.507390214407,0.5240999622957084,1.2853710707800683,0.9814939559067735,0.2840792,0.7403168111027973
0.0665,1.6894437500000001,1.0,2639.369802507055,0.5267693918777874,1.2846428417389801,0.9816413715842335,0.2840096375,0.7416404740011413
0.067,1.687775,1.0,2637.2440773301855,0.5294238558933078,1.2839088658419875,0.9817854182425444,0.28393955,0.7429711603836618
0.0675,1.68609375,1.0,2635.1302087299364,0.5320634350837546,1.28316914302119,0.9819261848168089,0.2838689375,0.7443087896704236
0.068,1.6844000000000001,1.0,2633.028190809584,0.5346882101906134,1.2824236732086867,0.9820637571519795,0.2837978,0.7456532806483194
0.0685,1.68269375,1.0,2630.9380177295375,0.5372982619553692,1.2816724563365771,0.9821982181302282,0.2837261375,0.7470045514710429
0.069,1.680975,1.0,2628.859683707653,0.5398936711195073,1.2809154923369603,0.9823296477922101,0.28365395,0.7483625196590663
0.0695,1.67924375,1.0,2626.7931830192897,0.542474518424513,1.280152781141936,0.9824581234525455,0.28358123749999997,0.7497271020996126
0.07,1.6775,1.0,2624.738509997496,0.5450408846118715,1.2793843226836032,0.9825837198098416,0.283508,0.7510982150466334
0.07050000000000001,1.67574375,1.0,2622.695659033197,0.5475928504230682,1.2786101168940616,0.9827065090515393,0.2834342375,0.7524757741207824
0.07100000000000001,1.673975,1.0,2620.6646245752477,0.550130496599588,1.2778301637054101,0.9828265609538674,0.28335995,0.7538596943093909
0.07150000000000001,1.67219375,1.0,2618.6454011306873,0.5526539038829166,1.2770444630497484,0.9829439429771599,0.2832851375,0.7552498899664433
0.07200000000000001,1.6704,1.0,2616.637983264924,0.555163153014539,1.2762530148591755,0.9830587203567812,0.2832098,0.7566462748125515
0.0725,1.66859375,1.0,2614.642365601728,0.5576583247359403,1.275455819065791,0.983170956189892,0.2831339375,0.7580487619349305
0.073,1.6667750000000001,1.0,2612.6585428235467,0.5601394997886062,1.2746528756016942,0.9832807115182663,0.28305755,0.7594572637873735
0.0735,1.66494375,1.0,2610.6865096715933,0.5626067589140216,1.2738441843989845,0.9833880454073702,0.2829806375,0.7608716921902263
0.074,1.6631,1.0,2608.72626094594,0.5650601828536719,1.273029745389761,0.9834930150218886,0.2829032,0.7622919583303644
0.0745,1.6612437500000001,1.0,2606.7754241383423,0.5674998143365613,1.2722095805253026,0.9835956745150676,0.2828252375,0.7637179345352002
0.075,1.659375,1.0,2604.8354118875513,0.5699257575968183,1.2713836765709836,0.9836960782535401,0.28274675,0.7651495538610197
