Time [s],Phi [rad],STIM [ ],Fsee [N],Gamma [ ],Lcerel [ ],q [ ],Lmtc [m],fisomrel [ ]
0.0,1.8,1.0,17.96757163377354,3.6881366309190617e-05,1.3793396998979464,0.005000358812126909,0.288653,0.5411396431165051
0.0005,1.79999375,1.0,18.28595156540595,0.005645883799814703,1.379301365153219,0.013015311973961288,0.2886527375,0.5412323800794144
0.001,1.799975,1.0,21.64761130163767,0.011223424164457093,1.3789353177340282,0.03574879435021455,0.28865195,0.5421174265746527
0.0015,1.79994375,1.0,31.14096876194569,0.016769678938454352,1.3780400958677688,0.07079356259073215,0.2886506375,0.5442783351922456
0.002,1.7999,1.0,53.73886635388707,0.022284823608326194,1.3763579875679448,0.11494500878153638,0.2886488,0.5483248252353531
0.0025,1.79984375,1.0,97.38325061969086,0.027769032676652518,1.3739224393022431,0.16482179180765552,0.28864643749999996,0.5541518156449627
0.003,1.7997750000000001,1.0,161.30296595735504,0.03322247966953484,1.3712014445008367,0.21753515400764195,0.28864354999999997,0.5606169885219779
0.0035,1.79969375,1.0,238.07340106916521,0.03864533713638869,1.3685727239854724,0.270866208901356,0.2886401375,0.5668180712178852
0.004,1.7996,1.0,321.8820785611688,0.044037776660672864,1.366145096044564,0.3231610808247721,0.2886362,0.5725056398039445
0.0045000000000000005,1.7994937500000001,1.0,409.6980412013138,0.04939996886508905,1.3639127162639402,0.3732673393358702,0.2886317375,0.5777025986651818
0.005,1.799375,1.0,499.8527155431294,0.05473208340277647,1.3618490111926882,0.4204652908646035,0.28862675,0.5824786131979395
0.0055,1.79924375,1.0,591.2336832884067,0.060034289003449655,1.3599301763162022,0.46437537403885937,0.2886212375,0.5868949878092717
0.006,1.7991000000000001,1.0,682.9620718217315,0.0653067534198369,1.3581383459847278,0.5048652995362313,0.2886152,0.5909978480080466
0.006500000000000001,1.79894375,1.0,774.3216410388956,0.07054964343933556,1.356459737056676,0.5419702321743448,0.2886086375,0.5948228821986142
0.007,1.798775,1.0,864.7264134228606,0.075763125123726,1.3548832787655252,0.5758311686789681,0.28860155,0.5983987833310924
0.0075,1.79859375,1.0,953.6673080349378,0.08094736315370554,1.3534002569336538,0.6066504188684603,0.2885939375,0.6017482729567202
0.008,1.7984,1.0,1040.7760423461386,0.08610252175061599,1.3520024988230614,0.6346597030671393,0.2885858,0.6048923495609715
0.0085,1.79819375,1.0,1125.7299260811074,0.09122876403405894,1.3506833572785388,0.6601003265871099,0.2885771375,0.6078481598464691
0.009000000000000001,1.797975,1.0,1208.2750863196914,0.09632625176655264,1.3494369128067487,0.6832097348669436,0.28856795,0.6106308800002829
0.0095,1.79774375,1.0,1288.2578649456348,0.10139514702929246,1.3482572854974177,0.7042134525869032,0.2885582375,0.613255303246078
0.01,1.7975,1.0,1365.5471916609445,0.10643561019782923,1.347139499761949,0.7233214393006457,0.288548,0.6157339531410198
0.0105,1.79724375,1.0,1440.0329894165525,0.11144779995135744,1.346079272173803,0.7407261346951959,0.2885372375,0.6180776064147027
0.011,1.796975,1.0,1511.6688723519287,0.11643187496907159,1.3450723193064407,0.7566017745319779,0.28852595000000003,0.6202968572974294
0.0115,1.79669375,1.0,1580.4472636791402,0.12138799326584794,1.3441145856860823,0.7711050908314442,0.2885141375,0.6224016323918875
0.012,1.7964,1.0,1646.3840942711622,0.1263163122096813,1.3432023366924706,0.7843764268833556,0.28850180000000003,0.624401007936314
0.0125,1.79609375,1.0,1709.4863676581422,0.1312169869988636,1.3423324466018842,0.796541166697597,0.2884889375,0.6263026020521942
0.013000000000000001,1.7957750000000001,1.0,1769.7917524952686,0.13609017260108658,1.341501853237956,0.8077108939771253,0.28847555,0.6281137890148012
0.0135,1.79544375,1.0,1827.3511233529098,0.14093602313864131,1.3407077111258847,0.8179848616917242,0.2884616375,0.6298413762096962
0.014,1.7951000000000001,1.0,1882.2525068707703,0.1457546932258684,1.3399470811983516,0.8274512090985746,0.2884472,0.6314922894920961
0.0145,1.79474375,1.0,1934.5476506574798,0.15054633435986634,1.339217702283779,0.8361884852009254,0.2884322375,0.6330719083460251
0.015,1.794375,1.0,1984.301250788442,0.15531109766869927,1.33851739729995,0.8442665368344037,0.28841675,0.6345853690218999
0.0155,1.79399375,1.0,2031.596310179267,0.16004913424544595,1.3378439929840604,0.8517474997140219,0.2884007375,0.6360377436370732
0.016,1.7936,1.0,2076.5199214489517,0.16476059392140244,1.3371954509279222,0.8586867489876611,0.2883842,0.6374337623517704
0.0165,1.7931937500000001,1.0,2119.1689791736926,0.16944562714519862,1.3365697861915835,0.8651336757619216,0.2883671375,0.6387779943333922
0.017,1.792775,1.0,2159.6107827965207,0.17410438089806735,1.335965453755717,0.8711325034385399,0.28834955,0.6400740238606988
0.0175,1.7923437500000001,1.0,2197.9233521009573,0.1787370021612414,1.3353809086009965,0.8767227705155198,0.2883314375,0.6413254022511801
0.018000000000000002,1.7919,1.0,2234.194529549649,0.18334363791595365,1.334814605708095,0.8819398815439807,0.2883128,0.6425356498869035
0.0185,1.79144375,1.0,2268.502393633087,0.187924433101606,1.3342651869239193,0.8868156368911294,0.2882936375,0.6437078597280528
0.019,1.790975,1.0,2300.9524961021907,0.19247953564689788,1.3337310978622987,0.8913785554173655,0.28827395,0.6448455176008445
0.0195,1.79049375,1.0,2331.610095721657,0.1970090880206996,1.3332112543641501,0.8956544086271542,0.2882537375,0.6459510840722884
0.02,1.79,1.0,2360.5449618191683,0.20151323256061637,1.3327045832940356,0.8996664230185581,0.288233,0.6470269778544073
0.0205,1.78949375,1.0,2387.832011023053,0.20599211160425332,1.3322100115165172,0.9034355633529666,0.2882117375,0.6480756002812358
0.021,1.788975,1.0,2413.5508723015405,0.2104458674892156,1.331726465896157,0.9069807836895992,0.28818995000000003,0.6490993361736155
0.021500000000000002,1.78844375,1.0,2437.768985799298,0.21487464022155722,1.3312530319170726,0.9103192800851768,0.2881676375,0.6501002195336317
0.022,1.7879,1.0,2460.5722108421405,0.21927857319632055,1.3307886532981699,0.9134666212659814,0.2881448,0.6510805703098954
0.0225,1.78734375,1.0,2482.0183248179874,0.223657804441689,1.3303325753549893,0.9164370068830879,0.28812143749999997,0.6520420588626924
0.023,1.786775,1.0,2502.163242952381,0.22801247123177498,1.3298840868351327,0.9192433622731508,0.28809755,0.6529862539953784
0.0235,1.78619375,1.0,2521.065297152886,0.23234271084069097,1.3294424764862032,0.9218974630989019,0.28807313749999996,0.6539147151997369
0.024,1.7856,1.0,2538.7850329143257,0.23664866054254935,1.3290070330558026,0.9244100534915216,0.2880482,0.6548289929841136
0.0245,1.78499375,1.0,2555.3809024883553,0.24093045680829378,1.3285770839481685,0.9267909570790731,0.2880227375,0.6557305481636423
0.025,1.784375,1.0,2570.9070583232365,0.24518823510841484,1.328152013613384,0.9290491719077171,0.28799675,0.6566207141628873
0.025500000000000002,1.78374375,1.0,2585.4330798273404,0.2494221333539987,1.3277310770035715,0.9311929218697776,0.2879702375,0.657501087902038
0.026000000000000002,1.7831000000000001,1.0,2599.0002641343135,0.2536322834765085,1.3273138071194028,0.9332297955030249,0.2879432,0.6583726775159514
0.0265,1.78244375,1.0,2611.6510289991566,0.25781881740740725,1.3268997369615496,0.9351667640087641,0.2879156375,0.6592364858879773
0.027,1.781775,1.0,2623.428818799946,0.26198186707815796,1.3264883995306835,0.9370102397514711,0.28788755,0.660093510752209
0.0275,1.7810937500000001,1.0,2634.3780153749335,0.2661215644202237,1.3260793278274763,0.9387661285030525,0.2878589375,0.660944744781828
0.028,1.7804,1.0,2644.5438536946363,0.27023804136506757,1.3256720548525998,0.9404398761680998,0.2878298,0.6617911756635372
0.0285,1.77969375,1.0,2653.9647409070526,0.2743314261537912,1.3252661836774589,0.9420365192587883,0.2878001375,0.6626336408032576
0.029,1.778975,1.0,2662.690358468,0.27840185333613887,1.3248612195895204,0.9435607017141898,0.28776995,0.6634731760421217
0.029500000000000002,1.7782437500000001,1.0,2670.752843273472,0.2824494502791334,1.32445683509496,0.9450167412573613,0.2877392375,0.6643104660719451
0.03,1.7775,1.0,2678.1826958977763,0.28647434337649463,1.3240527221414604,0.9464086398948257,0.287708,0.6651461520175684
0.0305,1.77674375,1.0,2685.0108444504426,0.29047665902194253,1.3236485726767047,0.9477401089205328,0.2876762375,0.6659808718250377
0.031,1.775975,1.0,2691.26860521707,0.29445652360919705,1.3232440786483755,0.9490145936921646,0.28764395,0.6668152602639122
0.0315,1.7751937500000001,1.0,2696.987645404268,0.298414063531978,1.3228389320041563,0.9502352960048607,0.2876111375,0.6676499489235197
0.032,1.7744,1.0,2702.199611213875,0.3023494048716246,1.3224328277683095,0.9514051946019751,0.2875778,0.6684855598766954
0.0325,1.77359375,1.0,2706.927891617702,0.3062626650044252,1.322025538902183,0.9525270699433559,0.2875439375,0.669322551960327
0.033,1.772775,1.0,2711.2144061265903,0.3101539821635412,1.321616671406033,0.9536035000074502,0.28750955,0.6701617240870659
0.0335,1.7719437500000002,1.0,2715.0786201239266,0.3140234761898888,1.321206038236335,0.9546369084843299,0.2874746375,0.6710034470679784
0.034,1.7711000000000001,1.0,2718.5401608354528,0.31787126692438444,1.3207934523495657,0.9556295585059611,0.2874392,0.6718480896991292
0.0345,1.7702437500000001,1.0,2721.618801628889,0.32169747420794453,1.3203787267022002,0.9565835651766713,0.2874032375,0.6726960187394033
0.035,1.7693750000000001,1.0,2724.3344470887705,0.3255022178814854,1.319961674250715,0.9575009069858261,0.28736675,0.6735475988860948
0.035500000000000004,1.76849375,1.0,2726.7071188675263,0.32928561778592347,1.3195421079515859,0.9583834362141159,0.2873297375,0.6744031927482685
0.036000000000000004,1.7676,1.0,2728.756942311799,0.33304779376217514,1.3191198407612885,0.9592328884326546,0.2872922,0.6752631608178886
0.0365,1.76669375,1.0,2730.5041338647416,0.33678886565115673,1.3186946856362993,0.9600508911833563,0.2872541375,0.6761278614387128
0.037,1.765775,1.0,2731.968989243758,0.34050895329378467,1.3182664555330939,0.9608389719195686,0.28721555,0.676997650772963
0.0375,1.76484375,1.0,2733.1644075049344,0.34420816763174567,1.317835031215622,0.9615985700115766,0.2871764375,0.6778727453194024
0.038,1.7639,1.0,2734.1093476161504,0.3478866314728257,1.3174002388911763,0.9623310356377199,0.28713679999999997,0.6787534705096436
0.0385,1.76294375,1.0,2734.8257565608,0.35154447134299593,1.3169618780834405,0.9630376370221322,0.28709663750000003,0.6796402035772265
0.039,1.761975,1.0,2735.324400788128,0.35518179929693167,1.3165198502176239,0.9637195745411893,0.28705595,0.6805331135784852
0.0395,1.7609937500000001,1.0,2735.61607761864,0.35879872738930796,1.3160740567189366,0.9643779789439095,0.2870147375,0.681432368205467
0.04,1.76,1.0,2735.711611028083,0.36239536767480013,1.3156243990125884,0.9650139161315842,0.286973,0.6823381337625714
0.0405,1.7589937500000001,1.0,2735.62184764782,0.36597183220808327,1.3151707785237892,0.9656283915604722,0.2869307375,0.6832505751425659
0.041,1.757975,1.0,2735.3576529796205,0.3695282330438327,1.3147130966777487,0.9662223543009419,0.28688795,0.6841698558019834
0.0415,1.75694375,1.0,2734.929907826889,0.37306468223672345,1.3142512548996772,0.9667967007831764,0.2868446375,0.6850961377358996
0.042,1.7559,1.0,2734.3495049407293,0.37658129184143085,1.313785154614784,0.9673522782566525,0.28680079999999997,0.686029581452092
0.0425,1.75484375,1.0,2733.627345881786,0.38007817391263,1.3133146972482796,0.967889887987982,0.2867564375,0.6869703459445755
0.043000000000000003,1.753775,1.0,2732.7743380969946,0.3835554405049961,1.3128397842253734,0.9684102882193713,0.28671155,0.6879185886665237
0.043500000000000004,1.75269375,1.0,2731.8013922126365,0.38701320367320446,1.3123603169712754,0.9689141969078637,0.28666613750000003,0.6888744655025649
0.044,1.7516,1.0,2730.7130470088914,0.3904515647683579,1.31187625482221,0.9694022972142926,0.2866202,0.6898380155550763
0.0445,1.75049375,1.0,2729.5204422340685,0.3938706417584095,1.3113874971503146,0.9698752345833537,0.2865737375,0.6908093961047923
0.045,1.7493750000000001,1.0,2728.2336800347825,0.39727054860356104,1.3108939527319665,0.9703336213255028,0.28652675,0.6917887441157327
0.0455,1.74824375,1.0,2726.8577767432357,0.40065138953434587,1.3103955765558795,0.9707780406417216,0.2864792375,0.6927761034902524
0.046,1.7471,1.0,2725.397748265206,0.4040132687812973,1.3098923236107671,0.9712090463229645,0.2864312,0.6937715171145395
0.0465,1.7459437500000001,1.0,2723.85860929059,0.40735629057494865,1.3093841488853426,0.9716271645114386,0.28638263750000004,0.6947750268446817
0.047,1.744775,1.0,2722.2453725487408,0.41068055914583323,1.3088710073683198,0.9720328953402184,0.28633355,0.6957866734925999
0.0475,1.74359375,1.0,2720.5630481097687,0.4139861787244844,1.3083528540484122,0.9724267144606683,0.28628393750000003,0.6968064968118579
0.048,1.7424,1.0,2718.816642729092,0.4172732535414355,1.3078296439143333,0.972809074466332,0.2862338,0.697834535483338
0.0485,1.74119375,1.0,2717.0111592387752,0.4205418878272198,1.3073013319547964,0.9731804062212114,0.2861831375,0.6988708271007911
0.049,1.739975,1.0,2715.151595981889,0.42379218581237066,1.3067678731585153,0.9735411200996709,0.28613195,0.6999154081562535
0.0495,1.73874375,1.0,2713.242946293391,0.4270242517274214,1.3062292225142036,0.9738916071446113,0.2860802375,0.7009683140253393
0.05,1.7375,1.0,2711.2901980251454,0.4302381898029054,1.3056853350105744,0.9742322401499925,0.286028,0.7020295789524009
0.0505,1.7362496966414915,1.0,2709.5904569295335,0.4334341019406932,1.3051361861120165,0.9745633757645137,0.2859754872589426,0.7030991961894542
0.051000000000000004,1.7349993895097875,1.0,2708.420174220782,0.4366120889066342,1.3045822088683323,0.9748853841288349,0.28592297435941105,0.7041762692630344
0.051500000000000004,1.7337490823780835,1.0,2707.7398229123705,0.43977225044470747,1.3040237625800197,0.9751986136551832,0.2858704614598795,0.7052600503402034
0.052000000000000005,1.7324987752463796,1.0,2707.51417731112,0.44291468567492787,1.303461167047354,0.9755033944750676,0.2858179485603479,0.7063498727495471
0.0525,1.7312484681146756,1.0,2707.708138187961,0.4460394937173103,1.3028947420706105,0.9758000420059134,0.28576543566081636,0.707445074062431
0.053,1.7299981609829718,1.0,2708.2867044918657,0.4491467736918697,1.302324807450065,0.9760888577432789,0.2857129227612848,0.7085449961743657
0.0535,1.7287478538512677,1.0,2709.217651402271,0.45223662391374403,1.3017516583151676,0.9763701283976353,0.28566040986175323,0.7096490328572906
0.054,1.727497546719564,1.0,2710.469272309991,0.45530914321079624,1.3011755855327745,0.9766441280614171,0.28560789696222166,0.7107565901753523
0.0545,1.7262472395878599,1.0,2712.0150445790387,0.4583644289831093,1.3005968329836715,0.9769111160955172,0.2855553840626901,0.7118671683679424
0.055,1.724996932456156,1.0,2713.8337690498324,0.4614025769094734,1.3000155962058493,0.9771713377936871,0.28550287116315853,0.7129803636264311
0.0555,1.723746625324452,1.0,2715.904261094544,0.46442368266867873,1.2994320707372986,0.9774250281384848,0.28545035826362697,0.7140957749170072
0.056,1.7224963181927482,1.0,2718.2053402712295,0.4674278419395154,1.29884645211601,0.9776724123252267,0.2853978453640954,0.7152130040104382
0.0565,1.7212460110610441,1.0,2720.716428587912,0.4704151501062704,1.29825893034673,0.9779137059074658,0.28534533246456384,0.7163316660345167
0.057,1.71999570392934,1.0,2723.4195315324787,0.4733857017671884,1.2976696718090521,0.9781491141972015,0.2852928195650323,0.7174514237407246
0.0575,1.7187453967976363,1.0,2726.2961918223673,0.47633959219279015,1.2970788469559518,0.9783788344778444,0.2852403066655007,0.7185719346024304
0.058,1.7174950896659322,1.0,2729.3337002715825,0.47927691374011244,1.296486573790834,0.9786030529034195,0.28518779376596914,0.7196929577862639
0.0585,1.7162447825342284,1.0,2732.5193335317026,0.4821977587661924,1.2958929703171038,0.9788219482197592,0.2851352808664376,0.7208142541993672
0.059000000000000004,1.7149944754025244,1.0,2735.840350457073,0.48510221962806704,1.2952981545381663,0.9790356921210434,0.285082767966906,0.7219355864998509
0.059500000000000004,1.7137441682708205,1.0,2739.283988778638,0.4879903886827733,1.294702244457426,0.9792444495865115,0.28503025506737445,0.723056719106363
0.06,1.7124938611391165,1.0,2742.8461133888677,0.4908623501671925,1.2941052796327057,0.9794483742847017,0.2849777421678429,0.7241775653449234
0.0605,1.7112435540074127,1.0,2746.5039576577396,0.4937182075421804,1.293507468416029,0.9796476245925552,0.2849252292683113,0.7252977231633091
0.061,1.7099932468757086,1.0,2750.2497390898925,0.4965580501884761,1.2929088829701967,0.979842344478194,0.28487271636877975,0.726417048077652
0.0615,1.7087429397440048,1.0,2754.0775187170716,0.49938196569414256,1.2923095786179066,0.9800326714409751,0.2848202034692482,0.7275354280874422
0.062,1.7074926326123008,1.0,2757.9813441915467,0.5021900416472427,1.2917096106818569,0.9802187378276146,0.2847676905697166,0.7286527520275494
0.0625,1.706242325480597,1.0,2761.955248938107,0.5049823656358394,1.2911090344847458,0.9804006710655727,0.28471517767018506,0.7297689095706604
0.063,1.704992018348893,1.0,2765.993251374409,0.5077590252479957,1.290507905349271,0.9805785938841984,0.2846626647706535,0.730883791229525
0.0635,1.703741711217189,1.0,2770.089354198326,0.5105201080717743,1.289906278598131,0.9807526245243608,0.28461015187112193,0.7319972883590015
0.064,1.702491404085485,1.0,2774.2375437441096,0.5132657016952382,1.2893042095540237,0.9809228769372476,0.28455763897159037,0.7331092931579131
0.0645,1.701241096953781,1.0,2778.4317894056235,0.5159958937064505,1.2887017535396472,0.9810894609729643,0.2845051260720588,0.7342196986707041
0.065,1.6999907898220772,1.0,2782.666043128021,0.5187107716934738,1.2880989658776996,0.9812524825595306,0.28445261317252724,0.7353283987889034
0.0655,1.6987404826903731,1.0,2786.9368340395044,0.5214104168725049,1.2874958785469772,0.9814120422774903,0.28440010027299567,0.7364353310538958
0.066,1.6974901755586693,1.0,2791.240770118553,0.5240949142456707,1.2868925227253265,0.9815682373976492,0.2843475873734641,0.7375404349626851
0.0665,1.6962398684269653,1.0,2795.569188163061,0.5267643627620344,1.286288976842598,0.9817211650379829,0.28429507447393254,0.7386435642168954
0.067,1.6949895612952615,1.0,2799.92008769145,0.5294188437859242,1.2856852592935264,0.981870914876842,0.284242561574401,0.7397446831071128
0.0675,1.6937392541635574,1.0,2804.291462060354,0.5320584386816679,1.2850813884728471,0.9820175735141206,0.2841900486748694,0.7408437562066124
0.068,1.6924889470318534,1.0,2808.6812983984605,0.5346832288135936,1.2844773827752953,0.9821612245990922,0.28413753577533785,0.7419407483715501
0.0685,1.6912386399001496,1.0,2813.0875775477143,0.5372932955460292,1.2838732605956058,0.9823019489520821,0.2840850228758063,0.7430356247411329
0.069,1.6899883327684455,1.0,2817.5082740119633,0.5398887202433028,1.2832690403285139,0.9824398246803191,0.2840325099762747,0.7441283507377641
0.0695,1.6887380256367417,1.0,2821.9413559132377,0.5424695842697422,1.2826647403687548,0.9825749272882784,0.28397999707674315,0.7452188920671698
0.07,1.6874877185050376,1.0,2826.3847849555946,0.5450359689896755,1.2820603791110634,0.9827073297828194,0.2839274841772116,0.746307214718505
0.07050000000000001,1.6862374113733338,1.0,2830.8365163963017,0.5475879557674307,1.281455974950175,0.9828371027733895,0.28387497127768,0.7473932849644338
0.07100000000000001,1.6849871042416298,1.0,2835.2944990245574,0.5501256259673356,1.2808515462808248,0.9829643145675673,0.28382245837814846,0.7484770693611917
0.07150000000000001,1.683736797109926,1.0,2839.7566751478066,0.5526490609537184,1.2802471114977476,0.9830890312621802,0.2837699454786169,0.7495585347486258
0.07200000000000001,1.682486489978222,1.0,2844.220980585467,0.5551583420909068,1.2796426889956787,0.983211316830241,0.2837174325790853,0.750637648250211
0.0725,1.681236182846518,1.0,2848.6861021364493,0.5576535441808822,1.2790382904298412,0.9833312325194145,0.28366491967955376,0.7517143892665549
