Time [s],Phi [rad],STIM [ ],Fsee [N],Gamma [ ],Lcerel [ ],q [ ],Lmtc [m],fisomrel [ ]
0.0,1.8,1.0,17.966923225429166,2.9436260341487328e-05,1.3793397725411853,0.005000228976682478,0.288653,0.5411394673737302
0.0005,1.79999375,1.0,18.282839883149634,0.005638480455001442,1.3793017107282186,0.012994562955307362,0.2886527375,0.541231544128338
0.001,1.799975,1.0,21.638971850874675,0.01121606234655458,1.3789361996188318,0.035709934719705475,0.28865195,0.5421152953394031
0.0015,1.79994375,1.0,31.120519207798825,0.01676235841452647,1.3780418363775877,0.07074041087687578,0.2886506375,0.5442741388656289
0.002,1.7999,1.0,53.69484130639829,0.022277544146755514,1.376360840109213,0.1148820856411752,0.2886488,0.5483179784192842
0.0025,1.79984375,1.0,97.30926689506944,0.027761794047100927,1.3739260002364113,0.16475335108273872,0.28864643749999996,0.5541433238112223
0.003,1.7997750000000001,1.0,161.206707796038,0.03321528164297256,1.3712050442195807,0.21746455474654952,0.28864354999999997,0.5606084666643469
0.0035,1.79969375,1.0,237.96464739350432,0.038638179485068605,1.3685760715232733,0.27079599461650894,0.2886401375,0.5668102024887466
0.004,1.7996,1.0,321.76638481654675,0.0440306591581198,1.3661481586277033,0.32309309719991886,0.2886362,0.5724984883084892
0.0045000000000000005,1.7994937500000001,1.0,409.5782480316933,0.04939289128608464,1.3639155269946586,0.37320280705681774,0.2886317375,0.5776960752940049
0.005,1.799375,1.0,499.73048657018677,0.054725045523289294,1.3618516075655709,0.4204049175431546,0.28862675,0.5824726214994008
0.0055,1.79924375,1.0,591.110390185952,0.060027290601065146,1.3599325843868166,0.4643194784647168,0.2886212375,0.5868894601295508
0.006,1.7991000000000001,1.0,682.8386218426426,0.0652997942729999,1.3581405893486567,0.5048139327234226,0.2886152,0.5909927240465462
0.006500000000000001,1.79894375,1.0,774.1899342118713,0.07054272321864437,1.3564619848347752,0.5419233632613651,0.2886086375,0.5948177722182797
0.007,1.798775,1.0,864.6116250914258,0.07575624386314814,1.3548851325539752,0.5757883027870583,0.28860155,0.5983945876662864
0.0075,1.79859375,1.0,953.5651026872177,0.08094052054698533,1.3534018286500615,0.606611331395626,0.2885939375,0.6017447305701293
0.008,1.7984,1.0,1040.6655127495917,0.08609571741827608,1.3520041258653857,0.6346242786726838,0.2885858,0.6048886969826076
0.0085,1.79819375,1.0,1125.6206885621898,0.09122199787109536,1.3506849034321389,0.6600681575664722,0.2885771375,0.6078447018647686
0.009000000000000001,1.797975,1.0,1208.1772814984013,0.09631952388461161,1.3494382490130652,0.6831804377744567,0.28856795,0.6106279021896781
0.0095,1.79774375,1.0,1288.156598423729,0.10138845671255999,1.3482586253604527,0.704186852652553,0.2885582375,0.613252327366224
0.01,1.7975,1.0,1365.440627888438,0.10642895714685982,1.347140869230556,0.7232972764559872,0.288548,0.6157309212686672
0.0105,1.79724375,1.0,1439.9270360884743,0.11144118412379043,1.3460805981134263,0.7407041232657232,0.2885372375,0.6180746798770826
0.011,1.796975,1.0,1511.5650976597458,0.11642529607167677,1.345073586835575,0.7565816844569668,0.28852595000000003,0.6202940678202515
0.0115,1.79669375,1.0,1580.3587170747592,0.12138145168055893,1.3441156434174117,0.7710866553025117,0.2885141375,0.6223993110823365
0.012,1.7964,1.0,1646.305081146752,0.1263098074849619,1.3432032614465232,0.7843595068237075,0.28850180000000003,0.6243989838407826
0.0125,1.79609375,1.0,1709.4103402079288,0.13121051868132327,1.3423333198342247,0.7965256401345221,0.2884889375,0.6263006955716788
0.013000000000000001,1.7957750000000001,1.0,1769.716962728325,0.13608374046608057,1.341502697491831,0.807696628913691,0.28847555,0.6281119502736066
0.0135,1.79544375,1.0,1827.2796149830065,0.14092962708708406,1.3407085055227148,0.8179717241524621,0.2884616375,0.6298396500780555
0.014,1.7951000000000001,1.0,1882.1839141828277,0.14574833305583837,1.339947832008639,0.8274390899968725,0.2884472,0.6314906617111802
0.0145,1.79474375,1.0,1934.4813208177443,0.15054000985366064,1.3392184184442284,0.8361772885073901,0.2884322375,0.6330703590184834
0.015,1.794375,1.0,1984.2372028966097,0.15530480862829302,1.3385180800974446,0.8442561745392503,0.28841675,0.6345838949207274
0.0155,1.79399375,1.0,2031.5347625574504,0.16004288044395928,1.3378446414441265,0.8517378926792757,0.2884007375,0.6360363464524541
0.016,1.7936,1.0,2076.46168967585,0.16475437523226247,1.3371960577793611,0.8586778248442848,0.2883842,0.6374324573279904
0.0165,1.7931937500000001,1.0,2119.1135518361148,0.1694394433584669,1.3365703579748505,0.8651253740424987,0.2883671375,0.6387767670047226
0.017,1.792775,1.0,2159.5578081419453,0.1740982318060609,1.3359659950961067,0.8711247695539645,0.28834955,0.640072863963912
0.0175,1.7923437500000001,1.0,2197.872647441597,0.17873088755853284,1.3353814222086424,0.8767155550757019,0.2883314375,0.6413243036903965
0.018000000000000002,1.7919,1.0,2234.1460894281513,0.1833375575993711,1.3348150923779698,0.8819331397622646,0.2883128,0.6425346107013123
0.0185,1.79144375,1.0,2268.456162678414,0.18791838690438614,1.334265647872871,0.8868093287154973,0.2882936375,0.6437068770794957
0.019,1.790975,1.0,2300.908178624709,0.19247352334454682,1.3337315366057787,0.8913726453578958,0.28827395,0.644844583784266
0.0195,1.79049375,1.0,2331.5677700857204,0.19700310943563262,1.3332116706243393,0.8956488638399696,0.2882537375,0.6459501994889567
0.02,1.79,1.0,2360.504635348362,0.20150728751196978,1.3327049774547266,0.8996612140324608,0.288233,0.6470261415078121
0.0205,1.78949375,1.0,2387.7936185852323,0.20598619990788444,1.3322103846231146,0.9034306636906853,0.2882117375,0.6480748097849562
0.021,1.788975,1.0,2413.5142751453072,0.2104399889577028,1.3317268196556769,0.9069761695352382,0.28818995000000003,0.6490985877587055
0.021500000000000002,1.78844375,1.0,2437.7317127519837,0.21486879468915168,1.3312533904158386,0.9103149346679108,0.2881676375,0.6500994621747833
0.022,1.7879,1.0,2460.5376334988964,0.21927276045815816,1.3307889843244451,0.9134625176324451,0.2881448,0.6510798719693941
0.0225,1.78734375,1.0,2481.98830477305,0.22365202429184097,1.3303328615074845,0.9164331235169844,0.28812143749999997,0.6520414560212917
0.023,1.786775,1.0,2502.13707218691,0.22800672347955367,1.329884335289777,0.9192396843987491,0.28809755,0.6529857312832337
0.0235,1.78619375,1.0,2521.039656262234,0.2323369953106498,1.3294427189961417,0.9218939819102405,0.28807313749999996,0.653914205677389
0.024,1.7856000001081402,1.0,2538.7539612383416,0.23664297707448295,1.3290073259513993,0.9244067654716586,0.2880482000045419,0.6548283784129775
0.0245,1.785000052103378,1.0,2555.6419016004656,0.2409248052722428,1.3285774782455064,0.9267878580717236,0.28802300218834187,0.6557297219063257
0.025,1.784400104098616,1.0,2572.0271776236796,0.24518261573683503,1.3281528612939952,0.9290463104941006,0.28799780437214184,0.6566189401293492
0.025500000000000002,1.7838001560938537,1.0,2587.9164525632073,0.2494165454907196,1.3277333629852914,0.9311904488641967,0.28797260655594187,0.6574963099054567
0.026000000000000002,1.7832002080890916,1.0,2603.3229510878728,0.25362672666107977,1.3273188131594458,0.9332278981642231,0.28794740873974184,0.6583622275251653
0.0265,1.7826002600843294,1.0,2618.2602812544337,0.25781329137509884,1.326909041656509,0.9351656619119618,0.2879222109235418,0.6592170870000729
0.027,1.7820003120795673,1.0,2632.742416159344,0.26197637175996014,1.326503878316532,0.9370101811317911,0.28789701310734184,0.6600612801156356
0.0275,1.781400364074805,1.0,2646.783676232256,0.2661160999428469,1.3261031529795653,0.9387673870162312,0.2878718152911418,0.660895196482099
0.028,1.780800416070043,1.0,2660.3964551921194,0.2702326044350141,1.3257067162654825,0.9404427495962359,0.2878466174749418,0.661719180419504
0.0285,1.7802004680652808,1.0,2673.5951113931033,0.274326015301507,1.3253144034275988,0.9420413166774533,0.2878214196587418,0.6625336062581171
0.029,1.7796005200605185,1.0,2686.4006240485373,0.2783964727898565,1.3249259917465337,0.9435677491179045,0.2877962218425418,0.663338966478098
0.029500000000000002,1.7790005720557565,1.0,2698.8246185443877,0.2824441022735719,1.324541347089933,0.9450263659342918,0.28777102402634175,0.6641355676946801
0.03,1.7784006240509942,1.0,2710.8789521885383,0.28646902912616273,1.324160335325442,0.9464211678250113,0.2877458262101418,0.6649237149288806
0.0305,1.7778006760462322,1.0,2722.575703207127,0.2904713787211385,1.3237828223207069,0.9477558646782626,0.28772062839394175,0.6657037116391504
0.031,1.77720072804147,1.0,2733.927160140698,0.2944512764320085,1.3234086739433728,0.9490339003788926,0.2876954305777417,0.6664758597518787
0.0315,1.7766007800367078,1.0,2744.945811638239,0.2984088476322823,1.3230377560610855,0.950258475208518,0.28767023276154174,0.6672404596907482
0.032,1.7760008320319456,1.0,2755.644336650377,0.3023442176954693,1.3226699345414907,0.951432566098427,0.2876450349453417,0.6679978104049429
0.0325,1.7754008840271835,1.0,2766.0355950219655,0.306257511995079,1.322305075252234,0.9525589449642452,0.2876198371291417,0.6687482093962109
0.033,1.7748009360224213,1.0,2776.13261848321,0.31014885590462077,1.3219430440609612,0.9536401953246553,0.2875946393129417,0.6694919527447769
0.0335,1.7742009880176592,1.0,2785.9465967995584,0.3140183715236279,1.32158372487659,0.9546787285481271,0.2875694414967417,0.6702292981329645
0.034,1.773601040012897,1.0,2795.4888019472705,0.3178661818848236,1.3212270021390788,0.9556767966450218,0.28754424368054166,0.670960500946238
0.0345,1.7730010920081347,1.0,2804.7730280095566,0.3216924143005844,1.320872738875652,0.9566365031401692,0.2875190458643416,0.6716858592042017
0.035,1.7724011440033727,1.0,2813.8078203235905,0.3254971870598105,1.3205208463825002,0.9575598186755888,0.28749384804814165,0.6724055709000182
0.035500000000000004,1.7718011959986104,1.0,2822.6018262411435,0.32928061845140216,1.3201712359558146,0.9584485882908673,0.2874686502319416,0.6731198331203
0.036000000000000004,1.7712012479938484,1.0,2831.1637905541575,0.3330428267642595,1.3198238188917861,0.9593045408784338,0.28744345241574165,0.6738288420582716
0.0365,1.770601299989086,1.0,2839.502551092902,0.33678393028728265,1.3194785064866061,0.960129297823901,0.2874182545995416,0.6745327930264271
0.037,1.770001351984324,1.0,2847.6270345002913,0.34050404730937184,1.3191352100364653,0.9609243809101022,0.2873930567833416,0.6752318804686901
0.0375,1.7694014039795618,1.0,2855.5462521796476,0.34420329611942724,1.3187938408375548,0.9616912195550934,0.28736785896714157,0.6759262979720657
0.038,1.7688014559747998,1.0,2863.2692964168905,0.347881795006349,1.3184543101860657,0.9624311574470157,0.2873426611509416,0.6766162382777967
0.0385,1.7682015079700375,1.0,2870.8037008802007,0.3515396586893652,1.3181165438764224,0.9631454592778368,0.28731746333474156,0.6773018638779345
0.039,1.7676015599652755,1.0,2878.1577946763414,0.35517700490523296,1.3177804612397999,0.9638353156658345,0.2872922655185416,0.6779833496626915
0.0395,1.7670016119605132,1.0,2885.340687472458,0.3587939532554848,1.3174459752907715,0.9645018480608458,0.28726706770234156,0.67866088256279
0.04,1.766401663955751,1.0,2892.3581539856114,0.36239061559665003,1.3171130290797104,0.9651461149450598,0.28724186988614153,0.6793345879715904
0.0405,1.765801715950989,1.0,2899.2160164129673,0.36596710378525793,1.3167815656569901,0.9657691149187165,0.2872166720699415,0.6800045907522515
0.041,1.7652017679462266,1.0,2905.9201425236565,0.3695235296778379,1.3164515280729836,0.9663717907193426,0.28719147425374153,0.6806710152432196
0.0415,1.7646018199414646,1.0,2912.476443822368,0.3730600051309193,1.316122859378064,0.9669550329307739,0.2871662764375415,0.6813339852635101
0.042,1.7640018719367023,1.0,2918.890873785328,0.3765766420010314,1.3157955026226045,0.967519683408892,0.28714107862134153,0.6819936241177826
0.0425,1.7634019239319403,1.0,2925.169426167136,0.38007355214470356,1.3154694008569783,0.9680665384484124,0.2871158808051415,0.6826500546012091
0.043000000000000003,1.762801975927178,1.0,2931.3181333809325,0.3835508474184651,1.3151444971315585,0.9685963517127442,0.28709068298894147,0.6833033990041364
0.043500000000000004,1.7622020279224158,1.0,2937.3394095127037,0.387008626167011,1.3148207665261646,0.9691098374112583,0.28706548517274144,0.6839537148082848
0.044,1.7616020799176537,1.0,2943.240358709425,0.39044700571983426,1.3144981432502258,0.9696076720493115,0.28704028735654147,0.6846011412377564
0.0445,1.7610021319128915,1.0,2949.0300733855024,0.3938661117852081,1.3141765444641615,0.9700904969333008,0.28701508954034144,0.6852458511114756
0.045,1.7604021839081294,1.0,2954.711826214024,0.3972660483014082,1.3138559385611703,0.9705589211578943,0.28698989172414147,0.6858879139983638
0.0455,1.7598022359033672,1.0,2960.2889104867877,0.40064691920671014,1.3135362939344506,0.9710135229151855,0.28696469390794144,0.6865273991895721
0.046,1.759202287898605,1.0,2965.7646394302747,0.40400882843938957,1.3132175789772007,0.9714548513611585,0.2869394960917414,0.6871643757004497
0.0465,1.7586023398938428,1.0,2971.1423455425434,0.4073518799377222,1.312899762082619,0.971883428352122,0.2869142982755414,0.6877989122724503
0.047,1.7580023918890808,1.0,2976.4253799531625,0.41067617763998354,1.3125828116439042,0.9722997500613357,0.2868891004593414,0.6884310773749729
0.0475,1.7574024438843185,1.0,2981.6171118046036,0.4139818254844494,1.3122666960542546,0.97270428848515,0.2868639026431414,0.6890609392071421
0.048,1.7568024958795565,1.0,2986.720927656579,0.41726892740939525,1.3119513837068686,0.9730974928471847,0.2868387048269414,0.6896885656995217
0.0485,1.7562025478747942,1.0,2991.740230911562,0.4205375873530969,1.3116368429949445,0.9734797909083369,0.2868135070107414,0.6903140245157662
0.049,1.755602599870032,1.0,2996.678441263521,0.4237879092538298,1.3113230423116808,0.9738515901897472,0.28678830919454135,0.6909373830542073
0.0495,1.75500265186527,1.0,3001.5389941678113,0.42701999704986976,1.3110099500502763,0.9742132791152583,0.2867631113783413,0.6915587084493771
0.05,1.7544027038605077,1.0,3006.3253403338977,0.4302339546794924,1.310697534603929,0.9745652280793539,0.2867379135621413,0.6921780675734707
0.0505,1.7538027558557456,1.0,3011.040945240057,0.43342988608097327,1.310385764365837,0.9749077904460663,0.2867127157459413,0.6927955270377395
0.051000000000000004,1.7532028078509834,1.0,3015.6875148378117,0.436607882443612,1.310074623068536,0.9752413030661657,0.2866875179297413,0.6934111228600297
0.051500000000000004,1.7526028598462213,1.0,3020.2662430238024,0.4397680362000673,1.3097640989424828,0.9755660880523841,0.2866623201135413,0.6940248820355603
0.052000000000000005,1.752002911841459,1.0,3024.7840151221635,0.4429104818404479,1.3094541311329655,0.9758824545222775,0.2866371222973413,0.6946369283314457
0.0525,1.751402963836697,1.0,3029.242427951027,0.44603531404748176,1.3091447046164053,0.9761906965045042,0.28661192448114126,0.695247294667205
0.053,1.7508030158319348,1.0,3033.643085440978,0.44914262750389683,1.3088358043692234,0.9764910951464981,0.2865867266649412,0.6958560138380573
0.0535,1.7502030678271727,1.0,3037.987598457738,0.4522325168924211,1.3085274153678412,0.9767839193890598,0.28656152884874125,0.6964631185154323
0.054,1.7496031198224105,1.0,3042.2775846288814,0.45530507689578253,1.3082195225886804,0.9770694266000642,0.2865363310325412,0.697068641247468
0.0545,1.7490031718176482,1.0,3046.514668176536,0.4583604021967091,1.307912111008162,0.9773478631700883,0.28651113321634125,0.6976726144594941
0.055,1.7484032238128862,1.0,3050.7004797543123,0.4613985874779287,1.3076051656027075,0.977619465072548,0.2864859354001412,0.6982750704544991
0.0555,1.747803275808124,1.0,3054.8366562895917,0.4644197274221694,1.3072986713487382,0.9778844583907402,0.2864607375839412,0.6988760414135847
0.056,1.7472033278033618,1.0,3058.9248408307153,0.46742391671215916,1.3069926132226757,0.9781430598140008,0.28643553976774117,0.6994755593964052
0.0565,1.7466033797985996,1.0,3062.9666823994494,0.4704112500306259,1.306686976200941,0.9783954771050313,0.2864103419515412,0.7000736563415927
0.057,1.7460034317938375,1.0,3066.963835847662,0.47338182206029755,1.3063817452599555,0.9786419095402904,0.28638514413534116,0.7006703640671674
0.0575,1.7454034837890753,1.0,3070.917961720251,0.4763357274839022,1.3060769053761407,0.9788825483252098,0.2863599463191412,0.7012657142709343
0.058,1.7448035357843132,1.0,3074.8307261217215,0.4792730609841677,1.305772441525918,0.979117576985863,0.28633474850294116,0.7018597385308645
0.0585,1.744203587779551,1.0,3078.7038005889526,0.4821939172438221,1.3054683386857087,0.9793471717386043,0.28630955068674113,0.7024524683054629
0.059000000000000004,1.7436036397747887,1.0,3082.5388619681644,0.48509839094559337,1.3051645818319342,0.9795715018390793,0.2862843528705411,0.7030439349341223
0.059500000000000004,1.7430036917700267,1.0,3086.3375922973078,0.48798657677220936,1.3048611559410157,0.9797907299119122,0.28625915505434113,0.7036341696374608
0.06,1.7424037437652644,1.0,3090.098354503695,0.49085851746304854,1.304558074387317,0.9800050096196374,0.2862339572381411,0.7042231483593413
0.0605,1.7418037957605024,1.0,3093.8251595295183,0.49371435558201765,1.304255302298297,0.9802144941128835,0.28620875942194113,0.7048109407633033
0.061,1.74120384775574,1.0,3097.520034446343,0.4965541978500667,1.3039528218188,0.9804193287048841,0.2861835616057411,0.7053975832537911
0.0615,1.740603899750978,1.0,3101.183679350063,0.4993781289171617,1.303650626457115,0.9806196520787739,0.28615836378954107,0.7059830900899285
0.062,1.7400039517462158,1.0,3104.8167966847145,0.5021862334332687,1.3033487097215324,0.9808155977171518,0.28613316597334104,0.706567475479214
0.0625,1.7394040037414538,1.0,3108.4200912019774,0.5049785960483538,1.3030470651203414,0.9810072941362086,0.28610796815714107,0.7071507535776389
0.063,1.7388040557366915,1.0,3111.9942699214675,0.5077553014123831,1.3027456861618316,0.9811948651076211,0.28608277034094104,0.7077329384898015
0.0635,1.7382041077319295,1.0,3115.540042092247,0.5105164341753226,1.3024445663542932,0.9813784298689433,0.28605757252474107,0.7083140442690165
0.064,1.7376041597271672,1.0,3119.0581191547767,0.5132620789871383,1.3021436992060151,0.9815581033231677,0.28603237470854104,0.7088940849174268
0.0645,1.737004211722405,1.0,3122.549214704258,0.5159923204977964,1.3018430782252877,0.9817339962280913,0.286007176892341,0.7094730743861062
0.065,1.736404263717643,1.0,3126.0140444547706,0.5187072433572628,1.3015426969204003,0.9819062153760771,0.285981979076141,0.7100510265751647
0.0655,1.7358043157128806,1.0,3129.4533262042373,0.5214069322155037,1.3012425487996424,0.9820748637647642,0.28595678125994095,0.710627955333849
0.066,1.7352043677081186,1.0,3132.8677798003955,0.5240914717224852,1.300942627371304,0.9822400407592438,0.285931583443741,0.7112038744606392
0.0665,1.7346044197033563,1.0,3136.2581271075255,0.5267609465281732,1.3006429261436745,0.9824018422461867,0.28590638562754095,0.7117787977033453
0.067,1.7340044716985943,1.0,3139.6250919746767,0.5294154412825338,1.3003434386250439,0.9825603607803745,0.285881187811341,0.7123527387591981
0.0675,1.733404523693832,1.0,3142.969400204089,0.5320550406355331,1.3000441583237015,0.98271568572406,0.28585598999514095,0.7129257112749412
0.068,1.73280457568907,1.0,3146.291779521112,0.5346798292371372,1.2997450787479372,0.982867903379558,0.2858307921789409,0.7134977288469162
0.0685,1.7322046276843077,1.0,3149.5929595448465,0.5372898917373121,1.2994461934060406,0.9830170971154355,0.2858055943627409,0.7140688050211483
0.069,1.7316046796795455,1.0,3152.8736717596175,0.5398853127860239,1.2991474958063012,0.9831633474866573,0.2857803965465409,0.7146389532934281
0.0695,1.7310047316747834,1.0,3156.134649487306,0.5424661770332386,1.2988489794570088,0.9833067323490119,0.2857551987303409,0.7152081871093887
0.07,1.7304047836700212,1.0,3159.3766278613593,0.5450325691289223,1.2985506378664533,0.983447326968131,0.2857300009141409,0.715776519864585
