Time [s],Phi [rad],STIM [ ],Fsee [N],Gamma [ ],Lcerel [ ],q [ ],Lmtc [m],fisomrel [ ]
0.0,1.8,1.0,17.96670112744027,1.0001484019943603e-05,1.379339797423827,0.005000026659655821,0.288653,0.5411394071761794
0.0005,1.79999375,1.0,18.276075809255495,0.005619154692398712,1.3793024620293934,0.012940519558378535,0.2886527375,0.5412297267169661
0.001,1.799975,1.0,21.61772099830406,0.011196844986200456,1.3789383695806436,0.03560858905402714,0.28865195,0.542110051210343
0.0015,1.79994375,1.0,31.068489103650833,0.016743248848360676,1.3780462673627258,0.07060172380143488,0.2886506375,0.5442634557816022
0.002,1.7999,1.0,53.58136967268097,0.022258541770163044,1.3763681977406899,0.11471785914127908,0.2886488,0.5483003180147481
0.0025,1.79984375,1.0,97.1175604076172,0.02774289825880419,1.3739352336256505,0.16457469766451932,0.28864643749999996,0.5541213043792417
0.003,1.7997750000000001,1.0,160.95669485151677,0.03319649184511008,1.3712143988536114,0.2172802506347314,0.28864354999999997,0.5605863204201273
0.0035,1.79969375,1.0,237.6818470242466,0.03861949508312771,1.3685847799603292,0.2706126843887983,0.2886401375,0.5667897320841699
0.004,1.7996,1.0,321.4653284084779,0.04401207956090731,1.3661561306139243,0.3229156027411672,0.2886362,0.5724798724931086
0.0045000000000000005,1.7994937500000001,1.0,409.26637683101194,0.04937441590568675,1.3639228464186428,0.3730343180757121,0.2886317375,0.5776790875464061
0.005,1.799375,1.0,499.4121899611968,0.05470667377498428,1.361858370273612,0.42024728330677613,0.28862675,0.5824570148690227
0.0055,1.79924375,1.0,590.7891629260993,0.06000902190404816,1.3599388595422668,0.4641735341819493,0.2886212375,0.5868750554573098
0.006,1.7991000000000001,1.0,682.5169144817455,0.06528162804904684,1.3581464364483558,0.5046798117608831,0.2886152,0.5909793688116833
0.006500000000000001,1.79894375,1.0,773.8803044360474,0.07052465904249644,1.3564672698928713,0.5418006216076623,0.2886086375,0.5948057573186316
0.007,1.798775,1.0,864.2844339048904,0.07573828077751801,1.3548904172441663,0.5756766603903594,0.28860155,0.5983826267482832
0.0075,1.79859375,1.0,953.2416176319405,0.08092265821669023,1.353406803766643,0.606509809955387,0.2885939375,0.6017335173834362
0.008,1.7984,1.0,1040.3507979539245,0.086077955307398,1.3520087590733683,0.6345320172628093,0.2885858,0.6048782957130976
0.0085,1.79819375,1.0,1125.3169466952213,0.09120433547672632,1.350689203004908,0.6599843180055674,0.2885771375,0.6078350857646123
0.009000000000000001,1.797975,1.0,1207.8847108150585,0.09630196057581059,1.3494422464272209,0.6831042256713815,0.28856795,0.6106189936603872
0.0095,1.79774375,1.0,1287.8690997344045,0.10137099187470937,1.3482624295587786,0.7041175649682098,0.2885582375,0.6132438780542626
0.01,1.7975,1.0,1365.1583248638015,0.10641159021491305,1.3471444974115845,0.7232342167288762,0.288548,0.6157228887654924
0.0105,1.79724375,1.0,1439.6570152602612,0.1114239146938536,1.3460839774757791,0.7406466135510925,0.2885372375,0.6180672210922973
0.011,1.796975,1.0,1511.309600128161,0.11640812376236037,1.3450767077295316,0.7565291445206137,0.28852595000000003,0.6202871995616946
0.0115,1.79669375,1.0,1580.1093969752492,0.12136437550182791,1.3441186218238446,0.7710386211816366,0.2885141375,0.6223927745983988
0.012,1.7964,1.0,1646.0618826709174,0.12629282691121457,1.3432061079328856,0.7843155186784374,0.28850180000000003,0.6243927534360985
0.0125,1.79609375,1.0,1709.1754785697938,0.1311936332935135,1.3423360175191088,0.7964852770879385,0.2884889375,0.6262948058327693
0.013000000000000001,1.7957750000000001,1.0,1769.491095076505,0.13606694965336272,1.3415052472756803,0.8076595235599895,0.28847555,0.6281063969489045
0.0135,1.79544375,1.0,1827.0737283321448,0.14091293075398065,1.3407107928341249,0.8179375063576362,0.2884616375,0.6298346799947132
0.014,1.7951000000000001,1.0,1881.9895683078228,0.14573173055011834,1.3399499593779394,0.8274075111262077,0.2884472,0.6314860494864074
0.0145,1.79474375,1.0,1934.290401841197,0.15052350039958912,1.3392204798568041,0.8361481242134334,0.2884322375,0.6330658993804832
0.015,1.794375,1.0,1984.0489363780032,0.15528839166020633,1.3385200872203988,0.8442291972370071,0.28841675,0.6345795616973647
0.0155,1.79399375,1.0,2031.3518831340584,0.16002655525722917,1.3378465683028207,0.8517128871038064,0.2884007375,0.6360321947895649
0.016,1.7936,1.0,2076.2889129262894,0.1647381416804172,1.3371978583897455,0.8586545936975412,0.2883842,0.637428585131917
0.0165,1.7931937500000001,1.0,2118.951707651848,0.16942330107435524,1.3365720275872215,0.8651037536098405,0.2883671375,0.6387731831818451
0.017,1.792775,1.0,2159.406818032421,0.17408218028875563,1.3359675380787916,0.8711046160976279,0.28834955,0.6400695578994761
0.0175,1.7923437500000001,1.0,2197.7314931269593,0.17871492617333062,1.3353828520479984,0.8766967424259321,0.2883314375,0.6413212453831326
0.018000000000000002,1.7919,1.0,2234.01278642582,0.18332168557779255,1.3348164316783846,0.8819155572042524,0.2883128,0.6425317508869695
0.0185,1.79144375,1.0,2268.334999979506,0.187902604056954,1.3342668559562811,0.8867928608580788,0.2882936375,0.6437043016871901
0.019,1.790975,1.0,2300.7937184300363,0.19245782849363252,1.3337326697824252,0.8913572121086552,0.28827395,0.6448421719384398
0.0195,1.79049375,1.0,2331.463625936728,0.19698750258463207,1.3332126948675211,0.8956343720758253,0.2882537375,0.6459480228926155
0.02,1.79,1.0,2360.412006074673,0.2014917684193498,1.3327058828484273,0.8996475852510799,0.288233,0.6470242204019407
0.0205,1.78949375,1.0,2387.7112240915953,0.20597076808718284,1.3322111853620016,0.9034178322931761,0.2882117375,0.6480731132664983
0.021,1.788975,1.0,2413.438301921571,0.21042464367752833,1.3317275540451023,0.9069640813161121,0.28818995000000003,0.6490970340792529
0.021500000000000002,1.78844375,1.0,2437.664360272101,0.2148535355975931,1.3312540382308613,0.9103035282457945,0.2881676375,0.6500980936088874
0.022,1.7879,1.0,2460.470304953408,0.21925758640946272,1.3307896289011047,0.9134517582259608,0.2881448,0.6510785121539203
0.0225,1.78734375,1.0,2481.9203636055686,0.22363693531599066,1.330333509132313,0.9164229648099165,0.28812143749999997,0.6520400916592224
0.023,1.786775,1.0,2502.0696961168323,0.22799171937977544,1.3298849749368673,0.9192300806640377,0.28809755,0.6529843855577246
0.0235,1.78619375,1.0,2520.9758658572573,0.2323220756634155,1.3294433223271493,0.9218848880174757,0.28807313749999996,0.6539129380550064
0.024,1.7856,1.0,2538.69863866162,0.23662814122950934,1.3290078473155398,0.9243981368909815,0.2880482,0.654827284454064
0.0245,1.78499375,1.0,2555.2997927997003,0.2409100531406555,1.32857784591442,0.9267796497518103,0.2880227375,0.6557289514484684
0.025,1.784375,1.0,2570.8326379258183,0.24516794500585296,1.3281527106238793,0.9290384291783247,0.28799675,0.6566192554534456
0.025500000000000002,1.78374375,1.0,2585.3615617554224,0.24940195648385835,1.327731744946765,0.9311827118922579,0.2879702375,0.657499691818076
0.026000000000000002,1.7831000000000001,1.0,2598.9300721132763,0.25361221983915705,1.3273144609645364,0.9332200857641989,0.2879432,0.6583713126386956
0.0265,1.78244375,1.0,2611.5811623147015,0.25779886672064267,1.326900386197924,0.9351575235939265,0.2879156375,0.6592351323458168
0.027,1.781775,1.0,2623.3588594007488,0.26196202877720903,1.3264890481676592,0.9370014392136271,0.28788755,0.6600921601612753
0.0275,1.7810937500000001,1.0,2634.308133858486,0.2661018376577498,1.3260799743944724,0.9387577397449594,0.2878589375,0.6609434001878195
0.028,1.7804,1.0,2644.4748142901653,0.2702184250111587,1.3256726923990947,0.9404318723356316,0.2878298,0.6617898514844536
0.0285,1.77969375,1.0,2653.894708340935,0.2743119193955933,1.32526682924652,0.9420288791270753,0.2878001375,0.6626323016323827
0.029,1.778975,1.0,2662.6107290400037,0.27838245295634845,1.3248619524206149,0.9435534134759965,0.28776995,0.6634716577470221
0.029500000000000002,1.7782437500000001,1.0,2670.672390003222,0.28243015831612056,1.3244575743895037,0.9450097740233756,0.2877392375,0.6643089362923458
0.03,1.7775,1.0,2678.107688210222,0.2864551609683716,1.3240534104388075,0.9464019677652235,0.287708,0.6651447295375565
0.0305,1.77674375,1.0,2684.945028967204,0.2904575864065635,1.3236491758541475,0.9477337105620447,0.2876762375,0.6659796268141935
0.031,1.775975,1.0,2691.213189818739,0.2944375601241581,1.3232445859211455,0.9490084519543244,0.28764395,0.6668142145174337
0.0315,1.7751937500000001,1.0,2696.9412862571658,0.29839520761461735,1.322839355925422,0.9502293975716404,0.2876111375,0.6676490761022282
0.032,1.7744,1.0,2702.158739228572,0.3023306543714032,1.3224332011525988,0.9513995293947576,0.2875778,0.6684847920742596
0.0325,1.77359375,1.0,2706.895244437068,0.3062440258879776,1.3220258368882967,0.9525216240995369,0.2875439375,0.6693219399757403
0.033,1.772775,1.0,2711.178213168514,0.31013544608712795,1.3216170014949744,0.9535982719376924,0.28750955,0.670161047032467
0.0335,1.7719437500000002,1.0,2715.031737223486,0.3140050369880241,1.3212064655162903,0.9546318925703092,0.2874746375,0.671002571781034
0.034,1.7711000000000001,1.0,2718.4891893237577,0.3178529271573059,1.3207939165965072,0.9556247378384283,0.2874392,0.6718471399064834
0.0345,1.7702437500000001,1.0,2721.5686707836503,0.32167923576164353,1.3203791830340244,0.9565789253949216,0.2874032375,0.6726950863471018
0.035,1.7693750000000001,1.0,2724.2884079681044,0.32548408196770734,1.3199620931272402,0.957496436089543,0.28736675,0.6735467441378675
0.035500000000000004,1.76849375,1.0,2726.6667394457118,0.3292675849421675,1.3195424751745537,0.9583791243909422,0.2873297375,0.6744024443855859
0.036000000000000004,1.7676,1.0,2728.72210379513,0.3330298638516945,1.3191201574743636,0.9592287279001077,0.2872922,0.6752625162421473
0.0365,1.76669375,1.0,2730.47302806591,0.33677103786295837,1.3186949683250686,0.9600468760438372,0.2872541375,0.6761272868759041
0.037,1.765775,1.0,2731.938116891844,0.34049122614262955,1.3182667360250675,0.9608350980273275,0.28721555,0.6769970814411671
0.0375,1.76484375,1.0,2733.136042259182,0.3441905478573783,1.3178352888727591,0.9615948301165846,0.2871764375,0.677872223045822
0.038,1.7639,1.0,2734.0772092406683,0.3478691096130984,1.3174005307713763,0.9623274269724812,0.28713679999999997,0.6787528796748998
0.0385,1.76294375,1.0,2734.7913194048006,0.3515270461938038,1.3169621908002256,0.9630341520772078,0.28709663750000003,0.6796395714385248
0.039,1.761975,1.0,2735.2890369562133,0.3551644699261768,1.3165201713201182,0.9637162063788023,0.28705595,0.6805324653937597
0.0395,1.7609937500000001,1.0,2735.5809959765547,0.35878149305649093,1.3160743752421658,0.9643747211912733,0.2870147375,0.681431726132891
0.04,1.76,1.0,2735.6778568787317,0.3623782278310201,1.3156247054774795,0.9650107629410979,0.286973,0.6823375168758111
0.0405,1.7589937500000001,1.0,2735.5903024897757,0.36595478649603774,1.315171064937171,0.9656253375731368,0.2869307375,0.6832499994463314
0.041,1.757975,1.0,2735.3290343416966,0.36951128129781774,1.3147133565323519,0.9662193946127132,0.28688795,0.6841693342478978
0.0415,1.75694375,1.0,2734.9047691717124,0.3730478244826337,1.3142514831741332,0.9667938309139985,0.2868446375,0.6850956802387037
0.042,1.7559,1.0,2734.328235631514,0.3765645282967593,1.3137853477736268,0.9673494941219367,0.28680079999999997,0.6860291949061994
0.0425,1.75484375,1.0,2733.61017120572,0.3800615049864682,1.3133148532419439,0.96788718587232,0.2867564375,0.686970034241005
0.043000000000000003,1.753775,1.0,2732.7613193384022,0.38353886679803406,1.3128399024901958,0.9684076647522946,0.28671155,0.6879183527102194
0.043500000000000004,1.75269375,1.0,2731.793946442982,0.38699672434998017,1.31236038462204,0.9689116476829127,0.28666613750000003,0.6888743307358778
0.044,1.751604661181843,1.0,2730.9349571469847,0.3904351872049095,1.3118763432818101,0.9693998259448781,0.2866203957696374,0.6898378396083116
0.0445,1.7505154560670242,1.0,2730.535415708284,0.39385436495983367,1.3113880750569524,0.9698728744652318,0.286574649154815,0.6908082484449164
0.045,1.7494262509522052,1.0,2730.5693988004055,0.39725436421836063,1.3108958671389073,0.9703314320850308,0.28652890253999264,0.6917849483289125
0.0455,1.7483370458373864,1.0,2731.0053101822814,0.4006352915840984,1.310400006719115,0.9707761049486119,0.2864831559251702,0.6927673336376701
0.046,1.7472478407225676,1.0,2731.8116370933044,0.4039972536606548,1.3099007809890162,0.9712074685006106,0.28643740931034783,0.693754802112238
0.0465,1.7461586356077488,1.0,2732.9569279100533,0.4073403570516379,1.309398477140051,0.9716260693427949,0.28639166269552546,0.6947467549216113
0.047,1.7450694304929297,1.0,2734.4097716325587,0.4106647083606556,1.3088933823636602,0.972032426961782,0.28634591608070303,0.69574259672174
0.0475,1.743980225378111,1.0,2736.1607669027103,0.41397040410093605,1.308385584234376,0.9724270197627042,0.28630016946588066,0.6967421283049191
0.048,1.7428910202632921,1.0,2738.1561870170926,0.41725756386076956,1.3078755729271467,0.9728103343278508,0.2862544228510583,0.6977443609527461
0.0485,1.741801815148473,1.0,2740.3774496401006,0.4205262905524993,1.3073635194312576,0.9731828094198959,0.28620867623623586,0.6987489378916802
0.049,1.7407126100336543,1.0,2742.8104663382824,0.4237766849243757,1.3068495539763745,0.9735448598861772,0.2861629296214135,0.6997555842617986
0.0495,1.7396234049188355,1.0,2745.441148648899,0.42700884772464925,1.3063338067921626,0.9738968810716586,0.28611718300659106,0.7007640268374427
0.05,1.7385341998040165,1.0,2748.2554027479277,0.4302228797015706,1.3058164081082875,0.9742392499157762,0.2860714363917687,0.7017739940425554
0.0505,1.7374449946891977,1.0,2751.2391244932032,0.43341888160339004,1.3052974881544146,0.9745723259781486,0.2860256897769463,0.7027852159649397
0.051000000000000004,1.7363557895743789,1.0,2754.37819484384,0.4365969541783582,1.3047771771602095,0.9748964523983593,0.28597994316212394,0.7037974243694334
0.051500000000000004,1.73526658445956,1.0,2757.658475655945,0.4397571981747256,1.3042556053553378,0.9752119567945929,0.2859341965473015,0.704810352710003
0.052000000000000005,1.734177379344741,1.0,2761.065805854259,0.4428997143407426,1.3037329029694649,0.9755191521055205,0.28588844993247914,0.7058237361407578
0.0525,1.7330881742299222,1.0,2764.5859979792826,0.44602460342465977,1.3032092002322562,0.9758183373794832,0.2858427033176567,0.7068373115258788
0.053,1.7319989691151034,1.0,2768.2062940529145,0.44913196454574444,1.3026846142051867,0.9761097975242495,0.28579695670283434,0.7078508428681675
0.0535,1.7309097640002844,1.0,2771.922692987783,0.45222189029298476,1.3021591827094139,0.976393799487927,0.28575121008801196,0.708864248419576
0.054,1.7298205588854656,1.0,2775.716820982083,0.45529449115892284,1.301633073059061,0.976670608414926,0.28570546347318954,0.7098771978218977
0.0545,1.7287313537706468,1.0,2779.583424125154,0.4583498614493512,1.3011063339679325,0.9769404693327096,0.28565971685836716,0.7108895907027803
0.055,1.7276421486558278,1.0,2783.51723623111,0.4613880954700621,1.3005790141498315,0.9772036169053019,0.28561397024354473,0.711901327336465
0.0555,1.726552943541009,1.0,2787.5129781853766,0.46440928752684807,1.3000511623185613,0.9774602759592265,0.28556822362872236,0.7129123086456645
0.056,1.7254637384261902,1.0,2791.5653573436834,0.4674135319255015,1.2995228271879262,0.9777106619785706,0.2855224770139,0.7139224362032899
0.0565,1.7243745333113711,1.0,2795.6690669838604,0.4704009229718148,1.2989940574717291,0.9779549815712217,0.2854767303990776,0.7149316122340317
0.057,1.7232853281965523,1.0,2799.8187858100246,0.47337155497158034,1.2984649018837744,0.9781934329081825,0.2854309837842552,0.7159397396157811
0.0575,1.7221961230817335,1.0,2804.0091775099036,0.4763255222305906,1.297935409137865,0.9784262061377177,0.2853852371694328,0.7169467218809088
0.058,1.7211069179669147,1.0,2808.234890363685,0.47926291905463797,1.2974056279478048,0.9786534837759718,0.2853394905546104,0.717952463217385
0.0585,1.7200177128520957,1.0,2812.4905569069674,0.48218383974951484,1.2968756070273972,0.9788754410755691,0.285293743939788,0.7189568684697526
0.059000000000000004,1.718928507737277,1.0,2816.7736384972823,0.4850883701762073,1.2963453696355536,0.9790922442631218,0.28524799732496564,0.7199598912486197
0.059500000000000004,1.717839302622458,1.0,2821.0805758338943,0.4879766041266617,1.2958149480890468,0.9793040542265888,0.28520225071014327,0.720961468389906
0.06,1.716750097507639,1.0,2825.4039783729054,0.4908486474774532,1.295284408836688,0.9795110284371419,0.28515650409532084,0.7219614728889278
0.0605,1.7156608923928203,1.0,2829.742189032669,0.4937045876971127,1.2947537669415943,0.9797133140607052,0.28511075748049847,0.7229598752351414
0.061,1.7145716872780015,1.0,2834.0935456332345,0.49654451225417084,1.2942230374668826,0.9799110526570037,0.28506501086567604,0.7239566461216882
0.0615,1.7134824821631827,1.0,2838.4563808648822,0.49936850861715837,1.2936922354756706,0.980104380436483,0.28501926425085367,0.7249517564454824
0.062,1.7123932770483636,1.0,2842.8290222610926,0.5021766642546062,1.2931613760310747,0.9802934285035799,0.2849735176360313,0.7259451773072921
0.0625,1.7113040719335448,1.0,2847.209792176905,0.5049690666350448,1.2926304741962125,0.9804783230871588,0.28492777102120886,0.7269368800117979
0.063,1.710214866818726,1.0,2851.5970077725824,0.5077458032270051,1.2920995450342005,0.9806591857588889,0.2848820244063865,0.7279268360676436
0.0635,1.709125661703907,1.0,2855.9889810013674,0.5105069614990178,1.2915686036081566,0.9808361336402721,0.28483627779156406,0.728915017187467
0.064,1.7080364565890882,1.0,2860.384018603607,0.5132526289196137,1.2910376649811972,0.9810092795989984,0.2847905311767417,0.7299013952879223
0.0645,1.7069472514742694,1.0,2864.780422104333,0.5159828929573234,1.2905067442164397,0.9811787324352453,0.2847447845619193,0.7308859424896813
0.065,1.7058580463594504,1.0,2869.176487817454,0.5186978410806777,1.2899758563770012,0.9813445970585124,0.28469903794709694,0.7318686311174261
0.0655,1.7047688412446316,1.0,2873.5705068537604,0.5213975607582075,1.2894450165259985,0.9815069746555347,0.2846532913322745,0.7328494336998228
0.066,1.7036796361298128,1.0,2877.9607651347783,0.5240821394584434,1.288914239726549,0.9816659628497854,0.28460754471745214,0.7338283229694841
0.0665,1.7025904310149937,1.0,2882.348763305775,0.526751634106589,1.2883835125607244,0.9818216524181476,0.2845617981026297,0.7348053242447019
0.067,1.701501225900175,1.0,2886.730676895196,0.5294061668599159,1.2878528687182502,0.9819741376204496,0.28451605148780734,0.7357803761819957
0.0675,1.7004120207853561,1.0,2891.105720851662,0.532045822496677,1.2873223149429915,0.9821235056960916,0.28447030487298497,0.7367534672697716
0.068,1.6993228156705373,1.0,2895.4735590776504,0.5346706808082016,1.2867918539967287,0.982269840394584,0.2844245582581626,0.7377245933709153
0.0685,1.6982336105557183,1.0,2899.833854587266,0.537280821585819,1.2862614886412416,0.9824132226317888,0.28437881164334017,0.738693750385524
0.069,1.6971444054408995,1.0,2904.1862695123514,0.5398763246208587,1.2857312216383103,0.982553730605641,0.2843330650285178,0.739660934250889
0.0695,1.6960552003260807,1.0,2908.530465107845,0.5424572697046497,1.285201055749715,0.982691439906379,0.28428731841369537,0.7406261409414793
0.07,1.6949659952112617,1.0,2912.8661017584345,0.5450237366285215,1.2846709937372358,0.9828264236215807,0.284241571798873,0.7415893664689244
0.07050000000000001,1.6938767900964429,1.0,2917.1928389844566,0.5475758051838036,1.2841410383626528,0.9829587524362854,0.2841958251840506,0.7425506068819945
0.07100000000000001,1.692787584981624,1.0,2921.5103354484113,0.5501135551618249,1.2836111923877458,0.9830884947284577,0.2841500785692282,0.743509858266585
0.07150000000000001,1.691698379866805,1.0,2925.8182489618825,0.5526370663539151,1.2830814585742953,0.9832157166600475,0.2841043319544058,0.7444671167456935
0.07200000000000001,1.6906091747519862,1.0,2930.1162364917764,0.5551464185514032,1.2825518396840812,0.9833404822638696,0.2840585853395834,0.7454223784794047
