Time [s],Phi [rad],STIM [ ],Fsee [N],Gamma [ ],Lcerel [ ],q [ ],Lmtc [m],fisomrel [ ]
0.0,1.8,1.0,18.015613212066693,0.00022223156358496625,1.3793343212893772,0.005012843934105666,0.288653,0.5411526552676262
0.0005,1.79999375,1.0,18.394030204313623,0.005830194329094901,1.379289380425869,0.013540204470464553,0.2886527375,0.5412613708423484
0.001,1.799975,1.0,21.893227054268298,0.01140670085741346,1.3789103193504928,0.036723075335975214,0.28865195,0.5421778376585062
0.0015,1.79994375,1.0,31.684551445846846,0.016951927594135857,1.3779940379810847,0.07212169865850662,0.2886506375,0.5443893726108238
0.002,1.7999,1.0,54.8750595921897,0.022466049993011883,1.3762847695848945,0.11651440946372915,0.2886488,0.548500549038402
0.0025,1.79984375,1.0,99.26408181206003,0.027949242524725224,1.3738323624645445,0.16652694107285748,0.28864643749999996,0.5543665968564331
0.003,1.7997750000000001,1.0,163.73165554821315,0.033401678682814746,1.3711109728308415,0.21929285069199664,0.28864354999999997,0.5608311410859261
0.0035,1.79969375,1.0,240.80726537011978,0.038823530984796906,1.3684888229255676,0.27261344835590595,0.2886401375,0.5670152658766892
0.004,1.7996,1.0,324.7845774502188,0.04421497098243458,1.366068441960666,0.3248521884303154,0.2886362,0.572684616710748
0.0045000000000000005,1.7994937500000001,1.0,412.6995500627486,0.04957616926709239,1.3638424249253165,0.37487215966242293,0.2886317375,0.5778657201035251
0.005,1.799375,1.0,502.91216663297996,0.05490729546158712,1.36178412581486,0.42196639393410756,0.28862675,0.5826283364425306
0.0055,1.79924375,1.0,594.3176701369109,0.06020851825843411,1.3598700236231935,0.46576495034747906,0.2886212375,0.5870330551576599
0.006,1.7991000000000001,1.0,686.0466765597869,0.06548000538638164,1.358082357455237,0.5061421864954613,0.2886152,0.5911257183651145
0.006500000000000001,1.79894375,1.0,777.3860534952885,0.07072192362410959,1.3564074920426887,0.5431376585531699,0.2886086375,0.5949416441831656
0.007,1.798775,1.0,867.7474460787819,0.07593443888810349,1.3548345343782568,0.5768950670538225,0.28860155,0.5985090982543548
0.0075,1.79859375,1.0,956.6407348520909,0.0811177159601555,1.3533545683116877,0.6076179777081434,0.2885939375,0.6018512406035104
0.008,1.7984,1.0,1043.6889644506298,0.08627191911150647,1.3519596504784013,0.6355388190545732,0.2885858,0.6049885345507705
0.0085,1.79819375,1.0,1128.5705855777253,0.09139721116536177,1.350643176741577,0.6608989507095384,0.2885771375,0.6079380185094874
0.009000000000000001,1.797975,1.0,1211.0398875231679,0.09649375423297211,1.3493991625291206,0.6839354873375211,0.28856795,0.6107150039028991
0.0095,1.79774375,1.0,1290.939582851439,0.10156171004600055,1.3482218226803993,0.7048735277327773,0.2885582375,0.6133340631669024
0.01,1.7975,1.0,1368.129152405055,0.10660123850523284,1.3471063348757033,0.7239225382354966,0.288548,0.6158073733710336
0.0105,1.79724375,1.0,1442.5194661614955,0.11161249896389211,1.3460481694654172,0.7412742286660016,0.2885372375,0.6181462513062307
0.011,1.796975,1.0,1514.0762613012648,0.11659565041291933,1.3450429270788935,0.7571021934698543,0.28852595000000003,0.6203615384975427
0.0115,1.79669375,1.0,1582.7784570115662,0.12155085055729287,1.344086749123441,0.7715627031695496,0.2885141375,0.6224627202731576
0.012,1.7964,1.0,1648.618483278204,0.12647825564352388,1.3431761950237038,0.7847957058780303,0.28850180000000003,0.6244582243911123
0.0125,1.79609375,1.0,1711.6222421412435,0.13137802143858693,1.3423079224106829,0.7969260047479143,0.2884889375,0.626356142394394
0.013000000000000001,1.7957750000000001,1.0,1771.8479794168004,0.13625030398494678,1.3414786487898,0.8080646650699379,0.28847555,0.6281643253210855
0.0135,1.79544375,1.0,1829.3447999579769,0.14109525740558113,1.3406855693382596,0.8183105797831155,0.2884616375,0.6298894861118174
0.014,1.7951000000000001,1.0,1884.1585060502498,0.14591303406773615,1.3399262237467926,0.8277517260927357,0.2884472,0.6315375076825431
0.0145,1.79474375,1.0,1936.3588387153536,0.15070378633865797,1.339198151706131,0.8364662653491004,0.2884322375,0.6331142024207413
0.015,1.794375,1.0,1986.027551918435,0.1554676658496516,1.3384989978134043,0.844523710811574,0.28841675,0.6346250908141611
0.0155,1.79399375,1.0,2033.2561003553485,0.1602048245973176,1.3378265092905803,0.8519859392621556,0.2884007375,0.6360754133308082
0.016,1.7936,1.0,2078.1200410105457,0.1649154122291961,1.3371787789118077,0.8589081634957598,0.2883842,0.6374696143225201
0.0165,1.7931937500000001,1.0,2120.6903297749227,0.1695995767774982,1.3365540949983554,0.8653396705129973,0.2883671375,0.6388116745530548
0.017,1.792775,1.0,2161.050320095913,0.17425746627443514,1.335950745871493,0.8713244650147679,0.28834955,0.6401055368252154
0.0175,1.7923437500000001,1.0,2199.2906811540124,0.1788892283156792,1.335367060614853,0.8769019047157065,0.2883314375,0.6413550212198771
0.018000000000000002,1.7919,1.0,2235.499701945613,0.18349500985012956,1.3348014948428604,0.8821072691758495,0.2883128,0.6425636449329916
0.0185,1.79144375,1.0,2269.7703842961296,0.1880749581025389,1.3342525461653199,0.8869722126935744,0.2882936375,0.6437348067028085
0.019,1.790975,1.0,2302.168909919299,0.1926292164591159,1.3337190570022235,0.8915252559534657,0.28827395,0.6448711447498301
0.0195,1.79049375,1.0,2332.7678380289144,0.19715792830606912,1.3331998697735625,0.8957920602398252,0.2882537375,0.6459752767311255
0.02,1.79,1.0,2361.6455785361186,0.2016612370296072,1.332693826899329,0.8997957520151494,0.288233,0.6470498008389011
0.0205,1.78949375,1.0,2388.881562504564,0.20613928525649364,1.3321998128938397,0.9035572164467929,0.2882117375,0.6480972076316898
0.021,1.788975,1.0,2414.5537567583106,0.21059221538615386,1.3317167727459625,0.9070953501428863,0.28818995000000003,0.6491198427264142
0.021500000000000002,1.78844375,1.0,2438.7398282952727,0.21502016991264772,1.3312436951473134,0.9104272750858863,0.2881676375,0.6501199439577605
0.022,1.7879,1.0,2461.4983271621677,0.21942328725890553,1.3307797879866983,0.9135685636415652,0.2881448,0.6510992725110809
0.0225,1.78734375,1.0,2482.8908506827274,0.22380170584785766,1.3303242591529219,0.9165333611066871,0.28812143749999997,0.6520595784919431
0.023,1.786775,1.0,2502.981790217217,0.22815556410243445,1.3298763165347898,0.9193345362401135,0.28809755,0.6530026013693853
0.0235,1.78619375,1.0,2521.8380918335574,0.23248500044556625,1.3294351680211072,0.9219838141376795,0.28807313749999996,0.6539300703791611
0.024,1.7856,1.0,2539.517273228264,0.23679015032186593,1.3290001322987595,0.9244919122799259,0.2880482,0.6548434724087971
0.0245,1.78499375,1.0,2556.087149179027,0.2410711542800604,1.3285704497876192,0.9268686128027962,0.2880227375,0.6557444500202858
0.025,1.784375,1.0,2571.5969065901286,0.24532814677802176,1.328145553076105,0.9291228970899622,0.28799675,0.6566342346823251
0.025500000000000002,1.78374375,1.0,2586.0925928225874,0.24956126083984856,1.32772491791582,0.9312630010932259,0.2879702375,0.6575139610238172
0.026000000000000002,1.7831000000000001,1.0,2599.6215619105446,0.25377062948963947,1.3273080200583662,0.9332964813025488,0.2879432,0.6583847576705106
0.0265,1.78244375,1.0,2612.2323624581845,0.257956385751493,1.3268943352553466,0.9352302799744211,0.2879156375,0.659247747378715
0.027,1.781775,1.0,2623.97463163096,0.26211866264950784,1.326483339258364,0.9370707833027241,0.28788755,0.6601040471514925
0.0275,1.7810937500000001,1.0,2634.8918714658557,0.2662575911822115,1.3260745737236355,0.9388238824763119,0.2878589375,0.6609546312849153
0.028,1.7804,1.0,2645.0261890727193,0.2703733032387606,1.3256676009439259,0.940495013582777,0.2878298,0.6618004263247061
0.0285,1.77969375,1.0,2654.4317686128466,0.2744659333699514,1.3252618787747172,0.942089181571386,0.2878001375,0.6626425708416491
0.029,1.778975,1.0,2663.139770603239,0.2785356085970074,1.3248570838467766,0.9436110408144187,0.28776995,0.6634817444979859
0.029500000000000002,1.7782437500000001,1.0,2671.1818825312507,0.2825824559411517,1.3244528927908714,0.9450648982655881,0.2877392375,0.6643186235957759
0.03,1.7775,1.0,2678.590272892407,0.28660660242360786,1.3240489822377688,0.9464547438383809,0.287708,0.6651538810926856
0.0305,1.77674375,1.0,2685.397547546615,0.29060817506559916,1.3236450288182362,0.9477842777674023,0.2876762375,0.6659881866111067
0.031,1.775975,1.0,2691.6367083931564,0.2945873008883489,1.3232407091630405,0.9490569352851297,0.28764395,0.666822206440608
0.0315,1.7751937500000001,1.0,2697.3411143632557,0.2985441069130804,1.3228356999029494,0.9502759089065859,0.2876111375,0.6676566035337144
0.032,1.7744,1.0,2702.537680424318,0.302478716488935,1.3224297394596376,0.9514441750042875,0.2875778,0.6684919104336423
0.0325,1.77359375,1.0,2707.2588007187123,0.306391258179441,1.3220225186411858,0.9525645009738141,0.2875439375,0.669328754744857
0.033,1.772775,1.0,2711.5316162530207,0.31028185663168206,1.3216137784636315,0.9536394710010222,0.28750955,0.6701676578518692
0.0335,1.7719437500000002,1.0,2715.377581248965,0.31415063279418726,1.321203313660267,0.9546715011229411,0.2874746375,0.6710090283598984
0.034,1.7711000000000001,1.0,2718.8183196540076,0.3179977076154859,1.3207909189643847,0.9556628474064803,0.2874392,0.6718532726721478
0.0345,1.7702437500000001,1.0,2721.8756077661888,0.32182320204410725,1.3203763891092766,0.9566156184275668,0.2874032375,0.6727007949658846
0.035,1.7693750000000001,1.0,2724.571357792176,0.32562723702858054,1.3199595188282351,0.957531786637388,0.28736675,0.6735519971658299
0.035500000000000004,1.76849375,1.0,2726.927602340701,0.32940993351743497,1.3195401028545521,0.9584131987266264,0.2873297375,0.674407278914867
0.036000000000000004,1.7676,1.0,2728.966479849005,0.3331714124591999,1.3191179359215204,0.9592615850864453,0.2872922,0.6752670375420549
0.0365,1.76669375,1.0,2730.6957580010944,0.3369117839328958,1.3186929441961623,0.9600785793336658,0.2872541375,0.6761314008915235
0.037,1.765775,1.0,2732.150561211984,0.34063118174469686,1.3182648058858686,0.9608656951528408,0.28721555,0.6770009991531581
0.0375,1.76484375,1.0,2733.3458631047906,0.3443297222198003,1.3178333829861817,0.961624368522408,0.2871764375,0.6778760862868596
0.038,1.7639,1.0,2734.2940011016503,0.34800751946945885,1.3173985619044875,0.9623559510910709,0.28713679999999997,0.6787568651178675
0.0385,1.76294375,1.0,2735.007356043174,0.3516646876049253,1.3169602290481717,0.9630617142975293,0.28709663750000003,0.6796435369953142
0.039,1.761975,1.0,2735.498346671798,0.35530134073745245,1.3165182708246201,0.9637428549998026,0.28705595,0.6805363017671953
0.0395,1.7609937500000001,1.0,2735.7794244027127,0.35891759297829295,1.3160725736412187,0.9644005006509955,0.2870147375,0.6814353577545167
0.04,1.76,1.0,2735.8630683791516,0.3625135584386996,1.3156230239053528,0.965035714062525,0.286973,0.6823409017246209
0.0405,1.7589937500000001,1.0,2735.7617808153245,0.36608935122992514,1.3151695080244088,0.9656494977917169,0.2869307375,0.6832531288636867
0.041,1.757975,1.0,2735.488082624341,0.3696450854632224,1.314711912405772,0.9662427981870482,0.28688795,0.684172232748411
0.0415,1.75694375,1.0,2735.054509332588,0.37318087524984406,1.3142501234568285,0.966816509121051,0.2868446375,0.6850984053168625
0.042,1.7559,1.0,2734.4707768633752,0.37669682901059354,1.3137840532889846,0.967371476644162,0.28680079999999997,0.6860317854003051
0.0425,1.75484375,1.0,2733.7472808211105,0.3801930609590512,1.3133136079202485,0.9679085013652902,0.2867564375,0.6869725226147856
0.043000000000000003,1.753775,1.0,2732.8956166045973,0.3836696884250914,1.3128386825224079,0.9684283405128479,0.28671155,0.6879207867271815
0.043500000000000004,1.75269375,1.0,2731.9227531608267,0.3871268184013657,1.3123592143231215,0.9689317128313365,0.28666613750000003,0.688876662077303
0.044,1.7516,1.0,2730.8356629146842,0.3905645578805257,1.3118751405500473,0.9694192993050147,0.2866202,0.6898402318459447
0.0445,1.75049375,1.0,2729.6413202788085,0.39398301385522305,1.311386398430844,0.9698917455115836,0.2865737375,0.6908115780365678
0.045,1.7493750000000001,1.0,2728.3467002502566,0.3973822933181093,1.31089292519317,0.9703496638068113,0.28652675,0.691790781456741
0.0455,1.74824375,1.0,2726.9587770946296,0.40076250326183616,1.3103946580646835,0.9707936353537728,0.2864792375,0.6927779216993247
0.046,1.7471,1.0,2725.484523117759,0.4041237506790552,1.309891534273043,0.9712242120091625,0.2864312,0.6937730771234036
0.0465,1.7459437500000001,1.0,2723.9309075244964,0.407466142562418,1.309383491045907,0.9716419180780211,0.28638263750000004,0.6947763248349719
0.047,1.744775,1.0,2722.304895364965,0.41078978590457615,1.3088704656109338,0.9720472519472305,0.28633355,0.6957877406673627
0.0475,1.74359375,1.0,2720.6134465686323,0.4140947876981813,1.3083523951957816,0.9724406876072176,0.28628393750000003,0.6968073991614303
0.048,1.7424,1.0,2718.8580427541833,0.41738122370793085,1.3078292668665696,0.9728226756456372,0.2862338,0.697835275702775
0.0485,1.74119375,1.0,2717.051294195111,0.42064924110937507,1.307300966307086,0.9731936469067936,0.2861831375,0.6988715437076887
0.049,1.739975,1.0,2715.196402127436,0.42389894001236866,1.3067674648145606,0.9735540117694778,0.28613195,0.6999162070511713
0.0495,1.73874375,1.0,2713.2963147092455,0.427130419126299,1.30622873596674,0.9739041612908398,0.2860802375,0.7009692642481272
0.05,1.7375,1.0,2711.3539772518843,0.4303437771605535,1.3056847533413698,0.9742444683036948,0.286028,0.7020307129292918
0.0505,1.73624375,1.0,2709.372331982676,0.4335391128245197,1.3051354905161967,0.974575288426509,0.2859752375,0.7031005498323981
0.051000000000000004,1.734975,1.0,2707.3543178236396,0.43671652482758494,1.3045809210689665,0.9748969610086972,0.28592195,0.7041787707933036
0.051500000000000004,1.73369375,1.0,2705.3028701852336,0.4398761118791368,1.3040210185774255,0.9752098100159179,0.2858681375,0.7052653707370686
0.052000000000000005,1.7324,1.0,2703.220920775803,0.44301797268856263,1.3034557566193197,0.9755141448596633,0.2858138,0.7063603436689931
0.0525,1.73109375,1.0,2701.1113974265713,0.4461422059652499,1.3028851087723954,0.9758102611751103,0.28575893750000003,0.7074636826656066
0.053,1.729775,1.0,2698.9772239317863,0.44924891041858606,1.302309048614399,0.9760984415508753,0.28570355000000003,0.7085753798656155
0.0535,1.72844375,1.0,2696.821319904997,0.4523381847579586,1.3017275497230758,0.976378956214039,0.2856476375,0.7096954264608062
0.054,1.7271,1.0,2694.646600649926,0.455410127692755,1.3011405856761729,0.9766520636735381,0.2855912,0.7108238126868993
0.0545,1.7257437500000001,1.0,2692.455977047606,0.45846483793236265,1.300548130051436,0.9769180113247874,0.2855342375,0.7119605278143657
0.055,1.724375,1.0,2690.2523554584077,0.461502414186169,1.2999501564266114,0.9771770360181745,0.28547675,0.7131055601391945
0.0555,1.72299375,1.0,2688.038637640066,0.46452295516356146,1.299346638379445,0.9774293645938682,0.2854187375,0.7142588969736154
0.056,1.7216,1.0,2685.8123420645697,0.46752652406400624,1.298737598773263,0.9776752139700831,0.2853602,0.7154204307371969
0.0565,1.72019375,1.0,2683.579608375437,0.4705132496887104,1.29812298147926,0.9779147935548742,0.28530113749999997,0.7165902038071326
0.057,1.718775,1.0,2681.344008077777,0.4734832405388597,1.2975027538277981,0.9781483035724293,0.28524155,0.7177682125793258
0.0575,1.71734375,1.0,2679.1063722881795,0.4764365858510891,1.2968769082371574,0.9783759357610035,0.2851814375,0.7189544048327373
0.058,1.7159,1.0,2676.8675307490967,0.4793733748620336,1.296245437125619,0.9785978741059629,0.2851208,0.7201487276219738
0.0585,1.71444375,1.0,2674.6283118249657,0.48229369680832795,1.295608332911463,0.9788142952129608,0.2850596375,0.7213511272745718
0.059000000000000004,1.7129750000000001,1.0,2672.389542499483,0.4851976409266072,1.2949655880129702,0.9790253686602938,0.28499795,0.722561549388274
0.059500000000000004,1.71149375,1.0,2670.152048374146,0.4880852964535061,1.2943171948484216,0.9792312573317499,0.2849357375,0.7237799388283044
0.06,1.71,1.0,2667.916653668334,0.4909567526256597,1.293663145836097,0.9794321177311717,0.284873,0.7250062397246404
0.0605,1.7084937500000001,1.0,2665.684181220211,0.4938120986797028,1.2930034333942775,0.979628100279876,0.2848097375,0.7262403954692769
0.061,1.7069750000000001,1.0,2663.4554524893147,0.4966514238522704,1.2923380499412436,0.9798193495979854,0.28474595,0.7274823487134916
0.0615,1.7054437500000001,1.0,2661.231287560172,0.4994748173799974,1.2916669878952758,0.980006004770658,0.2846816375,0.7287320413651055
0.062,1.7039,1.0,2659.012505147639,0.5022823684995186,1.2909902396746546,0.980188199600138,0.2846168,0.7299894145857369
0.0625,1.70234375,1.0,2656.799922602474,0.5050741664474689,1.290307797697661,0.9803660628444768,0.2845514375,0.7312544087880548
0.063,1.7007750000000001,1.0,2654.5943559194216,0.5078503004604833,1.2896196543825749,0.9805397184437306,0.28448555,0.7325269636330289
0.0635,1.69919375,1.0,2652.396619746051,0.5106108597751967,1.2889258021476775,0.9807092857343739,0.28441913750000003,0.733807018027172
0.064,1.6976,1.0,2650.207527392222,0.5133559336282439,1.2882262334112489,0.9808748796526283,0.2843522,0.7350945101197841
0.0645,1.69599375,1.0,2648.027890842247,0.51608561125626,1.2875209405915702,0.9810366109273561,0.2842847375,0.7363893773001874
0.065,1.694375,1.0,2645.858520767005,0.5187999818958796,1.2868099161069215,0.9811945862631235,0.28421675,0.7376915561949637
0.0655,1.69274375,1.0,2643.6985676623385,0.521499099519559,1.2860931676968665,0.9813489068074732,0.2841482375,0.7390009547103719
0.066,1.6911,1.0,2641.549249329798,0.524183076452354,1.2853706840127324,0.9814996732162538,0.2840792,0.7403175150067132
0.0665,1.6894437500000001,1.0,2639.4116402572618,0.5268520177961403,1.284642455012547,0.9816469821079171,0.2840096375,0.7416411760345349
0.067,1.687775,1.0,2637.2857396838513,0.5295060033919429,1.2839084805816496,0.981790925451197,0.28393955,0.7429718579522292
0.0675,1.68609375,1.0,2635.171546895882,0.5321451130807867,1.2831687606053794,0.9819315919994599,0.2838689375,0.7443094802844813
0.068,1.6844000000000001,1.0,2633.069061226727,0.5347694267036966,1.2824232949690755,0.9820690674240723,0.2837978,0.7456539619222277
0.0685,1.68269375,1.0,2630.9782820568807,0.5373790241016979,1.2816720835580773,0.9822034344413317,0.2837261375,0.7470052211226132
0.069,1.680975,1.0,2628.899208814696,0.5399739851158152,1.2809151262577239,0.9823347729333121,0.28365395,0.748363175508951
0.0695,1.67924375,1.0,2626.83184097616,0.5425543895870737,1.2801524229533543,0.9824631600629574,0.28358123749999997,0.7497277420706789
0.07,1.6775,1.0,2624.776178065599,0.5451203173564984,1.279383973530308,0.9825886703837322,0.283508,0.7510988371633167
0.07050000000000001,1.67574375,1.0,2622.7322196555488,0.5476718482651141,1.278609777873924,0.9827113759441228,0.2834342375,0.752476376508427
0.07100000000000001,1.673975,1.0,2620.699965367173,0.5502090621539458,1.2778298358695417,0.9828313463872627,0.28335995,0.7538602751935699
0.07150000000000001,1.67219375,1.0,2618.6794148705826,0.5527320388640188,1.2770441474025,0.98294864904594,0.2832851375,0.7552504476722635
0.07200000000000001,1.6704,1.0,2616.6705678850985,0.5552408582363577,1.2762527123581384,0.9830633490332329,0.2832098,0.7566468077639401
0.0725,1.66859375,1.0,2614.673424179245,0.5577356001119875,1.2754555306217956,0.9831755093289974,0.2831339375,0.7580492686539063
0.073,1.6667750000000001,1.0,2612.687983571398,0.5602163443319335,1.2746526020788114,0.9832851908624264,0.28305755,0.7594577428932975
0.0735,1.66494375,1.0,2610.7142459297543,0.5626831707372204,1.2738439266145247,0.9833924525908811,0.2829806375,0.7608721423990396
0.074,1.6631,1.0,2608.7522111726826,0.5651361591688733,1.2730295041142745,0.9834973515751857,0.2829032,0.7622923784538054
0.0745,1.6612437500000001,1.0,2606.801879268923,0.5675753894679171,1.2722093344634005,0.9835999430515675,0.2828252375,0.7637183617059713
0.075,1.659375,1.0,2604.8632502380997,0.5700009414753768,1.2713834175472414,0.983700280500409,0.28274675,0.765150002169578
0.0755,1.65749375,1.0,2602.9359607142746,0.572412891863243,1.270551756633997,0.9837984156835742,0.2826677375,0.7665872033873038
