Time [s],Phi [rad],STIM [ ],Fsee [N],Gamma [ ],Lcerel [ ],q [ ],Lmtc [m],fisomrel [ ]
0.0,1.8,1.0,18.006941099852916,0.00020160985454935947,1.3793352916653072,0.005010579031459792,0.288653,0.5411503077078965
0.0005,1.79999375,1.0,18.37882671561339,0.005809688291536988,1.379291064192719,0.01348101561705815,0.2886527375,0.5412572979067434
0.001,1.799975,1.0,21.862738968298537,0.011386309842510408,1.3789134147301525,0.036614031686737686,0.28865195,0.5421703575814268
0.0015,1.79994375,1.0,31.62053224037955,0.01693165095669813,1.377999441708304,0.071973473189173,0.2886506375,0.5443763458807735
0.002,1.7999,1.0,54.74456540578961,0.022445887091491527,1.3762931400475051,0.11633953197783692,0.2886488,0.5484804615854231
0.0025,1.79984375,1.0,99.05087137740195,0.02792919272112812,1.373842530408957,0.16633711339824636,0.28864643749999996,0.554342354774962
0.003,1.7997750000000001,1.0,163.45815008683041,0.03338174134276714,1.3711211275644455,0.21909728904312198,0.28864354999999997,0.5608071067451996
0.0035,1.79969375,1.0,240.50039329622822,0.038803705477471695,1.3684982168785071,0.27241913232829174,0.2886401375,0.5669931892772981
0.004,1.7996,1.0,324.45935783650754,0.044195256680534284,1.366077013822622,0.3246641737007695,0.2886362,0.572664604434668
0.0045000000000000005,1.7994937500000001,1.0,412.3636208111739,0.049556565546810406,1.3638502792094211,0.3746937791311867,0.2886317375,0.57784749464039
0.005,1.799375,1.0,502.5700844445396,0.05488780170258383,1.3617913709358054,0.4217995689034217,0.28862675,0.5826116196313472
0.0055,1.79924375,1.0,593.9730143882053,0.060189133844106395,1.359876738322373,0.4656105385501764,0.2886212375,0.5870176441787316
0.006,1.7991000000000001,1.0,685.7019425029333,0.06546072970317862,1.358088608452427,0.5060003104638531,0.2886152,0.5911114429100905
0.006500000000000001,1.79894375,1.0,777.0436925844651,0.07070275606373444,1.3564133238209464,0.5430079519129988,0.2886086375,0.5949283884021213
0.007,1.798775,1.0,867.4086742041352,0.07591537884015473,1.354839996236787,0.5767768804096767,0.28860155,0.5984967381080262
0.0075,1.79859375,1.0,956.30792204895,0.08109876282912795,1.3533596786628683,0.6075104900543997,0.2885939375,0.6018397241558496
0.008,1.7984,1.0,1043.3630184630667,0.08625307228942651,1.3519644420875259,0.6354411568858833,0.2885858,0.604977779037043
0.0085,1.79819375,1.0,1128.2523953262692,0.09137847005301653,1.3506476749595766,0.6608102331280444,0.2885771375,0.6079279593285813
0.009000000000000001,1.797975,1.0,1210.731828866608,0.09647511825726679,1.3494033665918979,0.6838548519523365,0.28856795,0.6107056358872699
0.0095,1.79774375,1.0,1290.6421037945513,0.10154317860546454,1.3482257547014729,0.7048001791375138,0.2885582375,0.6133253308756048
0.01,1.7975,1.0,1367.8410043868796,0.10658281098817862,1.347110034540145,0.7238557533867239,0.288548,0.6157991834232761
0.0105,1.79724375,1.0,1442.2409194799584,0.11159417476832488,1.346051652401403,0.7412133379480695,0.2885372375,0.6181385646373041
0.011,1.796975,1.0,1513.808651058077,0.11657742907127586,1.3450461932236362,0.7570465861059481,0.28852595000000003,0.6203543512177205
0.0115,1.79669375,1.0,1582.520123259879,0.12153273142560235,1.3440898328523052,0.771511847093487,0.2885141375,0.6224559532132419
0.012,1.7964,1.0,1648.3691506206956,0.1264602381283528,1.343179111261155,0.7847491175885916,0.28850180000000003,0.6244518418176139
0.0125,1.79609375,1.0,1711.3827414998636,0.13136010501379294,1.3423106716040738,0.7968832477429648,0.2884889375,0.6263501406440304
0.013000000000000001,1.7957750000000001,1.0,1771.6188858320863,0.1362324881032213,1.3414812334360773,0.8080253520442,0.28847555,0.6281586964635693
0.0135,1.79544375,1.0,1829.1251685955524,0.14107754139737289,1.340688007974281,0.8182743726265505,0.2884616375,0.6298841875717995
0.014,1.7951000000000001,1.0,1883.948234942942,0.14589541735897468,1.3399285242369496,0.8277183206710073,0.2884472,0.6315325204403366
0.0145,1.79474375,1.0,1936.1587351556157,0.15068626845075372,1.3392003112423485,0.8364353877603865,0.2884322375,0.6331095307815495
0.015,1.794375,1.0,1985.8342851835914,0.15545024623350367,1.3385010573163574,0.8444951323853097,0.28841675,0.6346206447567224
0.0155,1.79399375,1.0,2033.0725453267917,0.16018750289662304,1.3378284424489082,0.8519594345247198,0.2884007375,0.6360712483180635
0.016,1.7936,1.0,2077.9454341214723,0.16489818762361352,1.3371805978693427,0.8588835430671585,0.2883842,0.637465702871405
0.0165,1.7931937500000001,1.0,2120.524969943984,0.16958244863477256,1.3365558002451265,0.8653167621619308,0.2883671375,0.63880801441761
0.017,1.792775,1.0,2160.8956178283966,0.17424043415039767,1.3359523262437247,0.8713031116957565,0.28834955,0.6401021508017537
0.0175,1.7923437500000001,1.0,2199.145157962426,0.17887229155538287,1.3353685342346808,0.8768819739417322,0.2883314375,0.6413518694045973
0.018000000000000002,1.7919,1.0,2235.368104895863,0.183478168762125,1.3348028166028896,0.8820886260780881,0.2883128,0.6425608226874104
0.0185,1.79144375,1.0,2269.6443157264384,0.18805821145815502,1.3342538028006672,0.8869547692038241,0.2882936375,0.6437321279122854
0.019,1.790975,1.0,2302.043910587275,0.19261256339517252,1.3337202941807493,0.8915089228459006,0.28827395,0.6448685116451343
0.0195,1.79049375,1.0,2332.6435216551245,0.197141368324877,1.3332010920958717,0.8957767474320287,0.2882537375,0.6459726792924696
0.02,1.79,1.0,2361.5257469903427,0.20164476999896805,1.3326949978987703,0.8997813688379218,0.288233,0.6470473162408712
0.0205,1.78949375,1.0,2388.762731995442,0.20612291005632855,1.3322009674722377,0.9035436964576709,0.2882117375,0.6480947615131036
0.021,1.788975,1.0,2414.4475907226642,0.2105759333330478,1.3317177987742,0.9070826026387536,0.28818995000000003,0.6491176721186206
0.021500000000000002,1.78844375,1.0,2438.6420689920515,0.21500397942785407,1.3312446352322471,0.9104152487634063,0.2881676375,0.6501179580033659
0.022,1.7879,1.0,2461.406451909586,0.21940718721711833,1.3307806673942773,0.9135572087129832,0.2881448,0.6510974173411879
0.0225,1.78734375,1.0,2482.8041121483666,0.2237856955772116,1.3303250858081876,0.9165226291572357,0.28812143749999997,0.6520578370083339
0.023,1.786775,1.0,2502.901250865911,0.22813964338450488,1.3298770810218767,0.9193243801067318,0.28809755,0.6530009930372646
0.0235,1.78619375,1.0,2521.7604093047075,0.23246916821317246,1.3294359026288092,0.9219741981702914,0.28807313749999996,0.653928526974304
0.024,1.7856,1.0,2539.446422876815,0.23677440840411748,1.3290007999610227,0.9244827929068031,0.2880482,0.6548420715083135
0.0245,1.78499375,1.0,2556.0227799416475,0.2410555017460987,1.3285710544050275,0.926859955865584,0.2880227375,0.6557431830585728
0.025,1.784375,1.0,2571.5357395985247,0.2453125818625515,1.328146125879567,0.9291146756172698,0.28799675,0.6566330359382377
0.025500000000000002,1.78374375,1.0,2586.033011578009,0.24954578237691127,1.327725474303385,0.9312551880295835,0.2879702375,0.6575127981269813
0.026000000000000002,1.7831000000000001,1.0,2599.5636341970326,0.2537552369126135,1.3273085595952248,0.9332890495192984,0.2879432,0.6583836314276122
0.0265,1.78244375,1.0,2612.177858780484,0.25794107909309344,1.32689484167383,0.9352232022820011,0.2879156375,0.6592466916040869
0.027,1.781775,1.0,2623.922345168542,0.26210344128825336,1.3264838239873438,0.9370640386651811,0.28788755,0.6601030378654373
0.0275,1.7810937500000001,1.0,2634.8401193445675,0.26624245549549647,1.32607505250393,0.9388174525909644,0.2878589375,0.6609536356331611
0.028,1.7804,1.0,2644.9865039693373,0.2703582563072952,1.3256679673827956,0.940488864640221,0.2878298,0.6617996652447653
0.0285,1.77969375,1.0,2654.3951188177684,0.27445097174843397,1.325262216586384,0.9420833070116557,0.2878001375,0.66264187009347
0.029,1.778975,1.0,2663.1001898427776,0.278520729843697,1.3248574480771387,0.9436054310074863,0.28776995,0.6634809898877843
0.029500000000000002,1.7782437500000001,1.0,2671.136496072703,0.2825676586178688,1.3244533098175024,0.9450595407804356,0.2877392375,0.6643177606775121
0.03,1.7775,1.0,2678.5393192562888,0.2865918860957335,1.3240494497699191,0.9464496236877584,0.287708,0.6651529148718517
0.0305,1.77674375,1.0,2685.3443962563038,0.2905935403020756,1.3236455158968319,0.9477793776303545,0.2876762375,0.6659871812495968
0.031,1.775975,1.0,2691.583748305729,0.2945727478010739,1.323241193926623,0.9490522400533021,0.28764395,0.6668212071074339
0.0315,1.7751937500000001,1.0,2697.2865921144617,0.2985296351800255,1.3228361984376544,0.950271409111804,0.2876111375,0.6676555770992456
0.032,1.7744,1.0,2702.4896275491906,0.30246433048709476,1.322430178417475,0.9514398523499668,0.2875778,0.6684910077987094
0.0325,1.77359375,1.0,2707.2162657700846,0.30637695614900273,1.3220229068542173,0.952560346340078,0.2875439375,0.669327957465434
0.033,1.772775,1.0,2711.490137763504,0.3102676345924705,1.3216141567360147,0.9536354790088285,0.28750955,0.6701668819737953
0.0335,1.7719437500000002,1.0,2715.3350727995207,0.31413648824421914,1.321203701051,0.9546676647217645,0.2874746375,0.6710082347931754
0.034,1.7711000000000001,1.0,2718.775078031774,0.31798363953096986,1.3207913127873063,0.9556591579905079,0.2874392,0.6718524669649126
0.0345,1.7702437500000001,1.0,2721.834319240082,0.32180921087944375,1.3203767649330667,0.9566120659430432,0.2874032375,0.6727000270759648
0.035,1.7693750000000001,1.0,2724.5327605883667,0.32561332140554844,1.3199598699806552,0.9575283631095385,0.28736675,0.673551280618502
0.035500000000000004,1.76849375,1.0,2726.891767845773,0.3293960930933807,1.3195404287312362,0.9584098975783297,0.2873297375,0.6744066148158729
0.036000000000000004,1.7676,1.0,2728.937817689683,0.333157651770009,1.3191181964758678,0.9592583972086239,0.2872922,0.675266507263997
0.0365,1.76669375,1.0,2730.6857701237327,0.3368981136671671,1.3186930349623966,0.9600754909808061,0.2872541375,0.6761312164108949
0.037,1.765775,1.0,2732.150555400401,0.34061759501658884,1.3182648059386681,0.9608627077158954,0.28721555,0.6770009990459883
0.0375,1.76484375,1.0,2733.3471659079282,0.34431621205000784,1.3178333711525285,0.9616214833506481,0.2871764375,0.6778761102736577
0.038,1.7639,1.0,2734.2906484811265,0.347994080999158,1.3173985923518239,0.9623531676067713,0.28713679999999997,0.6787568034855891
0.0385,1.76294375,1.0,2734.9960971358228,0.35165131809577294,1.3169603312844003,0.9630590301108057,0.28709663750000003,0.679643330331898
0.039,1.761975,1.0,2735.4786462269367,0.3552880395715865,1.3165184496981037,0.9637402660154121,0.28705595,0.6805359406910363
0.0395,1.7609937500000001,1.0,2735.753464031064,0.35890436165833234,1.31607280934078,0.9643980011676344,0.2870147375,0.6814348826384786
0.04,1.76,1.0,2735.832987332075,0.3625003962766893,1.315623297013303,0.9650332983094813,0.286973,0.6823403519848606
0.0405,1.7589937500000001,1.0,2735.7275499448133,0.3660762543603561,1.3151698188147702,0.965647161471553,0.2869307375,0.6832525041717632
0.041,1.757975,1.0,2735.4571159951593,0.3696320638202391,1.314712193573277,0.9662405338256239,0.28688795,0.6841716684193118
0.0415,1.75694375,1.0,2735.0298306159984,0.37316793360385786,1.3142503475496452,0.9668143120868101,0.2868446375,0.6850979562019363
0.042,1.7559,1.0,2734.453850375557,0.37668397265873205,1.3137842070046963,0.9673693437974387,0.28680079999999997,0.6860314777883734
0.0425,1.75484375,1.0,2733.7373410092105,0.38018028993238123,1.3133136981992524,0.9679064305230787,0.2867564375,0.6869723422216448
0.043000000000000003,1.753775,1.0,2732.8884752710305,0.3836569943723251,1.312838747394135,0.9684263308095056,0.28671155,0.6879206572986882
0.043500000000000004,1.75269375,1.0,2731.915430907172,0.38711419492608323,1.312359280850166,0.968929762920717,0.28666613750000003,0.68887652954964
0.044,1.7516,1.0,2730.8263887484313,0.3905520005411752,1.3118752248281675,0.9694174073762482,0.2866202,0.6898400642167728
0.0445,1.75049375,1.0,2729.62953092455,0.3939705201651208,1.3113865055889609,0.9698899093043484,0.2865737375,0.690811365233087
0.045,1.7493750000000001,1.0,2728.333039198253,0.3973698627454395,1.3108930493933681,0.9703478806260645,0.28652675,0.6917905352005509
0.0455,1.74824375,1.0,2726.9450934200677,0.4007501372296511,1.310394782502211,0.9707919020839245,0.2864792375,0.6927776753680008
0.046,1.7471,1.0,2725.4738701041024,0.404111452565275,1.3098916311763116,0.9712225251276775,0.2864312,0.6937728856086891
0.0465,1.7459437500000001,1.0,2723.9230240513607,0.4074538961016534,1.3093835627769657,0.9716402737773335,0.28638263750000004,0.6947761833017582
0.047,1.744775,1.0,2722.3022195527155,0.41077759906279254,1.3088704899651826,0.9720456480563542,0.28633355,0.6957876926934567
0.0475,1.74359375,1.0,2720.6168168214977,0.41408266997389775,1.3083523645114754,0.9724391232655912,0.28628393750000003,0.696807459503132
0.048,1.7424,1.0,2718.870743965409,0.417369209493209,1.3078291511917737,0.9728211515780131,0.2862338,0.697835502795128
0.0485,1.74119375,1.0,2717.0679262812932,0.42063731827896617,1.3073008147820064,0.9731921634784884,0.2861831375,0.6988718406706472
0.049,1.739975,1.0,2715.2122858329703,0.42388709698940913,1.3067673200581036,0.9735525690002048,0.28613195,0.6999164902562789
0.0495,1.73874375,1.0,2713.3077410576952,0.42711864628277774,1.3062286317959944,0.9739027588796743,0.2860802375,0.7009694676924532
0.05,1.7375,1.0,2711.3582063995673,0.43033206681731195,1.3056847147716084,0.9742431056363836,0.286028,0.7020307881218126
0.0505,1.73624375,1.0,2709.36759197058,0.4335274592512517,1.305135533760875,0.9745739645826342,0.2859752375,0.7031004656775062
0.051000000000000004,1.734975,1.0,2707.33980323918,0.4367049242428367,1.3045810535397238,0.9748956747686762,0.28592195,0.7041785134714029
0.051500000000000004,1.73369375,1.0,2705.2787407463043,0.43986456245030703,1.3040212388840842,0.9752085598678137,0.2858681375,0.7052649435822278
0.052000000000000005,1.7324,1.0,2703.1882998489864,0.44300647453190245,1.3034560545698854,0.975512929005797,0.2858138,0.7063597670436184
0.0525,1.73109375,1.0,2701.072370491447,0.44613076114586286,1.3028854653730575,0.9758090775384556,0.28575893750000003,0.7074629938320995
0.053,1.729775,1.0,2698.93483700375,0.4492375229504283,1.3023094360695293,0.9760972877812334,0.28570355000000003,0.7085746328549847
0.0535,1.72844375,1.0,2696.7795779277435,0.45232686060383853,1.3017279314352306,0.9763778296939798,0.2856476375,0.7096946919381913
0.054,1.7271,1.0,2694.604073748933,0.4553988434681293,1.3011409747230374,0.9766509619757017,0.2855912,0.7108230655065656
0.0545,1.7257437500000001,1.0,2692.413403452095,0.4584535949821025,1.3005485196838857,0.9769169333820077,0.2855342375,0.7119597809815847
0.055,1.724375,1.0,2690.212860521113,0.46149123036658396,1.2999505180311646,0.9771759810836487,0.28547675,0.7131048684082781
0.0555,1.72299375,1.0,2688.0035768702555,0.4645118409260968,1.2993469595180287,0.9774283321729947,0.2854187375,0.7142582838881113
0.056,1.7216,1.0,2685.7866826312306,0.46751551796516405,1.2987378338976325,0.9776742042451337,0.2853602,0.7154199827747147
0.0565,1.72019375,1.0,2683.5633061343524,0.4705023527883087,1.2981231309231307,0.9779138058706928,0.28530113749999997,0.7165899196702483
0.057,1.718775,1.0,2681.3345738922017,0.4734724367000537,1.297502840347678,0.9781473370413953,0.28524155,0.7177680484217602
0.0575,1.71734375,1.0,2679.101610584896,0.47642586100492207,1.296876951924429,0.9783749895901288,0.2851814375,0.7189543221175392
0.058,1.7159,1.0,2676.8655390486665,0.47936271700743677,1.2962454554065383,0.9785969475871759,0.2851208,0.7201486930834589
0.0585,1.71444375,1.0,2674.6274802660732,0.4822830960121209,1.2956083405471606,0.978813387714141,0.2850596375,0.7213511128793175
0.059000000000000004,1.7129750000000001,1.0,2672.388553358623,0.48518708932349736,1.2949655970994505,0.9790244796169928,0.28499795,0.722561532295168
0.059500000000000004,1.71149375,1.0,2670.149875582098,0.4880747882460892,1.2943172148165627,0.9792303862395454,0.2849357375,0.7237799013476445
0.06,1.71,1.0,2667.91256232379,0.49094628408441937,1.2936631834516517,0.9794312641386039,0.284873,0.7250061692762806
0.0605,1.7084937500000001,1.0,2665.677727102265,0.4938016681430109,1.2930034927578722,0.9796272637819194,0.2848097375,0.7262402845398199
0.061,1.7069750000000001,1.0,2663.446481569348,0.49664103172638685,1.292338132488379,0.9798185298300139,0.28474595,0.7274821948125223
0.0615,1.7054437500000001,1.0,2661.2199355146045,0.49946446613907014,1.2916670923963263,0.9800052014028636,0.2846816375,0.728731846980462
0.062,1.7039,1.0,2658.999196872182,0.5022720626855838,1.2909903622348693,0.9801874123323674,0.2846168,0.7299891871378175
0.0625,1.70234375,1.0,2656.785371729427,0.5050639126704508,1.2903079317571622,0.9803652914014538,0.2845514375,0.7312541605831597
0.063,1.7007750000000001,1.0,2654.5795643385736,0.5078401073981942,1.2896197907163598,0.9805389625706319,0.28448555,0.7325267118157268
0.0635,1.69919375,1.0,2652.380804567999,0.5106006981250555,1.288925947976335,0.9807085432134791,0.28441913750000003,0.7338067493175259
0.064,1.6976,1.0,2650.191502804216,0.5133458137335944,1.2882263812318504,0.9808741505012573,0.2843522,0.7350942383992094
0.0645,1.69599375,1.0,2648.0124096072063,0.5160755487745572,1.2875210834587063,0.9810358955632629,0.2842847375,0.7363891153275881
0.065,1.694375,1.0,2645.8436653994027,0.5187899851964476,1.2868100532544802,0.9811938848716272,0.28421675,0.7376913053321501
0.0655,1.69274375,1.0,2643.6854104044096,0.5214892049477697,1.2860932892167485,0.9813482210673226,0.2841482375,0.7390007329883352
0.066,1.6911,1.0,2641.537784649744,0.5241732899770275,1.2853707899430886,0.9814990031239239,0.2840792,0.7403173222170204
0.0665,1.6894437500000001,1.0,2639.4009279697398,0.526842322232725,1.284642554031077,0.9816463265032292,0.2840096375,0.7416409962840095
0.067,1.687775,1.0,2637.274980007823,0.5294963836633659,1.2839085800782912,0.9817902833032025,0.28393955,0.7429716777995169
0.0675,1.68609375,1.0,2635.1600802201538,0.5321355562174546,1.2831688666823076,0.9819309623986678,0.2838689375,0.7443092887176579
0.068,1.6844000000000001,1.0,2633.056367878016,0.5347599218434949,1.2824234124407035,0.9820684495751559,0.2837978,0.7456537503359322
0.0685,1.68269375,1.0,2630.9639820707744,0.5373695624899906,1.2816722159510556,0.9822028276562845,0.2837261375,0.7470049832947127
0.069,1.680975,1.0,2628.8830617091608,0.5399645601054458,1.280915275810941,0.9823341766250232,0.28365395,0.7483629075767313
0.0695,1.67924375,1.0,2626.813745528089,0.5425449966383645,1.2801525906179367,0.9824625737391811,0.28358123749999997,0.7497274425065649
0.07,1.6775,1.0,2624.7561720898343,0.5451109540372507,1.2793841589696195,0.9825880936414235,0.283508,0.7510985067501224
0.07050000000000001,1.67574375,1.0,2622.7104797870984,0.5476625142506084,1.2786099794635664,0.9827108084641182,0.2834342375,0.7524760183141299
0.07100000000000001,1.673975,1.0,2620.67680684615,0.5501997592269414,1.2778300506973543,0.9828307879292834,0.28335995,0.7538598945456172
0.07150000000000001,1.67219375,1.0,2618.655291330229,0.552722770914754,1.2770443712685602,0.9829480994438965,0.2832851375,0.7552500521314036
0.07200000000000001,1.6704,1.0,2616.6460711426466,0.5552316312625497,1.276252939774761,0.9830628081908128,0.2832098,0.7566464070975837
0.0725,1.66859375,1.0,2614.649284030057,0.5577264222188328,1.2754557548135337,0.9831749772155175,0.2831339375,0.7580488748090128
0.073,1.6667750000000001,1.0,2612.665994646465,0.5602072251423371,1.2746528063694726,0.983284667088569,0.28305755,0.7594573850553985
0.0735,1.66494375,1.0,2610.694609147958,0.5626741148548655,1.2738441091212362,0.9833919371374751,0.2829806375,0.7608718236594275
0.074,1.6631,1.0,2608.7324754849346,0.565127167579076,1.2730296876091962,0.9834968453073659,0.2829032,0.7622920589414054
0.0745,1.6612437500000001,1.0,2606.7810961043597,0.5675664604316214,1.2722095277696555,0.9835994460534003,0.2828252375,0.7637180261206032
0.075,1.659375,1.0,2604.841971242251,0.5699920705291543,1.2713836155389169,0.9836997920953465,0.28274675,0.7651496594930656
0.0755,1.65749375,1.0,2602.9094518670795,0.5724040747230632,1.2705520033785558,0.9837979373656341,0.2826677375,0.7665867776398276
