Time [s],Phi [rad],STIM [ ],Fsee [N],Gamma [ ],Lcerel [ ],q [ ],Lmtc [m],fisomrel [ ]
0.0,1.8,1.0,17.97452804500156,0.00010128976745892619,1.3793389206316322,0.005002684850111232,0.288653,0.5411415283610594
0.0005,1.79999375,1.0,18.314304856520696,0.0057099309207860535,1.3792982176671151,0.013195900239898542,0.2886527375,0.5412399938601715
0.001,1.799975,1.0,21.723919566475743,0.011287112031723197,1.3789275360830768,0.03608588051092212,0.28865195,0.5421362321365067
0.0015,1.79994375,1.0,31.319968636829945,0.01683300956716583,1.3780248850942376,0.07125405118923317,0.2886506375,0.5443150071731138
0.002,1.7999,1.0,54.12251411329756,0.022347799002232622,1.3763331789402475,0.11548977895876332,0.2886488,0.5483843699895652
0.0025,1.79984375,1.0,98.02597509442299,0.027831654828433174,1.373891560868081,0.1654140855296425,0.28864643749999996,0.5542254486977999
0.003,1.7997750000000001,1.0,162.13770884887253,0.03328475056054797,1.3711702729686632,0.2181459628291128,0.28864354999999997,0.5606907795419899
0.0035,1.79969375,1.0,239.01570890846688,0.03870725873690151,1.368543750840461,0.27147356901700925,0.2886401375,0.5668861725651921
0.004,1.7996,1.0,322.88410473084747,0.04409935092994615,1.3661185939349874,0.32374906107349877,0.2886362,0.5725675228796807
0.0045000000000000005,1.7994937500000001,1.0,410.7353234988623,0.04946119775150563,1.3638883954686596,0.3738254104382925,0.2886317375,0.5777590422297335
0.005,1.799375,1.0,500.91090719040517,0.05479296884438666,1.3618265464726607,0.42098735559577827,0.28862675,0.5825304536596542
0.0055,1.79924375,1.0,592.3008104850369,0.06009483292471933,1.3599093444513919,0.464858693786399,0.2886212375,0.5869428054099788
0.006,1.7991000000000001,1.0,684.029847141018,0.06536695773716002,1.358118950559137,0.5053094499987228,0.2886152,0.5910421468444594
0.006500000000000001,1.79894375,1.0,775.383965284076,0.07060951008855185,1.3564416138562776,0.5423763107757332,0.2886086375,0.5948640813505495
0.007,1.798775,1.0,865.7735686380761,0.07582265588345807,1.3548663732796882,0.5762012480466334,0.28860155,0.5984370443728348
0.0075,1.79859375,1.0,954.7096735574884,0.08100656007734025,1.3533842322175047,0.6069868819114163,0.2885939375,0.6017843890945304
0.008,1.7984,1.0,1041.7876573556462,0.08616138645675162,1.3519876114351017,0.6349654954276007,0.2885858,0.6049257697583287
0.0085,1.79819375,1.0,1126.7183930120023,0.09128729865353856,1.3506693698747156,0.6603781051431512,0.2885771375,0.6078794420652738
0.009000000000000001,1.797975,1.0,1209.2483142850335,0.09638445852501228,1.3494236195430134,0.6834620821763989,0.28856795,0.610660504162817
0.0095,1.79774375,1.0,1289.1909511200686,0.10145302712154429,1.3482449422591438,0.7044430387398515,0.2885582375,0.6132827174455535
0.01,1.7975,1.0,1366.4281549282616,0.10649316494191503,1.347128180403993,0.7235306240000324,0.288548,0.6157590126575667
0.0105,1.79724375,1.0,1440.8902535477334,0.11150503209241147,1.3460685458429218,0.740916815176477,0.2885372375,0.6181012805426198
0.011,1.796975,1.0,1512.506275167178,0.11648878641865036,1.3450620926579981,0.7567758233874368,0.28852595000000003,0.6203193629160814
0.0115,1.79669375,1.0,1581.2549859294795,0.12144458558756249,1.344104938427,0.7712642657205622,0.2885141375,0.6224228040502249
0.012,1.7964,1.0,1647.1481820659549,0.1263725864237122,1.3431933951039698,0.7845223156578094,0.28850180000000003,0.6244205789445487
0.0125,1.79609375,1.0,1710.2243084813558,0.13127294586479452,1.3423239718062794,0.7966750328061253,0.2884889375,0.6263211043583343
0.013000000000000001,1.7957750000000001,1.0,1770.5046038210585,0.13614581798251227,1.3414938072101203,0.8078339405313222,0.28847555,0.628131312618422
0.0135,1.79544375,1.0,1828.0393696768353,0.14099135671206298,1.3407000660924475,0.8180981613095387,0.2884616375,0.6298579877697765
0.014,1.7951000000000001,1.0,1882.8970195727384,0.1458097152967907,1.3399400270799617,0.8275557931764258,0.2884472,0.6315075828726878
0.0145,1.79474375,1.0,1935.1602671063276,0.15060104746769032,1.3392110884703787,0.8362851522057987,0.2884322375,0.6330862163862911
0.015,1.794375,1.0,1984.8980493250713,0.1553655047111159,1.3385110355195522,0.8443559844886863,0.28841675,0.6345991034167107
0.0155,1.79399375,1.0,2032.1746939529912,0.16010323672001447,1.3378378996657783,0.851830414565481,0.2884007375,0.6360508722876772
0.016,1.7936,1.0,2077.070620017386,0.16481439318733304,1.3371897123473533,0.8587637648186287,0.2883842,0.637446102956343
0.0165,1.7931937500000001,1.0,2119.6778768342806,0.1694991235050799,1.3365645368000323,0.8652053712189149,0.2883671375,0.6387892620171547
0.017,1.792775,1.0,2160.0848106562034,0.17415757610411986,1.33596061002856,0.8711993332388718,0.28834955,0.6400844021340494
0.0175,1.7923437500000001,1.0,2198.3872760729414,0.17878989990315114,1.3353762096057544,0.876785093678988,0.2883314375,0.6413354529033071
0.018000000000000002,1.7919,1.0,2234.6523728168995,0.18339623999247648,1.3348100060932142,0.8819980765438182,0.2883128,0.6425454713643555
0.0185,1.79144375,1.0,2268.95543895344,0.18797674146239848,1.3342606700525375,0.8868700512552767,0.2882936375,0.6437174886990711
0.019,1.790975,1.0,2301.379367713001,0.19253154940321998,1.333726872045322,0.8914295558993741,0.28827395,0.6448545117182568
0.0195,1.79049375,1.0,2332.0057255332617,0.19706080782541924,1.3332073636439299,0.8957022867374653,0.2882537375,0.6459593520837432
0.02,1.79,1.0,2360.9231336645353,0.2015646615714546,1.3327008871146602,0.8997114002159501,0.288233,0.6470348205137697
0.0205,1.78949375,1.0,2388.2088637671845,0.20604325358002373,1.3322063493335299,0.9034778355955922,0.2882117375,0.648083359255385
0.021,1.788975,1.0,2413.9249607279976,0.21049672409075454,1.3317228499946334,0.9070205648603592,0.28818995000000003,0.6491069859420853
0.021500000000000002,1.78844375,1.0,2438.1373791455976,0.21492521334327488,1.3312494887920645,0.9103567672772332,0.2881676375,0.6501077046396555
0.022,1.7879,1.0,2460.9156592923855,0.21932886157721268,1.3307853654199167,0.9135020235086897,0.2881448,0.6510875064541206
0.0225,1.78734375,1.0,2482.3294154686273,0.22370780847724347,1.3303296101259967,0.9164704922592428,0.28812143749999997,0.6520483057206856
0.023,1.786775,1.0,2502.4422231977,0.22806219244514353,1.3298814383904587,0.9192750702523741,0.28809755,0.6529918259102105
0.0235,1.78619375,1.0,2521.3326256811783,0.23239215417126244,1.3294399481831685,0.921927486816915,0.28807313749999996,0.653920027235559
0.024,1.7856,1.0,2539.0495753545665,0.23669782874236878,1.329004539848124,0.9244384970917271,0.2880482,0.6548342243600898
0.0245,1.78499375,1.0,2555.643860887526,0.24097935124523107,1.3285746137293228,0.9268179280083902,0.2880227375,0.6557357245300584
0.025,1.784375,1.0,2571.1679552557434,0.2452368567666179,1.328149570170763,0.9290747711285361,0.28799675,0.656625827795738
0.025500000000000002,1.78374375,1.0,2585.675871785961,0.24947048039329792,1.3277288095164426,0.9312172650673157,0.2879702375,0.6575058272096151
0.026000000000000002,1.7831000000000001,1.0,2599.2185020764414,0.25368035617911955,1.3273117742692937,0.9332529751888832,0.2879432,0.6583769209970884
0.0265,1.78244375,1.0,2611.8443238614577,0.2578666176624268,1.326897940813709,0.9351888569690187,0.2879156375,0.6592402305221838
0.027,1.781775,1.0,2623.6129512062657,0.2620294002726865,1.3264866923662906,0.9370312949277332,0.28788755,0.6600970653945126
0.0275,1.7810937500000001,1.0,2634.561007743408,0.26616883368636274,1.3260776347619458,0.9387862009452783,0.2878589375,0.6609482656506858
0.028,1.7804,1.0,2644.72589401536,0.27028504757991956,1.3256703738355826,0.9404590264531171,0.2878298,0.6617946671103057
0.0285,1.77969375,1.0,2654.1457207163867,0.2743781716298212,1.3252645154221088,0.942054804336856,0.2878001375,0.6626371014260867
0.029,1.778975,1.0,2662.859245378788,0.27844833551253173,1.3248596653564315,0.9435781865206336,0.28776995,0.6634763961240668
0.029500000000000002,1.7782437500000001,1.0,2670.905812503935,0.2824956689045153,1.3244554294734587,0.9450334777250446,0.2877392375,0.6643133746339076
0.03,1.7775,1.0,2678.320510919876,0.28652029861186284,1.3240514575266888,0.9464246706949206,0.287708,0.665148765544734
0.0305,1.77674375,1.0,2685.1416992501786,0.2905223556531664,1.3236473734570937,0.9477554663403379,0.2876762375,0.6659833471120042
0.031,1.775975,1.0,2691.398690630542,0.2945019658923129,1.323242887866518,0.9490293098595434,0.28764395,0.6668177150628627
0.0315,1.7751937500000001,1.0,2697.1187866083983,0.29845925364915715,1.322837732831306,0.9502494050977291,0.2876111375,0.66765241792201
0.032,1.7744,1.0,2702.3295838243635,0.3023943432435539,1.322431640427803,0.9514187324121834,0.2875778,0.6684880014382526
0.0325,1.77359375,1.0,2707.0589452510962,0.30630735899535794,1.3220243427323535,0.9525400669992008,0.2875439375,0.6693250085707774
0.033,1.772775,1.0,2711.334973023137,0.310198425224424,1.3216155718213025,0.9536159955071055,0.28750955,0.6701639794708438
0.0335,1.7719437500000002,1.0,2715.181792734153,0.3140676627394,1.3212050979579222,0.9546489345213673,0.2874746375,0.6710053732329133
0.034,1.7711000000000001,1.0,2718.621458841603,0.31791519199064516,1.3207927118988636,0.9556411428264735,0.2874392,0.6718496045681528
0.0345,1.7702437500000001,1.0,2721.690866906793,0.32174114784807506,1.320378070712651,0.9565947205324172,0.2874032375,0.6726973590766572
0.035,1.7693750000000001,1.0,2724.406434216833,0.3255456478772803,1.3199610192992077,0.9575116480530323,0.28736675,0.67354893536037
0.035500000000000004,1.76849375,1.0,2726.784683936148,0.32932880964385153,1.3195414025584575,0.9583937794736325,0.2873297375,0.6744046302645847
0.036000000000000004,1.7676,1.0,2728.8422342484964,0.33309075071337935,1.3191190653903244,0.9592428520582296,0.2872922,0.675264738853335
0.0365,1.76669375,1.0,2730.595788033168,0.3368315886514544,1.3186938526947318,0.9600604949376174,0.2872541375,0.6761295543832544
0.037,1.765775,1.0,2732.0621230735555,0.34055144102366736,1.3182656093716034,0.9608482370572969,0.28721555,0.676999368275899
0.0375,1.76484375,1.0,2733.258082800068,0.3442504253956088,1.3178341803208629,0.9616075144558461,0.2871764375,0.6778744700885371
0.038,1.7639,1.0,2734.2005675655855,0.3479286593328693,1.317399410442434,0.9623396769369277,0.28713679999999997,0.6787551474834034
0.0385,1.76294375,1.0,2734.906526455056,0.35158626040103963,1.3169611446362404,0.9630459941915522,0.28709663750000003,0.679641686195422
0.039,1.761975,1.0,2735.3929496273017,0.35522334616571033,1.3165192278022058,0.963727661421397,0.28705595,0.6805343699983909
0.0395,1.7609937500000001,1.0,2735.669061885889,0.35884002453831426,1.3160735756529691,0.9643858091212465,0.2870147375,0.6814333379271263
0.04,1.76,1.0,2735.7523365964316,0.36243641993495646,1.3156240292544357,0.9650214993605654,0.286973,0.6823388780522804
0.0405,1.7589937500000001,1.0,2735.656470010239,0.36601264907334846,1.3151704641729165,0.9656357355754468,0.2869307375,0.6832512069930752
0.041,1.757975,1.0,2735.390670718508,0.369568822003232,1.3147127968814016,0.9662294672896848,0.28688795,0.6841704575225945
0.0415,1.75694375,1.0,2734.9641619468225,0.37310504877434864,1.3142509438528813,0.9668035913745184,0.2868446375,0.6850967611210881
0.042,1.7559,1.0,2734.386178774912,0.37662143943644016,1.3137848215603452,0.9673589555081749,0.28680079999999997,0.6860302479538978
0.0425,1.75484375,1.0,2733.6659655115523,0.38011810403924823,1.3133143464767836,0.9678963613738815,0.2867564375,0.686971046848935
0.043000000000000003,1.753775,1.0,2732.812773223396,0.38359515263251454,1.3128394350751862,0.9684165676185792,0.28671155,0.6879192852737193
0.043500000000000004,1.75269375,1.0,2731.8358574194763,0.3870526952659807,1.3123600038285432,0.968920292592488,0.28666613750000003,0.6888750893119657
0.044,1.7516,1.0,2730.744475889242,0.39049084198938844,1.311875969209845,0.9694082168877906,0.2866202,0.6898385836397316
0.0445,1.75049375,1.0,2729.547886696729,0.3939097028524794,1.311387247692081,0.9698809856930211,0.2865737375,0.6908098915011182
0.045,1.7493750000000001,1.0,2728.255346327836,0.39730938790499537,1.3108937557482414,0.9703392109782212,0.28652675,0.691789134683523
0.0455,1.74824375,1.0,2726.8683401712046,0.40068998726389965,1.3103954804918965,0.9707834760502088,0.2864792375,0.6927762936549895
0.046,1.7471,1.0,2725.4005373969694,0.4040516321169681,1.3098922982395473,0.9712143322761341,0.2864312,0.6937715672570519
0.0465,1.7459437500000001,1.0,2723.8583937047547,0.407394431212937,1.3093841508469648,0.9716323051714854,0.28638263750000004,0.694775022974179
0.047,1.744775,1.0,2722.2460434779673,0.4107184865377275,1.3088710012617064,0.9720378948954391,0.28633355,0.6957866855216549
0.0475,1.74359375,1.0,2720.567619137232,0.414023900077261,1.30835281243133,0.9724315771364653,0.28628393750000003,0.6968065786533453
0.048,1.7424,1.0,2718.8272506265844,0.4173107738174586,1.3078295473033932,0.9728138045349451,0.2862338,0.6978347251498342
0.0485,1.74119375,1.0,2717.0290649317803,0.4205792097442416,1.3073011688254539,0.9731850080103206,0.2861831375,0.6988711468064729
0.049,1.739975,1.0,2715.1771856275327,0.42382930984353134,1.3067676399450698,0.9735455980000015,0.28613195,0.6999158644213392
0.0495,1.73874375,1.0,2713.275732456135,0.42706117610124894,1.3062289236097988,0.9738959656166563,0.2860802375,0.7009688977831123
0.05,1.7375,1.0,2711.328820936337,0.4302749105033158,1.3056849827671986,0.9742364837299526,0.286028,0.7020302656588568
0.0505,1.73624375,1.0,2709.3405620022854,0.433470615035653,1.305135780364827,0.9745675079783211,0.2859752375,0.7030999857817223
0.051000000000000004,1.734975,1.0,2707.3150616734065,0.4366483916841819,1.3045812793502416,0.9748893777158497,0.28592195,0.7041780748385527
0.051500000000000004,1.73369375,1.0,2705.2564207543937,0.4398083424348237,1.3040214426710002,0.9752024168990125,0.2858681375,0.7052645484574099
0.052000000000000005,1.7324,1.0,2703.16873456557,0.44295056927349974,1.3034562332746606,0.975506934917551,0.2858138,0.7063594211950087
0.0525,1.73109375,1.0,2701.055609530561,0.4460751692910147,1.302885618523711,0.9758032271363776,0.28575893750000003,0.7074626979958833
0.053,1.729775,1.0,2698.919000009053,0.4491822220487159,1.3023095808348666,0.9760915750156249,0.28570355000000003,0.7085743537482375
0.0535,1.72844375,1.0,2696.765148259154,0.4522718628344017,1.3017280633889359,0.9763722509956595,0.2856476375,0.7096944380215635
0.054,1.7271,1.0,2694.5955954569604,0.45534418495392953,1.3011410522849673,0.9766455140274519,0.2855912,0.7108229165456077
0.0545,1.7257437500000001,1.0,2692.4118804946966,0.4583992817131568,1.3005485336220095,0.9769116119439049,0.2855342375,0.711959754265497
0.055,1.724375,1.0,2690.2155399360336,0.461437246417941,1.2999504934991104,0.9771707820280222,0.28547675,0.7131049153368627
0.0555,1.72299375,1.0,2688.008107975821,0.46445817237413944,1.299346918015319,0.977423251547464,0.2854187375,0.7142583631209499
0.056,1.7216,1.0,2685.791116404302,0.46746215288760967,1.2987377932696833,0.9776692382577352,0.2853602,0.7154200601797193
0.0565,1.72019375,1.0,2683.5660945751492,0.47044928126420904,1.2981231053612519,0.9779089508760918,0.28530113749999997,0.7165899682709309
0.057,1.718775,1.0,2681.334569378445,0.47341965080979503,1.297502840389073,0.978142589528092,0.28524155,0.71776804834322
0.0575,1.71734375,1.0,2679.098065216963,0.476373354830225,1.2968769844521952,0.9783703461685826,0.2851814375,0.7189542605311576
0.058,1.7159,1.0,2676.858103987779,0.47931048663135645,1.296245523649667,0.9785924049787729,0.2851208,0.7201485641503016
0.0585,1.71444375,1.0,2674.6162050676435,0.4822311395190467,1.2956084440805369,0.9788089427409388,0.2850596375,0.7213509176922326
0.059000000000000004,1.7129750000000001,1.0,2672.373885302576,0.4851354067991533,1.294965731843853,0.9790201291921823,0.28499795,0.7225612788195798
0.059500000000000004,1.71149375,1.0,2670.132659001968,0.48802338177753357,1.2943173730386637,0.9792261273585725,0.2849357375,0.7237796043610335
0.06,1.71,1.0,2667.894037936713,0.490895157760045,1.2936633537640179,0.9794270938708999,0.284873,0.7250058503063435
0.0605,1.7084937500000001,1.0,2665.659531342172,0.493750828052545,1.2930036601189634,0.9796231792631926,0.2848097375,0.7262399718013106
0.061,1.7069750000000001,1.0,2663.427978678926,0.4965904522743639,1.2923383027456714,0.9798145268907933,0.28474595,0.7274818773845031
0.0615,1.7054437500000001,1.0,2661.2011393793737,0.4994141400818249,1.2916672654243002,0.9800012771653285,0.2846816375,0.7287315251272666
0.062,1.7039,1.0,2658.9818900403006,0.5022220111329175,1.2909905216195425,0.9801835653594435,0.2846168,0.7299888913507224
0.0625,1.70234375,1.0,2656.770519403829,0.5050141492592741,1.290308068594372,0.9803615201112976,0.2845514375,0.731253907235349
0.063,1.7007750000000001,1.0,2654.5673157442698,0.507790638292527,1.2896199036117622,0.9805352652549969,0.28448555,0.7325265032905408
0.0635,1.69919375,1.0,2652.372566872124,0.5105515620643084,1.2889260239346865,0.9807049200339497,0.28441913750000003,0.7338066093536129
0.064,1.6976,1.0,2650.186560137866,0.5132970044062506,1.2882264268261185,0.9808705993032152,0.2843522,0.7350941545888015
0.0645,1.69599375,1.0,2648.0095824366645,0.516027049149986,1.2875211095490318,0.9810324137214932,0.2842847375,0.7363890674862681
0.065,1.694375,1.0,2645.841920212593,0.5187417801271467,1.2868100693663997,0.9811904699333539,0.28421675,0.7376912758611001
0.0655,1.69274375,1.0,2643.683859463232,0.5214412811693652,1.286093303541196,0.9813448707422685,0.2841482375,0.739000706852312
0.066,1.6911,1.0,2641.5356857446973,0.5241256361082737,1.2853708093363942,0.9814957152749733,0.2840792,0.7403172869218473
0.0665,1.6894437500000001,1.0,2639.397684176606,0.5267949287755044,1.2846425840149676,0.981643099137653,0.2840096375,0.7416409418535783
0.067,1.687775,1.0,2637.2701394465953,0.5294492430026898,1.2839086248398899,0.9817871145644104,0.28393955,0.7429715967523045
0.0675,1.68609375,1.0,2635.1533358166243,0.532088662621462,1.2831689290741346,0.9819278505584516,0.2838689375,0.7443091760427543
0.068,1.6844000000000001,1.0,2633.047557127695,0.5347132714634534,1.2824234939806753,0.9820653930263942,0.2837978,0.7456536034685823
0.0685,1.68269375,1.0,2630.9530868057113,0.5373231533602962,1.2816723168224855,0.9821998249060778,0.2837261375,0.7470048020913691
0.069,1.680975,1.0,2628.8702078672745,0.5399183921436229,1.2809153948625387,0.9823312262882335,0.28365395,0.7483626942896173
0.0695,1.67924375,1.0,2626.799202925746,0.5424990716450656,1.2801527253638083,0.9824596745323476,0.28358123749999997,0.7497272017577506
0.07,1.6775,1.0,2624.740354197116,0.5450652756962566,1.2793843055892682,0.9825852443770349,0.283508,0.7510982455051097
0.07050000000000001,1.67574375,1.0,2622.693943506657,0.5476170881288283,1.2786101328018915,0.982708008045215,0.2834342375,0.7524757458549503
0.07100000000000001,1.673975,1.0,2620.660252294996,0.5501545927744129,1.2778302042646519,0.9828280353443711,0.28335995,0.753859622443437
0.07150000000000001,1.67219375,1.0,2618.6402698647903,0.552677820123602,1.2770445106680348,0.9829453902394477,0.2832851375,0.7552498058313429
0.07200000000000001,1.6704,1.0,2616.6330154543775,0.5551869065837932,1.2762530609782718,0.9830601417743248,0.2832098,0.7566461935591047
0.0725,1.66859375,1.0,2614.638092293893,0.5576819394931078,1.275455858752546,0.9831723535519027,0.2831339375,0.758048692215872
0.073,1.6667750000000001,1.0,2612.6552948594517,0.5601629932025426,1.2746529057773979,0.983282086262567,0.28305755,0.7594572109312239
0.0735,1.66494375,1.0,2610.6844179940476,0.5626301420630941,1.2738442038393685,0.9833893986371312,0.2829806375,0.7608716582384644
0.074,1.6631,1.0,2608.7252569031225,0.5650834604257592,1.273029754724999,0.9834943475213997,0.2829032,0.7622919420752773
0.0745,1.6612437500000001,1.0,2606.7776071509666,0.5675230226415343,1.2722095602208294,0.9835969879474176,0.2828252375,0.7637179697843834
0.075,1.659375,1.0,2604.841264656328,0.5699489030614163,1.2713836221134014,0.9836973732015752,0.28274675,0.7651496481141918
0.0755,1.65749375,1.0,2602.916025688675,0.5723611760364018,1.2705519421892553,0.9837955548897263,0.2826677375,0.7665868832194576
