Time [s],Phi [rad],STIM [ ],Fsee [N],Gamma [ ],Lcerel [ ],q [ ],Lmtc [m],fisomrel [ ]
0.0,1.8,1.0,17.967073037249488,4.4914024552667195e-05,1.3793397557571765,0.005000531302365886,0.288653,0.5411395079785896
0.0005,1.79999375,1.0,18.288226606343716,0.005653871401200605,1.3793011125119445,0.01303773018022052,0.2886527375,0.5412329912219427
0.001,1.799975,1.0,21.655920788252946,0.011231366961714655,1.378934469696816,0.03579075325958529,0.28865195,0.5421194760063548
0.0015,1.79994375,1.0,31.162041850331057,0.01677757718290304,1.3780383028852545,0.07085094081312258,0.2886506375,0.5442826580090452
0.002,1.7999,1.0,53.78537398458089,0.022292677549861476,1.376354975440038,0.11501292608437984,0.2886488,0.5483320550431392
0.0025,1.79984375,1.0,97.46209800706417,0.027776842563790982,1.3739186457622155,0.16489565652860566,0.28864643749999996,0.5541608620897667
0.003,1.7997750000000001,1.0,161.40590670526782,0.03323024574938038,1.3711975960650227,0.2176113415586613,0.28864354999999997,0.5606260990929474
0.0035,1.79969375,1.0,238.1899106655206,0.038653059654661565,1.36856913856154,0.27094197575444273,0.2886401375,0.5668264990433813
0.004,1.7996,1.0,322.0061638576739,0.04404545586172139,1.3661418119363935,0.32323443677556435,0.2886362,0.5725133085201998
0.0045000000000000005,1.7994937500000001,1.0,409.8266279978681,0.04940760499190609,1.3639096996638571,0.3733369684640877,0.2886317375,0.5777095997785757
0.005,1.799375,1.0,499.9840059781686,0.05473967669708596,1.3618462226909305,0.42053043051977523,0.28862675,0.5824850482280152
0.0055,1.79924375,1.0,591.3661687182038,0.060041839705192626,1.3599275889876246,0.46443568122129864,0.2886212375,0.5869009269309808
0.006,1.7991000000000001,1.0,683.0947728197918,0.06531426176806157,1.3581359347350654,0.5049207196175247,0.2886152,0.5910033553936256
0.006500000000000001,1.79894375,1.0,774.4565220868895,0.07055710970707514,1.3564574353037728,0.5420208719982731,0.2886086375,0.5948281148490326
0.007,1.798775,1.0,864.8579779494307,0.07577054943893233,1.354881154199145,0.5758773333983219,0.28860155,0.5984035918185034
0.0075,1.79859375,1.0,953.799461637561,0.08095474578256828,1.353398224797078,0.6066923787626476,0.2885939375,0.6017528530302103
0.008,1.7984,1.0,1040.908891490523,0.08610986309805001,1.3520005433418918,0.634697798593647,0.2885858,0.6048967394356282
0.0085,1.79819375,1.0,1125.8575060584026,0.09123606414519322,1.3506815515997825,0.6601349500215823,0.2885771375,0.6078521982384217
0.009000000000000001,1.797975,1.0,1208.4010106571743,0.0963335111160831,1.3494351925121437,0.683241186222336,0.28856795,0.610634713756381
0.0095,1.79774375,1.0,1288.3801612125014,0.10140236576977792,1.348255667458846,0.7042420568620587,0.2885582375,0.613258896947684
0.01,1.7975,1.0,1365.6521667227107,0.10644278802376543,1.3471381507623708,0.7233475715533456,0.288548,0.615736939685209
0.0105,1.79724375,1.0,1440.126887054802,0.11145493726248663,1.3460780971443655,0.7407500056449652,0.2885372375,0.6180801998626757
0.011,1.796975,1.0,1511.7692543181925,0.11643897250582431,1.345071093258276,0.7566235134818188,0.28852595000000003,0.620299555476844
0.0115,1.79669375,1.0,1580.5575400954335,0.12139505149353971,1.344113268423237,0.7711248992718827,0.2885141375,0.6224045232623635
0.012,1.7964,1.0,1646.483144904477,0.1263233304916244,1.3432011774547028,0.7843946096558396,0.28850180000000003,0.6244035452605408
0.0125,1.79609375,1.0,1709.5715534146773,0.13122396530524177,1.3423314682025882,0.7965579002453742,0.2884889375,0.6263047381322078
0.013000000000000001,1.7957750000000001,1.0,1769.8801725095034,0.13609711196729368,1.341500855143942,0.8077262469733805,0.28847555,0.6281159628059833
0.0135,1.79544375,1.0,1827.4583269481184,0.14094292467070563,1.340706520214748,0.8179989064217683,0.2884616375,0.6298439639131301
0.014,1.7951000000000001,1.0,1882.3514628638964,0.14576155580266612,1.339945998057765,0.8274641824585921,0.2884472,0.6314946377694834
0.0145,1.79474375,1.0,1934.629061075396,0.15055315775036351,1.3392168233157524,0.8362005258584227,0.2884322375,0.6330738098838317
0.015,1.794375,1.0,1984.3727748869528,0.15531788216598666,1.3385166348136337,0.8442777054775,0.28841675,0.6345870151608832
0.0155,1.79399375,1.0,2031.6738903579471,0.1600558810746479,1.3378431756204479,0.8517578242632678,0.2884007375,0.6360395047407246
0.016,1.7936,1.0,2076.6079629660194,0.16476730416734003,1.3371945334360174,0.8586962942973497,0.2883842,0.6374357353981716
0.0165,1.7931937500000001,1.0,2119.245816366633,0.16945229949352547,1.3365689935586043,0.8651425789312829,0.2883671375,0.6387796957109318
0.017,1.792775,1.0,2159.670718784088,0.17411101510266672,1.33596484128647,0.8711408383579641,0.28834955,0.6400753361586641
0.0175,1.7923437500000001,1.0,2197.9736221051053,0.17874359864249692,1.3353803994019935,0.8767305665992707,0.2883314375,0.64132649138061
0.018000000000000002,1.7919,1.0,2234.2422183911112,0.18335019699913754,1.33481412659136,0.8819471660565409,0.2883128,0.6425366729428086
0.0185,1.79144375,1.0,2268.5704814316455,0.18793095752981936,1.3342645080583369,0.8868223957237936,0.2882936375,0.6437093069276725
0.019,1.790975,1.0,2301.0244286715993,0.19248602362935915,1.333730385738121,0.8913848719722007,0.28827395,0.6448470332751433
0.0195,1.79049375,1.0,2331.676473490686,0.19701553869257363,1.3332106015659095,0.8956603408549377,0.2882537375,0.6459524713140457
0.02,1.79,1.0,2360.6048972440663,0.20151964611427953,1.3327039974768993,0.8996720040356875,0.288233,0.6470282208638118
0.0205,1.78949375,1.0,2387.8894936040115,0.20599848860053735,1.3322094528930977,0.9034408125065202,0.2882117375,0.6480767838280252
0.021,1.788975,1.0,2413.6075737849087,0.2104522084179496,1.331725917807241,0.9069857235386267,0.28818995000000003,0.6491004957109172
0.021500000000000002,1.78844375,1.0,2437.83755937912,0.21488094825104412,1.3312523723714047,0.9103239105120394,0.2881676375,0.650101612877284
0.022,1.7879,1.0,2460.6380704574076,0.2192848465293802,1.330788022797425,0.913470993015311,0.2881448,0.6510819004265634
0.0225,1.78734375,1.0,2482.070785950216,0.2236640416825171,1.3303320752971377,0.9164411585594393,0.28812143749999997,0.6520431123401982
0.023,1.786775,1.0,2502.200189438002,0.22801867214001406,1.329883736082379,0.9192473136994928,0.28809755,0.652986991927077
0.0235,1.78619375,1.0,2521.0933289126842,0.23234887633143028,1.329442211364985,0.921901217424904,0.28807313749999996,0.6539152722287899
0.024,1.7856,1.0,2538.807459179691,0.23665478974786042,1.3290068216920987,0.9244136183475544,0.2880482,0.6548294364797945
0.0245,1.78499375,1.0,2555.410919658477,0.24093655290141058,1.328576801961857,0.926794325221576,0.2880227375,0.6557311390705315
0.025,1.784375,1.0,2570.9533929993104,0.24519430040705242,1.3281515796547194,0.9290523436226168,0.28799675,0.6566216223536746
0.025500000000000002,1.78374375,1.0,2585.4806362636264,0.24942816528313388,1.3277306328552418,0.9311959325061021,0.2879702375,0.657502016225455
0.026000000000000002,1.7831000000000001,1.0,2599.0397135888466,0.2536382805480031,1.32731343964798,0.9332326691383515,0.2879432,0.6583734445976026
0.0265,1.78244375,1.0,2611.678884409174,0.257824779220008,1.3268994781174897,0.9351695145673604,0.2879156375,0.6592370255309723
0.027,1.781775,1.0,2623.4474977165423,0.26198779431749675,1.3264882263483269,0.9370128720071578,0.28788755,0.6600938713517975
0.0275,1.7810937500000001,1.0,2634.390555247909,0.2661274572294758,1.3260792118053149,0.9387686457581724,0.2878589375,0.6609449860600275
0.028,1.7804,1.0,2644.548961150376,0.2702438991233065,1.325672007687974,0.9404422870771794,0.2878298,0.661791273623993
0.0285,1.77969375,1.0,2653.9771922780983,0.2743372549872358,1.325266068900036,0.9420388131719146,0.2878001375,0.6626338788976948
0.029,1.778975,1.0,2662.706527841565,0.2784076518788964,1.3248610707838158,0.9435628896740196,0.28776995,0.6634734843405379
0.029500000000000002,1.7782437500000001,1.0,2670.7687767571774,0.28245521685592084,1.324456688681629,0.9450188338058964,0.2877392375,0.6643107690362007
0.03,1.7775,1.0,2678.1962314098673,0.286480076975942,1.3240525979357909,0.9464106448581292,0.287708,0.6651464087087522
0.0305,1.77674375,1.0,2685.021623752936,0.2904823592965925,1.3236484738886167,0.9477420316389088,0.2876762375,0.6659810757320452
0.031,1.775975,1.0,2691.2780837444493,0.29446219087550507,1.3232439918824221,0.9490164372291937,0.28764395,0.6668154391323872
0.0315,1.7751937500000001,1.0,2696.9991001207836,0.2984196987703124,1.322838827259522,0.9502370613372729,0.2876111375,0.6676501645844916
0.032,1.7744,1.0,2702.2115616867973,0.30235500616224087,1.3224327185958042,0.9514068870542913,0.2875778,0.6684857843715527
0.0325,1.77359375,1.0,2706.9491231611555,0.30626824214633147,1.3220253451129027,0.9525286867505285,0.2875439375,0.6693229499519002
0.033,1.772775,1.0,2711.2376139501253,0.3101595307082486,1.3216164597459652,0.9536050515974073,0.28750955,0.6701621582285457
0.0335,1.7719437500000002,1.0,2715.098431697637,0.3140289929112142,1.3212058576793244,0.9546384029705369,0.2874746375,0.6710038169403367
0.034,1.7711000000000001,1.0,2718.5531442952188,0.3178767498184504,1.320793334097314,0.9556310018543682,0.2874392,0.6718483316286006
0.0345,1.7702437500000001,1.0,2721.623472507837,0.32170292249317906,1.3203786841842664,0.9565849613592581,0.2874032375,0.6726961056133868
0.035,1.7693750000000001,1.0,2724.3312735292,0.32550763199862226,1.3199617031245152,0.9575022581218321,0.28736675,0.6735475399670268
0.035500000000000004,1.76849375,1.0,2726.6985254681913,0.329290999398002,1.3195421861023933,0.9583847426999452,0.2873297375,0.6744030334850238
0.036000000000000004,1.7676,1.0,2728.746598206029,0.3330531449160802,1.319119934798191,0.9592341495378872,0.2872922,0.6752629694336681
0.0365,1.76669375,1.0,2730.488878205459,0.336794179349427,1.3186948242791716,0.960052110449411,0.2872541375,0.6761275796481758
0.037,1.765775,1.0,2731.957057144294,0.3405142380210482,1.3182665639424673,0.9608401458160875,0.28721555,0.6769974307278551
0.0375,1.76484375,1.0,2733.163707276239,0.3442134351582725,1.3178350375761685,0.9615996961280932,0.2871764375,0.6778727324265166
0.038,1.7639,1.0,2734.1214510573845,0.347891884988429,1.3174001289683661,0.9623321153569894,0.28713679999999997,0.6787536930193385
0.0385,1.76294375,1.0,2734.8429551664253,0.3515497017388465,1.3169617219071503,0.9630386770990587,0.28709663750000003,0.6796405192782344
0.039,1.761975,1.0,2735.340924823029,0.355186999636854,1.316519700180612,0.9637205802180966,0.28705595,0.6805334164463506
0.0395,1.7609937500000001,1.0,2735.6280984072787,0.3588038929097805,1.316073947576841,0.9643789540334091,0.2870147375,0.6814325882117103
0.04,1.76,1.0,2735.717242376673,0.36240049578495487,1.3156243478839287,0.9650148630941491,0.286973,0.6823382366799897
0.0405,1.7589937500000001,1.0,2735.6211464843946,0.36597692248970604,1.315170784889965,0.965629311577025,0.2869307375,0.6832505623464395
0.041,1.757975,1.0,2735.352619295407,0.36953328725136303,1.3147131423830405,0.9662232473407489,0.28688795,0.6841697640669391
0.0415,1.75694375,1.0,2734.9244840030556,0.3730697042972547,1.314251304151246,0.9667975656673327,0.2868446375,0.6850960390281922
0.042,1.7559,1.0,2734.341840002348,0.3765862751685141,1.3137852242244161,0.9673531164929949,0.28680079999999997,0.6860294421506151
0.0425,1.75484375,1.0,2733.619990311273,0.3800831218979352,1.3133147640571885,0.9678906993598958,0.2867564375,0.6869702124483046
0.043000000000000003,1.753775,1.0,2732.7731493534857,0.38356036438752056,1.3128397950241286,0.968411071298901,0.28671155,0.6879185671213686
0.043500000000000004,1.75269375,1.0,2731.807624652161,0.38701810885973675,1.312360260344655,0.9689149527193769,0.28666613750000003,0.6888745783080976
0.044,1.7516,1.0,2730.7297273432305,0.39045646153705044,1.3118761032381854,0.9694030261724401,0.2866202,0.6898383170566478
0.0445,1.75049375,1.0,2729.5457708527333,0.3938755286419283,1.3113872669241382,0.9698759387114644,0.2865737375,0.690809853308404
0.045,1.7493750000000001,1.0,2728.2620696446634,0.39727541639683694,1.3108936946219314,0.9703343040830019,0.28652675,0.6917892558811393
0.0455,1.74824375,1.0,2726.884938040595,0.4006562310242429,1.310395329550983,0.9707787047618459,0.2864792375,0.6927765924519667
0.046,1.7471,1.0,2725.4206891110525,0.4040180787466129,1.3098921149307112,0.9712096938427254,0.2864312,0.6937719295400857
0.0465,1.7459437500000001,1.0,2723.8756336382307,0.40736106578641357,1.3093839939805343,0.9716277968000137,0.28638263750000004,0.6947753324893262
0.047,1.744775,1.0,2722.256079149704,0.41068529836611145,1.3088709099198703,0.9720335131258363,0.28633355,0.6957868654504826
0.0475,1.74359375,1.0,2720.568329024733,0.4139908827081732,1.308352805968137,0.9724273178560522,0.28628393750000003,0.6968065913634452
0.048,1.7424,1.0,2718.8186816705106,0.4172779250350655,1.307829625344753,0.9728096629927621,0.2862338,0.6978345719391231
0.0485,1.74119375,1.0,2717.013429771729,0.4205465315692549,1.307301311269136,0.9731809788312671,0.2861831375,0.6988708676411657
0.049,1.739975,1.0,2715.153962684139,0.42379679176285884,1.306767851589324,0.973541676237313,0.28613195,0.6999154503548167
0.0495,1.73874375,1.0,2713.2486589350274,0.4270288250284074,1.3062291704331466,0.9738921460033747,0.2860802375,0.700968415739244
0.05,1.7375,1.0,2711.3029133887803,0.4302427394175898,1.3056852190453825,0.9742327611267143,0.286028,0.7020298050292619
0.0505,1.73624375,1.0,2709.3194026643605,0.4334386329526349,1.3051359734098016,0.9745638778414389,0.2859752375,0.7030996101124135
0.051000000000000004,1.734975,1.0,2707.300800385052,0.4366166036557715,1.304581409510173,0.9748858360823975,0.28592195,0.70417782200509
0.051500000000000004,1.73369375,1.0,2705.249776997543,0.4397767495492283,1.3040215033302667,0.9751989603722616,0.2858681375,0.7052644308444026
0.052000000000000005,1.7324,1.0,2703.1689996045156,0.44291916865523406,1.3034562308538518,0.9755035606527858,0.2858138,0.7063594258800185
0.0525,1.73109375,1.0,2701.061131809766,0.4460439589960175,1.3028855680646978,0.9757999330642199,0.28575893750000003,0.7074627954659609
0.053,1.729775,1.0,2698.928833575844,0.4491512185938075,1.3023094909465744,0.9760883606765262,0.28570355000000003,0.7085745270523693
0.0535,1.72844375,1.0,2696.774761095208,0.4522410454708328,1.301727975483251,0.9763691141757698,0.2856476375,0.7096946071772281
0.054,1.7271,1.0,2694.6015666732787,0.4553135376493221,1.3011409976584967,0.9766424525087933,0.2855912,0.7108230214580527
0.0545,1.7257437500000001,1.0,2692.4118986249377,0.4583687931515042,1.3005485334560816,0.9769086234890397,0.2855342375,0.7119597545835415
0.055,1.724375,1.0,2690.208401183456,0.4614069099996079,1.2999505588597746,0.9771678643661721,0.28547675,0.7131047903051941
0.0555,1.72299375,1.0,2687.9937144224673,0.46442798621586184,1.2993470498533457,0.977420402361939,0.2854187375,0.7142581114288857
0.056,1.7216,1.0,2685.770313845746,0.46743211497848264,1.2987379838898545,0.9776664548099374,0.2853602,0.7154196970070952
0.0565,1.72019375,1.0,2683.540210132292,0.4704193670528749,1.2981233426466965,0.977906228216595,0.28530113749999997,0.7165895171210472
0.057,1.718775,1.0,2681.3065892681525,0.47338988082453104,1.2975030969924866,0.9781399261010365,0.28524155,0.7177675614792065
0.0575,1.71734375,1.0,2679.0703620589334,0.47634374568824545,1.296877238621719,0.9783677404181166,0.2851814375,0.7189537792995627
0.058,1.7159,1.0,2676.83243780754,0.4792810510388126,1.2962457592288892,0.9785898553586951,0.2851208,0.7201481190653668
0.0585,1.71444375,1.0,2674.59372430955,0.48220188627102695,1.2956086505084907,0.9788064477234467,0.2850596375,0.7213505285221589
0.059000000000000004,1.7129750000000001,1.0,2672.3551278485584,0.485106340779683,1.2949659041550188,0.9790176872758046,0.28499795,0.722560954674784
0.059500000000000004,1.71149375,1.0,2670.1175531949693,0.48799450395957517,1.2943175118629675,0.9792237370753593,0.2849357375,0.7237793437844132
0.06,1.71,1.0,2667.8819036046602,0.4908664652054978,1.2936634653268315,0.9794247537929397,0.284873,0.7250056413655511
0.0605,1.7084937500000001,1.0,2665.6490808203757,0.4937223139122456,1.2930037562411054,0.9796208880085134,0.2848097375,0.7262397921830449
0.061,1.7069750000000001,1.0,2663.4199850738732,0.4965621394746128,1.2923383763002838,0.9798122844929704,0.28474595,0.727481740249087
0.0615,1.7054437500000001,1.0,2661.195515089825,0.499386031287394,1.2916673171988613,0.9799990824747776,0.2846816375,0.7287314288202131
0.062,1.7039,1.0,2658.976568091963,0.5021940787453836,1.290990570631332,0.9801814158924235,0.2846168,0.7299888003942978
0.0625,1.70234375,1.0,2656.7640398090984,0.504986371243376,1.2903081282921909,0.9803594136335145,0.2845514375,0.731253796707541
0.063,1.7007750000000001,1.0,2654.5588244844225,0.5077629981761657,1.2896199818759322,0.9805331997613198,0.28448555,0.7325263587314563
0.0635,1.69919375,1.0,2652.361814885495,0.5105240489385472,1.2889261230770506,0.9807028937295132,0.28441913750000003,0.7338064266698503
0.064,1.6976,1.0,2650.1739023153377,0.5132696129253148,1.2882265435900406,0.9808686105858101,0.2843522,0.7350939399557985
0.0645,1.69599375,1.0,2647.995976626389,0.5159997795312631,1.287521235109397,0.9810304611651482,0.2842847375,0.7363888372486189
0.065,1.694375,1.0,2645.8244480402745,0.5187146027128661,1.2868102306733398,0.981188551825145,0.28421675,0.737690980807097
0.0655,1.69274375,1.0,2643.6604006327766,0.5214141842468822,1.2860935202067836,0.9813429863466652,0.2841482375,0.739000311529626
0.066,1.6911,1.0,2641.508719365941,0.524098647076514,1.2853710584990068,0.9814938645085525,0.2840792,0.7403168334539427
0.0665,1.6894437500000001,1.0,2639.369354810375,0.5267680710306801,1.2846428458772725,0.9816412817745367,0.2840096375,0.7416404664887988
0.067,1.687775,1.0,2637.242257668224,0.5294225359382995,1.2839088826688443,0.9817853302471959,0.28393955,0.7429711299162258
0.0675,1.68609375,1.0,2635.127378773241,0.5320621216282908,1.283169169200985,0.9819260988084116,0.2838689375,0.7443087423916579
0.068,1.6844000000000001,1.0,2633.0246690893196,0.5346869079295729,1.282423705800958,0.9820636732529988,0.2837978,0.7456532219440495
0.0685,1.68269375,1.0,2630.934079709951,0.5372969746710645,1.2816724927960264,0.9821981364158822,0.2837261375,0.7470044859759964
0.069,1.680975,1.0,2628.8555618576625,0.5398924016816847,1.2809155305134532,0.982329568293179,0.28365395,0.7483624512638557
0.0695,1.67924375,1.0,2626.7890668829073,0.5424732687903521,1.280152819280502,0.9824580461575124,0.28358123749999997,0.7497270339578647
0.07,1.6775,1.0,2624.734546263757,0.5450396558259853,1.2793843594244356,0.9825836446678728,0.283508,0.7510981495822633
0.07050000000000001,1.67574375,1.0,2622.691951604703,0.5475916426175036,1.2786101512725174,0.9827064359743184,0.2834342375,0.7524757130354113
0.07100000000000001,1.673975,1.0,2620.6612346360653,0.5501293089938255,1.2778301951520106,0.982826489817788,0.28335995,0.7538596385899098
0.07150000000000001,1.67219375,1.0,2618.642347213377,0.5526527347838698,1.2770444913901782,0.982943873625289,0.2832851375,0.7552498398927217
0.07200000000000001,1.6704,1.0,2616.6352413165705,0.5551619998165555,1.2762530403142835,0.9830586526007011,0.2832098,0.7566462299652896
0.0725,1.66859375,1.0,2614.6398690491114,0.5576571839208011,1.2754558422515896,0.9831708898114273,0.2831339375,0.7580487212036588
0.073,1.6667750000000001,1.0,2612.6561826374164,0.5601383669255257,1.27465289752936,0.9832806462711025,0.28305755,0.7594572253785933
0.0735,1.66494375,1.0,2610.6841344300838,0.5626056286596479,1.2738442064748574,0.9833879810185729,0.2829806375,0.7608716536357005
0.074,1.6631,1.0,2608.72367689703,0.5650590489520867,1.2730297694153454,0.9834929511933277,0.2829032,0.7622919164955463
0.0745,1.6612437500000001,1.0,2606.77476262879,0.5674987076317609,1.2722095866780871,0.9835956121075697,0.2828252375,0.7637179238537786
0.075,1.659375,1.0,2604.837344336138,0.5699246845275892,1.2713836585903455,0.9836960173150937,0.28274675,0.7651495849812462
0.0755,1.65749375,1.0,2602.9113748488458,0.5723370594684903,1.2705519854793839,0.9837942186771315,0.2826677375,0.7665868085241175
