Time [s],Phi [rad],STIM [ ],Fsee [N],Gamma [ ],Lcerel [ ],q [ ],Lmtc [m],fisomrel [ ]
0.0,1.8,1.0,17.966613253910584,1.0009417898650125e-05,1.3793398072687384,0.0050000267018027985,0.288653,0.5411393833587896
0.0005,1.79999375,1.0,18.27599873335402,0.005619162581774668,1.3793024705911912,0.012940541761894818,0.2886527375,0.5412297060057991
0.001,1.799975,1.0,21.617654623017003,0.011196852831323224,1.3789383763600112,0.03560863097422988,0.28865195,0.5421100348266535
0.0015,1.79994375,1.0,31.06843583288204,0.016743256649478545,1.378046271901269,0.07060178138463187,0.2886506375,0.5442634448391321
0.002,1.7999,1.0,53.581340022455024,0.022258549527522778,1.3763681996642625,0.1147179273942453,0.2886488,0.5483003133975825
0.0025,1.79984375,1.0,97.117564047104,0.027742905972651284,1.373935233450271,0.1645747718176907,0.28864643749999996,0.5541213047974851
0.003,1.7997750000000001,1.0,160.95672794123112,0.033196499515688586,1.3712143976150264,0.21728032697316577,0.28864354999999997,0.5605863233524014
0.0035,1.79969375,1.0,237.6819007411969,0.038619502710680306,1.3685847783057001,0.2706127601717496,0.2886401375,0.566789735973654
0.004,1.7996,1.0,321.46539646873384,0.04401208714567535,1.366156128811264,0.32291567601075477,0.2886362,0.5724798767026437
0.0045000000000000005,1.7994937500000001,1.0,409.26645531570097,0.04937442344791031,1.3639228445763052,0.3730343875476319,0.2886317375,0.5776790918223547
0.005,1.799375,1.0,499.41227662161447,0.05470668127490264,1.361858368432083,0.42024734823795834,0.28862675,0.5824570191188483
0.0055,1.79924375,1.0,590.7892550585434,0.06000902936189676,1.3599388577422202,0.46417359425422144,0.2886212375,0.5868750595893678
0.006,1.7991000000000001,1.0,682.5170112718879,0.06528163546506235,1.3581464346889671,0.5046798669238695,0.2886152,0.5909793728302979
0.006500000000000001,1.79894375,1.0,773.8803491038718,0.07052466641699444,1.3564672691303616,0.5418006726138868,0.2886086375,0.594805759052112
0.007,1.798775,1.0,864.2847262347937,0.0757382881106159,1.3548904125220982,0.5756767043595052,0.28860155,0.5983826374358896
0.0075,1.79859375,1.0,953.2421302489657,0.0809226655085124,1.3534067958820577,0.6065098478013067,0.2885939375,0.6017335351542654
0.008,1.7984,1.0,1040.3499594901823,0.08607796248613168,1.3520087714181055,0.6345320630741158,0.2885858,0.604878267999732
0.0085,1.79819375,1.0,1125.316916392454,0.09120434265828453,1.350689203433883,0.6599843533639075,0.2885771375,0.6078350848051932
0.009000000000000001,1.797975,1.0,1207.8860656133195,0.09630196782569389,1.3494422279153997,0.6831042476847656,0.28856795,0.6106190349155671
0.0095,1.79774375,1.0,1287.8701032157078,0.10137099912630912,1.348262416279921,0.7041175874244501,0.2885582375,0.6132439075474203
0.01,1.7975,1.0,1365.1541729268818,0.10641159715978071,1.3471445507754085,0.7232342704142541,0.288548,0.6157227706216193
0.0105,1.79724375,1.0,1439.658343382485,0.1114239217606433,1.3460839608533,0.7406466294870427,0.2885372375,0.6180672577809042
0.011,1.796975,1.0,1511.3161048556847,0.1164081309452043,1.3450766282712259,0.7565291290917648,0.28852595000000003,0.6202873744290887
0.0115,1.79669375,1.0,1580.106271894346,0.12136438224696372,1.3441186591579097,0.7710386578389516,0.2885141375,0.622392692663783
0.012,1.7964,1.0,1646.0536991618358,0.1262928334085995,1.3432062037194081,0.7843155781630167,0.28850180000000003,0.6243925437771433
0.0125,1.79609375,1.0,1709.1789135130723,0.13119364029358427,1.3423359780630773,0.7964852776389013,0.2884889375,0.6262948919757535
0.013000000000000001,1.7957750000000001,1.0,1769.5037282672467,0.1360669571210591,1.3415051046573114,0.8076594827870675,0.28847555,0.6281067075669604
0.0135,1.79544375,1.0,1827.081546933134,0.14091293811016503,1.3407107059705043,0.81793748809641,0.2884616375,0.6298348687406905
0.014,1.7951000000000001,1.0,1881.9771649898373,0.14573173663261502,1.3399500951521748,0.8274075735761998,0.2884472,0.6314857551212606
0.0145,1.79474375,1.0,1934.281379361508,0.15052350647462975,1.3392205772778887,0.8361481700614412,0.2884322375,0.6330656886200764
0.015,1.794375,1.0,1984.0572096559029,0.15528839848430426,1.3385199990163852,0.8442291784417209,0.28841675,0.6345797521235541
0.0155,1.79399375,1.0,2031.3715843949592,0.16002656271180732,1.3378463607217406,0.8517128303016825,0.2884007375,0.6360326420506236
0.016,1.7936,1.0,2076.3076852897566,0.16473814920730767,1.3371976627480318,0.8586545426547373,0.2883842,0.6374290058586245
0.0165,1.7931937500000001,1.0,2118.9495998472544,0.16942330701689529,1.3365720493321163,0.8651037683953494,0.2883671375,0.6387731365063122
0.017,1.792775,1.0,2159.398518201124,0.17408218589678495,1.335967622897143,0.8711046482200514,0.28834955,0.6400693761634026
0.0175,1.7923437500000001,1.0,2197.7296036747507,0.17871493245623948,1.33538287118774,0.8766967554079679,0.2883314375,0.6413212044447315
0.018000000000000002,1.7919,1.0,2234.017103279781,0.18332169246048857,1.33481638830616,0.881915553157982,0.2883128,0.6425318435000598
0.0185,1.79144375,1.0,2268.343785728817,0.18790261167476177,1.3342667683546552,0.8867928459180612,0.2882936375,0.6437044884366558
0.019,1.790975,1.0,2300.7931231356715,0.19245783497700172,1.3337326756760206,0.8913572200994185,0.28827395,0.6448421593945282
0.0195,1.79049375,1.0,2331.454630435433,0.1969875078806173,1.3332127833380953,0.895634398763225,0.2882537375,0.6459478348854577
0.02,1.79,1.0,2360.4062230426616,0.201491773964501,1.3327059393745677,0.899647603584243,0.288233,0.6470241004620105
0.0205,1.78949375,1.0,2387.7130180541976,0.20597077443595657,1.3322111679274902,0.9034178336563219,0.2882117375,0.6480731502048882
0.021,1.788975,1.0,2413.444602674202,0.2104246505022878,1.3317274931389138,0.9069640732749813,0.28818995000000003,0.6490971629329461
0.021500000000000002,1.78844375,1.0,2437.6746614267017,0.21485354337079848,1.3312539391508906,0.9103035128850254,0.2881676375,0.6500983029241647
0.022,1.7879,1.0,2460.472742758219,0.21925759264020417,1.3307896055623791,0.9134517578528686,0.2881448,0.6510785613899415
0.0225,1.78734375,1.0,2481.9145292980324,0.22363693994899725,1.3303335647461716,0.9164229791614554,0.28812143749999997,0.6520399744964505
0.023,1.786775,1.0,2502.0634498132295,0.227991724169104,1.3298850342377335,0.9192300953418713,0.28809755,0.6529842607970963
0.0235,1.78619375,1.0,2520.9732396800296,0.23232208147253425,1.3294433471657534,0.9218848963058351,0.28807313749999996,0.6539128858680641
0.024,1.7856,1.0,2538.6997693364992,0.23662814803129778,1.3290078366589193,0.9243981389325318,0.2880482,0.6548273068144703
0.0245,1.78499375,1.0,2555.300864561752,0.24091006001740442,1.32857783584592,0.9267796518116275,0.2880227375,0.6557289725472312
0.025,1.784375,1.0,2570.8361366151694,0.245167953602864,1.3281526778554436,0.9290384280969577,0.28799675,0.6566193240315736
0.025500000000000002,1.78374375,1.0,2585.3545685199347,0.2494019617784221,1.3277318102605993,0.9311827256184961,0.2879702375,0.657499555303924
0.026000000000000002,1.7831000000000001,1.0,2598.919256953858,0.2536122229668324,1.3273145617095266,0.933220103826235,0.2879432,0.6583711023370553
0.0265,1.78244375,1.0,2611.576251422981,0.25779887009373464,1.3269004318327267,0.9351575324621804,0.2879156375,0.6592350372052833
0.027,1.781775,1.0,2623.364672838886,0.2619620337196366,1.3264889942673395,0.9370014330490928,0.28788755,0.660092272392542
0.0275,1.7810937500000001,1.0,2634.3245343936283,0.26610184440504586,1.3260798226505046,0.9387577196576655,0.2878589375,0.6609437157532381
0.028,1.7804,1.0,2644.4966647599977,0.27021843271046997,1.3256724906193618,0.9404318457175225,0.2878298,0.6617902705796611
0.0285,1.77969375,1.0,2653.9226353220415,0.2743119291964166,1.3252665718110512,0.9420288459433143,0.2878001375,0.6626328356578006
0.029,1.778975,1.0,2662.6446914365897,0.2783824644233933,1.3248616398627124,0.9435533739387743,0.28776995,0.6634723053115732
0.029500000000000002,1.7782437500000001,1.0,2670.696328826651,0.28243016444558783,1.3244573544116813,0.9450097461106567,0.2877392375,0.6643093914801423
0.03,1.7775,1.0,2678.1237289229325,0.28645516334528304,1.324053263242685,0.9464019488995039,0.287708,0.66514503374288
0.0305,1.77674375,1.0,2684.9578802607266,0.290457587851297,1.3236490580756521,0.9477336956525308,0.2876762375,0.6659798699194616
0.031,1.775975,1.0,2691.2258932112395,0.2944375625189575,1.3232444696337802,0.9490084378797595,0.28764395,0.666814454244822
0.0315,1.7751937500000001,1.0,2696.955205854935,0.29839521190359236,1.3228392286402664,0.9502293830264269,0.2876111375,0.6676493381726971
0.032,1.7744,1.0,2702.1735533703686,0.30233066056052954,1.3224330658183079,0.9513995147480379,0.2875778,0.6684850703667307
0.0325,1.77359375,1.0,2706.908939031035,0.30624403304509684,1.3220257118911023,0.952521611266166,0.2875439375,0.669322196686954
0.033,1.772775,1.0,2711.1896068094425,0.3101354539126222,1.3216168975818465,0.9535982620072788,0.28750955,0.6701612601716456
0.0335,1.7719437500000002,1.0,2715.041507412611,0.31400504759124037,1.3212063764727329,0.9546318852862805,0.2874746375,0.6710027541876817
0.034,1.7711000000000001,1.0,2718.484758229185,0.3178529363244093,1.3207939569549842,0.9556247448006853,0.2874392,0.6718470573378945
0.0345,1.7702437500000001,1.0,2721.575537476409,0.3216792425582722,1.32037912052754,0.9565789202742918,0.2874032375,0.6726952140625002
0.035,1.7693751474532555,1.0,2724.3114162864968,0.32548408619262786,1.3199619503826105,0.9574964217686551,0.28736675619303675,0.6735470354188644
0.035500000000000004,1.768502067435387,1.0,2727.0737904315565,0.32926758712727505,1.3195425297124075,0.9583791306766142,0.2873300868322862,0.6744023332429694
0.036000000000000004,1.7676289874175188,1.0,2730.0760246948803,0.33302986526201245,1.3191209417091414,0.9592288094390521,0.2872934174715358,0.6752609201615778
0.0365,1.7667559073996504,1.0,2733.307793328084,0.33677103966367783,1.3186972837384234,0.9600471116737018,0.28725674811078533,0.6761225807963993
0.037,1.7658828273817821,1.0,2736.737634963712,0.3404912299281633,1.3182718450629305,0.9608356082067372,0.28722007875003486,0.6769867112252487
0.0375,1.7650097473639137,1.0,2740.3445966490285,0.34419055329393783,1.3178448191058567,0.9615957639654326,0.2871834093892844,0.6778529048710626
0.038,1.7641366673460455,1.0,2744.11159280991,0.3478691260132141,1.3174163638870977,0.9623289519304236,0.2871467400285339,0.6787208288797627
0.0385,1.763263587328177,1.0,2748.021504643047,0.35152706433820485,1.3169866374265482,0.9630364633109206,0.28711007066778343,0.6795901520823026
0.039,1.7623905073103088,1.0,2752.0579964857147,0.3551644839234991,1.316555790311258,0.9637195125037923,0.28707340130703296,0.6804605600140783
0.0395,1.7615174272924403,1.0,2756.209204064682,0.35878149761868894,1.3161239323236436,0.964379239006192,0.2870367319462825,0.6813318221053457
0.04,1.760644347274572,1.0,2760.4527166339963,0.36237822695969796,1.3156912683060735,0.9650167269786797,0.287000062585532,0.6822035175870622
0.0405,1.7597712672567036,1.0,2764.7800983727875,0.3659547833764834,1.315257876303977,0.965632985839774,0.28696339322478154,0.6830754828708747
0.041,1.7588981872388354,1.0,2769.1828901890112,0.3695112782990029,1.3148238343627834,0.966228968361159,0.28692672386403106,0.6839475552203913
0.0415,1.758025107220967,1.0,2773.652608527148,0.37304782315721374,1.3143892205279215,0.9668055744402563,0.2868900545032806,0.6848195727546108
0.042,1.7571520272030987,1.0,2778.18074431118,0.3765645293810734,1.3139541128448207,0.9673636545841092,0.2868533851425301,0.6856913744509618
0.0425,1.7562789471852303,1.0,2782.758762022622,0.3800615084005393,1.3135185893589099,0.9679040131294111,0.2868167157817797,0.6865628001479569
0.043000000000000003,1.755405867167362,1.0,2787.378098912963,0.38353887164556894,1.3130827281156188,0.9684274112211458,0.2867800464210292,0.6874336905474538
0.043500000000000004,1.7545327871494936,1.0,2792.0319212086692,0.3869967274489697,1.3126465913710545,0.9689345678265291,0.28674337706027875,0.6883039186991736
0.044,1.7536597071316253,1.0,2796.716550137875,0.39043518082475676,1.3122102128481026,0.9694261614043848,0.2867067076995283,0.6891734151573421
0.0445,1.7527866271137569,1.0,2801.4185774038074,0.3938543558678364,1.311773713455608,0.9699028447854263,0.2866700383387778,0.6900419374939428
0.045,1.7519135470958886,1.0,2806.1351994594033,0.39725435736545867,1.31133711863055,0.9703652270093834,0.2866333689780273,0.6909094341926876
0.0455,1.7510404670780202,1.0,2810.863603287528,0.40063529010487375,1.3109004538099083,0.9708138861662555,0.28659669961727685,0.6917758540203862
0.046,1.7501673870601517,1.0,2815.6009663546192,0.4039972588733316,1.3104637444306624,0.9712493712693863,0.2865600302565264,0.6926411460270803
0.0465,1.7492943070422835,1.0,2820.3444565783234,0.4073403684580825,1.3100270159297918,0.9716722039978555,0.2865233608957759,0.6935052595461373
0.047,1.7484212270244153,1.0,2825.091232309601,0.41066472364637646,1.309590293744276,0.9720828803184676,0.28648669153502543,0.6943681441943013
0.0475,1.7475481470065468,1.0,2829.8384423289513,0.4139704292254637,1.3091536033110944,0.972481871996724,0.28645002217427495,0.6952297498717044
0.048,1.7466750669886784,1.0,2834.583225857281,0.41725758998259416,1.3087169700672265,0.9728696280053499,0.2864133528135245,0.6960900267618341
0.0485,1.7458019869708101,1.0,2839.3227125809467,0.42052631070501806,1.308280419449652,0.9732465758382137,0.286376683452774,0.6969489253314625
0.049,1.7449289069529417,1.0,2844.0540226912544,0.4237766961799855,1.3078439768953503,0.9736131227368131,0.28634001409202353,0.6978063963305328
0.0495,1.7440558269350734,1.0,2848.774266938094,0.42700885119474663,1.307407667841301,0.9739696568358971,0.28630334473127306,0.698662390792004
0.05,1.743182746917205,1.0,2853.484732295301,0.4302228592391707,1.3069714805146957,0.97431654328139,0.28626667537052264,0.6995169328782391
0.0505,1.7423096668993368,1.0,2858.1800893170785,0.4334188494937703,1.3065354619538232,0.9746541395736813,0.2862300060097721,0.7003699316478196
0.051000000000000004,1.7414365868814683,1.0,2862.85931466888,0.4365969224171921,1.3060996208254791,0.974982781115516,0.2861933366490217,0.7012213715895979
0.051500000000000004,1.7405635068636,1.0,2867.5219545935965,0.43975717500225253,1.3056639607188227,0.9753027874758008,0.2861566672882712,0.7020712471864861
0.052000000000000005,1.7396904268457316,1.0,2872.1675542329886,0.44289970424176767,1.305228485223013,0.9756144639552933,0.28611999792752074,0.7029195529606664
0.0525,1.7388173468278634,1.0,2876.7956576416254,0.44602460712855385,1.3047931979272083,0.9759181023482991,0.28608332856677027,0.7037662834735512
0.053,1.737944266809995,1.0,2881.4058078017893,0.44913198065542737,1.304358102420568,0.9762139816573318,0.2860466592060198,0.704611433325737
0.0535,1.7370711867921267,1.0,2885.9975466387946,0.45222192181520443,1.3039232022922504,0.9765023687640266,0.2860099898452693,0.7054549971569637
0.054,1.7361981067742582,1.0,2890.5704150361894,0.4552945276007013,1.303488501131415,0.9767835190593344,0.28597332048451884,0.7062969696460686
0.0545,1.73532502675639,1.0,2895.1239528514498,0.4583498950047342,1.3030540025272204,0.9770576770357954,0.28593665112376837,0.7071373455109424
0.055,1.7344519467385215,1.0,2899.6576989321197,0.4613881210201195,1.3026197100688255,0.9773250768444727,0.2858999817630179,0.7079761195084822
0.0555,1.7335788667206533,1.0,2904.1711911319762,0.4644093026396734,1.302185627345389,0.9775859428189364,0.2858633124022674,0.7088132864345464
0.056,1.7327057867027849,1.0,2908.663966327438,0.46741353685621206,1.30175175794607,0.9778404899685016,0.28582664304151695,0.7096488411239043
0.0565,1.7318327066849166,1.0,2913.1355604348064,0.4704009206625518,1.3013181054600271,0.9780889244427673,0.28578997368076653,0.7104827784501913
0.057,1.7309596266670482,1.0,2917.5857805485816,0.4733715397584843,1.3008846710839905,0.9783314428260528,0.285753304320016,0.7113150979167056
0.0575,1.73008654664918,1.0,2922.0154792849694,0.4763254557479582,1.3004514468288135,0.9785682311371013,0.2857166349592656,0.7121458166405378
0.058,1.7292134666313115,1.0,2926.4233479804457,0.4792628274499978,1.3000184437049278,0.9787994774460439,0.28567996559851505,0.7129749152961513
0.0585,1.7283403866134432,1.0,2930.8095799918615,0.4821837423833488,1.299585659516803,0.9790253554149734,0.28564329623776463,0.7138023999103387
0.059000000000000004,1.7274673065955748,1.0,2935.174369745973,0.4850882880667569,1.2991530920689087,0.9792460318684473,0.28560662687701416,0.714628276484729
0.059500000000000004,1.7265942265777066,1.0,2939.517912729687,0.4879765520189676,1.2987207391657143,0.9794616671164815,0.2855699575162637,0.7154525509958205
0.06,1.725721146559838,1.0,2943.840405479088,0.4908486217587266,1.2982885986116894,0.9796724152598509,0.2855332881555132,0.7162752293950078
0.0605,1.7248480665419699,1.0,2948.142045569254,0.49370458480477963,1.2978566682113035,0.979878424478798,0.28549661879476274,0.7170963176086144
0.061,1.7239749865241014,1.0,2952.4230316038334,0.4965445286758723,1.297424945769026,0.9800798373061717,0.28545994943401226,0.7179158215379209
0.0615,1.7231019065062332,1.0,2956.683563205007,0.4993685408907503,1.2969934290893266,0.9802767908859459,0.2854232800732618,0.7187337470591937
0.062,1.7222288264883647,1.0,2960.923841003249,0.5021767089681591,1.2965621159766747,0.9804694172180113,0.2853866107125113,0.7195501000237161
0.0625,1.7213557464704965,1.0,2965.144066627634,0.5049691204268447,1.2961310042355396,0.9806578433900627,0.28534994135176084,0.7203648862578151
0.063,1.720482666452628,1.0,2969.344442695609,0.5077458627855524,1.2957000916703914,0.9808421917973549,0.28531327199101036,0.7211781115628895
0.0635,1.7196095864347598,1.0,2973.5251728035832,0.510507023563028,1.2952693760856993,0.9810225803510497,0.2852766026302599,0.7219897817154397
0.064,1.7187365064168914,1.0,2977.686461517186,0.5132526902780172,1.2948388552859325,0.9811991226758248,0.2852399332695094,0.722799902467095
0.0645,1.7178634263990231,1.0,2981.828514361525,0.5159829504492657,1.294408527075561,0.9813719282973712,0.28520326390875894,0.7236084795446387
0.065,1.7169903463811547,1.0,2985.951537812133,0.5186978915955189,1.293978389259054,0.9815411028203708,0.2851665945480085,0.7244155186500387
0.0655,1.7161172663632862,1.0,2990.055739285135,0.5213976012355227,1.2935484396408812,0.9817067480974992,0.285129925187258,0.7252210254604718
0.066,1.715244186345418,1.0,2994.141327128823,0.5240821668880227,1.293118676025512,0.9818689623899699,0.2850932558265076,0.7260250056283513
0.0665,1.7143711063275495,1.0,2998.2085106135137,0.5267516760717644,1.292689096217416,0.9820278405200995,0.28505658646575704,0.7268274647813526
0.067,1.7134980263096813,1.0,3002.2574999236867,0.5294062163054937,1.2922596980210628,0.9821834740163465,0.2850199171050066,0.72762840852244
0.0675,1.7126249462918128,1.0,3006.2882802909958,0.5320458412253792,1.2918304811970864,0.9823359491415921,0.28498324774425615,0.7284278387891485
0.068,1.7117518662739446,1.0,3010.3013074662717,0.534670643898645,1.291401441436175,0.9824853515860764,0.2849465783835057,0.7292257650794627
0.0685,1.7108787862560761,1.0,3014.297154585547,0.537280747353917,1.2909725734270026,0.9826317659703128,0.2849099090227552,0.7300221987030218
0.069,1.710005706238208,1.0,3018.2760265977595,0.5398762291368561,1.2905438750566116,0.9827752713245766,0.28487323966200473,0.730817144984337
0.0695,1.7091326262203395,1.0,3022.238129289384,0.5424571667931238,1.290115344212045,0.9829159440439236,0.28483657030125425,0.731610609224256
0.07,1.7082595462024712,1.0,3026.183669276879,0.5450236378683814,1.2896869787803455,0.983053857994151,0.2847999009405038,0.7324025966999861
0.07050000000000001,1.7073864661846028,1.0,3030.11285399858,0.5475757199082899,1.2892587766485561,0.9831890846128066,0.2847632315797533,0.733193112665117
0.07100000000000001,1.7065133861667345,1.0,3034.0258917072024,0.5501134904585108,1.2888307357037192,0.9833216930055095,0.28472656221900283,0.7339821623496439
0.07150000000000001,1.705640306148866,1.0,3037.9229914621765,0.552637027064705,1.2884028538328776,0.98345175003783,0.28468989285825236,0.7347697509599869
