Time [s],Phi [rad],STIM [ ],Fsee [N],Gamma [ ],Lcerel [ ],q [ ],Lmtc [m],fisomrel [ ]
0.0,1.8,1.0,18.72939339320295,0.0008901062286922337,1.379255237370198,0.005203724880707294,0.288653,0.5413439570385036
0.0005,1.79999375,1.0,19.30177906063503,0.006494322745468177,1.3791900795594405,0.015563284444998392,0.2886527375,0.5415015419761007
0.001,1.799975,1.0,23.297493237770336,0.012067104038966492,1.3787700122595008,0.04034102778456387,0.28865195,0.542516829760643
0.0015,1.79994375,1.0,34.22760615703045,0.017608626435403382,1.3777836329247388,0.07698324740112722,0.2886506375,0.5448964499176856
0.002,1.7999,1.0,59.64476268004053,0.02311906527313628,1.3759853724634967,0.12221357489656835,0.2886488,0.5492187490225946
0.0025,1.79984375,1.0,106.68417095199518,0.028598594905730558,1.3734850639340885,0.17269002032401207,0.28864643749999996,0.5551942188078757
0.003,1.7997750000000001,1.0,173.01566508987796,0.034047388709901705,1.3707711698737064,0.22562662160538177,0.28864354999999997,0.5616350114492448
0.0035,1.79969375,1.0,251.09273803313852,0.03946561908965995,1.368177355985514,0.2788959370600477,0.2886401375,0.5677469213632531
0.004,1.7996,1.0,335.61145944483087,0.04485345748083094,1.365785486458908,0.330923105919234,0.2886362,0.573344955025574
0.0045000000000000005,1.7994937500000001,1.0,423.8357346377805,0.05021107436003169,1.3635838381647944,0.3806265199360936,0.2886317375,0.5784655377084075
0.005,1.799375,1.0,514.2070932766553,0.05553863920420652,1.3615462739579327,0.42734442702838354,0.28862675,0.5831769508518352
0.0055,1.79924375,1.0,605.6819934152514,0.06083632071511497,1.3596497004072192,0.4707402550668926,0.2886212375,0.5875385618526705
0.006,1.7991000000000001,1.0,697.3839217221749,0.06610428636025567,1.3578776494287554,0.5107121446638089,0.2886152,0.5915930741050665
0.006500000000000001,1.79894375,1.0,788.6248369456675,0.0713427028671282,1.3562167584952303,0.5473147547471218,0.2886086375,0.595375066859537
0.007,1.798775,1.0,878.8325907379419,0.07655173605297494,1.354656398384179,0.5807008940559466,0.28860155,0.5989121144297272
0.0075,1.79859375,1.0,967.5186753531581,0.0817315505370579,1.353188023823033,0.6110790682337484,0.2885939375,0.6022264662882039
0.008,1.7984,1.0,1054.324173902711,0.08688231059864739,1.3518037147201054,0.6386835662353958,0.2885858,0.6053384767510672
0.0085,1.79819375,1.0,1138.9331989075215,0.09200417886600008,1.3504970267506862,0.6637558443957648,0.2885771375,0.6082647775476046
0.009000000000000001,1.797975,1.0,1221.1093523863522,0.09709731730441398,1.3492620381774998,0.6865319279671709,0.28856795,0.6110204996431718
0.0095,1.79774375,1.0,1300.695650947773,0.10216188754161007,1.3480931189809633,0.7072352432474361,0.2885582375,0.6136198358357938
0.01,1.7975,1.0,1377.561327739458,0.10719804956104997,1.3469854452333283,0.7260731876436252,0.288548,0.6160749387634852
0.0105,1.79724375,1.0,1451.6214880182947,0.11220596247324202,1.3459345426205809,0.7432353365032962,0.2885372375,0.6183969777483722
0.011,1.796975,1.0,1522.8368920646008,0.1171857847121641,1.3449361637718609,0.7588932272623379,0.28852595000000003,0.620596437890153
0.0115,1.79669375,1.0,1591.2075503260883,0.1221376748102027,1.3439862687786637,0.7732010245567504,0.2885141375,0.6226831852414954
0.012,1.7964,1.0,1656.721146252317,0.1270617885472495,1.3430815446284612,0.7862968656232653,0.28850180000000003,0.6246653499213941
0.0125,1.79609375,1.0,1719.4016985247306,0.13195828150334113,1.342218727509029,0.7983038809622449,0.2884889375,0.6265508371878221
0.013000000000000001,1.7957750000000001,1.0,1779.2962033003587,0.13682730860083767,1.3413947083608317,0.8093316636042717,0.28847555,0.6283471081097661
0.0135,1.79544375,1.0,1836.476027142847,0.14166902511747137,1.3406064684725703,0.8194776418510249,0.2884616375,0.6300613317431251
0.014,1.7951000000000001,1.0,1890.9950153925388,0.1464835837865784,1.339851498104471,0.828828553520055,0.2884472,0.631699487360162
0.0145,1.79474375,1.0,1942.9091774178303,0.15127113612665075,1.3391275213502185,0.8374615441860813,0.2884322375,0.6332669778790085
0.015,1.794375,1.0,1992.2951982047985,0.15603183365618037,1.338432262303498,0.8454451926406719,0.28841675,0.6347691448728836
0.0155,1.79399375,1.0,2039.2362075349151,0.16076582702813086,1.3377635758718744,0.85284055744023,0.2884007375,0.6362109911168512
0.016,1.7936,1.0,2083.8292728132365,0.16547326742745924,1.3371193453495944,0.8597020327517844,0.2883842,0.6375974074970054
0.0165,1.7931937500000001,1.0,2126.1498702144236,0.1701543032226661,1.3364978316475944,0.8660782391863268,0.2883671375,0.6389324276035308
0.017,1.792775,1.0,2166.2712878468196,0.17480908163544356,1.335897443825595,0.8720126360264309,0.28834955,0.6402197296920639
0.0175,1.7923437500000001,1.0,2204.2775781630257,0.17943774988748382,1.3353165909433167,0.877544088037836,0.2883314375,0.641462958667578
0.018000000000000002,1.7919,1.0,2240.2559920417925,0.18404045444997155,1.3347537487777361,0.8827074225235871,0.2883128,0.6426655857119017
0.0185,1.79144375,1.0,2274.2982448422554,0.18861734209606443,1.3342074361441028,0.8875338942299023,0.2882936375,0.6438309618175557
0.019,1.790975,1.0,2306.4874057765664,0.19316855815820838,1.333676335376623,0.8920516264680752,0.28827395,0.6449620638062099
0.0195,1.79049375,1.0,2336.890609265371,0.1976942452945508,1.333159351671174,0.8962859809844527,0.2882537375,0.6460613724299842
0.02,1.79,1.0,2365.580595389279,0.20219454616323915,1.3326553902236333,0.9002598182714121,0.288233,0.6471313499845734
0.0205,1.78949375,1.0,2392.6352434786913,0.20666960342242086,1.332163356229878,0.9039937779697558,0.2882117375,0.6481744412567065
0.021,1.788975,1.0,2418.1280934105935,0.21111955825769294,1.331682242175153,0.9075065429798906,0.28818995000000003,0.6491928897502013
0.021500000000000002,1.78844375,1.0,2442.1413510485468,0.21554455359361913,1.3312109967350614,0.9108150272524542,0.2881676375,0.6501890167148188
0.022,1.7879,1.0,2464.7430156564806,0.21994472962647588,1.3307487411350913,0.9139346087388368,0.2881448,0.6511647647881134
0.0225,1.78734375,1.0,2485.9897233802712,0.22432022404576824,1.3302947350402976,0.9168792851579382,0.28812143749999997,0.6521217729740421
0.023,1.786775,1.0,2505.9407728443975,0.2286711745410011,1.329848238115735,0.9196617930354417,0.28809755,0.6530616703187033
0.0235,1.78619375,1.0,2524.657903156175,0.23299771880167947,1.3294085100264588,0.9222937387842886,0.28807313749999996,0.653986076282361
0.024,1.7856,1.0,2542.2050840622965,0.2372999945173083,1.3289748104375234,0.9247857145939925,0.2880482,0.6548966010765164
0.0245,1.78499375,1.0,2558.637107724311,0.24157813605428655,1.328546504260762,0.9271474178890807,0.2880227375,0.6557946254401565
0.025,1.784375,1.0,2574.0212357003484,0.24583228352037775,1.3281228557243996,0.9293877093512317,0.28799675,0.656681733262962
0.025500000000000002,1.78374375,1.0,2588.4026096199045,0.25006256987219394,1.3277033512241088,0.9315147432854888,0.2879702375,0.657559035703088
0.026000000000000002,1.7831000000000001,1.0,2601.8256688089064,0.25426912741523733,1.3272874955415892,0.933536005097771,0.2879432,0.6584275996878644
0.0265,1.78244375,1.0,2614.3359976428383,0.25845208845501,1.32687479345854,0.9354583727116763,0.2879156375,0.6592884866117243
0.027,1.781775,1.0,2625.980226220176,0.2626115852970141,1.3264647497566604,0.9372881740111852,0.28788755,0.660142752443626
0.0275,1.7810937500000001,1.0,2636.805936472544,0.26674775024675185,1.3260568692176495,0.9390312381521723,0.2878589375,0.6609914478188285
0.028,1.7804,1.0,2646.85021612912,0.27086071232402126,1.325650761458662,0.9406929555333761,0.2878298,0.6618354003870972
0.0285,1.77969375,1.0,2656.160477103173,0.2749506051997562,1.3252459474214424,0.9422782926437804,0.2878001375,0.662675617620945
0.029,1.778975,1.0,2664.782917221085,0.2790175607203644,1.3248419656587938,0.9437918426949824,0.28776995,0.6635130655195506
0.029500000000000002,1.7782437500000001,1.0,2672.7474158019268,0.28306170515064805,1.324438510292604,0.9452378760976555,0.2877392375,0.6643483834155482
0.03,1.7775,1.0,2680.0843126910995,0.2870831647554097,1.3240352754447622,0.9466203493988624,0.287708,0.66518220748545
0.0305,1.77674375,1.0,2686.8243674437495,0.2910820657994517,1.3236319552371565,0.9479429323282755,0.2876762375,0.6660151707569361
0.031,1.775975,1.0,2692.9987205822204,0.29505853454757636,1.3232282437916756,0.9492090321946836,0.28764395,0.6668479031101695
0.0315,1.7751937500000001,1.0,2698.6388569276482,0.2990126972645861,1.322823835230208,0.9504218159210875,0.2876111375,0.6676810312731492
0.032,1.7744,1.0,2703.7765710062763,0.3029446802152833,1.3224184236746424,0.9515842299724853,0.2875778,0.6685151788110932
0.0325,1.77359375,1.0,2708.4360842441693,0.3068546058921904,1.3220117748798856,0.95269902582776,0.2875439375,0.6693508190009754
0.033,1.772775,1.0,2712.6490563215257,0.31074260201052,1.321603588807112,0.9537687621435799,0.28750955,0.6701885576096492
0.0335,1.7719437500000002,1.0,2716.4428691855555,0.31460879284140914,1.3211936063997716,0.954795830027734,0.2874746375,0.6710289132905249
0.034,1.7711000000000001,1.0,2719.837440571219,0.31845329847725073,1.3207816382307598,0.9557824692261087,0.2874392,0.6718722594833864
0.0345,1.7702437500000001,1.0,2722.8528323818214,0.32227623901043767,1.3203674948729718,0.9567307732659448,0.2874032375,0.6727189675663788
0.035,1.7693750000000001,1.0,2725.509235717344,0.32607773453336286,1.3199509868993033,0.9576427007084716,0.28736675,0.6735694068308732
0.035500000000000004,1.76849375,1.0,2727.826956699143,0.3298579051384192,1.31953192488265,0.9585200854109608,0.2873297375,0.674423944454045
0.036000000000000004,1.7676,1.0,2729.8264030894284,0.33361687091799963,1.3191101193959072,0.9593646458956938,0.2872922,0.6752829454691642
0.0365,1.76669375,1.0,2731.5280717071014,0.33735475196449694,1.31868538101197,0.9601779939127926,0.2872541375,0.6761467727335952
0.037,1.765775,1.0,2732.9407783916818,0.3410716606564326,1.318257627114338,0.9609616512003366,0.28721555,0.677015570100609
0.0375,1.76484375,1.0,2734.092115828107,0.34476772384124776,1.3178266050671996,0.9617170336424066,0.2871764375,0.6778898249727625
0.038,1.7639,1.0,2735.0016379349327,0.3484430607187566,1.3173921358099943,0.9624454777143944,0.28713679999999997,0.6787698728506701
0.0385,1.76294375,1.0,2735.680940762275,0.35209778467975894,1.3169541129616917,0.9631482463821541,0.28709663750000003,0.6796559001169233
0.039,1.761975,1.0,2736.141656288727,0.3557320091150548,1.3165124301412618,0.9638265286290696,0.28705595,0.6805480917285487
0.0395,1.7609937500000001,1.0,2736.3954476143003,0.35934584741544406,1.3160669809676742,0.9644814445834639,0.2870147375,0.681446631192538
0.04,1.76,1.0,2736.454004403036,0.3629394129717267,1.3156176590598985,0.9651140502378742,0.286973,0.6823517005406559
0.0405,1.7589937500000001,1.0,2736.3290385772116,0.3665128191747026,1.3151643580369048,0.9657253417966702,0.2869307375,0.6832634803035258
0.041,1.757975,1.0,2736.0322802624055,0.3700661794151717,1.3147069715176627,0.9663162596848864,0.28688795,0.6841821494839957
0.0415,1.75694375,1.0,2735.575473983072,0.3735996070839339,1.3142453931211422,0.9668876922479333,0.2868446375,0.6851078855297794
0.042,1.7559,1.0,2734.9703751096226,0.3771132155717892,1.3137795164663129,0.967440479168985,0.28680079999999997,0.6860408643053792
0.0425,1.75484375,1.0,2734.222571504102,0.38060711161091854,1.3133092912525095,0.9679754181689967,0.2867564375,0.6869811480065375
0.043000000000000003,1.753775,1.0,2733.3455814101662,0.38408141180215843,1.3128345952222968,0.9684932599351725,0.28671155,0.6879289414288957
0.043500000000000004,1.75269375,1.0,2732.3516147018818,0.38753622951649497,1.3123553180155787,0.9689947157691814,0.28666613750000003,0.6888844238118199
0.044,1.7516,1.0,2731.247034365139,0.390971671289888,1.3118714023943288,0.9694804627848318,0.2866202,0.6898476669916922
0.0445,1.75049375,1.0,2730.0382052957348,0.39438784365829765,1.3113827911205216,0.9699511429333479,0.2865737375,0.6908187416900307
0.045,1.7493750000000001,1.0,2728.731493058016,0.3977848531576837,1.310889426956131,0.9704073651704448,0.28652675,0.6917977174964556
0.0455,1.74824375,1.0,2727.333262715985,0.4011628063240062,1.3103912526631318,0.9708497074694604,0.2864792375,0.6927846628514409
0.046,1.7471,1.0,2725.8498777376776,0.404521809693225,1.309888211003498,0.9712787186928584,0.2864312,0.6937796450288634
0.0465,1.7459437500000001,1.0,2724.287698971519,0.4078619698013001,1.3093802447392036,0.971694920333336,0.28638263750000004,0.6947827301183371
0.047,1.744775,1.0,2722.653083695542,0.4111833931841914,1.3088672966322228,0.9720988081347803,0.28633355,0.6957939830073421
0.0475,1.74359375,1.0,2720.9523847396167,0.41448618637785883,1.30834930944453,0.9724908536024195,0.28628393750000003,0.6968134673631425
0.048,1.7424,1.0,2719.1878777903325,0.41777044526953466,1.3078262630201334,0.972871506681657,0.2862338,0.6978411728158791
0.0485,1.74119375,1.0,2717.366757755857,0.42103628096920015,1.3072980923845696,0.9732411945384175,0.2861831375,0.698877176073994
0.049,1.739975,1.0,2715.497714545184,0.42428380798081033,1.306764718870186,0.9736003234981382,0.28613195,0.6999215792617848
0.0495,1.73874375,1.0,2713.5837998469838,0.42751312543701686,1.3062261151137564,0.9739492823963681,0.2860802375,0.7009743827242871
0.05,1.7375,1.0,2711.628062313879,0.4307243324704715,1.3056822537520547,0.9742884419660339,0.286028,0.7020355859090066
0.0505,1.73624375,1.0,2709.6335473184945,0.43391752821382573,1.305133107421855,0.9746181558396781,0.2859752375,0.7031051873567686
0.051000000000000004,1.734975,1.0,2707.6032967272226,0.43709281179973136,1.3045786487599313,0.9749387614875704,0.28592195,0.7041831846925204
0.051500000000000004,1.73369375,1.0,2705.5403486896093,0.44025028236083996,1.3040188504030574,0.9752505810963237,0.2858681375,0.7052695746160822
0.052000000000000005,1.7324,1.0,2703.447737444796,0.4433900390298032,1.3034536849880078,0.9755539223922798,0.2858138,0.7063643528928536
0.0525,1.73109375,1.0,2701.3284931447934,0.44651218093927264,1.302883125151556,0.9758490794135883,0.28575893750000003,0.7074675143444734
0.053,1.729775,1.0,2699.1856416935375,0.44961680722190006,1.3023071435304765,0.9761363332345925,0.28570355000000003,0.7085790528394257
0.0535,1.72844375,1.0,2697.0222046035956,0.45270401701033713,1.3017257127615427,0.9764159526458505,0.2856476375,0.7096989612836067
0.054,1.7271,1.0,2694.84119886865,0.4557739094372354,1.3011388054815292,0.9766881947928697,0.2855912,0.7108272316108346
0.0545,1.7257437500000001,1.0,2692.64563685298,0.45882658363524653,1.3005463943272095,0.976953305776383,0.2855342375,0.711963854773321
0.055,1.724375,1.0,2690.4370378178955,0.46186213785277286,1.299948465562022,0.977211521945613,0.28547675,0.713108794665142
0.0555,1.72299375,1.0,2688.2140855639605,0.46488066588308047,1.2993450313983348,0.9774630707854765,0.2854187375,0.7142619648505419
0.056,1.7216,1.0,2685.9813923898996,0.4678822623461081,1.2987360497472082,0.9777081671714704,0.2853602,0.7154233819561018
0.0565,1.72019375,1.0,2683.7438311628143,0.4708670220354377,1.2981214760619284,0.9779470169397553,0.28530113749999997,0.716593066041636
0.057,1.718775,1.0,2681.482859785533,0.47383503867533566,1.2975014804516427,0.9781798296672404,0.28524155,0.7177706286003854
0.0575,1.71734375,1.0,2679.244493824477,0.47678640812884115,1.2968756410282931,0.97840677298303,0.2851814375,0.7189568040945155
0.058,1.7159,1.0,2677.0273019895226,0.47972122354539315,1.2962439706796538,0.9786280318952033,0.2851208,0.7201514982013789
0.0585,1.7144439138188037,1.0,2674.8098806613675,0.4826395768162001,1.2956067396868636,0.9788437982149213,0.2850596443803898,0.7213541309046648
0.059000000000000004,1.7129834375455866,1.0,2672.9534797701867,0.48554155983247044,1.294964218331062,0.9790542561574339,0.28499830437691465,0.72256412597049
0.059500000000000004,1.7115229612723695,1.0,2671.6440979228323,0.48842726448541257,1.2943166768933874,0.9792595827101819,0.2849369643734395,0.7237809110409229
0.06,1.7100624849991526,1.0,2670.8519194525343,0.4912967826662349,1.2936643856549794,0.9794599479804161,0.2848756243699644,0.7250039177228429
0.0605,1.7086020087259355,1.0,2670.543145244137,0.4941502044108549,1.2930076530955974,0.9796555174254086,0.28481428436648926,0.7262325102914862
0.061,1.7071415324527184,1.0,2670.6614064303903,0.4969876222804717,1.2923469964273868,0.9798464615062888,0.2847529443630142,0.7274656686220838
0.0615,1.7056810561795013,1.0,2671.177274476012,0.49980912485407436,1.2916826863089699,0.9800329309631005,0.28469160435953905,0.7287028396287727
0.062,1.7042205799062842,1.0,2672.061631132146,0.502614800662126,1.2910149913012965,0.9802150707846211,0.2846302643560639,0.7299434784372014
0.0625,1.702760103633067,1.0,2673.285419197811,0.5054047382350901,1.290344179965316,0.9803930205865192,0.28456892435258885,0.7311870445161615
0.063,1.70129962735985,1.0,2674.8196231641073,0.5081790261034298,1.2896705208619776,0.9805669148580598,0.2845075843491137,0.7324330017332608
0.0635,1.6998391510866329,1.0,2676.640789295091,0.510937750688928,1.2889942317207566,0.9807368804468173,0.2844462443456386,0.7336809120922503
0.064,1.6983786748134158,1.0,2678.7211370436644,0.5136810008976812,1.2883155701214002,0.9809030418182867,0.28438490434216346,0.7349302679386862
0.0645,1.6969181985401987,1.0,2681.031258502445,0.5164088668678175,1.2876348085384282,0.9810655198257142,0.28432356433868833,0.7361805386385899
0.065,1.6954577222669815,1.0,2683.5563430193906,0.5191214330716329,1.2869520854558854,0.9812244239676923,0.2842622243352132,0.7374314434072649
0.0655,1.6939972459937644,1.0,2686.281578345184,0.5218187839814236,1.286267539357817,0.9813798598806394,0.2842008843317381,0.738682703794709
0.066,1.6925367697205473,1.0,2689.192144822983,0.5245010040694856,1.2855813087282673,0.9815319295063187,0.284139544328263,0.7399340437023282
0.0665,1.6910762934473302,1.0,2692.2732100038984,0.5271681778081151,1.2848935320512818,0.9816807312509738,0.28407820432478786,0.7411851893984225
0.067,1.6896158171741134,1.0,2695.5099236872406,0.5298203896696082,1.284204347810905,0.9818263601365629,0.2840168643213128,0.7424358695324557
0.0675,1.6881553409008963,1.0,2698.887413386075,0.5324577241262611,1.2835138944911824,0.9819689079445343,0.28395552431783766,0.7436858151480954
0.068,1.6866948646276791,1.0,2702.3907802182657,0.5350802656503698,1.2828223105761583,0.9821084633525533,0.28389418431436253,0.7449347596950353
0.0685,1.685234388354462,1.0,2706.0135225955523,0.5376880927478542,1.2821296576164705,0.9822451080392526,0.2838328443108874,0.7461825774656032
0.069,1.683773912081245,1.0,2709.7367348672556,0.5402812958970803,1.281436110228622,0.982378927029621,0.28377150430741227,0.7474289408781343
0.0695,1.6823134358080278,1.0,2713.5523914592623,0.5428599562131307,1.2807417434188104,0.9825099973095,0.28371016430393714,0.7486737037696647
0.07,1.6808529595348107,1.0,2717.454043952455,0.545424153501568,1.280046617658169,0.9826383925783401,0.28364882430046207,0.7499167472519748
0.07050000000000001,1.6793924832615936,1.0,2721.43522890215,0.5479739675679554,1.2793507934178314,0.9827641841285201,0.28358748429698694,0.7511579534975386
0.07100000000000001,1.6779320069883765,1.0,2725.4894668612155,0.5505094782178555,1.2786543311689311,0.9828874409417232,0.2835261442935118,0.7523972057423332
0.07150000000000001,1.6764715307151594,1.0,2729.6102614841648,0.5530307652568311,1.2779572913826016,0.9830082297808544,0.2834648042900367,0.7536343882884169
0.07200000000000001,1.6750110544419423,1.0,2733.791098712061,0.5555379084904453,1.2772597345299763,0.9831266152777276,0.2834034642865616,0.7548693865062726
0.0725,1.6735505781687254,1.0,2738.025446038833,0.5580309877242606,1.2765617210821887,0.9832426600167468,0.28334212428308647,0.7561020868369186
0.073,1.6720901018955083,1.0,2742.3067518586886,0.5605100827638401,1.2758633115103724,0.9833564246147874,0.28328078427961134,0.757332376793786
0.0735,1.6706296256222912,1.0,2746.631367729837,0.5629752675934062,1.2751645398011666,0.9834679662891513,0.2832194442761362,0.7585601914413654
