Time [s],Phi [rad],STIM [ ],Fsee [N],Gamma [ ],Lcerel [ ],q [ ],Lmtc [m],fisomrel [ ]
0.0,1.8,1.0,18.006319751725485,0.00020095021895635465,1.3793353612007375,0.005010510193255989,0.288653,0.5411501394856697
0.0005,1.79999375,1.0,18.378028081754945,0.005809032355978027,1.379291152659642,0.013479126348954984,0.2886527375,0.5412570839098217
0.001,1.799975,1.0,21.861470334227576,0.011385657586231215,1.378913543578177,0.03661054874915289,0.28865195,0.5421700462150159
0.0015,1.79994375,1.0,31.61819466103703,0.016931002359060872,1.3779996391219536,0.07196873781452733,0.2886506375,0.5443758699734467
0.002,1.7999,1.0,54.74009784794401,0.022445242131974463,1.3762934267925468,0.11633394421759691,0.2886488,0.5484797734461805
0.0025,1.79984375,1.0,99.04376320744478,0.027928551379323735,1.3738428695839484,0.16633104678418884,0.28864643749999996,0.5543415461136446
0.003,1.7997750000000001,1.0,163.44913401672775,0.033381103598383255,1.371121462458438,0.2190910380225518,0.28864354999999997,0.56080631410303
0.0035,1.79969375,1.0,240.49033736874,0.03880307131032969,1.368498524811452,0.2724129201809911,0.2886401375,0.5669924655987999
0.004,1.7996,1.0,324.44874129874046,0.04419462607056861,1.3660772937166856,0.324658162307574,0.2886362,0.5726639509727918
0.0045000000000000005,1.7994937500000001,1.0,412.352684518778,0.04955593847406735,1.3638505349621042,0.3746880752757112,0.2886317375,0.5778469011728018
0.005,1.799375,1.0,502.55897403718126,0.05488717814722475,1.3617916062897295,0.4217942341459712,0.28862675,0.5826110765889585
0.0055,1.79924375,1.0,593.9618346912908,0.06018851378639872,1.3598769561616035,0.46560560053312516,0.2886212375,0.5870171442087351
0.006,1.7991000000000001,1.0,685.690783235035,0.0654601131235058,1.3580888108275655,0.5059957730488477,0.2886152,0.5911109807401149
0.006500000000000001,1.79894375,1.0,777.0326239175935,0.07070214294256907,1.3564135123861358,0.5430038035311985,0.2886086375,0.5949279597850057
0.007,1.798775,1.0,867.3977652708883,0.0759147691581405,1.3548401721340766,0.5767731000225881,0.28860155,0.5984963400505705
0.0075,1.79859375,1.0,956.2972086781593,0.08109815656688962,1.3533598431817897,0.607507051849687,0.2885939375,0.6018393534009598
0.008,1.7984,1.0,1043.3525432133756,0.08625246942788667,1.351964596092636,0.6354380328176361,0.2885858,0.6049774333461337
0.0085,1.79819375,1.0,1128.2421885952253,0.09137787057310218,1.3506478192614266,0.6608073950277077,0.2885771375,0.6079276366301208
0.009000000000000001,1.797975,1.0,1210.7218978725653,0.09647452213983407,1.3494035021286297,0.683852272778543,0.28856795,0.6107053338655889
0.0095,1.79774375,1.0,1290.6324680216012,0.10154258583176591,1.3482258820728463,0.7047978333616017,0.2885582375,0.613325048005702
0.01,1.7975,1.0,1367.8316891364095,0.10658222153966955,1.3471101541494164,0.7238536174089836,0.288548,0.6157989186427564
0.0105,1.79724375,1.0,1442.2319325668711,0.1115935886265136,1.3460517647789867,0.7412113903763693,0.2885372375,0.6181383166241992
0.011,1.796975,1.0,1513.7999838121336,0.11657684621668683,1.3450462990109595,0.757044807704306,0.28852595000000003,0.6203541184274219
0.0115,1.79669375,1.0,1582.5117867635208,0.12153215184030149,1.344089932369218,0.7715102204778164,0.2885141375,0.622455734828275
0.012,1.7964,1.0,1648.361145043003,0.12645966179419693,1.343179204899417,0.7847476272716286,0.28850180000000003,0.6244516368769262
0.0125,1.79609375,1.0,1711.3750545166838,0.13135953191214197,1.3423107598450335,0.7968818799708068,0.2884889375,0.6263499480048337
0.013000000000000001,1.7957750000000001,1.0,1771.6115106928603,0.13623191821607827,1.3414813166455755,0.8080240945423499,0.28847555,0.628158515248738
0.0135,1.79544375,1.0,1829.1181027429025,0.14107697470729602,1.3406880864310937,0.8182732144570206,0.2884616375,0.6298840171043356
0.014,1.7951000000000001,1.0,1883.9414696967833,0.14589485384803705,1.3399285982548717,0.827717252129471,0.2884472,0.6315323599760143
0.0145,1.79474375,1.0,1936.152255784072,0.15068570810054308,1.3392003811701936,0.8364344002347817,0.2884322375,0.6331093795089139
0.015,1.794375,1.0,1985.8281074425008,0.1554496890262137,1.3385011231497015,0.8444942180971474,0.28841675,0.6346205026351742
0.0155,1.79399375,1.0,2033.0666357401124,0.16018694881366227,1.337828504688733,0.8519585867162063,0.2884007375,0.6360711142212203
0.016,1.7936,1.0,2077.939787041536,0.1648976366491263,1.337180656698759,0.8588827556195776,0.2883842,0.6374655763654135
0.0165,1.7931937500000001,1.0,2120.519572900605,0.16958190075178817,1.3365558559023927,0.8653160296310889,0.2883671375,0.6388078949547447
0.017,1.792775,1.0,2160.89045144671,0.17423988934083023,1.3359523790222476,0.8713024292318273,0.28834955,0.640102037720957
0.0175,1.7923437500000001,1.0,2199.140217123241,0.1788717498019235,1.3353685842682395,0.8768813371605438,0.2883314375,0.6413517623913163
0.018000000000000002,1.7919,1.0,2235.363370754762,0.18347763004423176,1.3348028641533016,0.8820880310815256,0.2883128,0.6425607211567151
0.0185,1.79144375,1.0,2269.639830603378,0.1880576757626761,1.3342538475084422,0.8869542123375349,0.2882936375,0.6437320326077904
0.019,1.790975,1.0,2302.0396916851178,0.1926120307067745,1.3337203359378396,0.8915084008861245,0.28827395,0.6448684227727535
0.0195,1.79049375,1.0,2332.6395603174205,0.1971408386260448,1.3332011310456726,0.895776257535404,0.2882537375,0.6459725965238665
0.02,1.79,1.0,2361.522008073236,0.20164424327000496,1.3326950344361201,0.899780908497466,0.288233,0.6470472387166737
0.0205,1.78949375,1.0,2388.759223383028,0.20612238628289936,1.3322010015629773,0.9035432633150385,0.2882117375,0.6480946892874834
0.021,1.788975,1.0,2414.4442537467053,0.21057541249170975,1.331717831024348,0.9070821946941444,0.28818995000000003,0.6491176038919072
0.021500000000000002,1.78844375,1.0,2438.638925437511,0.21500346150790506,1.3312446654619923,0.9104148640459512,0.2881676375,0.6501178941421328
0.022,1.7879,1.0,2461.4035023632287,0.21940667220517313,1.33078069562689,0.9135568454737267,0.2881448,0.6510973577824962
0.0225,1.78734375,1.0,2482.8013356101333,0.2237851834572018,1.330325112270021,0.9165222858451043,0.28812143749999997,0.652057781262111
0.023,1.786775,1.0,2502.898604423523,0.22813913413767892,1.3298771061423653,0.9193240553473133,0.28809755,0.6530009401885799
0.0235,1.78619375,1.0,2521.7578637587994,0.2324686618300115,1.3294359267010496,0.9219738906902701,0.28807313749999996,0.6539284763986629
0.024,1.7856,1.0,2539.443878721953,0.23677390484939073,1.3290008239361821,0.9244825016488264,0.2880482,0.6548420212031674
0.0245,1.78499375,1.0,2556.0203267504357,0.2410550010120743,1.3285710774478954,0.926859679559963,0.2880227375,0.6557431347727333
0.025,1.784375,1.0,2571.533433331272,0.24531208393874337,1.328146147476935,0.9291144131552794,0.28799675,0.6566329907399415
0.025500000000000002,1.78374375,1.0,2586.030874086021,0.24954528725007902,1.3277254942640466,0.9312549384472325,0.2879702375,0.6575127564074821
0.026000000000000002,1.7831000000000001,1.0,2599.5616528024716,0.25375474456676234,1.327308578049976,0.9332888119828645,0.2879432,0.6583835929046644
0.0265,1.78244375,1.0,2612.175985925848,0.2579405895094744,1.326894859075469,0.9352229760751366,0.2879156375,0.6592466553253484
0.027,1.781775,1.0,2623.9206191097346,0.26210295446927806,1.3264838399890964,0.9370638230138667,0.28788755,0.6601030045471115
0.0275,1.7810937500000001,1.0,2634.838516227639,0.2662419713991132,1.3260750673351034,0.9388172468494768,0.2878589375,0.6609536047908412
0.028,1.7804,1.0,2644.985002043345,0.27035777491821505,1.325667981251128,0.9404886682210793,0.2878298,0.6617996364407364
0.0285,1.77969375,1.0,2654.393703317453,0.27445049305227376,1.3252622296335033,0.9420831193630198,0.2878001375,0.6626418430288336
0.029,1.778975,1.0,2663.098853057472,0.27852025382697926,1.3248574603785614,0.9436052516100245,0.28776995,0.6634809644017583
0.029500000000000002,1.7782437500000001,1.0,2671.135237404492,0.2825671852680217,1.3244533213826357,0.9450593691445117,0.2877392375,0.664317736746735
0.03,1.7775,1.0,2678.538145268601,0.28659141540109107,1.3240494605420583,0.9464494593509017,0.287708,0.6651528926096971
0.0305,1.77674375,1.0,2685.3433207131693,0.29059307225187747,1.3236455257531623,0.9477792201549795,0.2876762375,0.665987160905482
0.031,1.775975,1.0,2691.5827480162216,0.29457228236842586,1.3232412030826946,0.9490520890707289,0.28764395,0.6668211882323094
0.0315,1.7751937500000001,1.0,2697.2857977756307,0.29852917238590304,1.322836205700882,0.9502712641187675,0.2876111375,0.6676555621449547
0.032,1.7744,1.0,2702.489017053738,0.3024638702964628,1.3224301839943102,0.9514397130308436,0.2875778,0.6684909963309797
0.0325,1.77359375,1.0,2707.2158209545983,0.3063764985335631,1.3220229109140282,0.9525602123987157,0.2875439375,0.6693279491277291
0.033,1.772775,1.0,2711.489844436569,0.31026717953066163,1.3216141594110855,0.9536353501668651,0.28750955,0.6701668764869289
0.0335,1.7719437500000002,1.0,2715.3349207654865,0.3141360357212163,1.3212037024365317,0.9546675407171166,0.2874746375,0.6710082319549234
0.034,1.7711000000000001,1.0,2718.775061110649,0.3179831895386849,1.320791312941416,0.955659038576001,0.2874392,0.6718524666496255
0.0345,1.7702437500000001,1.0,2721.8344352838976,0.3218087634165252,1.320376763876788,0.9566119508851739,0.2874032375,0.6727000292341736
0.035,1.7693750000000001,1.0,2724.532777411864,0.3256128763570107,1.3199598698275967,0.9575282523866128,0.28736675,0.6735512809308271
0.035500000000000004,1.76849375,1.0,2726.8917203841575,0.3293956506250873,1.3195404291628507,0.958409790982884,0.2873297375,0.674406613936292
0.036000000000000004,1.7676,1.0,2728.9376321279237,0.33315721183269487,1.319118198162728,0.9592582945967257,0.2872922,0.6752665038309116
0.0365,1.76669375,1.0,2730.6853980264,0.3368976762188097,1.3186930383438866,0.9600753921961145,0.2872541375,0.6761312095380805
0.037,1.765775,1.0,2732.1499737610375,0.3406171600224085,1.3182648112229851,0.960862612590506,0.28721555,0.6770009883201455
0.0375,1.76484375,1.0,2733.3463771843103,0.3443157794824676,1.3178333783166818,0.9616213917058692,0.2871764375,0.6778760957519293
0.038,1.7639,1.0,2734.289680616867,0.3479936508379634,1.317398601141635,0.962353079253839,0.28713679999999997,0.6787567856930272
0.0385,1.76294375,1.0,2734.99500357067,0.35165089032787245,1.3169603412145028,0.963058944851541,0.28709663750000003,0.6796433102588839
0.039,1.761975,1.0,2735.4775058965733,0.3552876141911711,1.3165184600519437,0.963740183642826,0.28705595,0.6805359197906444
0.0395,1.7609937500000001,1.0,2735.7523813579533,0.3589039386668359,1.3160728191706161,0.9643979214664833,0.2870147375,0.6814348628237851
0.04,1.76,1.0,2735.831900568134,0.3624999755637543,1.3156233068801375,0.965033221190529,0.286973,0.6823403321238729
0.0405,1.7589937500000001,1.0,2735.7265351277633,0.3660758362470277,1.3151698280285695,0.9656470868190112,0.2869307375,0.6832524856519194
0.041,1.757975,1.0,2735.45634784666,0.36963164817830085,1.3147122005478502,0.966240461371755,0.28688795,0.6841716544206943
0.0415,1.75694375,1.0,2735.02943852374,0.37316752032683803,1.3142503511100108,0.9668142416169249,0.2868446375,0.6850979490664381
0.042,1.7559,1.0,2734.4539183843576,0.37668356166190364,1.3137842063870822,0.9673692751463531,0.28680079999999997,0.6860314790243274
0.0425,1.75484375,1.0,2733.7379078261147,0.3801798811527622,1.3133136930510954,0.9679063635718489,0.2867564375,0.6869723525085587
0.043000000000000003,1.753775,1.0,2732.8895342836176,0.38365658776867795,1.312838737774081,0.9684262654824223,0.28671155,0.687920676492091
0.043500000000000004,1.75269375,1.0,2731.916930212983,0.3871137904789154,1.3123592672280706,0.9689296991825359,0.28666613750000003,0.688876556686042
0.044,1.7516,1.0,2730.8282311949934,0.39055159825273894,1.3118752080850948,0.9694173452296379,0.2866202,0.6898400975187462
0.0445,1.75049375,1.0,2729.6315741580024,0.39397012005941295,1.311386487017185,0.9698898487875353,0.2865737375,0.6908114021144659
0.045,1.7493750000000001,1.0,2728.3350957196562,0.3973694648682018,1.3108930306963718,0.9703478218106621,0.28652675,0.691790572271763
0.0455,1.74824375,1.0,2726.9469306478973,0.40074974164836996,1.3103947657946862,0.970791845072933,0.2864792375,0.6927777084415241
0.046,1.7471,1.0,2725.4752104412855,0.4041110593691818,1.3098916189841594,0.9712224700536344,0.2864312,0.6937729097046448
0.0465,1.7459437500000001,1.0,2723.9227662314916,0.40745350479601516,1.3093835651228487,0.9716402212393496,0.28638263750000004,0.6947761786730742
0.047,1.744775,1.0,2722.3014511900265,0.41077721113081306,1.3088704969585367,0.9720455974494376,0.28633355,0.6957876789176867
0.0475,1.74359375,1.0,2720.6163692165405,0.41408228490720317,1.3083523685866723,0.9724390739140801,0.28628393750000003,0.6968074514891232
0.048,1.7424,1.0,2718.871296777466,0.4173688268621458,1.3078291461571085,0.9728211029418591,0.2862338,0.697835512679163
0.0485,1.74119375,1.0,2717.07000767443,0.42063693773260125,1.3073007958196998,0.9731921151457288,0.2861831375,0.6988718778334795
0.049,1.739975,1.0,2715.216272642992,0.42388671825552965,1.3067672837242998,0.9735525206799609,0.28613195,0.6999165613406089
0.0495,1.73874375,1.0,2713.313858977534,0.42711826916789136,1.306228576020762,0.9739027103956459,0.2860802375,0.7009695766208432
0.05,1.7375,1.0,2711.3665301809024,0.4303316912066466,1.30568463885894,0.9742430569207959,0.286028,0.7020309361150492
0.0505,1.73624375,1.0,2709.3780456396844,0.4335270851087557,1.305135438388688,0.9745739156706098,0.2859752375,0.7031006512734159
0.051000000000000004,1.734975,1.0,2707.3521603251843,0.4367045516111788,1.3045809407598594,0.9748956257929997,0.28592195,0.7041787325441295
0.051500000000000004,1.73369375,1.0,2705.2926245193125,0.43986419145087635,1.304021112122308,0.9752085110540619,0.2858681375,0.705265189361974
0.052000000000000005,1.7324,1.0,2703.203183566108,0.44300610536480844,1.3034559186258876,0.9755128806678062,0.2858138,0.706360030136858
0.0525,1.73109375,1.0,2701.087577648764,0.4461303940899353,1.3028853264204519,0.975809030074108,0.28575893750000003,0.7074632622422715
0.053,1.729775,1.0,2698.9495415919987,0.4492371583632174,1.3023093016558545,0.9760972416685352,0.28570355000000003,0.7085748920036659
0.0535,1.72844375,1.0,2696.792804689622,0.45232649892161486,1.3017278104819492,0.9763777854874133,0.2856476375,0.7096949246867632
0.054,1.7271,1.0,2694.6116003078323,0.45539848051747084,1.3011409058679464,0.9766509215670182,0.2855912,0.7108231977456398
0.0545,1.7257437500000001,1.0,2692.416694543799,0.45845324164485607,1.3005484895637893,0.9769168969429173,0.2855342375,0.7119598387146837
0.055,1.724375,1.0,2690.2117051914033,0.46149088413289246,1.2999505286090791,0.9771759483864472,0.28547675,0.7131048481732589
0.0555,1.72299375,1.0,2687.997856998168,0.46451149959374777,1.2993470119093085,0.977428302981997,0.2854187375,0.7142581838678838
0.056,1.7216,1.0,2685.7763727745905,0.4675151796395896,1.2987379283699705,0.9776741783159767,0.2853602,0.7154198027844973
0.0565,1.72019375,1.0,2683.5484733737103,0.4705020158825856,1.2981232668965579,0.9779137829497113,0.28530113749999997,0.7165896611445272
0.057,1.718775,1.0,2681.31537767324,0.47347209993490347,1.2975030163945636,0.9781473168650562,0.28524155,0.717767714400944
0.0575,1.71734375,1.0,2679.078302559935,0.47642552340871086,1.2968771657694802,0.9783749718845232,0.2851814375,0.7189539172343131
0.058,1.7159,1.0,2676.8384629176744,0.4793623779161754,1.2962457039268012,0.9785969320675599,0.2851208,0.7201482235488331
0.0585,1.71444375,1.0,2674.5970716176153,0.4822827550694648,1.295608619772019,0.9788133740845225,0.2850596375,0.7213505864683736
0.059000000000000004,1.7129750000000001,1.0,2672.355339510947,0.48518674648074667,1.2949659022106264,0.979024467569756,0.28499795,0.7225609583324974
0.059500000000000004,1.71149375,1.0,2670.114475425026,0.48807444376218867,1.2943175401481164,0.9792303754551138,0.2849357375,0.7237792906924805
0.06,1.71,1.0,2667.8756861614916,0.49094593852595847,1.293663522489982,0.9794312542851323,0.284873,0.725005534307321
0.0605,1.7084937500000001,1.0,2665.640176497761,0.49380132238422375,1.293003838141716,0.9796272545150164,0.2848097375,0.7262396391397421
0.061,1.7069750000000001,1.0,2663.409149190827,0.4966406869491522,1.292338476008811,0.979818520792487,0.28474595,0.727481554352187
0.0615,1.7054437500000001,1.0,2661.1838049837306,0.4994641238329114,1.2916674249967601,0.9800051922244897,0.2846816375,0.7287312283028039
0.062,1.7039,1.0,2658.965342615397,0.502271724647669,1.2909906740110564,0.9801874026296791,0.2846168,0.7299886085414258
0.0625,1.70234375,1.0,2656.7549588323036,0.5050635810055928,1.2903082119571923,0.980365280777546,0.2845514375,0.731253641805542
0.063,1.7007750000000001,1.0,2654.54987562317,0.50783975471392,1.2896200643579625,0.9805389502706009,0.28448555,0.7325262063816635
0.0635,1.69919375,1.0,2652.352849859269,0.5106003591088409,1.2889262057422899,0.9807085313638388,0.28441913750000003,0.7338062743474617
0.064,1.6976,1.0,2650.1660870199303,0.5133454948610152,1.2882266156835078,0.9808741391744037,0.2843522,0.7350938074350494
0.0645,1.69599375,1.0,2647.9896683554407,0.5160752445641296,1.2875212933249887,0.9810358842738081,0.2842847375,0.7363887304997635
0.065,1.694375,1.0,2645.823675013545,0.5187896908118708,1.286810237810105,0.9811938732255485,0.28421675,0.7376909677529051
0.0655,1.69274375,1.0,2643.668188041207,0.5214889161979258,1.2860934482822293,0.9813482087577678,0.2841482375,0.7390004427614267
0.066,1.6911,1.0,2641.5232883864164,0.5241730033159813,1.2853709238847342,0.9814989899272722,0.2840792,0.7403170784476187
0.0665,1.6894437500000001,1.0,2639.38905689995,0.5268420347597242,1.2846426637609918,0.9816463122753971,0.2840096375,0.7416407970887977
0.067,1.687775,1.0,2637.265574336664,0.5294960931228413,1.2839086670543751,0.9817902679761759,0.28393955,0.7429715203169898
0.0675,1.68609375,1.0,2635.152921357739,0.5321352609990194,1.2831689329082563,0.9819309459772472,0.2838689375,0.7443091691186208
0.068,1.6844000000000001,1.0,2633.0511785321983,0.5347596209819454,1.282423460466008,0.9820684321339037,0.2837978,0.7456536638342002
0.0685,1.68269375,1.0,2630.9604263384736,0.5373692556653059,1.2816722488710028,0.9822028093366584,0.2837261375,0.7470049241580097
0.069,1.680975,1.0,2628.880745166636,0.539964247642788,1.280915297266613,0.9823341576326903,0.28365395,0.7483628691377886
0.0695,1.67924375,1.0,2626.812215319704,0.5425446795080784,1.280152604796211,0.9824625543414944,0.28358123749999997,0.7497274171744195
0.07,1.6775,1.0,2624.754917015873,0.5451106338548639,1.2793841706031697,0.9825880741650602,0.283508,0.7510984860216168
0.07050000000000001,1.67574375,1.0,2622.708930389986,0.5476621932768313,1.2786099938308613,0.9827107892928623,0.2834342375,0.7524759927856105
0.07100000000000001,1.673975,1.0,2620.674335495601,0.5501994403676674,1.2778300736226584,0.9828307695019479,0.28335995,0.7538598539248348
0.07150000000000001,1.67219375,1.0,2618.651212306723,0.5527224577210592,1.2770444091219335,0.9829480822523792,0.2832851375,0.7552499852496133
0.07200000000000001,1.6704,1.0,2616.639625446683,0.5552313248795608,1.2762529996138496,0.9830627926024432,0.2832098,0.7566463016720357
0.0725,1.66859375,1.0,2614.6403180426546,0.5577260754292542,1.2754558380817291,0.9831749604800447,0.2831339375,0.7580487285289931
0.073,1.6667750000000001,1.0,2612.6542740002656,0.5602068546324892,1.274652915261849,0.9832846503142328,0.28305755,0.7594571943181363
0.0735,1.66494375,1.0,2610.6811847357585,0.5626737362771742,1.2738442338898008,0.983391920806544,0.2829806375,0.7608716057567222
0.074,1.6631,1.0,2608.720742197041,0.5651267941512172,1.2730297967011752,0.9834968287754483,0.2829032,0.7622918689837849
0.0745,1.6612437500000001,1.0,2606.7726388571177,0.5675661020425269,1.2722096064315633,0.9835994292275017,0.2828252375,0.7637178895611396
0.075,1.659375,1.0,2604.8365677072675,0.5699917337390115,1.2713836658165565,0.983699775425359,0.28274675,0.7651495724743864
0.0755,1.65749375,1.0,2602.912222250583,0.5724037630285791,1.2705519775917453,0.9837979189528065,0.2826677375,0.7665868221339149
