Time [s],Phi [rad],STIM [ ],Fsee [N],Gamma [ ],Lcerel [ ],q [ ],Lmtc [m],fisomrel [ ]
0.0,1.8,1.0,17.96754332338558,1.727526056079419e-05,1.3793397030696215,0.005000079195713197,0.288653,0.5411396354434037
0.0005,1.79999375,1.0,18.27929230123635,0.0056263876688078225,1.3793021047489304,0.01296072379294359,0.2886527375,0.5412305909854318
0.001,1.799975,1.0,21.62631423884975,0.011204037391330671,1.3789374919813993,0.03564649675101976,0.28865195,0.5421121721009151
0.0015,1.79994375,1.0,31.088587227851157,0.01675040090978796,1.3780445553278082,0.07065360803037035,0.2886506375,0.5442675835044635
0.002,1.7999,1.0,53.62446278434315,0.022265653714174705,1.37636540261699,0.11477930463385286,0.2886488,0.5483070271458896
0.0025,1.79984375,1.0,97.1899237070475,0.027749970310437598,1.3739317472355512,0.16464154664978117,0.28864643749999996,0.5541296186523208
0.003,1.7997750000000001,1.0,161.05084295237955,0.03320352422812475,1.371210875299662,0.217349218653997,0.28864354999999997,0.5605946621787592
0.0035,1.79969375,1.0,237.7882120883892,0.03862648802002963,1.3685815039912206,0.27068128406773,0.2886401375,0.5667974327664855
0.004,1.7996,1.0,321.5784708549194,0.0440190332729599,1.3661531341595774,0.3229820286169443,0.2886362,0.5724868697229544
0.0045000000000000005,1.7994937500000001,1.0,409.3835173301012,0.04938133061292573,1.363920096876744,0.3730973755869667,0.2886317375,0.5776854690345066
0.005,1.799375,1.0,499.53168754522807,0.054713549696242494,1.3618558311084148,0.4203062797733841,0.28862675,0.5824628746582857
0.0055,1.79924375,1.0,590.9097253094918,0.06001585925672239,1.359936504163325,0.464228156405858,0.2886212375,0.5868804622789694
0.006,1.7991000000000001,1.0,682.637620752213,0.06528842704953777,1.3581442424247308,0.5047300095850141,0.2886152,0.5909843801594888
0.006500000000000001,1.79894375,1.0,774.0024843125625,0.07053141990643529,1.356465184283246,0.5418464956851164,0.2886086375,0.5948104987050749
0.007,1.798775,1.0,864.4072125044797,0.07574500371795695,1.3548884340452108,0.5757184448698845,0.28860155,0.5983871153728894
0.0075,1.79859375,1.0,953.3638099511693,0.08092934345035034,1.3534049243811443,0.6065477988794075,0.2885939375,0.60173775326262
0.008,1.7984,1.0,1040.4707475159448,0.08608460297059342,1.3520069931021361,0.6345665314057076,0.2885858,0.6048822602270176
0.0085,1.79819375,1.0,1125.4301311092586,0.09121094567443669,1.3506876007719704,0.6600157023061339,0.2885771375,0.6078386692117319
0.009000000000000001,1.797975,1.0,1208.0090575458648,0.0963085340687715,1.3494405474098037,0.6831326390013481,0.28856795,0.6106227800571963
0.0095,1.79774375,1.0,1287.997191406871,0.10137752867609356,1.3482607345903457,0.7041433543545482,0.2885582375,0.6132476426740843
0.01,1.7975,1.0,1365.269861554088,0.10641809001889861,1.3471430638883053,0.7232577806708667,0.288548,0.6157260624816326
0.0105,1.79724375,1.0,1439.7632825027647,0.11143037797510685,1.3460826474830818,0.7406681067279388,0.2885372375,0.6180701566042759
0.011,1.796975,1.0,1511.4176546672584,0.1164145510151738,1.345075387814696,0.7565487383329261,0.28852595000000003,0.6202901043512028
0.0115,1.79669375,1.0,1580.208749794384,0.12137076661465504,1.344117434915541,0.7710565674492103,0.2885141375,0.622395379423305
0.012,1.7964,1.0,1646.1505629853739,0.12629918197823897,1.3432050699607996,0.784331994976484,0.28850180000000003,0.624395025360978
0.0125,1.79609375,1.0,1709.2611554093332,0.13119995282160207,1.34233503339007,0.7965003954579839,0.2884889375,0.6262969544445778
0.013000000000000001,1.7957750000000001,1.0,1769.5753595148683,0.13607323405030686,1.3415042960088635,0.8076734136262911,0.28847555,0.6281084687738858
0.0135,1.79544375,1.0,1827.1569967090154,0.14091918010208784,1.3407098677430465,0.8179502881889807,0.2884616375,0.6298366901228183
0.014,1.7951000000000001,1.0,1882.0612144413856,0.14573794428642387,1.3399491751046986,0.8274193354014413,0.2884472,0.6314877498266422
0.0145,1.79474375,1.0,1934.3503685523908,0.1505296784901158,1.3392198323662983,0.836159083130493,0.2884322375,0.6330673001574634
0.015,1.794375,1.0,1984.110133825534,0.15529453492119671,1.3385194347795442,0.84423932685933,0.28841675,0.6345809702695726
0.0155,1.79399375,1.0,2031.432628343027,0.16003266548745645,1.3378457175424638,0.851722204201807,0.2884007375,0.6360340278642147
0.016,1.7936,1.0,2076.3798189099284,0.164744218724401,1.3371969109944966,0.8586632042155552,0.2883842,0.6374306224992652
0.0165,1.7931937500000001,1.0,2119.0275210675372,0.16942934316753644,1.3365712454750804,0.8651117988002767,0.2883671375,0.6387748619877334
0.017,1.792775,1.0,2159.4642349196115,0.17408818735236883,1.3359669513236543,0.871112156056365,0.28834955,0.6400708151093409
0.0175,1.7923437500000001,1.0,2197.7792575794724,0.17872089916982772,1.3353823682071773,0.8767037973960764,0.2883314375,0.6413222802798004
0.018000000000000002,1.7919,1.0,2234.063141007123,0.18332762581984463,1.3348159257592647,0.8819221368018514,0.2883128,0.6425328311797405
0.0185,1.79144375,1.0,2268.392739388321,0.1879085123921047,1.3342662802468415,0.8867989935638452,0.2882936375,0.6437055289857783
0.019,1.790975,1.0,2300.8445690046865,0.1924637034184799,1.333732166349052,0.8913629693678345,0.28827395,0.6448432434437776
0.0195,1.79049375,1.0,2331.498732239722,0.1969933429600959,1.3332123495993713,0.8956398048286982,0.2882537375,0.6459487566150076
0.02,1.79,1.0,2360.4392299336687,0.20149757511287844,1.332705616750247,0.8996527021827538,0.288233,0.6470247850218043
0.0205,1.78949375,1.0,2387.7444578492195,0.20597654309200472,1.3322108623829054,0.9034226291024011,0.2882117375,0.6480737975599691
0.021,1.788975,1.0,2413.478503279125,0.210430387387321,1.331727165440278,0.9069685809957925,0.28818995000000003,0.6490978562147909
0.021500000000000002,1.78844375,1.0,2437.7094166195566,0.21485924848867363,1.3312536048652963,0.9103077580632906,0.2881676375,0.6500990091318436
0.022,1.7879,1.0,2460.5088796880436,0.2192632668859089,1.3307892596008912,0.9134557597113068,0.2881448,0.6510792912394585
0.0225,1.78734375,1.0,2481.9402265461363,0.22364258063756812,1.3303333197950342,0.9164267764134764,0.28812143749999997,0.6520404905395143
0.023,1.786775,1.0,2502.084098932855,0.22799733217825152,1.3298848382003656,0.9192336934777574,0.28809755,0.6529846732318834
0.0235,1.78619375,1.0,2520.9960724108873,0.2323276582906258,1.3294431312123094,0.9218882975071347,0.28807313749999996,0.6539133395951183
0.024,1.7856,1.0,2538.728005148949,0.23663369446807275,1.329007570536914,0.9244013518423626,0.2880482,0.6548278652085382
0.0245,1.78499375,1.0,2555.3336467072404,0.24091557620397439,1.3285775278802279,0.9267826908297678,0.2880227375,0.6557296178957848
0.025,1.784375,1.0,2570.8684781556412,0.2451734389917125,1.3281523749482993,0.929041312750721,0.28799675,0.6566199579585166
0.025500000000000002,1.78374375,1.0,2585.389560944299,0.24940741832466912,1.327731483447177,0.9311854623247052,0.2879702375,0.657500238384926
0.026000000000000002,1.7831000000000001,1.0,2598.943733055456,0.2536176463801615,1.3273143337109115,0.9332227202657927,0.2879432,0.6583715782760908
0.0265,1.78244375,1.0,2611.5921932542365,0.2578042609377879,1.3269002836923078,0.9351600338501431,0.2879156375,0.6592353460519409
0.027,1.781775,1.0,2623.378729513123,0.26196739407381814,1.3264888639386454,0.9370038181420027,0.28788755,0.6600925437629231
0.0275,1.7810937500000001,1.0,2634.340862125356,0.2661071756057428,1.3260796715806114,0.9387599904919391,0.2878589375,0.6609440299167113
0.028,1.7804,1.0,2644.516900805223,0.2702237353510529,1.325672303748892,0.9404340073046885,0.2878298,0.6617906587081934
0.0285,1.77969375,1.0,2653.945876167903,0.2743172031272389,1.3252663575741745,0.9420309059944049,0.2878001375,0.6626332800715218
0.029,1.778975,1.0,2662.667474807797,0.2783877087517918,1.3248614301871453,0.9435553426151548,0.28776995,0.6634727397218193
0.029500000000000002,1.7782437500000001,1.0,2670.7219779752777,0.28243538204220225,1.3244571187184915,0.9450116256595315,0.2877392375,0.6643098791865266
0.03,1.7775,1.0,2678.141963527011,0.28646034825616223,1.3240530959150556,0.946403754971186,0.287708,0.6651453795531499
0.0305,1.77674375,1.0,2684.9695247069253,0.2904627407550399,1.3236489513578167,0.9477354317849542,0.2876762375,0.6659800901944695
0.031,1.775975,1.0,2691.234741726355,0.2944426859112476,1.3232443886342795,0.9490101044724387,0.28764395,0.6668146212259276
0.0315,1.7751937500000001,1.0,2696.963781346621,0.2984003074886545,1.3228391502234518,0.9502309816243433,0.2876111375,0.6676494996269118
0.032,1.7744,1.0,2702.183100122953,0.30233572925112967,1.3224329786043407,0.9514010479566885,0.2875778,0.6684852497076939
0.0325,1.77359375,1.0,2706.919416765807,0.3062490749625423,1.3220256162559543,0.9525230826732822,0.2875439375,0.6693223930962146
0.033,1.772775,1.0,2711.199685972507,0.3101404683867614,1.3216168056572992,0.9535996761107486,0.28750955,0.6701614487206474
0.0335,1.7719437500000002,1.0,2715.051073729264,0.31401003328765614,1.321206289287384,0.954633244845083,0.2874746375,0.6710029327877214
0.034,1.7711000000000001,1.0,2718.500934083514,0.3178578934290957,1.3207938096252152,0.9556260454183148,0.2874392,0.6718473587568279
0.0345,1.7702437500000001,1.0,2721.55945412068,0.3216841615168973,1.3203792669320622,0.9565802013196176,0.2874032375,0.6726949149237067
0.035,1.7693750000000001,1.0,2724.2686397191605,0.3254889742651414,1.3199622729852676,0.9574976737542686,0.28736675,0.6735463771240469
0.035500000000000004,1.76849375,1.0,2726.6467394772567,0.3292724506267822,1.3195426570614677,0.9583803175536628,0.2873297375,0.6744020737184224
0.036000000000000004,1.7676,1.0,2728.7089806478884,0.33303470735077123,1.3191202767759578,0.959229873081327,0.2872922,0.6752622734388907
0.0365,1.76669375,1.0,2730.47067122678,0.33677586118606,1.3186949897440328,0.9600479723479317,0.2872541375,0.6761272433419989
0.037,1.765775,1.0,2731.947191082133,0.3404960288816002,1.3182666535809884,0.9608361469770615,0.28721555,0.6769972487830329
0.0375,1.76484375,1.0,2733.1539835352755,0.3441953271863433,1.3178351259021195,0.9615958354998636,0.2871764375,0.6778725533889791
0.038,1.7639,1.0,2734.106547389444,0.3478738728492409,1.3174002643227214,0.9623283900419173,0.28713679999999997,0.6787534190301869
0.0385,1.76294375,1.0,2734.82042940909,0.35153178261924445,1.3169619264580892,0.9630350824590811,0.28709663750000003,0.6796401057907426
0.039,1.761975,1.0,2735.311217247713,0.3551691732453055,1.3165199699235184,0.963717109973229,0.28705595,0.6805328719375479
0.0395,1.7609937500000001,1.0,2735.5945328263797,0.3587861614763757,1.316074252334304,0.9643756003536098,0.2870147375,0.6814319738881081
0.04,1.76,1.0,2735.6812746755804,0.36238285777004964,1.3156246744461053,0.9650116193832142,0.286973,0.682337579339254
0.0405,1.7589937500000001,1.0,2735.5855009934476,0.36595938008430584,1.3151711085323678,0.9656261712641194,0.2869307375,0.6832499118191275
0.041,1.757975,1.0,2735.3223528579165,0.3695158475001727,1.3147134171998067,0.9662202032116787,0.28688795,0.6841692124822079
0.0415,1.75694375,1.0,2734.9003777033663,0.3730523695083118,1.3142515230514753,0.966794613346139,0.2868446375,0.6850956003183294
0.042,1.7559,1.0,2734.328134680189,0.3765690555993845,1.3137853486904258,0.9673502505184797,0.28680079999999997,0.6860291930715174
0.0425,1.75484375,1.0,2733.614192245636,0.38006601526405237,1.3133148167197117,0.9678879175139375,0.2867564375,0.6869701072190479
0.043000000000000003,1.753775,1.0,2732.7671258879896,0.3835433579929768,1.3128398497423854,0.9684083740158013,0.28671155,0.687918457950133
0.043500000000000004,1.75269375,1.0,2731.7955159838557,0.38700119327681937,1.3123603703614997,0.9689123393496635,0.28666613750000003,0.688874359144218
0.044,1.7516,1.0,2730.7079457873756,0.3904396306062414,1.3118763011801076,0.9694004950264279,0.2866202,0.6898379233488994
0.0445,1.75049375,1.0,2729.51299955347,0.3938587794719045,1.3113875648012616,0.9698734871006925,0.2865737375,0.6908092617574622
0.045,1.7493750000000001,1.0,2728.219260792747,0.3972587493644701,1.3108940838280148,0.9703319283595983,0.28652675,0.6917884841860311
0.0455,1.74824375,1.0,2726.8348729018835,0.40063964835991117,1.310395784844418,0.9707764004571282,0.2864792375,0.6927756911696994
0.046,1.7471,1.0,2725.36196853102,0.40400156539823545,1.3098926490807694,0.9712074571365755,0.2864312,0.6937708738702267
0.0465,1.7459437500000001,1.0,2723.8162926529117,0.4073446381458453,1.3093845339271948,0.9716256220348969,0.28638263750000004,0.6947742671130499
0.047,1.744775,1.0,2722.2018174285636,0.4106689681856637,1.3088714037966631,0.9720313957612934,0.28633355,0.69578589259145
0.0475,1.74359375,1.0,2720.522513126124,0.4139746571006135,1.3083532231021433,0.9724252544304562,0.28628393750000003,0.6968057710539536
0.048,1.7424,1.0,2718.7823476368094,0.41726180647361755,1.3078299562566045,0.9728076510866742,0.2862338,0.6978339222929113
0.0485,1.74119375,1.0,2716.985286020617,0.42053051788759893,1.3073015676730155,0.9731790170323743,0.2861831375,0.6988703651329944
0.049,1.739975,1.0,2715.135290078639,0.42378089292548043,1.3067680217643458,0.973539763068319,0.28613195,0.6999151174196105
0.0495,1.73874375,1.0,2713.236317954635,0.4270130331701851,1.306229282943564,0.9738902806521035,0.2860802375,0.7009681960072405
0.05,1.7375,1.0,2711.2923237638015,0.43022704020463565,1.3056853156236392,0.9742309429810194,0.286028,0.7020296167476916
0.0505,1.73624375,1.0,2709.3072572500737,0.43342301561175517,1.3051360842175408,0.9745621060048638,0.2859752375,0.7030993944782713
0.051000000000000004,1.734975,1.0,2707.285063471677,0.4366010609744665,1.3045815531382374,0.9748841093738132,0.28592195,0.7041775430098822
0.051500000000000004,1.73369375,1.0,2705.2296825139947,0.4397612778756926,1.3040216867986985,0.9751972773260654,0.2858681375,0.7052640751150323
0.052000000000000005,1.7324,1.0,2703.145049231377,0.44290376789835634,1.3034564496118926,0.975501919519571,0.2858138,0.7063590025157682
0.0525,1.73109375,1.0,2701.0350930166255,0.44602863262538056,1.3028858059907888,0.9757983318118388,0.28575893750000003,0.707462335871525
0.053,1.729775,1.0,2698.901857634799,0.4491359725133525,1.3023097375331054,0.9760867979488538,0.28570355000000003,0.7085740516347734
0.0535,1.7284470983733942,1.0,2696.90723127905,0.4522258840973308,1.301728276279001,0.9763675919741978,0.2856477781316826,0.7096940283600218
0.054,1.727118747653959,1.0,2695.4495524107124,0.45529846440422966,1.3011417073285783,0.9766409915683458,0.2855919874014663,0.7108216585051943
0.0545,1.7257903969345236,1.0,2694.511159572855,0.45835380978065005,1.3005503910936682,0.9769072669644704,0.28553619667124996,0.711956193920418
0.055,1.7244620462150884,1.0,2694.0523889644965,0.461392016573193,1.299954687986102,0.9771666768940099,0.2854804059410337,0.7130968914386488
0.0555,1.723133695495653,1.0,2694.033725504048,0.4644131811284596,1.2993549584177109,0.9774194691826151,0.2854246152108174,0.7142430129806461
0.056,1.7218053447762178,1.0,2694.418938148401,0.46741739901122953,1.2987515338089988,0.9776658795389388,0.28536882448060114,0.7153938808889371
0.0565,1.7204769940567823,1.0,2695.171570441248,0.4704047663918113,1.298144748430254,0.977906134147914,0.28531303375038486,0.7165488169115453
0.057,1.719148643337347,1.0,2696.262861165657,0.47337537753492753,1.297534866723321,0.9781404457499632,0.2852572430201686,0.7177072802421415
0.0575,1.7178202926179118,1.0,2697.6679770714236,0.4763293256534721,1.2969221176199035,0.9783690163429477,0.2852014522899523,0.7188688012376027
0.058,1.7164919418984765,1.0,2699.362116536256,0.4792667039603387,1.2963067300517046,0.9785920398055018,0.28514566155973603,0.7200329136673032
0.0585,1.7151635911790413,1.0,2701.3204955929446,0.48218760566842117,1.2956889329504278,0.978809702294369,0.28508987082951975,0.7211991547533082
0.059000000000000004,1.713835240459606,1.0,2703.5208719047973,0.485092123085233,1.2950689320788111,0.9790221812628772,0.2850340800993034,0.7223671088069832
0.059500000000000004,1.7125068897401707,1.0,2705.940402989675,0.48798034935538237,1.2944469386576467,0.9792296475918246,0.2849782893690872,0.7235363530457273
0.06,1.7111785390207355,1.0,2708.5620032962365,0.4908523753556809,1.293823111258767,0.9794322624962885,0.28492249863887087,0.7247065666142163
0.0605,1.7098501883013002,1.0,2711.370277004115,0.4937082912672401,1.2931975929531512,0.9796301801055018,0.2848667079086546,0.7258774600971885
0.061,1.708521837581865,1.0,2714.349815923105,0.49654818727117145,1.2925705268117786,0.9798235486750427,0.2848109171784383,0.7270487463044589
0.0615,1.7071934868624297,1.0,2717.485194357174,0.4993721535485864,1.291942055905628,0.9800125108593073,0.28475512644822204,0.7282201402856988
0.062,1.7058651361429944,1.0,2720.7694883109766,0.5021802739598283,1.2913122457024686,0.9801971994204997,0.28469933571800576,0.7293915035197212
0.0625,1.7045367854235591,1.0,2724.177813498281,0.5049726469871859,1.2906813250356262,0.9803777517765018,0.2846435449877895,0.7305623956490199
0.063,1.7032084347041239,1.0,2727.6993921567077,0.5077493608852917,1.2900493939864386,0.9805542928949373,0.2845877542575732,0.7317326181380731
0.0635,1.7018800839846886,1.0,2731.3267320740624,0.5105105014123078,1.2894165225894603,0.9807269414595752,0.28453196352735693,0.7329020295032667
0.064,1.7005517332652533,1.0,2735.0523267438743,0.5132561543263966,1.2887827808792467,0.9808958118515322,0.28447617279714066,0.7340704893738808
0.0645,1.699223382545818,1.0,2738.868653959858,0.5159864053857204,1.2881482388903525,0.9810610143386262,0.2844203820669243,0.7352378584961364
0.065,1.6978950318263828,1.0,2742.768174518856,0.5187013403484413,1.2875129666573324,0.9812226552550889,0.2843645913367081,0.736403998736925
0.0655,1.6965666811069475,1.0,2746.743331032167,0.5214010449727217,1.2868770342147418,0.9813808371721875,0.2843088006064918,0.7375687730872255
0.066,1.695238330387512,1.0,2750.7865468468085,0.5240856050167237,1.2862405115971351,0.9815356590602841,0.2842530098762755,0.7387320456652116
0.0665,1.6939099796680768,1.0,2754.8902250739106,0.5267551062386097,1.2856034688390678,0.9816872164428171,0.2841972191460592,0.7398936817190421
0.067,1.6925816289486415,1.0,2759.046747727244,0.5294096343965419,1.2849659759750942,0.9818356015426601,0.28414142841584294,0.7410535476293432
0.0675,1.6912532782292062,1.0,2763.2552641971815,0.532049263642576,1.2843280417063039,0.9819808997124329,0.28408563768562667,0.7422116221283748
0.068,1.689924927509771,1.0,2767.5041342139343,0.534674091879749,1.283689772117268,0.9821231995882215,0.2840298469554104,0.7433677078955758
0.0685,1.6885965767903357,1.0,2771.7884832551063,0.5372842032753803,1.2830512119481499,0.9822625830246048,0.2839740562251941,0.7445217200723327
0.069,1.6872682260709004,1.0,2776.1056110743,0.5398796778038429,1.2824123862097248,0.9823991279385027,0.2839182654949778,0.7456736100616367
0.0695,1.6859398753514652,1.0,2780.452809291227,0.5424605954395105,1.2817733199127672,0.9825329096533159,0.28386247476476156,0.7468233296726319
0.07,1.68461152463203,1.0,2784.8273612506787,0.545027036156756,1.2811340380680525,0.9826640010037021,0.28380668403454523,0.7479708311210167
0.07050000000000001,1.6832831739125946,1.0,2789.2265418970624,0.5475790799299528,1.2804945656863556,0.9827924724354457,0.28375089330432895,0.7491160670294094
0.07100000000000001,1.6819548231931594,1.0,2793.6476176608776,0.5501168067334741,1.2798549277784514,0.9829183921006744,0.2836951025741127,0.7502589904276713
0.07150000000000001,1.680626472473724,1.0,2798.0878463606264,0.5526402965416933,1.279215149355115,0.9830418259486785,0.2836393118438964,0.7513995547531915
0.07200000000000001,1.6792981217542888,1.0,2802.5444771175903,0.5551496293289835,1.2785752554271215,0.9831628378125531,0.2835835211136801,0.752537713851129
0.0725,1.6779697710348536,1.0,2807.014750284981,0.557644885069718,1.2779352710052456,0.9832814894918925,0.28352773038346385,0.7536734219746195
0.073,1.6766414203154183,1.0,2811.4958973909897,0.5601261437382702,1.2772952211002624,0.983397840831733,0.2834719396532476,0.7548066337849382
