Time [s],Phi [rad],STIM [ ],Fsee [N],Gamma [ ],Lcerel [ ],q [ ],Lmtc [m],fisomrel [ ]
0.0,1.8,1.0,17.966803943272627,1.0014298725544973e-05,1.3793397859048855,0.005000026727745723,0.288653,0.541139435043481
0.0005,1.79999375,1.0,18.276173433502628,0.0056191674352239155,1.379302451185056,0.012940554927009032,0.2886527375,0.5412297529496435
0.001,1.799975,1.0,21.617822569175623,0.011196857657548518,1.3789383592065279,0.03560865515391672,0.28865195,0.5421100762814556
0.0015,1.79994375,1.0,31.06861029134087,0.016743261448632467,1.3780462570378367,0.07060181405561375,0.2886506375,0.5442634806750062
0.002,1.7999,1.0,53.58153301668901,0.022258554299757295,1.37636818714368,0.11471796597389457,0.2886488,0.5483003434508289
0.0025,1.79984375,1.0,97.1177737655668,0.02774291071811731,1.373935223344373,0.16457481401680624,0.28864643749999996,0.55412132889794
0.003,1.7997750000000001,1.0,160.9569401177974,0.033196504234536316,1.3712143896730227,0.21728037086966578,0.28864354999999997,0.5605863421546087
0.0035,1.79969375,1.0,237.68210549586394,0.03861950740305908,1.3685847719986972,0.27061280415437455,0.2886401375,0.5667897507993253
0.004,1.7996,1.0,321.4655908952131,0.04401209181173362,1.3661561236616389,0.3229157188422929,0.2886362,0.5724798887279421
0.0045000000000000005,1.7994937500000001,1.0,409.26663944559107,0.049374428087795574,1.3639228402540684,0.3730344283854651,0.2886317375,0.5776791018539917
0.005,1.799375,1.0,499.41245033440083,0.054706685888760466,1.3618583647406965,0.42024738658974764,0.28862675,0.5824570276377201
0.0055,1.79924375,1.0,590.7894202601119,0.06000903394987664,1.3599388545145794,0.4641736298589491,0.2886212375,0.586875066998509
0.006,1.7991000000000001,1.0,682.5171669373093,0.06528164002730814,1.3581464318593819,0.5046798997381798,0.2886152,0.5909793792933455
0.006500000000000001,1.79894375,1.0,773.8805908261477,0.07052467095351267,1.356467265004002,0.5418007016558545,0.2886086375,0.5948057684329294
0.007,1.798775,1.0,864.2846755239503,0.07573829262173684,1.3548904133412414,0.5756767337515675,0.28860155,0.5983826355818969
0.0075,1.79859375,1.0,953.2417451164748,0.08092266999455291,1.3534068018057972,0.6065098777185202,0.2885939375,0.6017335218029272
0.008,1.7984,1.0,1040.3527965966555,0.0860779670443156,1.3520087296472867,0.6345320624434531,0.2885858,0.604878361773289
0.0085,1.79819375,1.0,1125.3184019356252,0.0912043471232978,1.3506891824040856,0.659984362987085,0.2885771375,0.6078351318391388
0.009000000000000001,1.797975,1.0,1207.8840493742014,0.09630197213160266,1.3494422554650831,0.683104282362892,0.28856795,0.610618973518736
0.0095,1.79774375,1.0,1287.8700637416243,0.10137100339603206,1.348262416802273,0.7041176051504743,0.2885582375,0.6132439063872446
0.01,1.7975,1.0,1365.162263971078,0.10641160170466439,1.3471444467832823,0.7232342334107424,0.288548,0.6157230008530896
0.0105,1.79724375,1.0,1439.6598515173926,0.11142392605963691,1.3460839419778314,0.740646634810569,0.2885372375,0.6180672994422354
0.011,1.796975,1.0,1511.3106728829794,0.11640813494185039,1.3450766946253152,0.7565291734302428,0.28852595000000003,0.6202872284007237
0.0115,1.79669375,1.0,1580.1130639244886,0.12136438679135432,1.3441185780163472,0.7710386337341087,0.2885141375,0.6223928707398189
0.012,1.7964,1.0,1646.0648039250223,0.1262928381600112,1.3432060737401819,0.784315533599012,0.28850180000000003,0.6243928282775792
0.0125,1.79609375,1.0,1709.1766240769514,0.1311936444410678,1.342336004361051,0.7964852989360319,0.2884889375,0.6262948345603012
0.013000000000000001,1.7957750000000001,1.0,1769.4920235022846,0.13606696075203548,1.341505236794497,0.8076595445290239,0.28847555,0.6281064197765769
0.0135,1.79544375,1.0,1827.0761139050676,0.1409129418941896,1.340710766330706,0.8179375194925955,0.2884616375,0.629834737584002
0.014,1.7951000000000001,1.0,1881.991622263278,0.14573174153689633,1.3399499368941417,0.8274075241735663,0.2884472,0.6314860982323632
0.0145,1.79474375,1.0,1934.292406322565,0.15052351119080273,1.3392204582132563,0.8361481360196501,0.2884322375,0.6330659462040448
0.015,1.794375,1.0,1984.053363962871,0.15528840236655575,1.3385200400165036,0.8442291990681309,0.28841675,0.634579663607222
0.0155,1.79399375,1.0,2031.3570318232803,0.1600265656870222,1.3378465140538878,0.8517128855826716,0.2884007375,0.6360323116761359
0.016,1.7936,1.0,2076.3004563420245,0.16473815261383032,1.3371977380865345,0.8586545715563286,0.2883842,0.6374288438435105
0.0165,1.7931937500000001,1.0,2118.9613047038456,0.16942331197860014,1.3365719285806084,0.8651037383383989,0.2883671375,0.6387733957000314
0.017,1.792775,1.0,2159.409956143253,0.17408219090598764,1.3359675060095817,0.8711046203066152,0.28834955,0.6400696266125692
0.0175,1.7923437500000001,1.0,2197.7276629443145,0.1787149365206489,1.3353828908469272,0.8766967658656736,0.2883314375,0.6413211623952746
0.018000000000000002,1.7919,1.0,2234.005631421683,0.18332169594723982,1.3348165035661173,0.8819155885387969,0.2883128,0.6425315973844394
0.0185,1.79144375,1.0,2268.32219480726,0.18790261433894764,1.3342669836353829,0.8867929053791114,0.2882936375,0.6437040295003275
0.019,1.790975,1.0,2300.780878087031,0.19245783922057993,1.3337327969059036,0.8913572551223844,0.28827395,0.6448419013691419
0.0195,1.79049375,1.0,2331.4473398136106,0.19698751319918412,1.3332128550413394,0.8956344213622841,0.2882537375,0.6459476825102021
0.02,1.79,1.0,2360.39086897361,0.20149177867117246,1.3327060894529703,0.8996476433241458,0.288233,0.6470237820182148
0.0205,1.78949375,1.0,2387.6858918913404,0.20597077803295716,1.3322114315520772,0.90341789704856,0.2882117375,0.6480725916649219
0.021,1.788975,1.0,2413.411538966263,0.21042465368095042,1.3317278127499406,0.9069641466038685,0.28818995000000003,0.6490964867606517
0.021500000000000002,1.78844375,1.0,2437.6344880922916,0.21485354556414737,1.3312543255527216,0.9103035973889004,0.2881676375,0.6500974866154705
0.022,1.7879,1.0,2460.4422704756767,0.21925759707385414,1.3307898972946217,0.9134518216164359,0.2881448,0.6510779459432832
0.0225,1.78734375,1.0,2481.8907997844217,0.22363694585238317,1.33033379094161,0.9164230287081332,0.28812143749999997,0.6520394979660227
0.023,1.786775,1.0,2502.037628090962,0.22799172937256731,1.3298852793835831,0.9192301465547233,0.28809755,0.6529837450446916
0.0235,1.78619375,1.0,2520.9427531934166,0.2323220851072394,1.3294436355104384,0.9218849531425488,0.28807313749999996,0.6539122800435759
0.024,1.7856,1.0,2538.668411033599,0.23662815052923236,1.3290081322120733,0.9243981947234785,0.2880482,0.6548266866655705
0.0245,1.78499375,1.0,2555.270497845488,0.24091006108775243,1.3285781211220793,0.9267797033394307,0.2880227375,0.6557283747445286
0.025,1.784375,1.0,2570.8124510811,0.2451679549679038,1.3281528996926368,0.9290384673134724,0.28799675,0.6566188597682214
0.025500000000000002,1.78374375,1.0,2585.3475382377214,0.24940196738571183,1.3277318759205232,0.9311827395631203,0.2879702375,0.6574994180663736
0.026000000000000002,1.7831000000000001,1.0,2598.9189501372653,0.25361223052832127,1.3273145645675768,0.933220107995408,0.2879432,0.6583710963709746
0.0265,1.78244375,1.0,2611.5710254343917,0.2577988765828769,1.326900480395636,0.9351575432576616,0.2879156375,0.6592349359601481
0.027,1.781775,1.0,2623.3491525539903,0.26196203773652377,1.3264891381665385,0.9370014572304256,0.28788755,0.6600919727655324
0.0275,1.7810937500000001,1.0,2634.2996768480525,0.26610184617640653,1.3260800526421228,0.9387577552652756,0.2878589375,0.6609432374646378
0.028,1.7804,1.0,2644.466347283262,0.27021843290035336,1.3256727705885023,0.9404318871389853,0.2878298,0.6617896890854871
0.0285,1.77969375,1.0,2653.8878914716342,0.27431192770617707,1.3252668920857393,0.9420288914705158,0.2878001375,0.6626321712783292
0.029,1.778975,1.0,2662.6163037916363,0.2783824650321105,1.324861901115716,0.9435534108700526,0.28776995,0.6634717640417183
0.029500000000000002,1.7782437500000001,1.0,2670.681682310074,0.28243017128523135,1.3244574890008365,0.9450097670689999,0.2877392375,0.6643091129823727
0.03,1.7775,1.0,2678.1145945344656,0.28645517287261746,1.3240533470635054,0.9464019634798435,0.287708,0.6651448605131993
0.0305,1.77674375,1.0,2684.9460358731203,0.29045759620134665,1.3236491666261274,0.9477337126821226,0.2876762375,0.6659796458616494
0.031,1.775975,1.0,2691.20739020796,0.29443756767849666,1.3232446390111068,0.9490084612104817,0.28764395,0.6668141050720002
0.0315,1.7751937500000001,1.0,2696.9303925793597,0.2983952137111453,1.3228394555408478,0.9502294119388593,0.2876111375,0.6676488710015592
0.032,1.7744,1.0,2702.1470939838555,0.3023306607063704,1.322433307537755,0.9513995443199381,0.2875778,0.6684845733107893
0.0325,1.77359375,1.0,2706.8837763550628,0.3062440306993979,1.3220259415632807,0.9525216380242555,0.2875439375,0.6693217250009009
0.033,1.772775,1.0,2711.1735615771117,0.3101354530929637,1.3216170439188255,0.9535982788904848,0.28750955,0.6701609600156769
0.0335,1.7719437500000002,1.0,2715.0386286543844,0.3140050497957867,1.3212064027091455,0.954631888896308,0.2874746375,0.6710027004421246
0.034,1.7711000000000001,1.0,2718.4996078727363,0.3178529414021074,1.3207938217043333,0.955624730980766,0.2874392,0.6718473340444145
0.0345,1.7702437500000001,1.0,2721.5772790263763,0.3216792485061663,1.320379104674482,0.9565789200618803,0.2874032375,0.6726952464540095
0.035,1.7693750000000001,1.0,2724.2925557231606,0.3254840917022038,1.319962055389684,0.9574964344495295,0.28736675,0.6735468211441606
0.035500000000000004,1.76849375,1.0,2726.666470544578,0.32926759158446056,1.3195424776200328,0.958379126251791,0.2873297375,0.6744024394019478
0.036000000000000004,1.7676,1.0,2728.720161058983,0.333029868747177,1.3191201751356212,0.9592287308739776,0.2872922,0.6752624802978651
0.0365,1.76669375,1.0,2730.467165232229,0.33677103632040517,1.3186950216065436,0.960046881106766,0.2872541375,0.6761271785816476
0.037,1.765775,1.0,2731.9308825685443,0.34049121850018366,1.3182668017530268,0.9608351028978629,0.28721555,0.6769969480290164
0.0375,1.76484375,1.0,2733.136057142118,0.34419054153781925,1.317835288737569,0.9615948287528507,0.2871764375,0.6778722233198538
0.038,1.7639,1.0,2734.094643455403,0.34786911902581086,1.3174003724339107,0.9623274137097334,0.28713679999999997,0.6787532001875471
0.0385,1.76294375,1.0,2734.8186390664555,0.3515270645566575,1.3169619427157926,0.9630341323628872,0.28709663750000003,0.6796400729267558
0.039,1.761975,1.0,2735.320079248782,0.3551644917228582,1.3165198894569552,0.9637161845109435,0.28705595,0.6805330343691227
0.0395,1.7609937500000001,1.0,2735.6110319215954,0.35878151411691184,1.3160741025311393,0.9643747003494769,0.2870147375,0.6814322758582105
0.04,1.76,1.0,2735.7035928473856,0.3623782453313175,1.3156244718120855,0.9650107452496567,0.286973,0.6823379872236672
0.0405,1.7589937500000001,1.0,2735.609881099693,0.3659547989585742,1.3151708871735344,0.9656253241599405,0.2869307375,0.6832503567546151
0.041,1.757975,1.0,2735.34203479892,0.3695112885911808,1.3147132384892264,0.9662193856641952,0.28688795,0.6841695711722682
0.0415,1.75694375,1.0,2734.912207117201,0.3730478278216365,1.3142514156329026,0.9667938257263824,0.2868446375,0.6850958156017752
0.042,1.7559,1.0,2734.332562552751,0.37656453024244,1.313785308478303,0.9673494911490231,0.28680079999999997,0.6860292735432914
0.0425,1.75484375,1.0,2733.6125505445107,0.380061504738087,1.3133148316309236,0.9678871840464212,0.2867564375,0.6869700774237437
0.043000000000000003,1.753775,1.0,2732.7606351282748,0.38353886053714653,1.3128399087056957,0.9684076642631726,0.28671155,0.6879183403093495
0.043500000000000004,1.75269375,1.0,2731.7916499526755,0.38699671930366486,1.312360405487507,0.9689116485722561,0.28666613750000003,0.6888742891698985
0.044,1.7516,1.0,2730.7116618847967,0.3904351871170088,1.3118762674096696,0.9693998199434475,0.2866202,0.6898379905185341
0.0445,1.75049375,1.0,2729.5267400830144,0.3938543700565454,1.3113874399054948,0.9698728258245298,0.2865737375,0.6908095097866769
0.045,1.7493750000000001,1.0,2728.2429548076807,0.3972543742016415,1.3108938684082945,0.9703312803338972,0.28652675,0.6917889113078001
0.0455,1.74824375,1.0,2726.866376297665,0.40063530563166405,1.3103954983513801,0.9707757662971714,0.2864792375,0.6927762583010153
0.046,1.7471,1.0,2725.403073713298,0.4039972704259798,1.3098922751680635,0.9712068371403367,0.2864312,0.6937716128544682
0.0465,1.7459437500000001,1.0,2723.8591141451448,0.40734037466395584,1.309384144291656,0.9716250186507815,0.28638263750000004,0.6947750359085452
0.047,1.744775,1.0,2722.2405616884566,0.410664724424959,1.3088710511554698,0.9720308106166402,0.28633355,0.6957865872388878
0.0475,1.74359375,1.0,2720.553476584726,0.4139704257883562,1.3083529411928159,0.9724246883539197,0.28628393750000003,0.6968063254392214
0.048,1.7424,1.0,2718.803914427422,0.4172575848335143,1.3078297598370063,0.9728071041300729,0.2862338,0.6978343079039893
0.0485,1.74119375,1.0,2716.997489650019,0.4205263037203653,1.3073014564915848,0.9731784882839273,0.2861831375,0.698870583029817
0.049,1.739975,1.0,2715.1383854467563,0.42377666930582375,1.306767993554298,0.9735392497399369,0.28613195,0.6999151726105556
0.0495,1.73874375,1.0,2713.2346324324676,0.4270088176560391,1.306229298310175,0.9738897816813729,0.2860802375,0.7009681659963578
0.05,1.7375,1.0,2711.2891444069737,0.43022284669509164,1.3056853446196734,0.9742304575074965,0.286028,0.702029560219233
0.0505,1.73624375,1.0,2709.3048320986413,0.4334188543470618,1.3051361063432505,0.9745616333749373,0.2859752375,0.7030993514211752
0.051000000000000004,1.734975,1.0,2707.2846029479324,0.43659693853602966,1.3045815573413635,0.9748836491446246,0.28592195,0.7041775348453754
0.051500000000000004,1.73369375,1.0,2705.231360905943,0.43975719718607564,1.3040216714744697,0.9751968292686009,0.2858681375,0.7052641048273904
0.052000000000000005,1.7324,1.0,2703.1480062480196,0.44289972822128004,1.3034564226030265,0.9755014836210385,0.2858138,0.7063590547862671
0.0525,1.73109375,1.0,2701.0374354029263,0.44602462956572303,1.3028857845874913,0.9757979082774209,0.28575893750000003,0.7074623772156245
0.053,1.729775,1.0,2698.902540796662,0.44913199914348495,1.3023097312883214,0.9760863862455424,0.28570355000000003,0.7085740636746904
0.0535,1.72844375,1.0,2696.7462107118895,0.45222193487864615,1.301728236565974,0.976367188151701,0.2856476375,0.7096941047792975
0.054,1.7271,1.0,2694.571329162024,0.4552945346952868,1.3011412742809063,0.9766405728851817,0.2855912,0.7108224901928315
0.0545,1.7257437500000001,1.0,2692.3807757810873,0.45834989651748725,1.3005488182935758,0.9769067882039039,0.2855342375,0.7119592086171402
0.055,1.724375,1.0,2690.1774257277025,0.4613881182693278,1.29995084246444,0.977166071303876,0.28547675,0.7131042477833953
0.0555,1.72299375,1.0,2687.964149605772,0.4644092978748887,1.2993473206539559,0.977418649354907,0.2854187375,0.7142575944429137
0.056,1.7216,1.0,2685.74381339864,0.4674135332582502,1.298738226722581,0.9776647400048334,0.2853602,0.7154192343579329
0.0565,1.72019375,1.0,2683.5148711752868,0.47040089133522056,1.2981235749327225,0.9779045513610537,0.28530113749999997,0.7165890754761908
0.057,1.718775,1.0,2681.279372059828,0.47337148271765245,1.2975033466006702,0.9781382850653858,0.28524155,0.7177670878871221
0.0575,1.71734375,1.0,2679.042629413018,0.47632543332826127,1.2968774930631026,0.9783661341356151,0.2851814375,0.7189532975528299
0.058,1.7159,1.0,2676.8053629479823,0.4792628314972295,1.296246007739019,0.9785882827949126,0.2851208,0.7201476495494041
0.0585,1.71444375,1.0,2674.568291181225,0.4821837655547395,1.2956088840474187,0.9788049078775022,0.2850596375,0.7213500882405606
0.059000000000000004,1.7129750000000001,1.0,2672.3321314311875,0.48508832383097383,1.2949661154073009,0.9790161791814399,0.28499795,0.7225605572752769
0.059500000000000004,1.71149375,1.0,2670.097599817805,0.48797659465611476,1.2943176952376652,0.9792222598018636,0.2849357375,0.7237789995854236
0.06,1.71,1.0,2667.8654112627605,0.4908486663603447,1.2936636169575102,0.9794233064459414,0.284873,0.7250053573833952
0.0605,1.7084937500000001,1.0,2665.6362794911192,0.4937046272738461,1.2930038739858356,0.9796194697306522,0.2848097375,0.726239572159734
0.061,1.7069750000000001,1.0,2663.410917033667,0.4965445657268015,1.2923384597416407,0.9798108944644622,0.28474595,0.7274815846807561
0.0615,1.7054437500000001,1.0,2661.1900352298844,0.49936857004939317,1.2916673676439245,0.9799977199138861,0.2846816375,0.7287313349861728
0.062,1.7039,1.0,2658.9743442329154,0.5021767285718035,1.2909905911116866,0.9801800800558457,0.2846168,0.7299887623867067
0.0625,1.70234375,1.0,2656.764553014172,0.5049691296242151,1.290308123563926,0.9803581038166911,0.2845514375,0.7312538054617101
0.063,1.7007750000000001,1.0,2654.5613693698665,0.5077458615368102,1.2896199584196417,0.9805319152986777,0.28448555,0.7325264020567762
0.0635,1.69919375,1.0,2652.365499928183,0.5105070126397714,1.2889260890978336,0.9807016339946519,0.28441913750000003,0.7338064892813481
0.064,1.6976,1.0,2650.1776501571485,0.5132526712632809,1.2882265090175005,0.9808673749916331,0.2843522,0.7350940035063289
0.0645,1.69599375,1.0,2647.998524374213,0.5159829257375212,1.2875212115976418,0.9810292491639508,0.2842847375,0.736388880361684
0.065,1.694375,1.0,2645.8288257557465,0.5186978643926747,1.2868101902572568,0.9811873633565424,0.28421675,0.7376910547340438
0.0655,1.69274375,1.0,2643.6692563484735,0.5213975755589241,1.2860934384153446,0.9813418205589771,0.2841482375,0.739000460764303
0.066,1.6911,1.0,2641.5205170811864,0.5240821475664513,1.2853709494909045,0.9814927200707436,0.2840792,0.7403170318452157
0.0665,1.6894437500000001,1.0,2639.382863355361,0.5267516643212271,1.284642721010953,0.9816401575572984,0.2840096375,0.7416406931616096
0.067,1.687775,1.0,2637.2564302461137,0.5294062063643777,1.2839087516117202,0.9817842251371585,0.28393955,0.7429713672138857
0.0675,1.68609375,1.0,2635.142224472396,0.5320458648750205,1.283169031864283,0.9819250120244578,0.2838689375,0.7443089904114946
0.068,1.6844000000000001,1.0,2633.040083266116,0.534670720807085,1.2824235631483833,0.9820626041652611,0.2837978,0.7456534788857498
0.0685,1.68269375,1.0,2630.949844169699,0.5372808551145009,1.2816723468437625,0.9821970845395588,0.2837261375,0.7470047481617574
0.069,1.680975,1.0,2628.871345032637,0.5398763487511978,1.2809153843301624,0.9823285332827122,0.28365395,0.7483627131589194
0.0695,1.67924375,1.0,2626.8044240084105,0.5424572826711054,1.2801526769873248,0.9824570278011152,0.28358123749999997,0.7497272881914403
0.07,1.6775,1.0,2624.748919551744,0.5450237378281532,1.2793842261949913,0.9825826428823808,0.283508,0.7510983869688328
0.07050000000000001,1.67574375,1.0,2622.7046704150584,0.5475757951762708,1.2786100333329036,0.9827054508003461,0.2834342375,0.7524759225964234
0.07100000000000001,1.673975,1.0,2620.67151564581,0.5501135356693878,1.2778300997808034,0.9828255214151767,0.28335995,0.7538598075758571
0.07150000000000001,1.67219375,1.0,2618.6492945834807,0.552637040261434,1.2770444269184322,0.9829429222688265,0.2832851375,0.7552499538056041
0.07200000000000001,1.6704,1.0,2616.6378468567755,0.5551463899063388,1.2762530161255319,0.9830577186760986,0.2832098,0.7566462725814624
0.0725,1.66859375,1.0,2614.6370340900544,0.5576416655563472,1.2754558685802249,0.9831699738023486,0.2831339375,0.758048674951256
0.073,1.6667750000000001,1.0,2612.65373130395,0.5601229458600668,1.2746529203038546,0.983279745701003,0.28305755,0.759457185486494
0.0735,1.66494375,1.0,2610.6788641485655,0.5625903085560476,1.2738442554577296,0.983387097069112,0.2829806375,0.7608715680892912
0.074,1.6631,1.0,2608.714701152579,0.5650438311789041,1.2730298528687751,0.9834920839441048,0.2829032,0.7622917711812979
0.0745,1.6612437500000001,1.0,2606.763507465539,0.5674835912632505,1.272209691363915,0.9835947605638472,0.2828252375,0.7637177421159509
0.075,1.659375,1.0,2604.8209903834404,0.5699096660990222,1.2713838107573503,0.9836951820923018,0.28274675,0.765149321616131
