Time [s],Phi [rad],STIM [ ],Fsee [N],Gamma [ ],Lcerel [ ],q [ ],Lmtc [m],fisomrel [ ]
0.0,1.8,1.0,19.34466708290108,0.001197753876345605,1.379188268911994,0.005367902329822206,0.288653,0.5415059206617515
0.0005,1.79999375,1.0,19.99548118630222,0.006800244733093734,1.3791157586212452,0.01656375531397479,0.2886527375,0.5416812549905539
0.001,1.799975,1.0,24.224065236120847,0.01237131004594591,1.3786797394724484,0.042062904137426665,0.28865195,0.5427348689830314
0.0015,1.79994375,1.0,35.716274313063714,0.01791112608733832,1.377664082806823,0.07926129618608686,0.2886506375,0.5451844405538303
0.002,1.7999,1.0,62.199829077480445,0.02341986814124242,1.375829910082983,0.12486103563944907,0.2886488,0.5495914498948246
0.0025,1.79984375,1.0,110.43583482245724,0.02889771050762997,1.3733140653217089,0.17553820728093608,0.28864643749999996,0.5556014305898562
0.003,1.7997750000000001,1.0,177.5633853359031,0.03434482650980432,1.3706080479732972,0.22854386104410068,0.28864354999999997,0.5620206466116782
0.0035,1.79969375,1.0,256.0568802911953,0.03976138849794033,1.3680293143942712,0.2817824548257841,0.2886401375,0.5680944634773044
0.004,1.7996,1.0,340.79013925828923,0.045147567855076884,1.3656517584723542,0.33370741312157454,0.2886362,0.5736568607336581
0.0045000000000000005,1.7994937500000001,1.0,429.12794855542614,0.050503535010721086,1.3634621420856825,0.3832622145927305,0.2886317375,0.578747676245176
0.005,1.799375,1.0,519.5624241983188,0.05582945941760492,1.3614344130644092,0.4298052720367094,0.28862675,0.5834348375407719
0.0055,1.79924375,1.0,611.035503122332,0.06112550960098404,1.3595466268784173,0.47301549567370643,0.2886212375,0.5877749461108168
0.006,1.7991000000000001,1.0,702.7098601035927,0.066391853135776,1.3577820576075985,0.512801065850154,0.2886152,0.5918112221112024
0.006500000000000001,1.79894375,1.0,793.8938244800962,0.07162865664511336,1.356127806492861,0.5492235229967295,0.2886086375,0.5955771219470132
0.007,1.798775,1.0,884.0049185504165,0.07683608570129358,1.3545736646276907,0.5824398537195574,0.28860155,0.5990992230627867
0.0075,1.79859375,1.0,972.6016248408288,0.08201430547588551,1.3531105233751297,0.6126602426320334,0.2885939375,0.6024010149290242
0.008,1.7984,1.0,1059.2851378825915,0.08716347942325699,1.3517312450320478,0.6401202214891244,0.2885858,0.6055010563399412
0.0085,1.79819375,1.0,1143.7529363845279,0.0922837703950889,1.350429277748851,0.6650611174815254,0.2885771375,0.60841620311358
0.009000000000000001,1.797975,1.0,1225.7942474146796,0.09737534076946708,1.3491984327743989,0.6877182527869824,0.28856795,0.6111621637369375
0.0095,1.79774375,1.0,1305.2308285395088,0.10243835149311896,1.348033454514826,0.7083144378164854,0.2885582375,0.613752278502795
0.01,1.7975,1.0,1381.935973552808,0.10747296253426242,1.346929517087402,0.7270561039649678,0.288548,0.6161986931552998
0.0105,1.79724375,1.0,1455.8425642936809,0.11247933325887521,1.3458819689241195,0.7441317387920413,0.2885372375,0.6185129578226226
0.011,1.796975,1.0,1526.9200174931739,0.11745762285093349,1.3448865088180366,0.7597118868449825,0.28852595000000003,0.6207056633778902
0.0115,1.79669375,1.0,1595.1304495706968,0.12240798789149608,1.3439395959964289,0.773950020331424,0.2885141375,0.6227855685772108
0.012,1.7964,1.0,1660.4821358947008,0.12733058496162178,1.3430376896865728,0.7869833076631111,0.28850180000000003,0.6247612992809266
0.0125,1.79609375,1.0,1723.0029286864942,0.1322255697635143,1.3421775061452723,0.7989340901096987,0.2884889375,0.6266407981128894
0.013000000000000001,1.7957750000000001,1.0,1782.7641430616222,0.13709309857721802,1.3413556851198296,0.8099111609039141,0.28847555,0.628432067080267
0.0135,1.79544375,1.0,1839.8033724075835,0.14193332452678142,1.340569613505017,0.820011484664423,0.2884616375,0.6301413850671027
0.014,1.7951000000000001,1.0,1894.1704901006879,0.14674640010884005,1.33981683490588,0.8293212536595573,0.2884472,0.6317746132479267
0.0145,1.79474375,1.0,1945.9389090478307,0.15153247782002954,1.3390948929274655,0.8379170486133134,0.2884322375,0.6333375433370877
0.015,1.794375,1.0,1995.183761402278,0.1562917091698812,1.338401541322772,0.8458670215716998,0.28841675,0.6348354490764423
0.0155,1.79399375,1.0,2042.0079477844636,0.16102424599280507,1.3377344379455374,0.8532317818825811,0.2884007375,0.6362737545459565
0.016,1.7936,1.0,2086.4801021749745,0.16573023707883186,1.337091777681395,0.8600654846467066,0.2883842,0.6376566754451432
0.0165,1.7931937500000001,1.0,2128.6738143230255,0.17040983075713076,1.3364718455332911,0.8664164530642035,0.2883671375,0.6389881924853988
0.017,1.792775,1.0,2168.674889438545,0.17506317535687088,1.3358729265041724,0.8723278421146616,0.28834955,0.6402722488568966
0.0175,1.7923437500000001,1.0,2206.5644523067517,0.17969041795914653,1.3352934658282407,0.8778382924347968,0.2883314375,0.6415124099900714
0.018000000000000002,1.7919,1.0,2242.447519717177,0.18429170661694522,1.3347317661634026,0.8829823784454889,0.2883128,0.6427125150546211
0.0185,1.79144375,1.0,2276.3944483246582,0.18886718577521788,1.3341865673636,0.887791231136494,0.2882936375,0.6438754406687949
0.019,1.790975,1.0,2308.4785439891684,0.19341699954699815,1.3336566510962353,0.8922928336100713,0.28827395,0.6450039514644295
0.0195,1.79049375,1.0,2338.77958041574,0.19794129204531963,1.3331407990287116,0.8965123710890359,0.2882537375,0.6461007908881109
0.02,1.79,1.0,2367.3744377866133,0.20244020615486358,1.3326378788393416,0.9004725670385529,0.288233,0.6471684998764781
0.0205,1.78949375,1.0,2394.3504875869,0.20691388616685283,1.3321467068810458,0.9041939290061797,0.2882117375,0.6482097101660609
0.021,1.788975,1.0,2419.7766230980324,0.21136247315829293,1.33166632483492,0.9076950515632349,0.28818995000000003,0.6492265592171469
0.021500000000000002,1.78844375,1.0,2443.715533275633,0.2157861067129367,1.3311958720264796,0.9109927974854719,0.2881676375,0.6502209641346294
0.022,1.7879,1.0,2466.2333412037974,0.22018492641453685,1.3307344877812395,0.9141024648617541,0.2881448,0.6511948296941363
0.0225,1.78734375,1.0,2487.3993151091418,0.2245590718468463,1.3302813114247152,0.9170379539304819,0.28812143749999997,0.6521500488634258
0.023,1.786775,1.0,2507.276511235413,0.22890868043363885,1.3298355684392942,0.9198119294956305,0.28809755,0.6530883220418613
0.0235,1.78619375,1.0,2525.9362673799938,0.23323389302245948,1.329396429503061,0.9224359255497752,0.28807313749999996,0.6540114548170759
0.024,1.7856,1.0,2543.4340164570576,0.23753484610137707,1.328963237127082,0.924920498164739,0.2880482,0.654920882075482
0.0245,1.78499375,1.0,2559.8196234593356,0.2418116741504732,1.3285354038311072,0.9272753065974253,0.2880227375,0.6558178840227401
0.025,1.784375,1.0,2575.1445908418186,0.2460645116498294,1.3281123421348855,0.9295091913696395,0.28799675,0.6567037338608414
0.025500000000000002,1.78374375,1.0,2589.4619190142084,0.2502934930795272,1.3276934645581662,0.9316302548357948,0.2879702375,0.6575796979778887
0.026000000000000002,1.7831000000000001,1.0,2602.8259744851657,0.2544987529196482,1.3272781836206984,0.933645932839697,0.2879432,0.6584470361158687
0.0265,1.78244375,1.0,2615.2812825022543,0.2586804224501736,1.326866014760194,0.9355630733964174,0.2879156375,0.6593067869731779
0.027,1.781775,1.0,2626.8826668984984,0.2628386380727527,1.3264563875093374,0.9373879663025727,0.28788755,0.6601601628008718
0.0275,1.7810937500000001,1.0,2637.675731155175,0.26697353227886444,1.3260488260109042,0.9391264187279215,0.2878589375,0.6610081730131094
0.028,1.7804,1.0,2647.695582215627,0.2710852337403693,1.3256429589754322,0.9407838007944826,0.2878298,0.6618516048141742
0.0285,1.77969375,1.0,2656.978002512599,0.2751738711291277,1.3252384151134582,0.9423650714213058,0.2878001375,0.6626912415002738
0.029,1.778975,1.0,2665.5593910762414,0.27923957311700015,1.3248348231355196,0.9438748151549728,0.28776995,0.663527862495267
0.029500000000000002,1.7782437500000001,1.0,2673.4767076985195,0.2832824683758471,1.3244318117521534,0.9453172752595812,0.2877392375,0.6643622433775997
0.03,1.7775,1.0,2680.7674201542923,0.28730268557752886,1.3240290096738967,0.9466963834868206,0.287708,0.6651951558984495
0.0305,1.77674375,1.0,2687.466511062704,0.291300351980164,1.3236260725742375,0.9480157899266781,0.2876762375,0.6660273123411173
0.031,1.775975,1.0,2693.6036213795564,0.2952755930904608,1.3232227086457389,0.9492788900275649,0.28764395,0.6668593131878566
0.0315,1.7751937500000001,1.0,2699.2202861414416,0.2992285406885197,1.3228185204115395,0.9504888286782492,0.2876111375,0.6676919734671699
0.032,1.7744,1.0,2704.3396575748516,0.3031593172843866,1.3224132814086642,0.9516485500753302,0.2875778,0.6685257524594946
0.0325,1.77359375,1.0,2708.985126971397,0.30706804538810756,1.3220067651741383,0.9527607962089444,0.2875439375,0.6693611070857378
0.033,1.772775,1.0,2713.180302187747,0.3109548475097285,1.3215987452449869,0.9538281231990106,0.28750955,0.6701984918904658
0.0335,1.7719437500000002,1.0,2716.9489862827427,0.3148198461592954,1.321188995158235,0.9548529161253976,0.2874746375,0.6710383590218219
0.034,1.7711000000000001,1.0,2720.31515729143,0.3186631638468543,1.320777288450908,0.9558374025068517,0.2874392,0.671881158208173
0.0345,1.7702437500000001,1.0,2723.3029491363895,0.322484923082451,1.320363398660031,0.9567836645660782,0.2874032375,0.6727273367314863
0.035,1.7693750000000001,1.0,2725.9339274025183,0.3262852435446792,1.3199471239377105,0.9576936523420109,0.28736675,0.6735772891708779
0.035500000000000004,1.76849375,1.0,2728.2281456950286,0.3300642439109595,1.319528277242271,0.958569193138375,0.2873297375,0.6744313776868189
0.036000000000000004,1.7676,1.0,2730.2137732399215,0.3338220538787979,1.3191065986830253,0.9594119944777755,0.2872922,0.675290110577011
0.0365,1.76669375,1.0,2731.905198395529,0.3375587892088971,1.3186819544639519,0.9602236674461038,0.2872541375,0.6761537369229456
0.037,1.765775,1.0,2733.316877142917,0.3412745656619602,1.3182542107890292,0.9610057242804724,0.28721555,0.6770225041934063
0.0375,1.76484375,1.0,2734.463325335959,0.3449694989986899,1.3178232338622355,0.961759585534325,0.2871764375,0.6778966582185929
0.038,1.7639,1.0,2735.3591113476987,0.3486437049797891,1.3173888898875497,0.9624865866470199,0.28713679999999997,0.6787764431631023
0.0385,1.76294375,1.0,2736.018849114522,0.35229729936596066,1.3169510450689497,0.9631879839733681,0.28709663750000003,0.67966210149777
0.039,1.761975,1.0,2736.4571915759548,0.3559303979179075,1.3165095656104144,0.9638649603229101,0.28705595,0.680553873970366
0.0395,1.7609937500000001,1.0,2736.6888245128066,0.3595431163963324,1.3160643177159221,0.964518630053649,0.2870147375,0.6814519995751551
0.04,1.76,1.0,2736.7284607809615,0.3631355705619383,1.3156151675894514,0.965150043760472,0.286973,0.682356715521309
0.0405,1.7589937500000001,1.0,2736.5844822264116,0.3667078675039955,1.3151620391039476,0.9657601960996716,0.2869307375,0.6832681412877609
0.041,1.757975,1.0,2736.269893226281,0.3702601238997598,1.3147048143322626,0.9663500241658584,0.28688795,0.6841864790691841
0.0415,1.75694375,1.0,2735.8040232279263,0.373792465094057,1.3142433180463846,0.9669204097784889,0.2868446375,0.6851120442066287
0.042,1.7559,1.0,2735.194193442118,0.3773049990757123,1.31377748411943,0.9674721926758548,0.28680079999999997,0.6860449313127577
0.0425,1.75484375,1.0,2734.44773359709,0.380797833833551,1.3133072464245146,0.9680061671316728,0.2867564375,0.6869852338580629
0.043000000000000003,1.753775,1.0,2733.571980069553,0.3842710773563983,1.312832538834754,0.9685230848735961,0.28671155,0.6879330441524305
0.043500000000000004,1.75269375,1.0,2732.5742741135527,0.3877248376330795,1.3123532952232646,0.9690236577860455,0.28666613750000003,0.688888453326429
0.044,1.7516,1.0,2731.4619601855156,0.3911592226524198,1.3118694494631624,0.9695085604152945,0.2866202,0.6898515513123213
0.0445,1.75049375,1.0,2730.2423843670767,0.39457434040324463,1.311380935427563,0.9699784322931002,0.2865737375,0.6908224268247956
0.045,1.7493750000000001,1.0,2728.9228928836646,0.39797029887437907,1.3108876869895827,0.9704338800936798,0.28652675,0.6918011673414135
0.0455,1.74824375,1.0,2727.5108307213286,0.40134720605464846,1.3103896380223372,0.9708754796374988,0.2864792375,0.6927878590827885
0.046,1.7471,1.0,2726.0135403395893,0.4047051699328781,1.3098867223989428,0.9713037777541305,0.2864312,0.6937825869924763
0.0465,1.7459437500000001,1.0,2724.43836048167,0.4080442984978931,1.3093788739925154,0.9717192940153561,0.28638263750000004,0.694785434716592
0.047,1.744775,1.0,2722.792616176223,0.4113646996897214,1.3088660267572165,0.9721225223481539,0.28633355,0.6957964844235025
0.0475,1.74359375,1.0,2721.079930243383,0.4146664609062398,1.3083481482981534,0.9725139323000145,0.28628393750000003,0.6968157507688139
0.048,1.7424,1.0,2719.3103585940416,0.4179497136032895,1.3078251476194471,0.9728939721914279,0.2862338,0.6978433625416632
0.0485,1.74119375,1.0,2717.487364077233,0.4212145577880447,1.307296993686146,0.9732630690424416,0.2861831375,0.6988793293094921
0.049,1.739975,1.0,2715.6144066509614,0.4244610934676799,1.3067636554632989,0.9736216296220385,0.28613195,0.6999236597155436
0.0495,1.73874375,1.0,2713.6949430547284,0.42768942064936943,1.306225101915954,0.9739700415898896,0.2860802375,0.7009763614686337
0.05,1.7375,1.0,2711.732426503186,0.43089963934028774,1.3056813020091598,0.974308674563742,0.286028,0.7020374413328598
0.0505,1.73624375,1.0,2709.7303064006237,0.4340918495476092,1.3051322247079649,0.9746378811179135,0.2859752375,0.703106905117245
0.051000000000000004,1.734975,1.0,2707.6920280776885,0.4372661512785082,1.3045778389774176,0.9749579977179127,0.28592195,0.7041847576653262
0.051500000000000004,1.73369375,1.0,2705.621032548844,0.4404226445401591,1.3040181137825664,0.9752693455958057,0.2858681375,0.7052710028446765
0.052000000000000005,1.7324,1.0,2703.520756291084,0.4435614293397363,1.3034530180884598,0.9755722315705684,0.2858138,0.7063656435363677
0.0525,1.73109375,1.0,2701.394631044685,0.44668260568441415,1.3028825208601464,0.9758669488173349,0.28575893750000003,0.7074686816243717
0.053,1.729775,1.0,2699.246083634631,0.44978627358136714,1.3023065910626743,0.9761537775891406,0.28570355000000003,0.7085801179849012
0.0535,1.72844375,1.0,2697.078535813622,0.4528725330377696,1.3017251976610924,0.9764329858944767,0.2856476375,0.7096999524756846
0.054,1.7271,1.0,2694.8945923435126,0.4559414744235403,1.3011383170464765,0.976704829628517,0.2855912,0.7108281696633156
0.0545,1.7257437500000001,1.0,2692.6945585671438,0.45899317262152795,1.3005459466165135,0.9769695534795113,0.2855342375,0.7119647129221425
0.055,1.724375,1.0,2690.4840424422664,0.4620277739592192,1.299948035219113,0.9772273957415751,0.28547675,0.7131096178832708
0.0555,1.72299375,1.0,2688.2643014315086,0.4650453694263081,1.2993445714655225,0.9774785816577404,0.2854187375,0.7142628429021769
0.056,1.7216,1.0,2686.0365910065334,0.46804605001248883,1.2987355439669888,0.9777233270661617,0.2853602,0.7154243455699851
0.0565,1.72019375,1.0,2683.802164626272,0.47102990670745554,1.298120941334759,0.9779618388675464,0.28530113749999997,0.7165940827094299
0.057,1.718775,1.0,2681.562273717965,0.47399703050090225,1.29750075218008,0.9781943154656679,0.28524155,0.7177720103708118
0.0575,1.71734375,1.0,2679.3181676604963,0.47694751238252314,1.2968749651141993,0.9784209471827225,0.2851814375,0.718958083827943
0.058,1.7159,1.0,2677.0710937712506,0.4798814433420123,1.2962435687483638,0.9786419166511539,0.2851208,0.7201522575740864
0.0585,1.71444375,1.0,2674.8222972957515,0.48279891436906386,1.2956065516938204,0.9788573991834519,0.2850596375,0.7213544853178848
0.059000000000000004,1.7129750000000001,1.0,2672.573021399848,0.4857000164533719,1.2949639025618165,0.9790675631213358,0.28499795,0.7225647199792833
0.059500000000000004,1.71149375,1.0,2670.32450716504,0.4885848405846306,1.294315609963599,0.9792725701656141,0.2849357375,0.7237829136854421
0.06,1.71,1.0,2668.077993586673,0.4914534777525339,1.293661662510415,0.9794725756879401,0.284873,0.7250090177666428
0.0605,1.7084937500000001,1.0,2665.8347175747926,0.4943060189467761,1.2930020488135114,0.9796677290255847,0.2848097375,0.7262429827521832
0.061,1.7069750000000001,1.0,2663.595913958185,0.49714255515705125,1.2923367574841356,0.9798581737602767,0.28474595,0.7274847583662682
0.0615,1.7054437500000001,1.0,2661.3628154909484,0.49996317737305346,1.2916657771335343,0.9800440479820852,0.2846816375,0.7287342935238887
0.062,1.7039,1.0,2659.136652862517,0.5027679765844768,1.290989096372955,0.9802254845392542,0.2846168,0.7299915363266938
0.0625,1.70234375,1.0,2656.9186547096574,0.5055570437810155,1.2903067038136444,0.980402611274839,0.2845514375,0.731256434058855
0.063,1.7007750000000001,1.0,2654.710047632242,0.5083304699523635,1.2896185880668498,0.9805755512509298,0.28448555,0.7325289331829221
0.0635,1.69919375,1.0,2652.5118723576256,0.5110883449426229,1.2889247394390593,0.9807444229633595,0.28441913750000003,0.7338089762119634
0.064,1.6976,1.0,2650.322934723047,0.5138307524748374,1.2882251688366362,0.9809093411410306,0.2843522,0.7350964669932799
0.0645,1.69599375,1.0,2648.142916290963,0.5165577782167136,1.287519879103004,0.9810704160648223,0.2842847375,0.7363913237263837
0.065,1.694375,1.0,2645.9720248359913,0.5192695074892725,1.2868088682286323,0.9812277537536066,0.28421675,0.7376934729126627
0.0655,1.69274375,1.0,2643.810467813471,0.5219660256135354,1.2860921342039897,0.981381456411427,0.2841482375,0.7390028403909641
0.066,1.6911,1.0,2641.6584523627034,0.5246474179105235,1.2853696750195454,0.9815316225906496,0.2840792,0.7403193513368593
0.0665,1.6894437500000001,1.0,2639.516185310823,0.5273137697012579,1.2846414886657682,0.9816783473470015,0.2840096375,0.7416429302619112
0.067,1.687775,1.0,2637.386818050999,0.5299651654498757,1.2839075459018832,0.9818217210124786,0.28393955,0.7429735503187822
0.0675,1.68609375,1.0,2635.2680588232847,0.5326016894814881,1.283167867793533,0.9819618331567364,0.2838689375,0.7443110926315823
0.068,1.6844000000000001,1.0,2633.1603957558646,0.5352234246180658,1.2824224497145957,0.9820987689211127,0.2837978,0.7456554843660926
0.0685,1.68269375,1.0,2631.064546300357,0.5378304536209407,1.281671284908981,0.9822326104042597,0.2837261375,0.7470066557963125
0.069,1.680975,1.0,2628.982001229838,0.5404228591153336,1.2809143594481218,0.9823634365438829,0.28365395,0.7483645492852404
0.0695,1.67924375,1.0,2626.9133869359703,0.5430007234182239,1.2801516673909838,0.9824913239401936,0.28358123749999997,0.7497290920218481
0.07,1.6775,1.0,2624.8545370203838,0.5455641282928752,1.279383247212599,0.9826163486289375,0.283508,0.75110013130403
0.07050000000000001,1.67574375,1.0,2622.8065285330445,0.5481131543230532,1.2786090888282236,0.9827385817939268,0.2834342375,0.7524776008364383
0.07100000000000001,1.673975,1.0,2620.7704368794994,0.5506478820925241,1.2778291821531145,0.9828580922411776,0.28335995,0.7538614334953174
0.07150000000000001,1.672194897911372,1.0,2618.802296919064,0.5531683919007956,1.27704352548669,0.9829749468573097,0.2832851857122776,0.7552515465111789
0.07200000000000001,1.6704127549426677,1.0,2617.327426714976,0.555674764007006,1.2762523750729147,0.9830892220009567,0.283210335707592,0.7566474019980028
0.0725,1.6686306119739636,1.0,2616.4006267216782,0.558167077516002,1.2754561399646058,0.9832009984421932,0.2831354857029065,0.7580481982008912
0.073,1.6668484690052594,1.0,2615.979308023905,0.560645410891279,1.2746552128859336,0.9833103537250413,0.2830606356982209,0.7594531697531328
0.0735,1.665066326036555,1.0,2616.021050272274,0.563109842596332,1.273849986561069,0.983417363056236,0.2829857856935353,0.7608615588663976
0.074,1.6632841830678506,1.0,2616.5052522430665,0.5655604459463713,1.2730406523505184,0.9835220902026998,0.28291093568884973,0.7622729660841943
0.0745,1.6615020400991465,1.0,2617.3638229534668,0.5679973061469465,1.2722278434308458,0.9836246170954676,0.28283608568416413,0.7636862285108128
0.075,1.659719897130442,1.0,2618.5622127656025,0.5704205011025117,1.2714118821369509,0.9837250093462356,0.2827612356794786,0.7651007341673401
