Time [s],Phi [rad],STIM [ ],Fsee [N],Gamma [ ],Lcerel [ ],q [ ],Lmtc [m],fisomrel [ ]
0.0,1.8,1.0,17.967701205868366,2.060750448415922e-05,1.3793396853817317,0.005000112537887884,0.288653,0.5411396782349771
0.0005,1.79999375,1.0,18.280560594073442,0.005629701221479138,1.3793019638785473,0.012969988490008796,0.2886527375,0.541230931753435
0.001,1.799975,1.0,21.63005968126447,0.011207332357591328,1.3789371095263092,0.035663871436732365,0.28865195,0.5421130963770597
0.0015,1.79994375,1.0,31.097608690843884,0.016753677393894575,1.3780437870251185,0.07067738489341073,0.2886506375,0.5442694358791672
0.002,1.7999,1.0,53.64402007909322,0.022268911819793312,1.3763641344539561,0.11480746038959112,0.2886488,0.5483100710992488
0.0025,1.79984375,1.0,97.22289318342605,0.027753210140661858,1.3739301592301298,0.16467217624462083,0.28864643749999996,0.5541334056700566
0.003,1.7997750000000001,1.0,161.09380248991937,0.03320674588546272,1.3712092678532046,0.2173808174577819,0.28864354999999997,0.5605984676654585
0.0035,1.79969375,1.0,237.83678389860242,0.038629691606415155,1.3685800082573418,0.2707127128071865,0.2886401375,0.5668009487022252
0.004,1.7996,1.0,321.63016367339907,0.04402221888975765,1.366151765307071,0.32301246048541504,0.2886362,0.5724900662070015
0.0045000000000000005,1.7994937500000001,1.0,409.4370563909444,0.049384498360938035,1.3639188403297031,0.37312626362313706,0.2886317375,0.5776883853733548
0.005,1.799375,1.0,499.5863203172407,0.054716699675722166,1.3618546703356238,0.42033330686797277,0.28862675,0.5824655534320696
0.0055,1.79924375,1.0,590.964855901845,0.060018991567258664,1.3599354271791084,0.46425317928336124,0.2886212375,0.5868829345069921
0.006,1.7991000000000001,1.0,682.6928275884691,0.06529154179026884,1.3581432390195296,0.504753005374041,0.2886152,0.5909866720172197
0.006500000000000001,1.79894375,1.0,774.0571101453136,0.07053451717365873,1.3564642518739194,0.541867524359941,0.2886086375,0.594812618418262
0.007,1.798775,1.0,864.4623020725753,0.07574808361806977,1.3548875442488295,0.5757375972578227,0.28860155,0.5983891292635046
0.0075,1.79859375,1.0,953.4179080219346,0.08093240606482642,1.3534040923613397,0.6065652185484708,0.2885939375,0.6017396285148522
0.008,1.7984,1.0,1040.5316218702794,0.08608764857224041,1.3520060969113872,0.6345822903687236,0.2885858,0.6048842721212089
0.0085,1.79819375,1.0,1125.4896660937259,0.09121397424209715,1.3506867580300257,0.6600300172194247,0.2885771375,0.607840554025479
0.009000000000000001,1.797975,1.0,1208.0496573256994,0.09631154526828282,1.349439992691735,0.6831457788176327,0.28856795,0.6106240162869903
0.0095,1.79774375,1.0,1288.032460026934,0.10138052297165293,1.3482602679144016,0.7041553338584255,0.2885582375,0.613248679184277
0.01,1.7975,1.0,1365.313364940216,0.10642106770063184,1.3471425047777015,0.7232686255306711,0.288548,0.6157273003082382
0.0105,1.79724375,1.0,1439.8053990978249,0.11143333896832347,1.3460821203844264,0.7406779934813038,0.2885372375,0.618071319994322
0.011,1.796975,1.0,1511.4566580620435,0.11641749535938424,1.3450749113894798,0.7565577749636966,0.28852595000000003,0.620291152836552
0.0115,1.79669375,1.0,1580.2462961392616,0.12137369442649466,1.3441169863816824,0.7710648318038235,0.2885141375,0.6223963637869547
0.012,1.7964,1.0,1646.1861250200132,0.1263020933905521,1.3432046537274673,0.7843395686844541,0.28850180000000003,0.6243959364152081
0.0125,1.79609375,1.0,1709.2932941988963,0.13120284796693382,1.3423346642334668,0.7965073555471922,0.2884889375,0.626297760408672
0.013000000000000001,1.7957750000000001,1.0,1769.6053014114277,0.1360761129361155,1.341503957998267,0.8076798157741655,0.28847555,0.6281092049474422
0.0135,1.79544375,1.0,1827.1704744916103,0.1409220421861046,1.3407097180101966,0.8179562479677467,0.2884616375,0.6298370154764424
0.014,1.7951000000000001,1.0,1882.0791656658712,0.1457407907017853,1.3399489786042493,0.827424812170487,0.2884472,0.6314881758479836
0.0145,1.79474375,1.0,1934.3845874257056,0.15053250999433523,1.3392194628925445,0.8361640793963625,0.2884322375,0.633068099473513
0.015,1.794375,1.0,1984.1490117448652,0.15529735098370484,1.3385190202978283,0.8442439303114705,0.28841675,0.6345818651039493
0.0155,1.79399375,1.0,2031.453252390291,0.1600354645898446,1.3378455002428475,0.8517265289975272,0.2884007375,0.6360344960639672
0.016,1.7936,1.0,2076.3808394757257,0.1647470007991269,1.3371969003585797,0.8586672801017752,0.2883842,0.637430645371703
0.0165,1.7931937500000001,1.0,2119.031937508958,0.16943211004214043,1.3365711999142817,0.8651155781395414,0.2883671375,0.6387749597839942
0.017,1.792775,1.0,2159.4815355678293,0.17409093979233653,1.3359667745262533,0.8711156377016148,0.28834955,0.6400711939235513
0.0175,1.7923437500000001,1.0,2197.804100591881,0.1787236366885686,1.3353821165563442,0.8767070221433027,0.2883314375,0.6413228185401364
0.018000000000000002,1.7919,1.0,2234.083783167484,0.1833303473696901,1.3348157183664044,0.8819251577505033,0.2883128,0.6425332740267492
0.0185,1.79144375,1.0,2268.404733099713,0.18791121745940984,1.3342661606605841,0.8868018390682528,0.2882936375,0.6437057839197466
0.019,1.790975,1.0,2300.8599824949833,0.19246639354858003,1.3337320137527517,0.8913656252481753,0.28827395,0.6448435682287408
0.0195,1.79049375,1.0,2331.525092100838,0.19699601946206213,1.3332120903536029,0.895642269631271,0.2882537375,0.6459493075324694
0.02,1.79,1.0,2360.4682749667704,0.20150023737768552,1.3327053328527876,0.8996550097395113,0.288233,0.6470253874085325
0.0205,1.78949375,1.0,2387.7628501601444,0.20597918947327973,1.3322106836399565,0.9034248200740294,0.2882117375,0.6480741762610738
0.021,1.788975,1.0,2413.486814069164,0.21043301792667418,1.3317270851047602,0.9069706633047113,0.28818995000000003,0.6490980261731478
0.021500000000000002,1.78844375,1.0,2437.7077185080993,0.2148618626961943,1.3312536211981731,0.9103097395368461,0.2881676375,0.6500989746272232
0.022,1.7879,1.0,2460.5134080727375,0.2192658672616809,1.330789216248004,0.9134576174987585,0.2881448,0.6510793826978039
0.0225,1.78734375,1.0,2481.9624998101704,0.2236451698091497,1.3303331074830005,0.9164284992332183,0.28812143749999997,0.6520409378208688
0.023,1.786775,1.0,2502.110408614643,0.22799990755461982,1.3298845884242656,0.9192353146051065,0.28809755,0.6529851987249773
0.0235,1.78619375,1.0,2521.0149578968662,0.2323302177141105,1.3294429525929015,0.9218898433275935,0.28807313749999996,0.6539137148816049
0.024,1.7856,1.0,2538.7361778102113,0.23663623750364093,1.3290074935100105,0.9244028331592901,0.2880482,0.6548280268311877
0.0245,1.78499375,1.0,2555.3346165094054,0.2409181037907838,1.3285775187696343,0.9267841068479297,0.2880227375,0.6557296369872151
0.025,1.784375,1.0,2570.861819585702,0.2451759509501491,1.3281524373115432,0.9290426685619891,0.28799675,0.6566198274441764
0.025500000000000002,1.78374375,1.0,2585.3889599150434,0.24940991792443595,1.3277314890604999,0.931186742132457,0.2879702375,0.6575002266523835
0.026000000000000002,1.7831000000000001,1.0,2598.9573778013437,0.2536201365680325,1.3273142066084909,0.933223917888411,0.2879432,0.6583718435977493
0.0265,1.78244375,1.0,2611.6095345815543,0.2578067387353267,1.326900122547502,0.935161168656181,0.2879156375,0.6592356820102943
0.027,1.781775,1.0,2623.388918557126,0.2619698562807069,1.3264887694695193,0.9370049082764694,0.28788755,0.6600927404664512
0.0275,1.7810937500000001,1.0,2634.339955768688,0.266109621058561,1.3260796799665286,0.9387610438640577,0.2878589375,0.6609440124774435
0.028,1.7804,1.0,2644.507925614657,0.2702261649232771,1.3256723866305162,0.940435022546734,0.2878298,0.6617904865637231
0.0285,1.77969375,1.0,2653.9341523544795,0.27431961696207335,1.3252664656455617,0.9420318785062674,0.2878001375,0.6626330558878974
0.029,1.778975,1.0,2662.6605467233253,0.2783901102613229,1.324861493946273,0.9435562665305485,0.28776995,0.6634726076243482
0.029500000000000002,1.7782437500000001,1.0,2670.7207335342505,0.2824377727624656,1.3244571301537875,0.945012503216205,0.2877392375,0.6643098555241334
0.03,1.7775,1.0,2678.1468868357006,0.286462730984452,1.324053050737009,0.9464045891675137,0.287708,0.665145472921038
0.0305,1.77674375,1.0,2684.971618938559,0.29046511144623266,1.3236489321648404,0.9477362344069278,0.2876762375,0.6659801298104546
0.031,1.775975,1.0,2691.2279390424064,0.294445040666758,1.3232444509061851,0.9490108831386842,0.28764395,0.6668144928519097
0.0315,1.7751937500000001,1.0,2696.949214183177,0.2984026451649785,1.3228392834299465,0.9502317361110326,0.2876111375,0.6676492253649193
0.032,1.7744,1.0,2702.16052872963,0.3023380464023882,1.3224331848046282,0.9514017788965555,0.2875778,0.6684848256911494
0.0325,1.77359375,1.0,2706.8928541307014,0.3062513724353358,1.3220258587058136,0.9525237873150049,0.2875439375,0.6693218951683144
0.033,1.772775,1.0,2711.183051310581,0.310142754537218,1.3216169573697665,0.9536003434396209,0.28750955,0.6701611375389471
0.0335,1.7719437500000002,1.0,2715.050578716882,0.31401231263077695,1.3212062937988165,0.9546338714640574,0.2874746375,0.6710029235460089
0.034,1.7711000000000001,1.0,2718.5150568551603,0.3178601666387547,1.3207936809952927,0.9556266349825835,0.2874392,0.6718476219180178
0.0345,1.7702437500000001,1.0,2721.5962525781083,0.32168643648389345,1.3203789319615244,0.9565807495243954,0.2874032375,0.6726955993469161
0.035,1.7693750000000001,1.0,2724.31406414944,0.32549124208893526,1.3199618596998413,0.9574981939697443,0.28736675,0.673547220463709
0.035500000000000004,1.76849375,1.0,2726.6885070839326,0.32927470337662224,1.3195422772125722,0.9583808209593185,0.2873297375,0.6744028478118739
0.036000000000000004,1.7676,1.0,2728.739700761845,0.3330369402696965,1.3191199975020464,0.9592303663961255,0.2872922,0.6752628418185391
0.0365,1.76669375,1.0,2730.4878558192213,0.3367780726909001,1.3186948335705937,0.9600484581283751,0.2872541375,0.6761275607634298
0.037,1.765775,1.0,2731.953262313428,0.3404982205629753,1.318266598420543,0.9608366238923661,0.28721555,0.6769973607455892
0.0375,1.76484375,1.0,2733.151030357822,0.344197498739182,1.3178351527274443,0.9615963021681984,0.2871764375,0.6778724990137823
0.038,1.7639,1.0,2734.098128694335,0.34787602678905405,1.317400340781046,0.9623288444568582,0.28713679999999997,0.6787532642604461
0.0385,1.76294375,1.0,2734.815168112833,0.3515339274968915,1.3169619742347656,0.9630355195775804,0.28709663750000003,0.6796400092130096
0.039,1.761975,1.0,2735.3133438734894,0.3551713135975218,1.3165199506138419,0.9637175278723303,0.28705595,0.6805329109164895
0.0395,1.7609937500000001,1.0,2735.6038825643127,0.35878829782577265,1.3160741674435128,0.964376000051523,0.2870147375,0.6814321450092163
0.04,1.76,1.0,2735.698037700056,0.3623849929164716,1.3156245222490175,0.9650120019743909,0.286973,0.6823378856985953
0.0405,1.7589937500000001,1.0,2735.6070855549456,0.3659615116044461,1.315170912555594,0.9656265390523071,0.2869307375,0.6832503057362058
0.041,1.757975,1.0,2735.3423212275043,0.36951796662452396,1.3147132358884805,0.966220560308457,0.28688795,0.6841695763922245
0.0415,1.75694375,1.0,2734.9150549384,0.37305447071153264,1.3142513897729162,0.9667949621239951,0.2868446375,0.6850958674291795
0.042,1.7559,1.0,2734.3366085615467,0.3765711366002997,1.313785271734139,0.9673505916979013,0.28680079999999997,0.6860293470750402
0.0425,1.75484375,1.0,2733.61831238737,0.3800680770256528,1.3133147792973874,0.9678882502451394,0.2867564375,0.6869701819956295
0.043000000000000003,1.753775,1.0,2732.7663478802656,0.383545395926469,1.3128398568099535,0.9684086983666729,0.28671155,0.6879184438492595
0.043500000000000004,1.75269375,1.0,2731.79124448988,0.3870032075638794,1.3123604091714647,0.9689126547225071,0.28666613750000003,0.6888742818311071
0.044,1.7516,1.0,2730.7077308160865,0.3904416334512956,1.311876303133683,0.9694007982569643,0.2866202,0.6898379194632239
0.0445,1.75049375,1.0,2729.5213901205725,0.39386077871148206,1.3113874885344174,0.9698737765833346,0.2865737375,0.6908094132150129
0.045,1.7493750000000001,1.0,2728.2378069169004,0.3972607484672027,1.310893915211477,0.9703322039819883,0.28652675,0.6917888185091805
0.0455,1.74824375,1.0,2726.862565956976,0.40064164784122186,1.31039553300267,0.9707766634369392,0.2864792375,0.6927761897065957
0.046,1.7471,1.0,2725.401251273072,0.40400358195630365,1.3098922917458053,0.9712077085289607,0.2864312,0.6937715800909843
0.0465,1.7459437500000001,1.0,2723.859445275408,0.40734665593521213,1.3093841412786922,0.9716258651966366,0.28638263750000004,0.6947750418534638
0.047,1.744775,1.0,2722.242727905955,0.4106709749007116,1.308871031439139,0.972031633375741,0.28633355,0.695786626076921
0.0475,1.74359375,1.0,2720.556675847983,0.4139766439755661,1.3083529120649546,0.972425488526415,0.28628393750000003,0.6968063827202244
0.048,1.7424,1.0,2718.806861790757,0.41726376828253986,1.307829732993948,0.9728078830568132,0.2862338,0.6978343606022792
0.0485,1.74119375,1.0,2716.9988537511526,0.420532452944397,1.3073014440639275,0.9731792476511308,0.2861831375,0.6988706073859212
0.049,1.739975,1.0,2715.1382144496984,0.4237828030839017,1.3067679951127023,0.973539992509263,0.28613195,0.6999151695616489
0.0495,1.73874375,1.0,2713.2304825456717,0.4270149236752104,1.3062293361439885,0.9738905084983699,0.2860802375,0.7009680921071815
0.05,1.7375,1.0,2711.2790065554104,0.4302288963468712,1.3056854370779503,0.9742311668647076,0.286028,0.7020293799695871
0.0505,1.73624375,1.0,2709.2919833330543,0.43342485425145455,1.3051362235682835,0.9745623247105584,0.2859752375,0.7030991232987452
0.051000000000000004,1.734975,1.0,2707.271801989972,0.4366028944646007,1.3045816741737926,0.9748843221059819,0.28592195,0.7041773079001583
0.051500000000000004,1.73369375,1.0,2705.220848798834,0.4397631140619502,1.3040217674532817,0.9751974837056977,0.2858681375,0.7052639187327255
0.052000000000000005,1.7324,1.0,2703.1415070515523,0.44290561011914337,1.303456481965555,0.9755021195803848,0.2858138,0.7063589399014312
0.0525,1.73109375,1.0,2701.0361569277106,0.44603047971182064,1.302885796269417,0.9757985259961394,0.28575893750000003,0.7074623546500041
0.053,1.729775,1.0,2698.9071753728863,0.4491378199156225,1.3023096889236716,0.9760869861457472,0.28570355000000003,0.7085741453535488
0.0535,1.72844375,1.0,2696.756935987437,0.45222772780618936,1.3017281384871233,0.9763677708351406,0.2856476375,0.7096942935111459
0.054,1.7271,1.0,2694.587808925337,0.4553003004591616,1.3011411235185761,0.9766411391281394,0.2855912,0.7108227797384237
0.0545,1.7257437500000001,1.0,2692.4021608030525,0.4583556349501796,1.3005486225768343,0.9769073389523474,0.2855342375,0.7119595837601007
0.055,1.724375,1.0,2690.202354618835,0.4613938283548839,1.2999506142207022,0.9771666076688519,0.28547675,0.7131046844024983
0.0555,1.72299375,1.0,2687.990749682241,0.4644149777489148,1.299347077008984,0.9774191726081678,0.2854187375,0.7142580595860246
0.056,1.7216,1.0,2685.7697015536774,0.46741918020791284,1.298737989500484,0.9776652515746967,0.2853602,0.7154196863176298
0.0565,1.72019375,1.0,2683.541561994178,0.4704065328075183,1.2981233302540063,0.977905053321786,0.28530113749999997,0.7165895406832293
0.057,1.718775,1.0,2681.3056532007263,0.47337711171810953,1.2975031055771111,0.9781387777120507,0.28524155,0.7177675451912445
0.0575,1.71734375,1.0,2679.0626397315423,0.47633100621294755,1.2968773094723693,0.9783666169469754,0.2851814375,0.7189536451544867
0.058,1.7159,1.0,2676.820171961047,0.47926835393229916,1.2962458718124052,0.978588756051923,0.2851208,0.7201479063587626
0.0585,1.71444375,1.0,2674.578876873383,0.48218924267311003,1.2956087868444872,0.9788053718400591,0.2850596375,0.7213502714934009
0.059000000000000004,1.7129750000000001,1.0,2672.3393804027037,0.48509376023232575,1.2949660488158832,0.9790166340907772,0.28499795,0.7225606825444708
0.059500000000000004,1.71149375,1.0,2670.102307434369,0.4879819944068919,1.294317651973861,0.9792227058827678,0.2849357375,0.723779080792708
0.06,1.71,1.0,2667.868281805766,0.49085403299375396,1.2936635905656888,0.9794237439087965,0.284873,0.7250054068114398
0.0605,1.7084937500000001,1.0,2665.637926308838,0.49370996378985776,1.2930038588386346,0.979619898773332,0.2848097375,0.7262396004645074
0.061,1.7069750000000001,1.0,2663.4118626926697,0.4965498745921487,1.2923384510399665,0.9798113152740802,0.28474595,0.7274816009041873
0.0615,1.7054437500000001,1.0,2661.1907116671255,0.4993738531975725,1.2916673614169525,0.9799981326684125,0.2846816375,0.7287313465691098
0.062,1.7039,1.0,2658.9750929074517,0.5021819874030746,1.2909905842168605,0.9801804849256072,0.2846168,0.7299887751821754
0.0625,1.70234375,1.0,2656.765625058703,0.5049743650056008,1.2903081136869585,0.9803585009657568,0.2845514375,0.7312538237484694
0.063,1.7007750000000001,1.0,2654.562925742039,0.5077510738020966,1.2896199440745149,0.9805323048861463,0.28448555,0.7325264285531725
0.0635,1.69919375,1.0,2652.367611561266,0.5105122015895075,1.2889260696267975,0.9807020161758406,0.28441913750000003,0.7338065251594739
0.064,1.6976,1.0,2650.180298109499,0.5132578361647793,1.288226484591074,0.9808677499191845,0.2843522,0.7350940484064776
0.0645,1.69599375,1.0,2648.0015999777547,0.5159880653248574,1.287521183214613,0.9810296169888574,0.2842847375,0.7363889324071078
0.065,1.694375,1.0,2645.8321307635338,0.5187029768666874,1.2868101597446822,0.9811877242290983,0.28421675,0.7376911105460138
0.0655,1.69274375,1.0,2643.6725030799116,0.5214026585872151,1.2860934084285496,0.9813421746296634,0.2841482375,0.7390005154774717
0.066,1.6911,1.0,2641.5233285661698,0.5240871982833859,1.2853709235134831,0.98149306749105,0.2840792,0.7403170791232837
0.0665,1.6894437500000001,1.0,2639.385217898513,0.5267566837521455,1.2846426992467512,0.9816404985814853,0.2840096375,0.7416407326706745
0.067,1.687775,1.0,2637.257328377657,0.5294111850882639,1.283908743306501,0.9817845597458711,0.28393955,0.7429713822516686
0.0675,1.68609375,1.0,2635.138375306302,0.5320507739611816,1.2831690674726581,0.9819253399310185,0.2838689375,0.7443089261054374
0.068,1.6844000000000001,1.0,2633.0319687473616,0.5346755777163666,1.2824236382452379,0.9820629264955478,0.2837978,0.745653343623479
0.0685,1.68269375,1.0,2630.9380289174364,0.5372856746946814,1.281672456232996,0.9821974021692724,0.2837261375,0.7470045516571141
0.069,1.680975,1.0,2628.8564762153924,0.5398811432369879,1.2809155220446875,0.9823288468486987,0.28365395,0.7483624664360992
0.0695,1.67924375,1.0,2626.7872312203017,0.5424620616841486,1.2801528362890686,0.9824573377120028,0.28358123749999997,0.7497270035688467
0.07,1.6775,1.0,2624.730214690647,0.5450285083770255,1.2793843995748946,0.9825829493285774,0.283508,0.7510980780426519
0.07050000000000001,1.67574375,1.0,2622.6853475623066,0.5475805616564813,1.2786102125109213,0.982705753763436,0.2834342375,0.7524756042239135
0.07100000000000001,1.673975,1.0,2620.6525509474577,0.5501182998633779,1.2778302757059041,0.982825820676749,0.28335995,0.7538594958583588
0.07150000000000001,1.67219375,1.0,2618.6317461331573,0.5526418013385777,1.2770445897685987,0.9829432174187694,0.2832851375,0.7552496660712655
0.07200000000000001,1.6704,1.0,2616.622854579806,0.5551511444229428,1.276253155307761,0.9830580091203942,0.2832098,0.7566460273676854
0.0725,1.66859375,1.0,2614.6257979198786,0.5576464074573355,1.275455972932146,0.9831702587795819,0.2831339375,0.7580484916326686
0.073,1.6667750000000001,1.0,2612.640497956437,0.5601276687826182,1.2746530432505097,0.983280027343849,0.28305755,0.7594569701314849
0.0735,1.66494375,1.0,2610.6668766617777,0.5625950067396531,1.2738443668716077,0.9833873737890438,0.2829806375,0.760871373509848
0.074,1.6631,1.0,2608.704856176028,0.5650484996693025,1.2730299444041957,0.9834923551945877,0.2829032,0.7622916117941385
0.0745,1.6612437500000001,1.0,2606.7543588058084,0.5674882259124285,1.272209776457029,0.9835950268153664,0.2828252375,0.7637175943916272
0.075,1.659375,1.0,2604.8153070230064,0.5699142638098936,1.2713838636388632,0.9836954421504388,0.28274675,0.765149230090698
0.0755,1.65749375,1.0,2602.887623463166,0.5723266917025598,1.2705522065584545,0.9837936530087239,0.2826677375,0.7665864270610695
