Time [s],Phi [rad],STIM [ ],Fsee [N],Gamma [ ],Lcerel [ ],q [ ],Lmtc [m],fisomrel [ ]
0.0,1.8,1.0,17.96748128036573,2.693132425224926e-05,1.3793397100204459,0.00500019179891699,0.288653,0.541139618627564
0.0005,1.79999375,1.0,18.28249869910416,0.005635989569621651,1.379301748620983,0.012987586155344177,0.2886527375,0.5412314524651294
0.001,1.799975,1.0,21.636729747682857,0.011213585433072505,1.3789364285136254,0.03569686006159979,0.28865195,0.5421147421726342
0.0015,1.79994375,1.0,31.114301550097778,0.01675989539456932,1.3780423656904703,0.07072252270370909,0.2886506375,0.5442728627013799
0.002,1.7999,1.0,53.68070789397178,0.0222750949423952,1.3763617561118204,0.11486090642043051,0.2886488,0.5483157797717685
0.0025,1.79984375,1.0,97.28504134980787,0.027759358580838847,1.3739271665380097,0.1647303142902761,0.28864643749999996,0.554140542489973
0.003,1.7997750000000001,1.0,161.17493496128554,0.03321285983775093,1.371206232648437,0.21744079196198773,0.28864354999999997,0.5606056531981964
0.0035,1.79969375,1.0,237.92860425650053,0.03863577126426114,1.368577181132823,0.27077236206633354,0.2886401375,0.56680759422252
0.004,1.7996,1.0,321.7279447572418,0.0440282644455279,1.3661491763143194,0.32307021596231705,0.2886362,0.5724961118761016
0.0045000000000000005,1.7994937500000001,1.0,409.538375109767,0.049390510005932094,1.3639164626320484,0.37318108783810683,0.2886317375,0.577693903779901
0.005,1.799375,1.0,499.6897466689973,0.0547226776002004,1.3618524730281183,0.4203845984175684,0.28862675,0.5824706242456472
0.0055,1.79924375,1.0,591.069250050623,0.06002493596020855,1.3599333879617004,0.46430066665928216,0.2886212375,0.5868876155306508
0.006,1.7991000000000001,1.0,682.797390043531,0.06529745283983482,1.358141338668409,0.5047966453642061,0.2886152,0.5909910125535716
0.006500000000000001,1.79894375,1.0,774.1420820719551,0.07054039482165249,1.3564628015519582,0.5419076309692912,0.2886086375,0.5948159155284735
0.007,1.798775,1.0,864.5684930965995,0.07575392861253077,1.3548858291513024,0.5757739249505763,0.28860155,0.5983930110573743
0.0075,1.79859375,1.0,953.5286845218695,0.0809382183876858,1.3534023887098778,0.6065981988035326,0.2885939375,0.6017434682849248
0.008,1.7984,1.0,1040.6248016548254,0.08609342811565275,1.3520047251716616,0.6346123903254048,0.2885858,0.604887351584257
0.0085,1.79819375,1.0,1125.580248897214,0.09121972135042883,1.3506854758363163,0.6600573634917019,0.2885771375,0.6078434216755626
0.009000000000000001,1.797975,1.0,1208.1409948525811,0.096317260168791,1.3494387447738063,0.6831706053239619,0.28856795,0.6106267973562074
0.0095,1.79774375,1.0,1288.1111253511438,0.10138620537658359,1.3482592270343627,0.7041779823010363,0.2885582375,0.6132509910249624
0.01,1.7975,1.0,1365.3971778844702,0.10642671850081048,1.347141427629056,0.723289196073981,0.288548,0.6157296850244287
0.0105,1.79724375,1.0,1439.8989087301952,0.11143895849582773,1.3460809501179145,0.7406966709289742,0.2885372375,0.618073902951153
0.011,1.796975,1.0,1511.5470406447657,0.11642308332567729,1.3450738073927575,0.7565748283691491,0.28852595000000003,0.6202935824345219
0.0115,1.79669375,1.0,1580.327833330472,0.12137925095440119,1.3441160123454048,0.7710804587483361,0.2885141375,0.6223985014269682
0.012,1.7964,1.0,1646.2593733601254,0.12630761840115168,1.3432037964115917,0.7843539106688461,0.28850180000000003,0.624397812910302
0.0125,1.79609375,1.0,1709.3729923574956,0.13120834218331054,1.3423337488094367,0.7965204723347171,0.2884889375,0.6262997590117267
0.013000000000000001,1.7957750000000001,1.0,1769.6895679308484,0.1360815765224383,1.3415030067386537,0.8076918396330117,0.28847555,0.6281112767489128
0.0135,1.79544375,1.0,1827.2608231062757,0.14092747560486404,1.3407087142869722,0.8179672819937058,0.2884616375,0.62983919645701
0.014,1.7951000000000001,1.0,1882.1444810620592,0.14574619247511664,1.3399482636467397,0.8274350775812068,0.2884472,0.6314897259042308
0.0145,1.79474375,1.0,1934.4430632158042,0.15053788141205343,1.3392188315155071,0.8361735816691996,0.2884322375,0.6330694653866518
0.015,1.794375,1.0,1984.2125194639825,0.1553026928587284,1.338518343243879,0.8442526997000751,0.28841675,0.634583326809373
0.0155,1.79399375,1.0,2031.5200465694957,0.1600407768948776,1.3378447964918734,0.8517346402101037,0.2884007375,0.6360360123831782
0.016,1.7936,1.0,2076.44910593998,0.16475228360023725,1.3371961889195088,0.8586747999076545,0.2883842,0.637432175313007
0.0165,1.7931937500000001,1.0,2119.086034034988,0.16943736212065247,1.336570641848709,0.8651226077258984,0.2883671375,0.6387761576707525
0.017,1.792775,1.0,2159.5287455580046,0.1740961620886654,1.3359662920853,0.8711221999828243,0.28834955,0.6400722276226242
0.0175,1.7923437500000001,1.0,2197.853794527958,0.1787288302688535,1.3353816131788083,0.8767131324055486,0.2883314375,0.6413238952218756
0.018000000000000002,1.7919,1.0,2234.1352644777876,0.18333551236448867,1.3348152011351737,0.8819308569198626,0.2883128,0.6425343784719808
0.0185,1.79144375,1.0,2268.45575272747,0.18791635407884272,1.3342656519603364,0.8868071680075681,0.2882936375,0.6437068683658522
0.019,1.790975,1.0,2300.8993547830187,0.19247150032323018,1.333731623962406,0.8913706413363109,0.28827395,0.6448443978552783
0.0195,1.79049375,1.0,2331.554148619902,0.1970010963693095,1.333211804588256,0.8956469952233159,0.2882537375,0.6459499148056057
0.02,1.79,1.0,2360.5013352129827,0.201505286253319,1.3327050097111979,0.8996594366818305,0.288233,0.647026073064642
0.0205,1.78949375,1.0,2387.80489415648,0.20598421106156176,1.3322102750441922,0.9034289614142088,0.2882117375,0.6480750419485402
0.021,1.788975,1.0,2413.533243615229,0.21043801188034067,1.3317266363001992,0.9069745506624832,0.28818995000000003,0.6490989756663119
0.021500000000000002,1.78844375,1.0,2437.7588720971385,0.21486682979595875,1.3312531291921792,0.9103133921135794,0.2881676375,0.6501000140318541
0.022,1.7879,1.0,2460.552816544675,0.21927080486464653,1.330788838969235,0.9134610836673165,0.2881448,0.6510801786141118
0.0225,1.78734375,1.0,2481.986646108085,0.2236500774882038,1.3303328773180085,0.9164317992939781,0.28812143749999997,0.6520414227130278
0.023,1.786775,1.0,2502.1307225858995,0.22800478785074407,1.3298843955705122,0.9192384412082623,0.28809755,0.6529856044613451
0.0235,1.78619375,1.0,2521.037776556832,0.2323350719698941,1.3294427367743265,0.921892798315417,0.28807313749999996,0.6539141683247509
0.024,1.7856,1.0,2538.7626536955268,0.23664106586328063,1.3290072439770315,0.924405626576989,0.2880482,0.6548285504165754
0.0245,1.78499375,1.0,2555.362137951118,0.24092290554853044,1.3285772602262078,0.9267867537423488,0.2880227375,0.6557301787698946
0.025,1.784375,1.0,2570.8947842946204,0.24518072704327024,1.328152128569436,0.9290451721927936,0.28799675,0.6566204735821057
0.025500000000000002,1.78374375,1.0,2585.4113853293234,0.24941466410872296,1.3277312796184082,0.9311891349833843,0.2879702375,0.6575006644122473
0.026000000000000002,1.7831000000000001,1.0,2598.969966124,0.2536248534393254,1.3273140893470734,0.9332262065799876,0.2879432,0.6583720883765818
0.0265,1.78244375,1.0,2611.622612603885,0.2578114294257843,1.3269000010199397,0.9351633461729845,0.2879156375,0.6592359353736079
0.027,1.781775,1.0,2623.4080769890097,0.26197452254028275,1.3264885918399738,0.9370069743900047,0.28788755,0.6600931103263743
0.0275,1.7810937500000001,1.0,2634.36599859083,0.266114263255004,1.326079439010143,0.9387630044888898,0.2878589375,0.6609445135676992
0.028,1.7804,1.0,2644.5368277615407,0.2702307820421312,1.3256721197334138,0.9404368891596091,0.2878298,0.6617910409067123
0.0285,1.77969375,1.0,2653.961753806819,0.27432420937384755,1.3252662112127531,0.942033662442431,0.2878001375,0.6626335836839945
0.029,1.778975,1.0,2662.6826368614584,0.27839467572233617,1.3248612906511281,0.9435579773250564,0.28776995,0.6634730288153166
0.029500000000000002,1.7782437500000001,1.0,2670.7333545635083,0.2824423077213162,1.3244570141779812,0.9450141489247712,0.2877392375,0.6643100955060883
0.03,1.7775,1.0,2678.1587616359666,0.28646723843452926,1.324052941769753,0.9464061640332011,0.287708,0.6651456981197992
0.0305,1.77674375,1.0,2684.9910766547932,0.2904695950279701,1.323648753841329,0.9477377337508305,0.2876762375,0.6659804978856977
0.031,1.775975,1.0,2691.2575496895997,0.2944495021119961,1.3232441798502994,0.9490123086881777,0.28764395,0.6668150516355462
0.0315,1.7751937500000001,1.0,2696.98575896175,0.2984070842969646,1.3228389492542534,0.9502330954660205,0.2876111375,0.6676499134069185
0.032,1.7744,1.0,2702.2035801096117,0.30234246619323313,1.322432791510781,0.9514030769833624,0.2875778,0.6684856344342005
0.0325,1.77359375,1.0,2706.939157077324,0.306255772411159,1.3220254360774717,0.9525250307668787,0.2875439375,0.6693227631349306
0.033,1.772775,1.0,2711.2208746257193,0.3101471275610996,1.321616612411915,0.9536015456040433,0.28750955,0.6701618450914668
0.0335,1.7719437500000002,1.0,2715.0733949795263,0.31401665316710875,1.321206085856915,0.9546350399001783,0.2874746375,0.6710033495168373
0.034,1.7711000000000001,1.0,2718.5203470887927,0.3178644710682927,1.3207936328120362,0.9556277732299594,0.2874392,0.6718477204950781
0.0345,1.7702437500000001,1.0,2721.59518412078,0.3216907123616336,1.3203789416874903,0.9565818501110379,0.2874032375,0.6726955794745016
0.035,1.7693750000000001,1.0,2724.3147450450892,0.3254954949895729,1.3199618535048696,0.9574992523110957,0.28736675,0.6735472331050012
0.035500000000000004,1.76849375,1.0,2726.6959762458414,0.3292789368945519,1.3195422092857667,0.9583818351621862,0.2873297375,0.6744029862397043
0.036000000000000004,1.7676,1.0,2728.755920352945,0.3330411560190119,1.319119850051774,0.9592313370776249,0.2872922,0.6752631419098638
0.0365,1.76669375,1.0,2730.5117056337576,0.3367822703053942,1.318694616824484,0.9600493882487515,0.2872541375,0.6761280012981357
0.037,1.765775,1.0,2731.9805359451484,0.3405023976961402,1.318266350625489,0.9608375186006521,0.28721555,0.6769978637102465
0.0375,1.76484375,1.0,2733.179681245825,0.34420165613369125,1.3178348924763816,0.9615971650775478,0.2871764375,0.6778730265450477
0.038,1.7639,1.0,2734.1264686691284,0.34788016356048856,1.317400083398754,0.9623296783211198,0.28713679999999997,0.6787537852629592
0.0385,1.76294375,1.0,2734.838274156257,0.35153803791897353,1.3169617644141989,0.963036328798474,0.28709663750000003,0.6796404333527994
0.039,1.761975,1.0,2735.3236751719933,0.3551753909163421,1.3165198568061747,0.9637183186516733,0.28705595,0.6805331002786947
0.0395,1.7609937500000001,1.0,2735.6021924824367,0.35879234350978634,1.3160741827885727,0.9643767730075526,0.2870147375,0.6814321140769641
0.04,1.76,1.0,2735.691325629084,0.36238901310382854,1.3156245831900915,0.9650127534628232,0.286973,0.6823377630295953
0.0405,1.7589937500000001,1.0,2735.6004627672537,0.3659655107600922,1.315170972687035,0.9656272667777822,0.2869307375,0.6832501848708807
0.041,1.757975,1.0,2735.3390098269997,0.36952194754020085,1.3147132659557075,0.9662212632500625,0.28688795,0.6841695160442989
0.0415,1.75694375,1.0,2734.9163875023346,0.37305843450577786,1.3142513776724125,0.966795640465775,0.2868446375,0.6850958916804553
0.042,1.7559,1.0,2734.342028401731,0.3765750827184468,1.3137852225134539,0.967351246764031,0.28680079999999997,0.6860294455745608
0.0425,1.75484375,1.0,2733.6253743601724,0.38007200323983115,1.3133147151551359,0.9678888844394617,0.2867564375,0.6869703101634441
0.043000000000000003,1.753775,1.0,2732.7758739120814,0.38354930713155433,1.3128397702737622,0.9684093127050286,0.28671155,0.6879186165021036
0.043500000000000004,1.75269375,1.0,2731.8029799266533,0.38700710545523986,1.312360302545637,0.9689132504353051,0.28666613750000003,0.68887449423979
0.044,1.7516,1.0,2730.7161474034133,0.3904455092725112,1.3118762266470636,0.9694013787085383,0.2866202,0.6898380715956296
0.0445,1.75049375,1.0,2729.523551553419,0.3938646209708741,1.3113874688878904,0.9698743427871057,0.2865737375,0.6908094522308454
0.045,1.7493750000000001,1.0,2728.2340287110474,0.39726455964379404,1.3108939495618956,0.970332756699239,0.28652675,0.6917887504011655
0.0455,1.74824375,1.0,2726.8535154312262,0.40064543142467146,1.310395615308372,0.9707772032823624,0.2864792375,0.692776026777223
0.046,1.7471,1.0,2725.3877225874103,0.4040073408957422,1.3098924148090318,0.9712082359129066,0.2864312,0.6937713368744481
0.0465,1.7459437500000001,1.0,2723.842359204042,0.4073503926392421,1.3093842967455884,0.9716263803395917,0.28638263750000004,0.69477473509961
0.047,1.744775,1.0,2722.22313159939,0.4106746912374069,1.308871209799754,0.9720321363216128,0.28633355,0.69578627473481
0.0475,1.74359375,1.0,2720.535742587343,0.41398034127247246,1.3083531026532411,0.9724259791547327,0.28628393750000003,0.6968060079213002
0.048,1.7424,1.0,2718.7858907363448,0.4172674473266746,1.307829923987763,0.9728083610939321,0.2862338,0.6978339856431377
0.0485,1.74119375,1.0,2716.9792696884565,0.4205361139822491,1.307301622485032,0.9731797126805232,0.2861831375,0.6988702577106725
0.049,1.739975,1.0,2715.121567534975,0.42378644582143177,1.3067681468267611,0.9735404439809745,0.28613195,0.6999148727438608
0.0495,1.73874375,1.0,2713.2152034515702,0.42701854710785686,1.3062294754411452,0.973890947726231,0.2860802375,0.7009678200607177
0.05,1.7375,1.0,2711.267795123486,0.43023251972365156,1.3056855393275946,0.9742315948566965,0.286028,0.7020291806313701
0.0505,1.736249086628312,1.0,2709.539369301786,0.43342846530291307,1.3051363766945394,0.974562746249227,0.2859754616383891,0.7030988253116331
0.051000000000000004,1.7349981372000642,1.0,2708.343452194797,0.4366064840452432,1.304582343396881,0.9748847668775172,0.2859229217624027,0.7041760079428074
0.051500000000000004,1.7337471877718165,1.0,2707.6424831027107,0.43976667615024384,1.3040237952895215,0.9751980051150501,0.2858703818864163,0.705259986918862
0.052000000000000005,1.7324962383435687,1.0,2707.397279040987,0.4429091418175168,1.303461088227362,0.9755027936462958,0.28581784201042987,0.7063500252929374
0.0525,1.7312452889153207,1.0,2707.571708933882,0.44603398044945364,1.3028945513893848,0.9757994485502978,0.28576530213444346,0.7074454424063243
0.053,1.729994339487073,1.0,2708.127606540052,0.44914129203691094,1.3023245334273617,0.9760882732310072,0.28571276225845704,0.7085455245150769
0.0535,1.7287433900588252,1.0,2709.0359982082205,0.4522311743668779,1.3017512997646883,0.9763695524589044,0.2856602223824707,0.7096497228645448
0.054,1.7274924406305772,1.0,2710.270517498833,0.45530372456660534,1.3011750925276382,0.9766435571928558,0.2856076825064842,0.7107575371204355
0.0545,1.7262414912023294,1.0,2711.804835924504,0.4583590397633443,1.3005961538424857,0.9769105467807246,0.28555514263049786,0.7118684703287776
0.055,1.7249905417740816,1.0,2713.6130763091737,0.4613972169212069,1.3000147219276394,0.9771707693115479,0.28550260275451145,0.7129820364371211
0.0555,1.7237395923458338,1.0,2715.6720585731723,0.46441835229615636,1.2994310105080986,0.9774244609247723,0.28545006287852503,0.7140977995730196
0.056,1.7224886429175859,1.0,2717.9590855566166,0.46742254233359015,1.298845228921405,0.9776718476836841,0.2853975230025386,0.7152153353026565
0.0565,1.721237693489338,1.0,2720.4573191507347,0.47040988118261373,1.2982575330857795,0.977913143012894,0.2853449831265522,0.7163343238443405
0.057,1.7199867440610903,1.0,2723.149915538089,0.4733804629923325,1.2976680789194432,0.9781485516110571,0.2852924432505658,0.7174544476798728
0.0575,1.7187357946328423,1.0,2726.020018844363,0.476334381911852,1.2970770223406172,0.9783782698823436,0.2852399033745794,0.7185753915728076
0.058,1.7174848452045945,1.0,2729.0576775354525,0.47927172722042893,1.296484456342148,0.9786024823780634,0.28518736349859297,0.7196969615672861
0.0585,1.7162338957763468,1.0,2732.239966207319,0.4821925981809979,1.2958905917217245,0.9788213737302663,0.28513482362260656,0.7208187427632899
0.059000000000000004,1.714982946348099,1.0,2735.55117038752,0.4850970896420477,1.2952955734277607,0.9790351172721374,0.28508228374662015,0.7219404474297513
0.059500000000000004,1.713731996919851,1.0,2738.982892044206,0.4879852912778234,1.2946994797568634,0.9792438754812586,0.28502974387063373,0.7230619152775322
0.06,1.7124810474916032,1.0,2742.526719595196,0.49085729276257006,1.2941023890056396,0.979447804537393,0.2849772039946473,0.7241829871848707
0.0605,1.7112300980633555,1.0,2746.174226109361,0.4937131837705328,1.2935043794706962,0.9796470546174215,0.2849246641186609,0.725303505202556
0.061,1.7099791486351075,1.0,2749.9169676436004,0.4965530539759567,1.2929055294486398,0.9798417701743017,0.2848721242426745,0.7264233125587118
0.0615,1.7087281992068597,1.0,2753.7464817157693,0.4993769930530868,1.2923059172360776,0.9800320902010254,0.2848195843666881,0.7275422536631868
0.062,1.707477249778612,1.0,2757.654285913723,0.5021850906761682,1.2917056211296165,0.9802181484804959,0.28476704449070167,0.7286601741115581
0.0625,1.7062263003503642,1.0,2761.6318766399845,0.5049774365194459,1.2911047194258634,0.980400073822169,0.28471450461471526,0.7297769206887417
0.063,1.7049753509221162,1.0,2765.6707279927923,0.5077541202571652,1.290503290421425,0.980577990286256,0.28466196473872885,0.7308923413722104
0.0635,1.7037244014938684,1.0,2769.768740108074,0.510515222120857,1.2899013542186437,0.9807520137354208,0.2846094248627425,0.7320063929279224
0.064,1.7024734520656206,1.0,2773.9140713967727,0.5132608414868671,1.2892990187130138,0.9809222616611061,0.2845568849867561,0.7331188704454314
0.0645,1.7012225026373726,1.0,2778.1019059103196,0.5159910650672948,1.2886963281897992,0.9810888432229734,0.28450434511076966,0.7342296877861216
0.065,1.6999715532091249,1.0,2782.3290086547245,0.5187059768863882,1.2880933125758127,0.9812518627794588,0.28445180523478325,0.7353387858708389
0.0655,1.698720603780877,1.0,2786.5921352797673,0.521405660968396,1.2874900017978663,0.9814114209930944,0.28439926535879684,0.7364461060786442
0.066,1.6974696543526293,1.0,2790.888031873286,0.5240902013375667,1.2868864257827723,0.9815676149888436,0.2843467254828104,0.7375515902474039
0.0665,1.6962187049243813,1.0,2795.213434775156,0.5267596820181486,1.2862826144573432,0.9817205385045688,0.284294185606824,0.7386551806743247
0.067,1.6949677554961335,1.0,2799.5650704112,0.5294141870343905,1.2856785977483913,0.9818702820340769,0.2842416457308376,0.7397568201164313
0.0675,1.6937168060678858,1.0,2803.939655147108,0.5320538004105406,1.2850744055827288,0.982016932963162,0.2841891058548512,0.740856451790988
0.068,1.6924658566396378,1.0,2808.3338951620635,0.5346786061708475,1.284470067887168,0.982160575699027,0.2841365659788648,0.7419540193758609
0.0685,1.69121490721139,1.0,2812.7444863421147,0.5372886883395598,1.2838656145885217,0.9823012917934589,0.28408402610287836,0.7430494670098242
0.069,1.6899639577831422,1.0,2817.1681141937747,0.5398841309409259,1.2832610756136016,0.9824391600600936,0.284031486226892,0.7441427392928108
0.0695,1.6887130083548945,1.0,2821.605653994182,0.5424649987720723,1.2826564433391174,0.982574253733621,0.2839789463509056,0.7452338489760214
0.07,1.6874620589266465,1.0,2826.0513097959856,0.545031394446306,1.2820517697602543,0.9827066487341957,0.2839264064749192,0.7463227014512389
0.07050000000000001,1.6862111094983987,1.0,2830.5021039755275,0.5475834055438017,1.2814470815526233,0.9828364163942042,0.28387386659893277,0.7474092483594101
0.07100000000000001,1.684960160070151,1.0,2834.9570986317804,0.5501211094406775,1.2808423871158148,0.9829636242674705,0.28382132672294635,0.7484934744868967
0.07150000000000001,1.683709210641903,1.0,2839.4153529032487,0.5526445835130516,1.2802376948494194,0.9830883377232248,0.28376878684695994,0.7495753647496292
0.07200000000000001,1.6824582612136552,1.0,2843.8759229677926,0.5551539051370422,1.2796330131530271,0.9832106200316713,0.28371624697097353,0.750654904193109
0.0725,1.6812073117854074,1.0,2848.3378620434783,0.5576491516887674,1.2790283504262285,0.983330532445663,0.2836637070949871,0.7517320779924037
0.073,1.6799563623571596,1.0,2852.8002203916976,0.5601304005443455,1.278423715068614,0.9834481342786833,0.2836111672190007,0.7528068714521405
