Time [s],Phi [rad],STIM [ ],Fsee [N],Gamma [ ],Lcerel [ ],q [ ],Lmtc [m],fisomrel [ ]
0.0,1.8,1.0,17.966403516146016,1.0058172169333172e-05,1.3793398307668072,0.0050000269615244905,0.288653,0.5411393265108739
0.0005,1.79999375,1.0,18.275824809412562,0.005619211062572543,1.3793024899111956,0.012940677537905187,0.2886527375,0.5412296592703041
0.001,1.799975,1.0,21.61752845886338,0.011196901040182094,1.3789383892460578,0.03560888640625527,0.28865195,0.5421100036849591
0.0015,1.79994375,1.0,31.068388106212627,0.016743304587923932,1.3780462759674712,0.07060213152259408,0.2886506375,0.5442634350354802
0.002,1.7999,1.0,53.58144284990939,0.022258597197071274,1.376368192993285,0.11471834221441994,0.2886488,0.5483003294099791
0.0025,1.79984375,1.0,97.11786637547966,0.027742953374811377,1.3739352188816965,0.16457522288107415,0.28864643749999996,0.5541213395404904
0.003,1.7997750000000001,1.0,160.95719011318837,0.03319654665196002,1.371214380315425,0.21728079194142724,0.28864354999999997,0.5605863643081472
0.0035,1.79969375,1.0,237.68246253119136,0.03861954958255444,1.3685847610010402,0.2706132223037831,0.2886401375,0.5667897766511674
0.004,1.7996,1.0,321.4660205564802,0.04401213375463528,1.366156112281536,0.32291612323106295,0.2886362,0.5724799153025231
0.0045000000000000005,1.7994937500000001,1.0,409.2671209152057,0.04937446979543103,1.3639228289521292,0.3730348118932207,0.2886317375,0.5776791280850743
0.005,1.799375,1.0,499.4129716184297,0.054706727362452405,1.3618583536634454,0.4202477450951027,0.28862675,0.5824570532014697
0.0055,1.79924375,1.0,590.7899676538959,0.060009075190928615,1.3599388438198259,0.46417396157965635,0.2886212375,0.5868750915486193
0.006,1.7991000000000001,1.0,682.5177357537367,0.0652816810370283,1.3581464215198082,0.5046802043913639,0.2886152,0.5909794029099358
0.006500000000000001,1.79894375,1.0,773.8806736740512,0.07052471173400156,1.3564672635897332,0.54180098550609,0.2886086375,0.5948057716481111
0.007,1.798775,1.0,864.2854646819592,0.07573833317237526,1.3548904005938054,0.5756769853025836,0.28860155,0.5983826644335726
0.0075,1.79859375,1.0,953.2427669592396,0.0809227103156046,1.3534067860887917,0.6065101041590104,0.2885939375,0.6017335572270122
0.008,1.7984,1.0,1040.3593555815903,0.08607800720003762,1.3520086330793377,0.6345322194816447,0.2885858,0.6048785785638271
0.0085,1.79819375,1.0,1125.318228875478,0.09120438696131807,1.3506891848539768,0.65998455916991,0.2885771375,0.6078351263598638
0.009000000000000001,1.797975,1.0,1207.881547061972,0.09630201173961155,1.349442289656451,0.6831044784768019,0.28856795,0.6106188973203347
0.0095,1.79774375,1.0,1287.870493298805,0.10137104295817038,1.3482624111180344,0.7041177637123491,0.2885582375,0.6132439190122871
0.01,1.7975,1.0,1365.152966118667,0.10641164082925711,1.347144566286233,0.7232344417955363,0.288548,0.6157227362817068
0.0105,1.79724375,1.0,1439.6513949047226,0.1114239650017185,1.3460840478189715,0.7406468211040603,0.2885372375,0.6180670658330225
0.011,1.796975,1.0,1511.3100004760197,0.11640817396118294,1.3450767028390893,0.7565293001563873,0.28852595000000003,0.6202872103243076
0.0115,1.79669375,1.0,1580.1086181907392,0.12136442545552405,1.3441186311276616,0.7710387699902157,0.2885141375,0.6223927541799247
0.012,1.7964,1.0,1646.0507489736322,0.12629287627535607,1.3432062382508965,0.7843157075916304,0.28850180000000003,0.6243924681940973
0.0125,1.79609375,1.0,1709.161046383025,0.13119368244522375,1.3423361832971898,0.7964854678962382,0.2884889375,0.6262944438951302
0.013000000000000001,1.7957750000000001,1.0,1769.4782913160875,0.13606699866996333,1.341505391820161,0.8076596934245291,0.28847555,0.6281060821357092
0.0135,1.79544375,1.0,1827.064466656068,0.1409129796665405,1.3407108957303588,0.8179376491715462,0.2884616375,0.6298344564114049
0.014,1.7951000000000001,1.0,1881.9813051428584,0.1457317790330649,1.3399500498315011,0.8274076393727009,0.2884472,0.6314858533786987
0.0145,1.79474375,1.0,1934.2833936580182,0.15052354839295093,1.3392205555283105,0.8361482382134869,0.2884322375,0.6330657356730369
0.015,1.794375,1.0,1984.046403381256,0.155288439369613,1.3385201142255094,0.8442292869250435,0.28841675,0.6345795033952426
0.0155,1.79399375,1.0,2031.34852413225,0.16002660249025377,1.3378466036948296,0.8517129729813913,0.2884007375,0.6360321185327449
0.016,1.7936,1.0,2076.2936241385632,0.16473818949053853,1.3371978092903762,0.858654648227396,0.2883842,0.6374286907199332
0.0165,1.7931937500000001,1.0,2118.9535629922802,0.1694233485681539,1.33657200844685,0.8651038128856481,0.2883671375,0.6387732242667524
0.017,1.792775,1.0,2159.401139036769,0.17408222707863186,1.335967596114056,0.8711046932252395,0.28834955,0.6400694335501994
0.0175,1.7923437500000001,1.0,2197.720121346056,0.17871497237750444,1.3353829672417992,0.8766968306617796,0.2883314375,0.6413209989926221
0.018000000000000002,1.7919,1.0,2233.9993214729525,0.18332173124432888,1.3348165669635081,0.8819156457483615,0.2883128,0.6425314620113861
0.0185,1.79144375,1.0,2268.328742453312,0.1879026502325762,1.334266918349409,0.8867929263844716,0.2882936375,0.6437041686772628
0.019,1.790975,1.0,2300.7939930023003,0.1924578750929355,1.3337326670640761,0.8913572580999989,0.28827395,0.6448421777241662
0.0195,1.79049375,1.0,2331.4621140843897,0.19698754858892006,1.3332127097365467,0.8956344191818907,0.2882537375,0.6459479912947317
0.02,1.79,1.0,2360.4058525588134,0.20149181348404327,1.3327059429958577,0.8996476396971079,0.288233,0.6470240927781796
0.0205,1.78949375,1.0,2387.703186897014,0.20597081254181848,1.3322112634710461,0.9034178876719663,0.2882117375,0.6480729477773316
0.021,1.788975,1.0,2413.427608261384,0.21042468703365005,1.3317276574154886,0.906964138828254,0.28818995000000003,0.6490968153878579
0.021500000000000002,1.78844375,1.0,2437.662319780086,0.21485358006961297,1.331254057857025,0.9103035661050751,0.2881676375,0.650098052146858
0.022,1.7879,1.0,2460.4754932267124,0.21925763192401523,1.3307895792303306,0.9134517805887044,0.2881448,0.6510786169407552
0.0225,1.78734375,1.0,2481.924026216705,0.22363698041432908,1.330333474219559,0.9164229885387358,0.28812143749999997,0.652040165210574
0.023,1.786775,1.0,2502.067529217747,0.22799176335802668,1.3298849955088645,0.9192301131961951,0.28809755,0.6529843422771571
0.0235,1.78619375,1.0,2520.968099462085,0.23232211857258023,1.3294433957824014,0.9218849284099637,0.28807313749999996,0.653912783722449
0.024,1.7856,1.0,2538.6901072415253,0.2366281838754619,1.3290079277243239,0.9243981767504729,0.2880482,0.6548271157351597
0.0245,1.78499375,1.0,2555.2884785790097,0.2409100937692905,1.328577952204216,0.9267796915156835,0.2880227375,0.6557287287158289
0.025,1.784375,1.0,2570.8315019252673,0.24516798844989934,1.3281527212635715,0.9290384542873719,0.28799675,0.656619233186584
0.025500000000000002,1.78374375,1.0,2585.364439753821,0.24940200095742066,1.3277317180675139,0.931182730113727,0.2879702375,0.6574997479990932
0.026000000000000002,1.7831000000000001,1.0,2598.9319566841505,0.25361226373410245,1.3273144434094701,0.9332201043633802,0.2879432,0.6583713492842755
0.0265,1.78244375,1.0,2611.5798833416393,0.2577989092221926,1.3269003980828662,0.9351575454001491,0.2879156375,0.6592351075678049
0.027,1.781775,1.0,2623.3551153705307,0.26196206986393933,1.326489082881129,0.9370014630495892,0.28788755,0.6600920878808649
0.0275,1.7810937500000001,1.0,2634.305517972437,0.26610187810159047,1.326079998597685,0.9387577608131527,0.2878589375,0.6609433498550183
0.028,1.7804,1.0,2644.468836100927,0.2702184629659918,1.3256727476052577,0.9404318961578957,0.2878298,0.6617897368215631
0.0285,1.77969375,1.0,2653.89364830506,0.27431195866249536,1.3252668390181304,0.9420288961022728,0.2878001375,0.6626322813620972
0.029,1.778975,1.0,2662.6237451502916,0.27838249656953146,1.3248618326323627,0.9435534132662066,0.28776995,0.6634719059271135
0.029500000000000002,1.7782437500000001,1.0,2670.689578092332,0.2824302031328609,1.3244574164451999,0.9450097687917673,0.2877392375,0.6643092631176855
0.03,1.7775,1.0,2678.1220712782233,0.2864552047982442,1.3240532784538883,0.9464019655545441,0.287708,0.665145002306399
0.0305,1.77674375,1.0,2684.952579492132,0.29045762801144237,1.323649106655673,0.9477337156446067,0.2876762375,0.6659797696459975
0.031,1.775975,1.0,2691.212848259056,0.29443759921821605,1.3232445890478002,0.9490084651500418,0.28764395,0.6668142080718074
0.0315,1.7751937500000001,1.0,2696.9349761071635,0.298395244864326,1.3228394136275152,0.950229416537071,0.2876111375,0.667648957297966
0.032,1.7744,1.0,2702.1513789880323,0.3023306913955329,1.3224332683920639,0.9513995488858213,0.2875778,0.668484653807434
0.0325,1.77359375,1.0,2706.8883122094435,0.3062440608232375,1.3220259001622174,0.9525216419361109,0.2875439375,0.6693218100277856
0.033,1.772775,1.0,2711.1762264863933,0.3101354823037015,1.3216170196140822,0.9535982843480826,0.28750955,0.6701610098678414
0.0335,1.7719437500000002,1.0,2715.0387541593986,0.31400507883619283,1.321206401565318,0.9546318967427344,0.2874746375,0.6710027027852669
0.034,1.7711000000000001,1.0,2718.4966121690895,0.3178529707511984,1.3207938489891922,0.9556247418393714,0.2874392,0.6718472782228935
0.0345,1.7702437500000001,1.0,2721.5706674156427,0.3216792783792054,1.3203791648589716,0.9565789343575225,0.2874032375,0.6726951234829972
0.035,1.7693750000000001,1.0,2724.2819209794698,0.3254841220507008,1.3199621521479232,0.957496452427629,0.28736675,0.6735466237017513
0.035500000000000004,1.76849375,1.0,2726.651493202922,0.3292676220961717,1.3195426138293143,0.9583791479954332,0.2873297375,0.6744021618212046
0.036000000000000004,1.7676,1.0,2728.700609632389,0.33302989884610523,1.319120352876412,0.9592287563192734,0.2872922,0.6752621185587829
0.0365,1.76669375,1.0,2730.450587821403,0.33677107263098827,1.3186951722624831,0.9600469046487534,0.2872541375,0.6761268723743183
0.037,1.765775,1.0,2731.9065937770038,0.3404912498351929,1.318267022431209,0.9608351317960934,0.28721555,0.6769965001045036
0.0375,1.76484375,1.0,2733.104247665193,0.3441905680515094,1.317835577682143,0.9615948626971726,0.2871764375,0.6778716376258239
0.038,1.7639,1.0,2734.0578017086978,0.34786914299353416,1.3174007070310947,0.9623274508400567,0.28713679999999997,0.6787525228831671
0.0385,1.76294375,1.0,2734.778869686734,0.35152708779436437,1.316962303854059,0.9630341711399919,0.28709663750000003,0.6796393429066556
0.039,1.761975,1.0,2735.279102281287,0.35516451558709705,1.3165202615270313,0.9637162236990519,0.28705595,0.6805322832999354
0.0395,1.7609937500000001,1.0,2735.570182209692,0.35878153950482944,1.3160744734260075,0.9643747389998913,0.2870147375,0.6814315282157912
0.04,1.76,1.0,2735.663819607641,0.3623782726806586,1.3156248329269824,0.9650107826854162,0.286973,0.6823372603310409
0.0405,1.7589937500000001,1.0,2735.5717476654863,0.36595482824768166,1.3151712334059518,0.9656253599614294,0.2869307375,0.6832496608206986
0.041,1.757975,1.0,2735.3057185161565,0.3695113193389957,1.3147135682389108,0.9662194196556566,0.28688795,0.6841689093314172
0.0415,1.75694375,1.0,2734.8774993746665,0.3730478590876979,1.314251730801855,0.9667938579632872,0.2868446375,0.6850951839542041
0.042,1.7559,1.0,2734.298868930675,0.3765645606268853,1.3137856144707798,0.967349521906238,0.28680079999999997,0.6860286611964131
0.0425,1.75484375,1.0,2733.581613992545,0.3800615370896552,1.3133151126216807,0.9678872125307506,0.2867564375,0.6869695159530089
0.043000000000000003,1.753775,1.0,2732.732459486839,0.3835388937665298,1.3128401646594547,0.9684076903638735,0.28671155,0.6879178296423637
0.043500000000000004,1.75269375,1.0,2731.761548907617,0.3869967452534971,1.3123606789805995,0.9689116745066875,0.28666613750000003,0.6888737443455959
0.044,1.7516,1.0,2730.681460424271,0.39043520887472927,1.3118765418693807,0.9693998448974546,0.2866202,0.68983744461606
0.0445,1.75049375,1.0,2729.497891075595,0.3938543901286315,1.311387702131479,0.9698728491831011,0.2865737375,0.6908089890346852
0.045,1.7493750000000001,1.0,2728.2165391452527,0.3972543945136088,1.310894108572574,0.9703313016731653,0.28652675,0.6917884351239303
0.0455,1.74824375,1.0,2726.843103120774,0.40063532752806635,1.3103957099983459,0.9707757853768033,0.2864792375,0.6927758393323431
0.046,1.7471,1.0,2725.3832807110525,0.4039972946704093,1.309892455214475,0.9712068538963047,0.2864312,0.6937712570189559
0.0465,1.7459437500000001,1.0,2723.84276792192,0.4073404014390427,1.3093842930266413,0.9716250331884986,0.28638263750000004,0.6947747424375171
0.047,1.744775,1.0,2722.2272581893667,0.4106647533323718,1.3088711722405248,0.9720308232044524,0.28633355,0.6957863487205487
0.0475,1.74359375,1.0,2720.542441571694,0.4139704558488016,1.3083530416618057,0.9724246994169372,0.28628393750000003,0.6968061278632423
0.048,1.7424,1.0,2718.794003998591,0.41725761448673726,1.307829850096164,0.9728071142443303,0.2862338,0.6978341307071849
0.0485,1.74119375,1.0,2716.9876265799317,0.42052633474458395,1.3073015463492799,0.973178498378874,0.2861831375,0.6988704069239203
0.049,1.739975,1.0,2715.1288256588905,0.42377672116749304,1.3067680806787443,0.9735392620109699,0.28613195,0.6999150021577789
0.0495,1.73874375,1.0,2713.220743076307,0.427008859247317,1.306229424937191,0.9738897952137411,0.2860802375,0.7009679186946342
0.05,1.7375,1.0,2711.2729030438477,0.4302228800291678,1.3056854927427037,0.9742304713166101,0.286028,0.7020292714497782
0.0505,1.73624375,1.0,2709.287945240884,0.43341888124929895,1.3051362604096612,0.9745616466475417,0.2859752375,0.7030990516046155
0.051000000000000004,1.734975,1.0,2707.2685063727304,0.4365969606439639,1.304581704252443,0.9748836612312356,0.28592195,0.7041772494728231
0.051500000000000004,1.73369375,1.0,2705.2172199956785,0.4397572159494163,1.3040218005854283,0.9751968396764,0.2858681375,0.7052638544923281
0.052000000000000005,1.7324,1.0,2703.1367163541386,0.44289974490190953,1.3034565257229964,0.9755014920071964,0.2858138,0.7063588552172462
0.0525,1.73109375,1.0,2701.029622231138,0.44602464523769714,1.3028858559795264,0.9757979144428246,0.28575893750000003,0.7074622393097882
0.053,1.729775,1.0,2698.898560810079,0.44913201469303277,1.302309767669398,0.9760863901289064,0.28570355000000003,0.7085739935321257
0.0535,1.72844375,1.0,2696.7461515498508,0.45222195100416984,1.3017282371069903,0.9763671898240325,0.2856476375,0.7096941037382266
0.054,1.7271,1.0,2694.5750100720884,0.4552945519073619,1.3011412406066827,0.9766405725445854,0.2855912,0.7108225548656507
0.0545,1.7257437500000001,1.0,2692.387748060735,0.4583499151388625,1.3005487544828542,0.9769067861707039,0.2855342375,0.7119593309273119
0.055,1.724375,1.0,2690.1869731740107,0.4613881384349251,1.2999507550498843,0.9771660680160372,0.28547675,0.7131044150032024
0.0555,1.72299375,1.0,2687.975288969152,0.46440931953180326,1.2993472186221522,0.977418645363737,0.2854187375,0.7142577892320836
0.056,1.7216,1.0,2685.7552948393536,0.4674135561657505,1.2987381215140372,0.977664735970954,0.2853602,0.7154194348031389
0.0565,1.72019375,1.0,2683.5252945114376,0.4704009117838272,1.2981234793803011,0.9779045476888506,0.28530113749999997,0.7165892571498187
0.057,1.718775,1.0,2681.2901776181284,0.4733715131778902,1.2975032475030746,0.9781382821145487,0.28524155,0.7177672759091975
0.0575,1.71734375,1.0,2679.0532379259394,0.47632547057247526,1.2968773957319994,0.9783661318966467,0.2851814375,0.7189534818347761
0.058,1.7159,1.0,2676.8152759749173,0.47926287267035134,1.2962459167508624,0.9785882812555863,0.2851208,0.7201478214554882
0.0585,1.71444375,1.0,2674.5770909753137,0.4821838081742875,1.2956088032434512,0.9788049070219396,0.2850596375,0.7213502405770873
0.059000000000000004,1.7129750000000001,1.0,2672.339480805358,0.48508836578705283,1.2949660478935525,0.9790161789892712,0.28499795,0.7225606842795232
0.059500000000000004,1.71149375,1.0,2670.1032420101656,0.48797663421141635,1.2943176433849537,0.9792222602474663,0.2849357375,0.7237790969143088
0.06,1.71,1.0,2667.8691698017224,0.4908487021501471,1.293663582401442,0.979423307497746,0.284873,0.7250054221018862
0.0605,1.7084937500000001,1.0,2665.6380580601285,0.4937046583060142,1.2930038576268044,0.9796194713505119,0.2848097375,0.7262396027289904
0.061,1.7069750000000001,1.0,2663.410699336254,0.4965445913817866,1.2923384617448281,0.9798108966070809,0.28474595,0.7274815809460067
0.0615,1.7054437500000001,1.0,2661.187884854738,0.49936859008023343,1.2916673874393005,0.979997722526295,0.2846816375,0.728731298164327
0.062,1.7039,1.0,2658.9704045197313,0.5021767431041237,1.2909906273940084,0.9801800830769299,0.2846168,0.7299886950537033
0.0625,1.70234375,1.0,2656.759046920042,0.5049691391562265,1.2903081742927391,0.9803581071767573,0.2845514375,0.7312537115395938
0.063,1.7007750000000001,1.0,2654.554599336571,0.507745866939311,1.28962002081928,0.9805319189190616,0.28448555,0.7325262868005096
0.0635,1.69919375,1.0,2652.3578477511915,0.510507015156146,1.288926159657418,0.9807016377873575,0.28441913750000003,0.7338063592653579
0.064,1.6976,1.0,2650.1695768551995,0.5132526725095008,1.28822658349094,0.9808673788590073,0.2843522,0.7350938666107785
0.0645,1.69599375,1.0,2647.990570061148,0.5159829277021442,1.287521285003634,0.9810292529983841,0.2842847375,0.7363887457584792
0.065,1.694375,1.0,2645.821609514318,0.5186978694368455,1.2868102568792863,0.9811873670401949,0.28421675,0.7376909328725696
0.0655,1.69274375,1.0,2643.6634761055693,0.5213975864163736,1.2860934918016844,0.9813418239635293,0.2841482375,0.7390003633568862
0.066,1.6911,1.0,2641.5156020313957,0.5240821387086039,1.2853709949047738,0.9814927216924509,0.2840792,0.7403169491934297
0.0665,1.6894437500000001,1.0,2639.377676201132,0.5267516203832175,1.2846427689584075,0.9816401569032905,0.2840096375,0.7416406061214627
0.067,1.687775,1.0,2637.251127780223,0.5294061494844087,1.2839088006448145,0.981784223685942,0.28393955,0.7429712784324713
0.0675,1.68609375,1.0,2635.136001591341,0.5320458052256326,1.2831690894317476,0.9819250108308462,0.2838689375,0.7443088864489635
0.068,1.6844000000000001,1.0,2633.0323424279936,0.5346706668203447,1.28242363478696,0.98206260404515,0.2837978,0.7456533498524294
0.0685,1.68269375,1.0,2630.940195055588,0.5372808134820003,1.2816724361782053,0.9821970860796585,0.2837261375,0.747004587683147
0.069,1.680975,1.0,2628.8596042132026,0.5398763244240545,1.2809154930732363,0.9823285368497015,0.28365395,0.748362518339989
0.0695,1.67924375,1.0,2626.7906146140176,0.542457278859963,1.2801528049398063,0.9824570335502497,0.28358123749999997,0.7497270595802259
0.07,1.6775,1.0,2624.733270947101,0.5450237560031808,1.2793843712456685,0.9825826507655855,0.283508,0.7510981285193319
0.07050000000000001,1.67574375,1.0,2622.687617878205,0.5475758350671632,1.2786101914585764,0.982705460573826,0.2834342375,0.752475641630789
0.07100000000000001,1.673975,1.0,2620.6537000510484,0.5501135952653657,1.2778302650462825,0.9828255326465677,0.28335995,0.7538595147458942
0.07150000000000001,1.67219375,1.0,2618.6315620886103,0.5526371158112436,1.2770445914765405,0.9829429343439163,0.2832851375,0.7552496630535612
0.07200000000000001,1.6704,1.0,2616.6212485943265,0.5551464759182523,1.2762531702171034,0.9830577308051404,0.2832098,0.7566460011001279
0.0725,1.66859375,1.0,2614.622804153108,0.5576417547998467,1.2754560007357245,0.9831699850351792,0.2831339375,0.7580484427891598
0.073,1.6667750000000001,1.0,2612.636273332744,0.5601230316694825,1.274653082500157,0.9832797579872214,0.28305755,0.7594569013812563
0.0735,1.66494375,1.0,2610.661700685058,0.562590385740615,1.273844414978154,0.9833871086415543,0.2829806375,0.7608712894938539
0.074,1.6631,1.0,2608.6991307471317,0.5650438962266995,1.2730299976374688,0.9834920940808779,0.2829032,0.7622915191010324
0.0745,1.6612437500000001,1.0,2606.748608042475,0.5674836423411911,1.2722098299458544,0.9835947695622617,0.2828252375,0.7637175015333196
0.075,1.659375,1.0,2604.8101770824574,0.5699097032975453,1.2713839113710639,0.9836951885859151,0.28274675,0.7651491474774954
0.0755,1.65749375,1.0,2602.883882367355,0.5723221583092175,1.270552241380851,0.983793402960933,0.2826677375,0.7665863669763959
