Time [s],Phi [rad],STIM [ ],Fsee [N],Gamma [ ],Lcerel [ ],q [ ],Lmtc [m],fisomrel [ ]
0.0,1.8,1.0,18.38605099837243,0.0006594746122851017,1.3792930866065216,0.005112115621375758,0.288653,0.5412524057796484
0.0005,1.79999375,1.0,18.89535247013347,0.0062649847900761715,1.3792342442570387,0.014841506290418006,0.2886527375,0.541394732087987
0.001,1.799975,1.0,22.719203974325495,0.011839052487722929,1.378827265273815,0.039072900535827924,0.28865195,0.5423785174909523
0.0015,1.79994375,1.0,33.24282328393531,0.01738185407351731,1.3778641517984924,0.07529128441189965,0.2886506375,0.5447024323520595
0.002,1.7999,1.0,57.875622816342336,0.02289356492472569,1.3760949749089386,0.12023794225765654,0.2886488,0.5489558987507808
0.0025,1.79984375,1.0,104.01378510568114,0.028374359435276435,1.3736086174056874,0.17055848126704864,0.28864643749999996,0.554899875638427
0.003,1.7997750000000001,1.0,169.71682040404477,0.0338244110238923,1.3708908416228984,0.2234394782598637,0.28864354999999997,0.5613519885212312
0.0035,1.79969375,1.0,247.46360723106713,0.03924389213213478,1.3682865127740422,0.2767289069090545,0.2886401375,0.5674905756018342
0.004,1.7996,1.0,331.8061305671428,0.04463297423640177,1.3658844095123783,0.3288307695622044,0.2886362,0.5731141545783744
0.0045000000000000005,1.7994937500000001,1.0,419.9326875760082,0.04999182785150915,1.3636740774593172,0.37864446251967404,0.2886317375,0.5782562671687326
0.005,1.799375,1.0,510.2560986676503,0.05532062250266504,1.3616291752770107,0.42549279328984924,0.28862675,0.5829857767489448
0.0055,1.79924375,1.0,601.715611803785,0.06061952690639548,1.3597263610228671,0.46902776705219573,0.2886212375,0.5873627078611157
0.006,1.7991000000000001,1.0,693.431839709536,0.06588870859216205,1.3579488189363038,0.5091395036954812,0.2886152,0.5914306218817129
0.006500000000000001,1.79894375,1.0,784.7123018110576,0.07112833432616218,1.3562830030316098,0.5458774882859684,0.2886086375,0.5952245591542664
0.007,1.798775,1.0,874.9786283185929,0.07633856994496245,1.354718202684123,0.579391460539024,0.28860155,0.5987723108563314
0.0075,1.79859375,1.0,963.7382672968508,0.08151958012307763,1.3532457963328313,0.6098883003196333,0.2885939375,0.6020963245318365
0.008,1.7984,1.0,1050.6309397295981,0.08667152917957269,1.3518577762048196,0.6376016358149716,0.2885858,0.6052171725899205
0.0085,1.79819375,1.0,1135.3365277713765,0.09179457975201802,1.3505476770779885,0.6627729304329325,0.2885771375,0.6081515500485533
0.009000000000000001,1.797975,1.0,1217.6163240911853,0.09688889387949537,1.3493095414047487,0.6856385888064012,0.28856795,0.610914682026799
0.0095,1.79774375,1.0,1297.312829686659,0.10195463322566203,1.348137690890173,0.7064226239134949,0.2885582375,0.6135208806813086
0.01,1.7975,1.0,1374.2925067509527,0.10699195774927359,1.347027293830953,0.7253331455986398,0.288548,0.6159823256899406
0.0105,1.79724375,1.0,1448.4679257670957,0.11200102667976967,1.345973870284913,0.742560473655655,0.2885372375,0.6183102075257594
0.011,1.796975,1.0,1519.8025368467709,0.11698199855608986,1.3449731077455005,0.7582768479488127,0.28852595000000003,0.6205151624120259
0.0115,1.79669375,1.0,1588.2918311989472,0.12193503168886527,1.3440209958960405,0.772637143725244,0.2885141375,0.6226069973938025
0.012,1.7964,1.0,1653.9212097492903,0.12686028195845891,1.3431142255627482,0.7857801442706789,0.28850180000000003,0.6245938399760063
0.0125,1.79609375,1.0,1716.716232159735,0.13175790521507214,1.3422494947176222,0.7978295505611597,0.2884889375,0.6264836842013146
0.013000000000000001,1.7957750000000001,1.0,1776.7176862744172,0.13662805625530222,1.3414237479644127,0.8088955062227908,0.28847555,0.6282838785903484
0.0135,1.79544375,1.0,1834.009339918793,0.1414708907110123,1.340633812012383,0.8190758508426728,0.2884616375,0.6300019327612005
0.014,1.7951000000000001,1.0,1888.6321580464294,0.14628656066870646,1.3398773097337167,0.8284577954176037,0.2884472,0.6316435405872808
0.0145,1.79474375,1.0,1940.6452644539963,0.15107521796469606,1.3391519189679209,0.8371188407270387,0.2884322375,0.6332142087384467
0.015,1.794375,1.0,1990.1287854186592,0.1558370144352924,1.3384553175545033,0.8451278798688335,0.28841675,0.6347193814383939
0.0155,1.79399375,1.0,2037.162257672953,0.16057210065983665,1.3377853912290676,0.8525462739505345,0.2884007375,0.6361639970415363
0.016,1.7936,1.0,2081.850206279795,0.16528062796708082,1.3371399383608817,0.8594286472875109,0.2883842,0.6375531312564442
0.0165,1.7931937500000001,1.0,2124.2598757914616,0.16996274417772905,1.3365173008208502,0.8658238738406058,0.2883671375,0.6388906449242648
0.017,1.792775,1.0,2164.466599654289,0.17461859685137593,1.3359158610259436,0.8717756053322553,0.28834955,0.6401802752270374
0.0175,1.7923437500000001,1.0,2202.556617423328,0.17924833354761605,1.3353340013931323,0.8773228764367599,0.2883314375,0.6414257254772664
0.018000000000000002,1.7919,1.0,2238.6120697371257,0.18385210051358203,1.3347702455711783,0.8825006842531185,0.2883128,0.6426303656894548
0.0185,1.79144375,1.0,2272.732931322728,0.18843004535208044,1.3342230259157053,0.8873403992416236,0.2882936375,0.6437977326139981
0.019,1.790975,1.0,2304.9909059160964,0.19298231191652856,1.333691135283306,0.8918702951047044,0.28827395,0.6449305683461044
0.0195,1.79049375,1.0,2335.456989767662,0.19750904333185068,1.333173437055701,0.8961158310856677,0.2882537375,0.6460314440066675
0.02,1.79,1.0,2364.2079272045694,0.2020103827229711,1.3326687946146103,0.9000999543320493,0.288233,0.6471029116379536
0.0205,1.78949375,1.0,2391.3237055834147,0.20648647284484362,1.332176090952834,0.9038433857993885,0.2882117375,0.6481474636457099
0.021,1.788975,1.0,2416.878412397028,0.21093745525147153,1.3316943120570273,0.9073648845511133,0.28818995000000003,0.6491673576180339
0.021500000000000002,1.78844375,1.0,2440.9530374198075,0.21536347311456377,1.3312224172555591,0.9106814359861677,0.2881676375,0.6501648925618122
0.022,1.7879,1.0,2463.6058505241167,0.21976466475938036,1.3307596197897975,0.9138084971473096,0.2881448,0.6511418173358055
0.0225,1.78734375,1.0,2484.8981357542675,0.2241411685111814,1.3303051329011097,0.916760110236391,0.28812143749999997,0.6520998698315696
0.023,1.786775,1.0,2504.8939410257235,0.2284931226952269,1.3298581698308634,0.919549051703325,0.28809755,0.6530407774101827
0.0235,1.78619375,1.0,2523.6598415483154,0.23282066563677692,1.329417943820426,0.9221869638623609,0.28807313749999996,0.6539662572994981
0.024,1.7856,1.0,2541.252442078076,0.2371239326343411,1.3289837837438907,0.9246844906566721,0.2880482,0.6548777743416867
0.0245,1.78499375,1.0,2557.740324625847,0.24140306432388905,1.3285549241912245,0.9270513453638007,0.2880227375,0.655776982747764
0.025,1.784375,1.0,2573.172483276384,0.24565819509890902,1.3281308008020878,0.9292964487397632,0.28799675,0.6566651070311882
0.025500000000000002,1.78374375,1.0,2587.5945347273255,0.24988945790224626,1.3277108944476195,0.9314279823666314,0.2879702375,0.6575432706005779
0.026000000000000002,1.7831000000000001,1.0,2601.053386646439,0.2540969856767461,1.3272946859989587,0.9334534536093344,0.2879432,0.6584125909338107
0.0265,1.78244375,1.0,2613.5971271466706,0.25828091136525383,1.3268816563272443,0.9353797602732116,0.2879156375,0.6592741797090477
0.027,1.781775,1.0,2625.2749202362797,0.26244136791061473,1.3264712863036152,0.9372132482724043,0.28788755,0.660129142918568
0.0275,1.7810937500000001,1.0,2636.131627046008,0.26657848661686656,1.3260631056367542,0.9389597698144724,0.2878589375,0.6609784794085296
0.028,1.7804,1.0,2646.207867893583,0.2706923985159179,1.3256566909792633,0.9406247289678122,0.2878298,0.6618230855243514
0.0285,1.77969375,1.0,2655.5580226097145,0.2747832386403608,1.3252514989055262,0.9422130998687455,0.2878001375,0.6626641022312134
0.029,1.778975,1.0,2664.2131738555104,0.2788511339484247,1.3248472071993729,0.9437295088905557,0.28776995,0.6635022065521929
0.029500000000000002,1.7782437500000001,1.0,2672.2049265858727,0.28289621139833926,1.3244434936446332,0.9451782374508886,0.2877392375,0.6643380721672987
0.03,1.7775,1.0,2679.5653624388788,0.286918597948334,1.324040036025137,0.946563252144012,0.287708,0.6651723694286604
0.0305,1.77674375,1.0,2686.3269964276697,0.29091842055663863,1.323636512124714,0.9478882318833611,0.2876762375,0.6660057653691003
0.031,1.775975,1.0,2692.522735933605,0.2948958061814827,1.3232325997271943,0.9491565923834748,0.28764395,0.6668389237040797
0.0315,1.7751937500000001,1.0,2698.1858420016965,0.29885088178109576,1.3228279766164077,0.9503715082709719,0.2876111375,0.6676725048270284
0.032,1.7744,1.0,2703.3433442191476,0.302783770635704,1.322422380388806,0.9515359392512497,0.2875778,0.6685070428074493
0.0325,1.77359375,1.0,2708.0276133434195,0.3066946013561166,1.3220155022762812,0.9526526375997502,0.2875439375,0.6693431642020229
0.033,1.772775,1.0,2712.265130343751,0.31058349830955967,1.3216070894953775,0.9537241741705023,0.28750955,0.6701813775073733
0.0335,1.7719437500000002,1.0,2716.0772884938247,0.31445058243335944,1.3211969374789294,0.9547529521656603,0.2874746375,0.6710220897772854
0.034,1.7711000000000001,1.0,2719.485649221513,0.31829597466484194,1.3207848416597705,0.9557412158235397,0.2874392,0.6718657058715433
0.0345,1.7702437500000001,1.0,2722.5119248572537,0.3221197959413335,1.3203705974707356,0.9566910628075685,0.2874032375,0.6727126284319003
0.035,1.7693750000000001,1.0,2725.177962310351,0.3259221672001602,1.3199540003446586,0.9576044554913749,0.28736675,0.6735632578553897
0.035500000000000004,1.76849375,1.0,2727.505727673037,0.3297032093786483,1.3195348457143736,0.9584832312499084,0.2873297375,0.67441799226496
0.036000000000000004,1.7676,1.0,2729.517291751805,0.3334630434141239,1.3191129290127153,0.9593291118544804,0.2872922,0.6752772274774419
0.0365,1.76669375,1.0,2731.2224689294635,0.3372017782071801,1.3186881578719978,0.9601437207102305,0.2872541375,0.6761411289290582
0.037,1.765775,1.0,2732.655669748355,0.34091954986717393,1.3182602170798337,0.9609285653378641,0.28721555,0.6770103132152334
0.0375,1.76484375,1.0,2733.82990742463,0.34461647317505867,1.3178289864972303,0.9616850762370727,0.2871764375,0.6778849979022429
0.038,1.7639,1.0,2734.7575562170955,0.3482926622104432,1.3173943522374623,0.9624145985513288,0.28713679999999997,0.6787653863767913
0.0385,1.76294375,1.0,2735.4510334731453,0.35194823105293654,1.316956200413804,0.9631183976729845,0.28709663750000003,0.6796516805460604
0.039,1.761975,1.0,2735.9227941118506,0.3555832937821475,1.3165144171395302,0.9637976648354332,0.28705595,0.6805440808125749
0.0395,1.7609937500000001,1.0,2736.1853253965264,0.3591979644776851,1.316068888527915,0.9644535222551,0.2870147375,0.6814427860482412
0.04,1.76,1.0,2736.2511419929597,0.36279235721915815,1.3156195006922335,0.9650870278639175,0.286973,0.6823479935675549
0.0405,1.7589937500000001,1.0,2736.132781316589,0.36636658608617567,1.31516613974576,0.9656991796689164,0.2869307375,0.6832598990999876
0.041,1.757975,1.0,2735.84279916646,0.3699207651583465,1.3147086918017687,0.9662909197719224,0.28688795,0.6841786967615413
0.0415,1.75694375,1.0,2735.3937656470143,0.37345500851527963,1.3142470429735347,0.9668631380791468,0.2868446375,0.6851045790254766
0.042,1.7559,1.0,2734.795672140567,0.3769694245623934,1.3137811028867143,0.9674166767519382,0.28680079999999997,0.6860376896402972
0.0425,1.75484375,1.0,2734.058596683912,0.3804641271253111,1.3133107804562583,0.9679523331429398,0.2867564375,0.6869781723529667
0.043000000000000003,1.753775,1.0,2733.1939326943234,0.3839392339845554,1.3128359727009176,0.9684708614830245,0.28671155,0.687926193189639
0.043500000000000004,1.75269375,1.0,2732.208667424255,0.38739485204081325,1.3123566166910987,0.9689729774614991,0.28666613750000003,0.6888818367643177
0.044,1.7516,1.0,2731.109791448345,0.3908310881947718,1.3118726494972082,0.9694593591991194,0.2866202,0.6898451865293098
0.0445,1.75049375,1.0,2729.9042971778144,0.394248049347118,1.3113840081896526,0.9699306495879138,0.2865737375,0.6908163247568443
0.045,1.7493750000000001,1.0,2728.599177461128,0.39764584239853884,1.3108906298388385,0.9703874584630712,0.28652675,0.691795332520441
0.0455,1.74824375,1.0,2727.2014242731448,0.4010245742497214,1.3103924515151724,0.9708303646204758,0.2864792375,0.6927822896760248
0.046,1.7471,1.0,2725.718027492236,0.4043843518013525,1.3098894102890606,0.9712599176922448,0.2864312,0.693777274842788
0.0465,1.7459437500000001,1.0,2724.1559737645157,0.4077252819541194,1.3093814432309099,0.9716766398915366,0.28638263750000004,0.6947803653837987
0.047,1.744775,1.0,2722.5222454565605,0.4110474716087089,1.3088684874111265,0.9720810276369012,0.28633355,0.695791637386361
0.0475,1.74359375,1.0,2720.823819695903,0.4143510276658081,1.3083504799001173,0.9724735530655523,0.28628393750000003,0.6968111656421153
0.048,1.7424,1.0,2719.0601830947962,0.41763602700179236,1.3078274259291187,0.9728546664645892,0.2862338,0.6978388898145821
0.0485,1.74119375,1.0,2717.2440927469893,0.42090261195348444,1.3072992098622167,0.9732247963019329,0.2861831375,0.6988749860269684
0.049,1.739975,1.0,2715.3800327266713,0.42415088768487785,1.3067657913193955,0.9735843512169676,0.28613195,0.699919481110284
0.0495,1.73874375,1.0,2713.4709729093947,0.42738095267825804,1.306227143681911,0.9739337207581157,0.2860802375,0.7009723739554152
0.05,1.7375,1.0,2711.51988026528,0.43059290541591044,1.3056832403310186,0.9742732763340908,0.286028,0.7020336625660993
0.0505,1.73624375,1.0,2709.5297186208327,0.43378684438012044,1.305134054647974,0.9746033722183907,0.2859752375,0.7031033440500232
0.051000000000000004,1.734975,1.0,2707.503448437313,0.4369628680531736,1.3045795600140326,0.9749243464895065,0.28592195,0.7041814146098797
0.051500000000000004,1.73369375,1.0,2705.444026604292,0.44012107491735525,1.3040197298104503,0.9752365219114962,0.2858681375,0.7052678695343775
0.052000000000000005,1.7324,1.0,2703.354406248985,0.4432615634549509,1.3034545374184827,0.9755402067591942,0.2858138,0.706362703189205
0.0525,1.73109375,1.0,2701.2375365617527,0.4463844321482459,1.3028839562193852,0.975835695591992,0.28575893750000003,0.7074659090079514
0.053,1.729775,1.0,2699.0963626365283,0.44948977947952584,1.3023079595944136,0.9761232699798109,0.28570355000000003,0.7085774794829796
0.0535,1.72844375,1.0,2696.933825327701,0.4525777039310761,1.3017265209248232,0.9764031991846098,0.2856476375,0.7096974061562571
0.054,1.7271,1.0,2694.7528611221933,0.4556483039851821,1.30113961359187,0.9766757408005035,0.2855912,0.7108256796101378
0.0545,1.7257437500000001,1.0,2692.5564020275688,0.4587016781241293,1.3005472109768093,0.9769411413553374,0.2855342375,0.7119622894581037
0.055,1.724375,1.0,2690.34737547553,0.46173792483020315,1.2999492864608968,0.977199636876343,0.28547675,0.7131072243354556
0.0555,1.72299375,1.0,2688.128704241543,0.46475714258568906,1.2993458134253884,0.9774514534222981,0.2854187375,0.7142604718899637
0.056,1.7216,1.0,2685.9035766041634,0.46775942961163436,1.2987367627754483,0.9776968074152811,0.2853602,0.7154220234899412
0.0565,1.72019375,1.0,2683.673718668183,0.4707448783848095,1.298122118771999,0.9779359065382963,0.28530113749999997,0.7165918440653514
0.057,1.718775,1.0,2681.4383278698897,0.47371358131263214,1.2975018888397123,0.9781689512563281,0.28524155,0.7177698537525621
0.0575,1.71734375,1.0,2679.198404480315,0.4766656319665858,1.296876063875631,0.97839613302451,0.2851814375,0.7189560035003582
0.058,1.7159,1.0,2676.948970430966,0.47960112363218194,1.296244689633353,0.9786176386117411,0.2851208,0.7201501398725713
0.0585,1.71444375,1.0,2674.700741546324,0.48252014961764994,1.2956076678381314,0.978833639275055,0.2850596375,0.7213523811074649
0.059000000000000004,1.7129750000000001,1.0,2672.474016039139,0.485422802909759,1.294964812025414,0.9790442945463266,0.28499795,0.7225630091416204
0.059500000000000004,1.71149375,1.0,2670.245489144234,0.4883091745072487,1.2943163361276042,0.9792497793617543,0.2849357375,0.7237815506646145
0.06,1.7100048640776215,1.0,2668.230830942721,0.4911793554088588,1.2936624540771051,0.9794502618397749,0.2848732042912601,0.7250075352851153
0.0605,1.708515891404611,1.0,2666.77726695802,0.4940334366133291,1.2930033798063199,0.9796459036053182,0.28481066743899364,0.7262404956061017
0.061,1.7070269187316005,1.0,2665.863063781434,0.4968715084077264,1.2923393481717211,0.9798368611540563,0.2847481305867272,0.727479928286139
0.0615,1.70553794605859,1.0,2665.4315729326395,0.49969366160638207,1.291670877685503,0.9800233000631683,0.2846855937344608,0.728724805835996
0.062,1.7040489733855795,1.0,2665.4442121882735,0.5024999850893613,1.2909983221553538,0.9802053709741713,0.28462305688219436,0.7299744148685234
0.0625,1.7025600007125692,1.0,2665.867966331341,0.5052905670305649,1.2903219852656318,0.980383216295388,0.28456052002992793,0.7312281405338721
0.063,1.7010710280395587,1.0,2666.669910050859,0.5080654956038934,1.289642170700696,0.9805569732039823,0.28449798317766145,0.7324853729330003
0.0635,1.6995820553665482,1.0,2667.8173134690014,0.5108248589407645,1.2889591809499976,0.9807267738213564,0.284435446325395,0.733745509390008
0.064,1.6980930826935376,1.0,2669.290427037859,0.5135687412006734,1.2882731995905266,0.9808927391954727,0.28437290947312854,0.7350081709114811
0.0645,1.6966041100205271,1.0,2671.0427100453144,0.5162972360906093,1.287584656738058,0.9810549991039783,0.2843103726208621,0.7362725293649661
0.065,1.6951151373475168,1.0,2673.056478302414,0.519010428026662,1.2868937173432287,0.9812136648762053,0.2842478357685957,0.7375382491995652
0.0655,1.6936261646745063,1.0,2675.314060572117,0.5217084014249214,1.2862005463566748,0.9813688439156517,0.28418529891632927,0.738804997656699
0.066,1.6921371920014958,1.0,2677.79779010612,0.5243912407014777,1.285505308729033,0.9815206398709002,0.28412276206406284,0.7400724447944502
0.0665,1.6906482193284853,1.0,2680.4899967852234,0.5270590302724207,1.2848081694109392,0.9816691527979693,0.2840602252117964,0.7413402635101713
0.067,1.689159246655475,1.0,2683.3729998626413,0.5297118545538405,1.2841092933530305,0.981814479314581,0.28399768835952993,0.7426081295613574
0.0675,1.6876702739824645,1.0,2686.4291013111474,0.532349797961827,1.283408845505943,0.9819567127467971,0.2839351515072635,0.7438757215847851
0.068,1.686181301309454,1.0,2689.6405797726375,0.5349729449124703,1.2827069908203128,0.9820959432684512,0.2838726146549971,0.7451427211139146
0.0685,1.6846923286364435,1.0,2692.998384097085,0.5375813747625467,1.2820038146421535,0.9822322539373913,0.2838100778027306,0.7464089557629908
0.069,1.6832033559634332,1.0,2696.481265284662,0.5401751767407045,1.2812995137661554,0.9823657309094609,0.28374754095046417,0.7476740547032034
0.0695,1.6817143832904227,1.0,2700.0792016218443,0.54275443219258,1.2805941819590707,0.9824964521987744,0.28368500409819775,0.748937834983163
0.07,1.6802254106174122,1.0,2703.7842553563023,0.5453192210486228,1.2798878937742098,0.9826244922779144,0.2836224672459313,0.7502001496129996
0.07050000000000001,1.6787364379444016,1.0,2707.5884727676894,0.5478696232392828,1.2791807237648827,0.9827499231891125,0.2835599303936649,0.7514608529276667
0.07100000000000001,1.6772474652713911,1.0,2711.483882648308,0.5504057186950093,1.2784727464843992,0.9828728146418173,0.2834973935413984,0.7527198005913123
0.07150000000000001,1.6757584925983808,1.0,2715.462494907399,0.5529275873462521,1.2777640364860698,0.9829932341057412,0.283434856689132,0.7539768496012923
0.07200000000000001,1.6742695199253703,1.0,2719.5162992978494,0.5554353091234607,1.2770546683232045,0.9831112468996192,0.28337231983686556,0.755231858291834
0.0725,1.6727805472523598,1.0,2723.6372642670485,0.5579289639570848,1.276344716549113,0.9832269162759024,0.2833097829845991,0.7564846863373417
0.073,1.6712915745793495,1.0,2727.817335930652,0.5604086317775739,1.2756342557171059,0.9833403035016068,0.28324724613233265,0.7577351947553479
0.0735,1.669802601906339,1.0,2732.05514777342,0.5628743825914694,1.2749232994121287,0.9834514646595697,0.2831847092800662,0.7589833528072355
