Time [s],Phi [rad],STIM [ ],Fsee [N],Gamma [ ],Lcerel [ ],q [ ],Lmtc [m],fisomrel [ ]
0.0,1.8,1.0,17.975715983258695,8.98177237055432e-05,1.3793387875723049,0.005002113124266112,0.288653,0.5411418502652224
0.0005,1.79999375,1.0,18.31143237823471,0.005698523226122449,1.3792985364286745,0.013163587036566126,0.2886527375,0.5412392227776323
0.001,1.799975,1.0,21.712347729071094,0.011275768325206435,1.3789287152585954,0.036025704409813265,0.28865195,0.5421333825014998
0.0015,1.79994375,1.0,31.29002177500729,0.01682172948986851,1.3780274268387138,0.07117191471686139,0.2886506375,0.5443088793294033
0.002,1.7999,1.0,54.05606821916289,0.022336582197260122,1.3763374693611858,0.11539265692751825,0.2886488,0.548374072560008
0.0025,1.79984375,1.0,97.91335617059538,0.027820500940859708,1.3738969640918783,0.16530852633057722,0.28864643749999996,0.5542125645499894
0.003,1.7997750000000001,1.0,161.99080965889357,0.03327365923746697,1.3711757527492063,0.21803713041774117,0.28864354999999997,0.5606778079434314
0.0035,1.79969375,1.0,238.8495057965758,0.03869622962738077,1.3685488569346824,0.27136537093725926,0.2886401375,0.5668741710846269
0.004,1.7996,1.0,322.70710315898,0.044088383685013326,1.3661232723710595,0.32364432979484764,0.2886362,0.5725565989423055
0.0045000000000000005,1.7994937500000001,1.0,410.5518925438168,0.04945029202412504,1.363892694073016,0.3737260167389848,0.2886317375,0.577749066327431
0.005,1.799375,1.0,500.72360109575396,0.05478212428934006,1.3618305211295787,0.42089438201875273,0.28862675,0.5825212818211017
0.0055,1.79924375,1.0,592.1118348924356,0.06008404919929633,1.3599130321598163,0.4647726246251695,0.2886212375,0.586934340821196
0.006,1.7991000000000001,1.0,683.8407320387925,0.0653562345001285,1.358122384604948,0.5052303584628908,0.2886152,0.5910343037144954
0.006500000000000001,1.79894375,1.0,775.1959105650819,0.07059884701189702,1.3564448211559585,0.5423039991935481,0.2886086375,0.5948567904052829
0.007,1.798775,1.0,865.5716581859809,0.07581205239707255,1.354869632166981,0.5761355141599386,0.28860155,0.5984296688956363
0.0075,1.79859375,1.0,954.5220386053354,0.08099601629407845,1.3533871161613356,0.6069269973692577,0.2885939375,0.601777889448899
0.008,1.7984,1.0,1041.6165557568806,0.08615090209710011,1.3519901289362353,0.6349109742538185,0.2885858,0.6049201184038664
0.0085,1.79819375,1.0,1126.5381123544287,0.09127687281964027,1.350671920497254,0.6603286847121278,0.2885771375,0.6078737378021928
0.009000000000000001,1.797975,1.0,1209.070054038302,0.09637409097548705,1.3494260539889944,0.6834171918122223,0.28856795,0.6106550790614809
0.0095,1.79774375,1.0,1289.0287344401358,0.10144271797023732,1.3482470878056103,0.704402135476021,0.2885582375,0.6132779522796925
0.01,1.7975,1.0,1366.2743944669992,0.10648291378362158,1.3471301557849746,0.7234933603089377,0.288548,0.6157546394920257
0.0105,1.79724375,1.0,1440.7173465571852,0.1114948376656642,1.3460707090470725,0.7408829903051816,0.2885372375,0.6180965061851291
0.011,1.796975,1.0,1512.3443981799512,0.11647864948786615,1.3450640693341338,0.7567449089984195,0.28852595000000003,0.6203150129291075
0.0115,1.79669375,1.0,1581.1139888851387,0.12143450606073893,1.3441066222875202,0.7712359109376026,0.2885141375,0.6224191087304654
0.012,1.7964,1.0,1647.0167197618332,0.12636256370244076,1.3431949333682236,0.7844963183624871,0.28850180000000003,0.6244172120866727
0.0125,1.79609375,1.0,1710.0840422877409,0.13126297864341765,1.342325582536316,0.7966512407749341,0.2884889375,0.6263175878226144
0.013000000000000001,1.7957750000000001,1.0,1770.3686533466612,0.1361359062661163,1.3414953415723965,0.8078120722243404,0.28847555,0.6281279709322458
0.0135,1.79544375,1.0,1827.924987636719,0.14098150116411395,1.3407013365473042,0.8180779532902659,0.2884616375,0.6298552272795936
0.014,1.7951000000000001,1.0,1882.7987291637537,0.14579991580823656,1.3399411027793062,0.8275371060033206,0.2884472,0.6315052507690981
0.0145,1.79474375,1.0,1935.059564329753,0.15059130266930992,1.33921217558667,0.8362679086287836,0.2884322375,0.6330838645846881
0.015,1.794375,1.0,1984.7780702967766,0.1553558129855032,1.3385123144006805,0.8443401062587668,0.28841675,0.6345963424716035
0.0155,1.79399375,1.0,2032.0636597138891,0.16009359953557037,1.3378390693529092,0.8518156777877762,0.2884007375,0.6360483521006385
0.016,1.7936,1.0,2076.9822169429053,0.16480481108790968,1.3371906335045236,0.8587500200935417,0.2883842,0.63744412205618
0.0165,1.7931937500000001,1.0,2119.605295545545,0.16948959588788018,1.3365652854534944,0.8651925495937687,0.2883671375,0.638787655062525
0.017,1.792775,1.0,2160.0169122396082,0.17414810218084095,1.3359613037977927,0.871187385120283,0.28834955,0.6400829156584416
0.0175,1.7923437500000001,1.0,2198.3065946511156,0.17878047757275628,1.335377026776489,0.8767739902098006,0.2883314375,0.6413337050719456
0.018000000000000002,1.7919,1.0,2234.566751970623,0.183386869616667,1.3348108662271205,0.8819877240424884,0.2883128,0.6425436347456799
0.0185,1.79144375,1.0,2268.8801702844085,0.1879674243839826,1.334261420451514,0.8868603476279752,0.2882936375,0.6437158890233935
0.019,1.790975,1.0,2301.3163059236904,0.1925222855897555,1.333727496301048,0.8914204425521007,0.28827395,0.6448531830760014
0.0195,1.79049375,1.0,2331.951120137245,0.1970515969490383,1.333207900627101,0.8956937241960032,0.2882537375,0.6459582109683675
0.02,1.79,1.0,2360.8665349289636,0.20155550217688334,1.332701440281052,0.8997033671612858,0.288233,0.6470336467950051
0.0205,1.78949375,1.0,2388.112650823774,0.2060341429464102,1.3322072842850676,0.9034703717055926,0.2882117375,0.6480813784054218
0.021,1.788975,1.0,2413.836847860599,0.21048766407163097,1.33172370165962,0.9070135256831597,0.28818995000000003,0.6491051841748707
0.021500000000000002,1.78844375,1.0,2438.0847926639585,0.21491620530026953,1.3312499945407335,0.9103500649192992,0.2881676375,0.6501066362141712
0.022,1.7879021154283228,1.0,2460.985347942783,0.21931990548334931,1.3307856536638112,0.913495658411467,0.28814488884798956,0.6510868983743787
0.0225,1.7873593876843739,1.0,2483.011683965352,0.22369890347189386,1.3303301697642567,0.9164645367923561,0.2881220942827437,0.6520471267331549
0.023,1.7868166599404247,1.0,2504.25640478319,0.2280533381169266,1.3298830335774732,0.9192696442138697,0.2880992997174978,0.6529884698907007
0.0235,1.7862739321964758,1.0,2524.7610452508166,0.23238334799050883,1.3294437465362836,0.9219227742627614,0.28807650515225197,0.6539120467733959
0.024,1.7857312044525266,1.0,2544.548946841949,0.2366890704891181,1.329011993458137,0.9244347194022908,0.28805371058700613,0.6548185846961186
0.0245,1.7851884767085777,1.0,2563.641048704032,0.24097064160836112,1.328587490227132,0.9268153439015248,0.28803091602176023,0.6557087412826355
0.025,1.7846457489646286,1.0,2582.0615617544863,0.24522819617548267,1.3281699297297072,0.92907366740617,0.2880081214565144,0.656583218179844
0.025500000000000002,1.7841030212206797,1.0,2599.8354969024367,0.24946186901772754,1.3277590048523016,0.9312179530922293,0.28798532689126854,0.6574427128132301
0.026000000000000002,1.7835602934767305,1.0,2616.973789702055,0.25367178369435295,1.3273545461396514,0.9332557984477473,0.28796253232602265,0.6582876311278789
0.0265,1.7830175657327816,1.0,2633.5256889478896,0.2578580921678953,1.3269560344286264,0.9351941398425918,0.2879397377607768,0.6591191057101622
0.027,1.7824748379888324,1.0,2649.5111969097798,0.26202092473104216,1.3265632291967786,0.9370393909282512,0.28791694319553096,0.6599376828334574
0.0275,1.7819321102448833,1.0,2664.948416475729,0.26616040988394163,1.3261759123421053,0.9387974608767868,0.28789414863028506,0.6607438590809798
0.028,1.7813893825009344,1.0,2679.855931383366,0.2702766761267419,1.3257938657626034,0.9404737983437017,0.2878713540650392,0.6615381282890904
0.0285,1.7808466547569852,1.0,2694.2527802066948,0.2743698519595911,1.3254168713562704,0.9420734334071191,0.2878485594997934,0.6623209816221192
0.029,1.7803039270130363,1.0,2708.158431398764,0.2784400658826374,1.3250447110211032,0.9436010151828862,0.28782576493454753,0.6630929076441566
0.029500000000000002,1.7797611992690872,1.0,2721.592759388234,0.28248744639602896,1.324677166655099,0.9450608456084899,0.2878029703693017,0.6638543923878097
0.03,1.7792184715251382,1.0,2734.576021730761,0.2865121219999139,1.3243140201562547,0.9464569098277388,0.2877801758040558,0.664605919419925
0.0305,1.778675743781189,1.0,2747.128837315382,0.2905142211944404,1.323955053422568,0.9477929035552785,0.28775738123880995,0.6653479699042767
0.031,1.7781330160372402,1.0,2759.272165625033,0.29449387247975667,1.3236000483520354,0.9490722577540116,0.2877345866735641,0.6660810226612257
0.0315,1.777590288293291,1.0,2771.0195332187873,0.2984511967524326,1.3232488567920135,0.9502981672454937,0.2877117921083182,0.6668054100212255
0.032,1.777047560549342,1.0,2782.3929966723495,0.30238632577053426,1.322901255944428,0.9514735982931312,0.28768899754307237,0.6675216164206347
0.0325,1.776504832805393,1.0,2793.412267916524,0.3062993883937782,1.3225570467010355,0.9526013149851635,0.2876662029778265,0.6682300753300575
0.033,1.775962105061444,1.0,2804.0893938018785,0.3101905052353321,1.3222161009765292,0.9536838996276784,0.2876434084125806,0.6689310722942703
0.0335,1.7754193773174949,1.0,2814.436602782405,0.3140597969083636,1.3218782906856028,0.9547237614275421,0.2876206138473348,0.6696248915348042
0.034,1.774876649573546,1.0,2824.466295829041,0.3179073840260404,1.3215434877429493,0.9557231501674792,0.28759781928208894,0.6703118159760837
0.0345,1.7743339218295968,1.0,2834.191037707559,0.3217333872015301,1.321211564063262,0.9566841686469368,0.28757502471684304,0.6709921272705132
0.035,1.7737911940856477,1.0,2843.6235486203764,0.3255379270480005,1.3208823915612347,0.9576087840131307,0.2875522301515972,0.6716661058225206
0.035500000000000004,1.7732484663416987,1.0,2852.7766962111273,0.32932112417861914,1.3205558421515602,0.9584988380929113,0.28752943558635136,0.6723340308115562
0.036000000000000004,1.7727057385977496,1.0,2861.66348793412,0.33308309920655377,1.3202317877489318,0.959356056823981,0.28750664102110546,0.6729961802140405
0.0365,1.7721630108538007,1.0,2870.2970637868348,0.33682397274497194,1.3199101002680433,0.960182058873303,0.2874838464558596,0.673652830824268
0.037,1.7716202831098515,1.0,2878.6867530705617,0.34054385903297024,1.3195906864639102,0.9609783655814169,0.2874610518906138,0.6743041872625213
0.0375,1.7710775553659026,1.0,2886.8434309125337,0.34424287717754515,1.3192734402843818,0.9617464058166965,0.2874382573253679,0.6749504793653549
0.038,1.7705348276219535,1.0,2894.7833857030373,0.3479211555400272,1.3189582087820875,0.9624875202089905,0.28741546276012203,0.6755920314111044
0.0385,1.7699920998780045,1.0,2902.513803913967,0.3515788069342561,1.318644920327875,0.9632029744214179,0.2873926681948762,0.6762290011136551
0.039,1.7694493721340554,1.0,2910.041941072828,0.35521594417407143,1.3183335032925927,0.9638939600270373,0.2873698736296303,0.6768615455403855
0.0395,1.7689066443901065,1.0,2917.375118734148,0.3588326800733128,1.3180238860470883,0.9645615996481494,0.2873470790643845,0.677489821120882
0.04,1.7683639166461573,1.0,2924.520721563389,0.3624291274458199,1.3177159969622103,0.9652069516861356,0.2873242844991386,0.6781139836553214
0.0405,1.7678211889022082,1.0,2931.4861945365146,0.3660053991054323,1.3174097644088067,0.9658310146784672,0.2873014899338927,0.6787341883225313
0.041,1.7672784611582593,1.0,2938.2790402520613,0.3695616078659896,1.3171051167577255,0.966434731315912,0.2872786953686469,0.679350589687721
0.0415,1.7667357334143101,1.0,2944.9068163565557,0.37309786654133154,1.3168019823798145,0.9670189921497188,0.287255900803401,0.6799633417098843
0.042,1.7661930056703612,1.0,2951.3771330853515,0.37661428794529767,1.3165002896459224,0.9675846390156889,0.2872331062381552,0.6805725977488752
0.0425,1.765650277926412,1.0,2957.697650915763,0.38011098489172757,1.3161999669268967,0.9681324681994564,0.28721031167290934,0.6811785105721603
0.043000000000000003,1.7651075501824631,1.0,2963.8760783341927,0.383588070194461,1.315900942593586,0.9686632333649832,0.28718751710766344,0.6817812323612371
0.043500000000000004,1.764564822438514,1.0,2969.911767700979,0.38704563376457485,1.315603218231632,0.969177650550176,0.2871647225424176,0.6823807673527963
0.044,1.764022094694565,1.0,2975.820389321995,0.3904838161677359,1.3153066534651097,0.9696763948956086,0.28714192797717175,0.6829774052316111
0.0445,1.763479366950616,1.0,2981.605873053777,0.39390272210392396,1.3150112106646064,0.9701601090469135,0.28711913341192585,0.6835712281748054
0.045,1.762936639206667,1.0,2987.272135338429,0.39730245615840465,1.3147168525376303,0.9706294027154869,0.28709633884668,0.684162317375024
0.0455,1.7623939114627178,1.0,2992.8231169163296,0.4006831229164439,1.314423541791689,0.9710848546790386,0.28707354428143417,0.6847507537218432
0.046,1.761851183718769,1.0,2998.262781944569,0.4040448269633075,1.3141312411342907,0.9715270146498337,0.28705074971618827,0.6853366178043052
0.0465,1.7613084559748198,1.0,3003.59511714691,0.4073876728842613,1.3138399132729432,0.9719564050127896,0.2870279551509424,0.6859199899133657
0.047,1.7607657282308709,1.0,3008.8241309932773,0.4107117652645711,1.3135495209151546,0.9723735224436502,0.2870051605856966,0.6865009500442507
0.0475,1.7602230004869217,1.0,3013.9538529112824,0.41401720868950276,1.3132600267684331,0.9727788394165765,0.2869823660204507,0.6870795778987263
0.048,1.7596802727429726,1.0,3018.9883325282754,0.41730410774432214,1.3129713935402865,0.9731728056096755,0.28695957145520484,0.6876559528872804
0.0485,1.7591375449990236,1.0,3023.9316389437527,0.420572567014295,1.3126835839382227,0.9735558492162737,0.286936776889959,0.6882301541312131
0.049,1.7585948172550745,1.0,3028.7878600329705,0.4238226910846872,1.3123965606697496,0.9739283781690689,0.2869139823247131,0.6888022604646411
0.0495,1.7580520895111256,1.0,3033.561101781711,0.4270545845407646,1.3121102864423755,0.9742907812836963,0.28689118775946726,0.6893723504364104
0.05,1.7575093617671764,1.0,3038.2554876510817,0.430268351967793,1.311824723963608,0.9746434293277066,0.2868683931942214,0.6899405023119249
0.0505,1.7569666340232275,1.0,3042.8701073861503,0.43346406990888386,1.3115398794207422,0.9749866756998173,0.2868455986289755,0.6905067076865734
0.051000000000000004,1.7564239062792784,1.0,3047.412861964479,0.43664187116699305,1.3112556832134714,0.9753208591172301,0.2868228040637297,0.6910711086330201
0.051500000000000004,1.7558811785353294,1.0,3051.8873056461475,0.4398018612506483,1.3109721033397117,0.9756463023531969,0.28680000949848383,0.6916337721443739
0.052000000000000005,1.7553384507913803,1.0,3056.2953629558815,0.44294413591080223,1.310689121912974,0.9759633135958097,0.286777214933238,0.6921947370055652
0.0525,1.7547957230474314,1.0,3060.638966857089,0.44606879089840734,1.3104067210467698,0.9762721874037624,0.28675442036799215,0.6927540418654108
0.053,1.7542529953034822,1.0,3064.9200585185354,0.44917592196441636,1.3101248828546102,0.9765732054266373,0.28673162580274625,0.6933117252372907
0.0535,1.7537102675595333,1.0,3069.1405870873077,0.45226562485978183,1.3098435894500065,0.9768666370811454,0.2867088312375004,0.6938678254997954
0.054,1.7531675398155842,1.0,3073.302509469499,0.4553379953354564,1.30956282294647,0.9771527401863737,0.28668603667225456,0.6944223808973613
0.0545,1.752624812071635,1.0,3077.4077901173987,0.45839312914239266,1.3092825654575115,0.977431761560847,0.28666324210700866,0.6949754295408803
0.055,1.752082084327686,1.0,3081.4584008244638,0.4614311220315432,1.3090027990966426,0.977703937584005,0.2866404475417628,0.6955270094082906
0.0555,1.751539356583737,1.0,3085.4563205265895,0.46445206975386066,1.3087235059773745,0.9779694947244946,0.286617652976517,0.6960771583451467
0.056,1.750996628839788,1.0,3089.40353511117,0.4674560680602976,1.308444668213218,0.9782286500374974,0.2865948584112711,0.6966259140651717
0.0565,1.7504539010958389,1.0,3093.302037233039,0.47044321270180667,1.3081662679176849,0.9784816116331506,0.28657206384602524,0.6971733141507834
0.057,1.74991117335189,1.0,3097.1538261371547,0.4734135994293405,1.3078882872042858,0.9787285791179595,0.2865492692807794,0.6977193960536072
0.0575,1.7493684456079408,1.0,3100.960907488664,0.4763673239938517,1.3076107081865325,0.9789697440109723,0.2865264747155335,0.6982641970949617
0.058,1.7488257178639919,1.0,3104.7252932105766,0.4793044821462928,1.3073335129779358,0.9792052901363452,0.28650368015028765,0.6988077544663297
0.0585,1.7482829901200427,1.0,3108.448533966513,0.4822251634503592,1.3070566876727834,0.9794353936930688,0.2864808855850418,0.699350097434371
0.059000000000000004,1.7477402623760938,1.0,3112.1285981599935,0.48512941512662194,1.3067802489006957,0.9796602220908185,0.2864580910197959,0.6998911954222806
0.059500000000000004,1.7471975346321447,1.0,3115.772051561025,0.4880174014895164,1.3065041401176136,0.9798799418490559,0.28643529645455007,0.7004311610037062
0.06,1.7466548068881957,1.0,3119.379735457631,0.49088920850431933,1.306228353591728,0.9800947092119286,0.2864125018893042,0.7009700110220012
0.0605,1.7461120791442466,1.0,3122.952493943723,0.4937449221363075,1.3059528815912311,0.9803046744184307,0.28638970732405833,0.701507762264101
0.061,1.7455693514002975,1.0,3126.4911738646947,0.4965846283507576,1.3056777163843138,0.9805099819792606,0.2863669127588125,0.7020444314606855
0.0615,1.7450266236563485,1.0,3129.9966247639572,0.4994084131129464,1.3054028502391677,0.9807107709388752,0.28634411819356664,0.7025800352863282
0.062,1.7444838959123994,1.0,3133.469698830938,0.5022163623881507,1.3051282754239844,0.9809071751236376,0.28632132362832075,0.7031145903596465
0.0625,1.7439411681684505,1.0,3136.9112508508993,0.5050085621416471,1.304853984206955,0.9810993233768931,0.2862985290630749,0.7036481132434489
0.063,1.7433984404245013,1.0,3140.322138155131,0.5077850983387124,1.3045799688562716,0.9812873397817592,0.28627573449782906,0.7041806204448745
0.0635,1.7428557126805524,1.0,3143.7032205734217,0.5105460569446233,1.3043062216401249,0.9814713438723531,0.2862529399325832,0.7047121284155331
0.064,1.7423129849366032,1.0,3147.055360387075,0.5132915239246566,1.3040327348267067,0.9816514508341437,0.2862301453673373,0.7052426535516374
0.0645,1.7417702571926543,1.0,3150.379422283998,0.5160215852440889,1.3037595006842084,0.9818277716940581,0.2862073508020915,0.7057722121941339
0.065,1.7412275294487052,1.0,3153.676273314334,0.5187363268681972,1.3034865114808216,0.9820004135009394,0.28618455623684563,0.7063008206288302
0.0655,1.7406848017047563,1.0,3156.9467828480615,0.521435834762258,1.3032137594847377,0.9821694794969147,0.2861617616715998,0.7068284950865167
0.066,1.7401420739608071,1.0,3160.19182253345,0.524120194891548,1.3029412369641482,0.9823350692801885,0.2861389671063539,0.7073552517430861
0.0665,1.7395993462168582,1.0,3163.4122662575596,0.5267894932213442,1.3026689361872443,0.9824972789597509,0.28611617254110805,0.7078811067196487
0.067,1.739056618472909,1.0,3166.608990106927,0.529443815716923,1.3023968494222176,0.9826562013024587,0.2860933779758622,0.7084060760826425
0.0675,1.73851389072896,1.0,3169.7828723304297,0.5320832483435614,1.3021249689372596,0.9828119258729118,0.2860705834106163,0.708930175843941
0.068,1.737971162985011,1.0,3172.9347933036456,0.534707877066536,1.3018532870005617,0.9829645391665303,0.28604778884537047,0.7094534219609583
0.0685,1.7374284352410618,1.0,3176.0656354935586,0.5373177878511236,1.3015817958803155,0.9831141247362062,0.2860249942801246,0.7099758303367465
0.069,1.736885707497113,1.0,3179.175761720374,0.5399130507279837,1.301310492238663,0.9832607625390453,0.2860021997148787,0.7104974083765774
0.0695,1.7363429797531638,1.0,3182.264766563906,0.5424937224141354,1.3010393792134696,0.9834045293549654,0.2859794051496329,0.7110181510292375
0.07,1.7358002520092148,1.0,3185.3349192252795,0.5450599422354019,1.3007684374338726,0.9835455033497628,0.28595661058438704,0.7115380964400084
