Time [s],Phi [rad],STIM [ ],Fsee [N],Gamma [ ],Lcerel [ ],q [ ],Lmtc [m],fisomrel [ ]
0.0,1.8,1.0,17.967881469012582,1.211981159308612e-05,1.3793396651865868,0.0050000390893868586,0.288653,0.5411397270922456
0.0005,1.79999375,1.0,18.277860656330425,0.0056212611378297535,1.3793022637688412,0.012946399136145554,0.2886527375,0.541230206313241
0.001,1.799975,1.0,21.621020281907754,0.011198939616138357,1.3789380326150928,0.0356196205224604,0.28865195,0.5421108655542183
0.0015,1.79994375,1.0,31.075131781511754,0.016745331729081346,1.3780457014528267,0.07061682180614433,0.2886506375,0.5442648201946437
0.002,1.7999,1.0,53.59472284076372,0.022260612967568323,1.3763673315016898,0.1147357397379189,0.2886488,0.5483023972522231
0.0025,1.79984375,1.0,97.13942367395367,0.027744957838430777,1.373934180138844,0.1645941523667362,0.28864643749999996,0.5541238167215897
0.003,1.7997750000000001,1.0,160.98484402070372,0.03319853987212329,1.3712133452446644,0.217300324187787,0.28864354999999997,0.5605888147712551
0.0035,1.79969375,1.0,237.7134782782589,0.0386215316223277,1.368583805663403,0.27063265259074126,0.2886401375,0.5667920223299834
0.004,1.7996,1.0,321.49886077028134,0.04401410467673205,1.3661552424909045,0.3229349395798306,0.2886362,0.5724819464171778
0.0045000000000000005,1.7994937500000001,1.0,409.3010099819376,0.04937642966221614,1.3639220334624145,0.37305267538665826,0.2886317375,0.5776809743640985
0.005,1.799375,1.0,499.44745068632744,0.05470867623594217,1.3618576209983706,0.4202644591701632,0.28862675,0.5824587440223201
0.0055,1.79924375,1.0,590.8246887294889,0.06001101313276437,1.3599381654639178,0.46418943709082333,0.2886212375,0.586876648732364
0.006,1.7991000000000001,1.0,682.5524351621334,0.06528360810853678,1.3581457907847692,0.5046944270322626,0.2886152,0.5909808435687256
0.006500000000000001,1.79894375,1.0,773.8984338683041,0.07052662775231966,1.3564669604131896,0.5418141704759843,0.2886086375,0.594806460885783
0.007,1.798775,1.0,864.3264995807762,0.07574023875422627,1.354889737756435,0.5756887660021417,0.28860155,0.5983841646529616
0.0075,1.79859375,1.0,953.2907337158973,0.08092460532050982,1.3534060483196104,0.6065207467561273,0.2885939375,0.6017352200609605
0.008,1.7984,1.0,1040.3921728071343,0.08607989141192263,1.3520081499158287,0.6345420129839763,0.2885858,0.60487966324246
0.0085,1.79819375,1.0,1125.35131259248,0.09120626058563695,1.350688716514457,0.6599934470103903,0.2885771375,0.6078361738183764
0.009000000000000001,1.797975,1.0,1207.9157974124696,0.09630387488587099,1.3494418216658337,0.6831125396962463,0.28856795,0.6106199402769887
0.0095,1.79774375,1.0,1287.9045461162002,0.10137289553075401,1.3482619605073758,0.7041250889607176,0.2885582375,0.6132449198455326
0.01,1.7975,1.0,1365.191238882105,0.10641348308912466,1.3471440743786736,0.7232410764171313,0.288548,0.6157238253309119
0.0105,1.79724375,1.0,1439.6864056008098,0.11142579702392483,1.3460836096346722,0.7406528830812058,0.2885372375,0.6180680329790683
0.011,1.796975,1.0,1511.3364589431399,0.116409995629635,1.3450763796375809,0.7565348781871443,0.28852595000000003,0.620287921607845
0.0115,1.79669375,1.0,1580.1174619516562,0.12136623628678472,1.3441185254750363,0.771043960895522,0.2885141375,0.6223929860487463
0.012,1.7964,1.0,1646.0708714432212,0.12629467747069797,1.343206002721174,0.7843204034127573,0.28850180000000003,0.6243929837249792
0.0125,1.79609375,1.0,1709.195673067427,0.13119547401684284,1.3423357855523135,0.7964897039467373,0.2884889375,0.62629531227768
0.013000000000000001,1.7957750000000001,1.0,1769.5173454706296,0.13606878040286682,1.3415049509308163,0.8076635623316597,0.28847555,0.6281070423779997
0.0135,1.79544375,1.0,1827.093261907115,0.14091475110641746,1.3407105758190443,0.8179412500355762,0.2884616375,0.6298351515467324
0.014,1.7951000000000001,1.0,1881.9917798792221,0.1457335396669965,1.3399499351687858,0.8274110299164904,0.2884472,0.6314861019730176
0.0145,1.79474375,1.0,1934.2951576248172,0.1505252994480071,1.3392204285058689,0.8361513646069356,0.2884322375,0.6330660104728786
0.015,1.794375,1.0,1984.063787281901,0.15529018114038662,1.3385199288903802,0.8442321589037705,0.28841675,0.6345799035205739
0.0155,1.79399375,1.0,2031.3719586016605,0.16002833516552434,1.3378463567789456,0.8517156132408771,0.2884007375,0.6360326505458973
0.016,1.7936,1.0,2076.3050639164558,0.16473991144114586,1.3371976900673923,0.8586571354733876,0.2883842,0.6374289471084658
0.0165,1.7931937500000001,1.0,2118.956194663974,0.16942505991734053,1.3365719812975754,0.8651061509900281,0.2883671375,0.638773282542808
0.017,1.792775,1.0,2159.411388332981,0.17408392934469888,1.3359674913736521,0.8711068480224464,0.28834955,0.6400696579722418
0.0175,1.7923437500000001,1.0,2197.740539541236,0.1787166659294757,1.335382760409896,0.8766988113386772,0.2883314375,0.6413214413897905
0.018000000000000002,1.7919,1.0,2234.023053768101,0.18332341587792578,1.3348163285205796,0.8819174858518337,0.2883128,0.642531971160712
0.0185,1.79144375,1.0,2268.3470487037516,0.1879043253963039,1.3342667358199765,0.8867946601342823,0.2882936375,0.6437045577941903
0.019,1.790975,1.0,2300.7904743106055,0.19245953872755206,1.3337327019002054,0.8913589334870301,0.28827395,0.6448421035790454
0.0195,1.79049375,1.0,2331.4536393958365,0.19698920282065743,1.3332127930849602,0.895636002396675,0.2882537375,0.645947814172575
0.02,1.79,1.0,2360.402314299144,0.2014934595459447,1.3327059775805488,0.8996491163189169,0.288233,0.6470240193946792
0.0205,1.78949375,1.0,2387.7040776755275,0.20597245037832512,1.3322112548140566,0.9034192671089305,0.2882117375,0.6480729661188457
0.021,1.788975,1.0,2413.431043098849,0.21042631679271007,1.3317276242125689,0.9069654326978009,0.28818995000000003,0.6490968856322854
0.021500000000000002,1.78844375,1.0,2437.6594766587473,0.21485520026401073,1.3312540852031711,0.9103047979373015,0.2881676375,0.6500979943756705
0.022,1.7879,1.0,2460.4554948564673,0.21925924008371236,1.3307897706882537,0.9134529749158127,0.2881448,0.6510782130357544
0.0225,1.78734375,1.0,2481.901106778155,0.22363857873331353,1.3303336926927305,0.9164241224698698,0.28812143749999997,0.6520397049489308
0.023,1.786775,1.0,2502.0540429272896,0.2279933538286445,1.3298851235445288,0.919231169510705,0.28809755,0.6529840729081983
0.0235,1.78619375,1.0,2520.9675301962534,0.23232370176255263,1.3294434011665726,0.9218859066174021,0.28807313749999996,0.6539127724100788
0.024,1.7856,1.0,2538.696923412219,0.2366297589278853,1.3290078634817848,0.9243990912405867,0.2880482,0.6548272505330079
0.0245,1.78499375,1.0,2555.299526823765,0.24091166171748987,1.3285778484130895,0.9267805524581952,0.2880227375,0.6557289462124516
0.025,1.784375,1.0,2570.8344253071873,0.2451695465242137,1.32815269388341,0.929039283840252,0.28799675,0.6566192904880771
0.025500000000000002,1.78374375,1.0,2585.3522980921975,0.24940354597708556,1.3277318314654443,0.931183539764601,0.2879702375,0.6574995109831174
0.026000000000000002,1.7831000000000001,1.0,2598.9182104695237,0.2536137993062269,1.3273145714577117,0.9332208767954815,0.2879432,0.6583710819880566
0.0265,1.78244375,1.0,2611.5723958235826,0.2578004375673203,1.3269004676611824,0.9351582723964779,0.2879156375,0.6592349625092482
0.027,1.781775,1.0,2623.3559081928047,0.2619635917526032,1.3264890755303285,0.9370021448393354,0.28788755,0.6600921031867075
0.0275,1.7810937500000001,1.0,2634.310714256417,0.266103392854313,1.3260799505196212,0.9387584052559615,0.2878589375,0.6609434498377595
0.028,1.7804,1.0,2644.4796131581247,0.27021997186468705,1.3256726480835326,0.9404325044180545,0.2878298,0.6617899435276133
0.0285,1.77969375,1.0,2653.906160711625,0.2743134597759629,1.3252667236765343,0.9420294746350081,0.2878001375,0.6626325206273376
0.029,1.778975,1.0,2662.619953473964,0.2783839829533622,1.3248618675274177,0.9435539845018283,0.28776995,0.663471833630735
0.029500000000000002,1.7782437500000001,1.0,2670.6692068966854,0.28243167535539915,1.3244576036396722,0.9450103339254365,0.2877392375,0.664308875766586
0.03,1.7775,1.0,2678.098565054261,0.286456668083407,1.3240534941568045,0.9464025104683779,0.287708,0.6651445565202994
0.0305,1.77674375,1.0,2684.9347513765365,0.2904590857712356,1.323649270045582,0.9477342321175168,0.2876762375,0.6659794323946491
0.031,1.775975,1.0,2691.204849077897,0.2944390530527348,1.3232446622727716,0.9490089503699493,0.28764395,0.666814057117863
0.0315,1.7751937500000001,1.0,2696.936268970494,0.2983966945617547,1.322839401805141,0.9502298726566152,0.2876111375,0.6676489816393454
0.032,1.7744,1.0,2702.1567188825697,0.3023321349321451,1.3224332196094573,0.9513999826176704,0.2875778,0.6684847541207892
0.0325,1.77359375,1.0,2706.8941746814708,0.3062454987977559,1.3220258466524877,0.9525220584585603,0.2875439375,0.6693219199226674
0.033,1.772775,1.0,2711.1768529012497,0.3101369107924371,1.3216170139009995,0.953598689589071,0.28750955,0.6701610215861107
0.0335,1.7719437500000002,1.0,2715.03318497514,0.31400649555003857,1.3212064523217601,0.9546322917243338,0.2874746375,0.6710025988101684
0.034,1.7711000000000001,1.0,2718.4843278812496,0.31785437227260394,1.3207939608746015,0.9556251267887731,0.2874392,0.6718470493188285
0.0345,1.7702437500000001,1.0,2721.558963441281,0.3216806689807409,1.3203792713986544,0.9565793036766023,0.2874032375,0.6726949057974086
0.035,1.7693750000000001,1.0,2724.277322860643,0.3254855063114202,1.3199621939831117,0.9574968016511002,0.28736675,0.6735465383339083
0.035500000000000004,1.76849375,1.0,2726.656860249245,0.32926900245546475,1.31954256501944,0.9583794758900483,0.2873297375,0.6744022612908069
0.036000000000000004,1.7676,1.0,2728.715127084453,0.3330312756036976,1.3191202208991064,0.9592290646619537,0.2872922,0.6752623871597753
0.0365,1.76669375,1.0,2730.4697612863406,0.33677244394694156,1.3186949980135778,0.9600471980221661,0.2872541375,0.6761272265342017
0.037,1.765775,1.0,2731.9384768855934,0.3404926256760198,1.318266732754321,0.9608354057679784,0.28721555,0.6769970880800054
0.0375,1.76484375,1.0,2733.13905428549,0.34419193898175515,1.317835261512803,0.9615951247234203,0.2871764375,0.6778722785047453
0.038,1.7639,1.0,2734.089331117198,0.34787050205497067,1.3174004206804906,0.9623277054170131,0.28713679999999997,0.6787531025250243
0.0385,1.76294375,1.0,2734.7984953212476,0.35152842386864214,1.3169621256370305,0.9630344238060506,0.28709663750000003,0.6796397031621662
0.039,1.761975,1.0,2735.2877102628117,0.3551658288932626,1.3165201833664935,0.9637164739792334,0.28705595,0.6805324410766626
0.0395,1.7609937500000001,1.0,2735.5762868600586,0.3587828391784549,1.316074417998672,0.9643749818257088,0.2870147375,0.6814316399451554
0.04,1.76,1.0,2735.6736883339313,0.36237956571777186,1.3156247433251838,0.9650110146205556,0.286973,0.6823374406916833
0.0405,1.7589937500000001,1.0,2735.5893993039363,0.3659561195047664,1.315171073137646,0.9656255791119931,0.2869307375,0.6832499829632162
0.041,1.757975,1.0,2735.332922552309,0.3695126115329914,1.314713321227677,0.9662196255863243,0.28688795,0.6841694051079243
0.0415,1.75694375,1.0,2734.913775953348,0.3730491527959997,1.3142514013868938,0.9667940516190252,0.2868446375,0.6850958441529763
0.042,1.7559,1.0,2734.34148956759,0.3765658542873441,1.3137852274069142,0.9673497055392106,0.28680079999999997,0.6860294357818596
0.0425,1.75484375,1.0,2733.6256029008314,0.3800628270005776,1.3133147130793559,0.9678873896321045,0.2867564375,0.6869703143112273
0.043000000000000003,1.753775,1.0,2732.7756623271644,0.383540181929253,1.3128397721958363,0.9684078631017984,0.28671155,0.6879186126672745
0.043500000000000004,1.75269375,1.0,2731.801218678207,0.3869980300669232,1.312360318547973,0.968911844814484,0.28666613750000003,0.6888744623616352
0.044,1.7516,1.0,2730.7118249954947,0.3904364824071409,1.311876265927384,0.9694000158404701,0.2866202,0.6898379934668103
0.0445,1.75049375,1.0,2729.517302590219,0.39385564981416593,1.311387525688392,0.9698730216029536,0.2865737375,0.6908093394313171
0.045,1.749376412149695,1.0,2728.2995647057464,0.3972556385510828,1.3108939914748767,0.9703314722657402,0.2865268093102872,0.691788667298531
0.0455,1.748257353844939,1.0,2727.4918346475106,0.40063655848692437,1.31039595442463,0.9707759774653028,0.28647980886148744,0.6927753554745633
0.046,1.7471382955401833,1.0,2727.1465380636464,0.4039985148881685,1.3098937131248043,0.9712071158403993,0.2864328084126877,0.6937687709366119
0.0465,1.7460192372354273,1.0,2727.230751471607,0.4073416130212931,1.3093875661625516,0.9716254370099311,0.28638580796388796,0.6947682841326938
0.047,1.7449001789306715,1.0,2727.711656192534,0.4106659581527761,1.308877812125024,0.9720314633122457,0.2863388075150882,0.6957732690588597
0.0475,1.7437811206259155,1.0,2728.5565134833855,0.4139716555490955,1.3083647495993738,0.9724256914246119,0.28629180706628843,0.6967831033307255
0.048,1.7426620623211597,1.0,2729.7326416463757,0.4172588104767291,1.3078486771727529,0.9728085938721412,0.2862448066174887,0.6977971682493183
0.0485,1.7415430040164037,1.0,2731.2174016269037,0.42052752436351826,1.3073298025054116,0.9731806136269103,0.28619780616868895,0.6988150270790328
0.049,1.740423945711648,1.0,2732.9736571070794,0.42377790594296066,1.3068084652213288,0.9735421825496815,0.2861508057198892,0.6998359874634335
0.0495,1.739304887406892,1.0,2734.9788416566726,0.42701005806027476,1.3062848726081293,0.9738937024188677,0.2861038052710895,0.7008596199343814
0.05,1.738185829102136,1.0,2737.2162229851474,0.43022408114024174,1.3057591790209737,0.974235552443608,0.2860568048222897,0.7018856009069521
0.0505,1.7370667707973801,1.0,2739.669071847236,0.4334200756076427,1.305231538815023,0.9745680943383267,0.28600980437349,0.7029136087774652
0.051000000000000004,1.7359477124926241,1.0,2742.3206551161397,0.43659814188725876,1.304702106345438,0.9748916732899215,0.2859628039246902,0.70394332394341
0.051500000000000004,1.7348286541878684,1.0,2745.1542293868492,0.4397583804038711,1.3041710359673793,0.9752066188632912,0.28591580347589046,0.7049744288218471
0.052000000000000005,1.7337095958831124,1.0,2748.1530351057395,0.4429008915822608,1.3036384820360079,0.9755132458496392,0.2858688030270907,0.7060066078662912
0.0525,1.7325905375783566,1.0,2751.300291229762,0.446025775847209,1.3031045989064842,0.9758118550616367,0.285821802578291,0.707039547582077
0.053,1.7314714792736006,1.0,2754.584193398842,0.4491331300868897,1.3025694956662297,0.9761027308866232,0.28577480212949125,0.7080730238912099
0.0535,1.7303524209688448,1.0,2757.988629557311,0.4522230566364119,1.3020333201903214,0.9763861482808109,0.28572780168069145,0.7091067394604937
0.054,1.7292333626640888,1.0,2761.50225573948,0.4552956537553016,1.301496176976487,0.9766623672672967,0.2856808012318917,0.7101404823614886
0.0545,1.728114304359333,1.0,2765.117166103185,0.4583510168749539,1.3009581392678204,0.9769316345888948,0.285633800783092,0.7111741020677653
0.055,1.726995246054577,1.0,2768.8254392179265,0.4613892414267637,1.3004192803074162,0.9771941865448077,0.28558680033429223,0.7122074490420094
0.0555,1.7258761877498212,1.0,2772.6191366721305,0.464410422842126,1.299879673338368,0.9774502495215854,0.2855397998854925,0.7132403747400311
0.056,1.7247571294450652,1.0,2776.4903017987103,0.46741465655243586,1.2993393916037703,0.977700040492877,0.2854927994366927,0.7142727316144281
0.0565,1.7236380711403094,1.0,2780.4309585202045,0.4704020379890882,1.2987985083467173,0.9779437674900439,0.285445798987893,0.7153043731179105
0.057,1.7225190128355534,1.0,2784.4331103116924,0.47337266258347804,1.298257096810303,0.9781816300455599,0.2853987985390932,0.7163351537062803
0.0575,1.7213999545307976,1.0,2788.4938277137494,0.47632661682761196,1.2977151844775747,0.978413816225982,0.2853517980902935,0.7173650157253944
0.058,1.7202808962260416,1.0,2792.6027979735786,0.47926400319794754,1.2971728651158474,0.9786405116767036,0.28530479764149375,0.718393776271806
0.0585,1.7191618379212859,1.0,2796.751930790398,0.4821849204962333,1.2966302122713074,0.9788618931993889,0.285257797192694,0.7194212919894105
0.059000000000000004,1.7180427796165298,1.0,2800.9381818138995,0.48508945820481847,1.296087254002603,0.9790781273219142,0.28521079674389427,0.7204475064323919
0.059500000000000004,1.716923721311774,1.0,2805.158498003271,0.4879777058060522,1.2955440183683817,0.9792893740651483,0.2851637962950945,0.7214723635416762
0.06,1.715804663007018,1.0,2809.4098174461183,0.49084975278228377,1.2950005334272923,0.9794957872488075,0.28511679584629473,0.7224958076454497
0.0605,1.7146856047022623,1.0,2813.689069194312,0.4937056886158625,1.294456827237982,0.9796975147806554,0.285069795397495,0.7235177834596341
0.061,1.7135665463975063,1.0,2817.993173117619,0.4965456027891375,1.2939129278590995,0.9798946989300714,0.28502279494869526,0.7245382360883028
0.0615,1.7124474880927505,1.0,2822.319039775124,0.49936958478445803,1.2933688633492926,0.9800874765869474,0.2849757944998955,0.7255571110240564
0.062,1.7113284297879945,1.0,2826.6635703035085,0.5021777240841734,1.2928246617672092,0.980275979506805,0.2849287940510958,0.7265743541483403
0.0625,1.7102093714832387,1.0,2831.023656323116,0.5049701101706328,1.2922803511714975,0.9804603345429667,0.28488179360229604,0.7275899117317158
0.063,1.7090903131784827,1.0,2835.396179861272,0.5077468325261855,1.2917359596208058,0.9806406638665531,0.28483479315349625,0.7286037304340802
0.0635,1.707971254873727,1.0,2839.7780132936628,0.5105079806331806,1.2911915151737816,0.9808170851750352,0.2847877927046965,0.7296157573048384
0.064,1.706852196568971,1.0,2844.1690025103644,0.5132536279957391,1.2906470193250792,0.9809897093970438,0.28474079225589677,0.7306259890224716
0.0645,1.7057331382642151,1.0,2848.565973467443,0.5159838721735155,1.2901025004351423,0.9811586465394171,0.28469379180709703,0.7316343725806067
0.065,1.7046140799594591,1.0,2852.9648904802607,0.518698814419526,1.289557994437612,0.9813240032973362,0.2846467913582973,0.7326408413815938
0.0655,1.7034950216547033,1.0,2857.364956667786,0.5213985369164238,1.2890135083821075,0.981485879823148,0.28459979090949755,0.7336453825658976
0.066,1.7023759633499473,1.0,2861.7653727062725,0.524083121846862,1.2884690493182471,0.981644372749047,0.2845527904606978,0.7346479833718964
0.0665,1.7012569050451916,1.0,2866.1653368329244,0.5267526513934938,1.2879246242956495,0.9817995753362847,0.284505790011898,0.7356486311358709
0.067,1.7001378467404356,1.0,2870.564044850736,0.5294072077389723,1.287380240363933,0.9819515776170362,0.2844587895630983,0.7366473132919902
0.0675,1.6990187884356796,1.0,2874.9606901341926,0.5320468730659507,1.2868359045727167,0.9821004665293337,0.28441178911429854,0.737644017372294
0.068,1.6978997301309238,1.0,2879.3544636363463,0.5346717295570821,1.286291623971619,0.982246326045452,0.2843647886654988,0.7386387310066747
0.0685,1.696780671826168,1.0,2883.7445538970264,0.5372818593950195,1.2857474056102582,0.9823892372941075,0.28431778821669906,0.7396314419228526
0.069,1.695661613521412,1.0,2888.130147051611,0.5398773447624162,1.2852032565382534,0.982529278676811,0.28427078776789927,0.7406221379463496
0.0695,1.694542555216656,1.0,2892.5104268419814,0.5424582678419254,1.284659183805223,0.9826665259786861,0.28422378731909953,0.74161080700046
0.07,1.6934234969119002,1.0,2896.8845746271268,0.5450247108162002,1.2841151944607856,0.9828010524740638,0.2841767868702998,0.7425974371062181
0.07050000000000001,1.6923044386071442,1.0,2901.2517693961327,0.5475767558678937,1.28357129555456,0.9829329290271197,0.28412978642150005,0.743582016382361
0.07100000000000001,1.6911853803023884,1.0,2905.6111877816984,0.5501144851796589,1.2830274941361643,0.9830622241878315,0.2840827859727003,0.7445645330452917
0.07150000000000001,1.6900663219976324,1.0,2909.9620040746563,0.5526379809341492,1.2824837972552177,0.9831890042834924,0.2840357855239006,0.7455449754090341
0.07200000000000001,1.6889472636928766,1.0,2914.3033902398925,0.5551473253140177,1.2819402119613386,0.9833133335060258,0.28398878507510084,0.7465233318851897
