Time [s],Phi [rad],STIM [ ],Fsee [N],Gamma [ ],Lcerel [ ],q [ ],Lmtc [m],fisomrel [ ]
0.0,1.8,1.0,17.96713475829445,1.0207067724501514e-05,1.3793397488423447,0.005000027762454195,0.288653,0.541139524707356
0.0005,1.79999375,1.0,18.27653858220658,0.005619359122941186,1.379302410623712,0.012941089434569463,0.2886527375,0.5412298510683706
0.001,1.799975,1.0,21.618313341462997,0.011197048270049342,1.3789383090809986,0.035609657482428204,0.28865195,0.54211019741975
0.0015,1.79994375,1.0,31.06940385758263,0.016743450991947843,1.378046189428469,0.07060318541508546,0.2886506375,0.5442636436818054
0.002,1.7999,1.0,53.58294084346582,0.022258742779884485,1.3763680958110047,0.11471958997232894,0.2886488,0.5483005626772908
0.0025,1.79984375,1.0,97.11995259487738,0.02774309814102007,1.3739351183517483,0.1645765812669403,0.28864643749999996,0.5541215792833674
0.003,1.7997750000000001,1.0,160.95967672192967,0.033196690606144795,1.3712142872393707,0.21728219477054062,0.28864354999999997,0.5605865846599682
0.0035,1.79969375,1.0,237.68514064826834,0.03861969272927016,1.3685846785080313,0.2706146188683338,0.2886401375,0.5667899705648316
0.004,1.7996,1.0,321.4687815850187,0.04401227609841117,1.3661560391525074,0.3229174764691833,0.2886362,0.5724800860718988
0.0045000000000000005,1.7994937500000001,1.0,409.2699150647738,0.04937461134077075,1.3639227633628501,0.37303609719169956,0.2886317375,0.5776792803136066
0.005,1.799375,1.0,499.41576896962056,0.05470686811383064,1.3618582942200164,0.420248948166416,0.28862675,0.5824571903832273
0.0055,1.79924375,1.0,590.7927521824239,0.06000921515280912,1.3599387894169344,0.4641750758178413,0.2886212375,0.5868752164319893
0.006,1.7991000000000001,1.0,682.5204870805873,0.06528182021383579,1.3581463715080464,0.504681228730875,0.2886152,0.5909795171416468
0.006500000000000001,1.79894375,1.0,773.8839168650852,0.07052485012928343,1.3564672082263716,0.5418019165121714,0.2886086375,0.5948058975105124
0.007,1.798775,1.0,864.2880424841837,0.07573847079247875,1.354890358954062,0.5756778400319251,0.28860155,0.5983827586781156
0.0075,1.79859375,1.0,953.2449602566705,0.08092284716595814,1.353406752353622,0.6065108847737819,0.2885939375,0.6017336332616892
0.008,1.7984,1.0,1040.3572695532516,0.08607814323804022,1.3520086637919042,0.6345329658688232,0.2885858,0.6048785096155553
0.0085,1.79819375,1.0,1125.321537464298,0.09120452230927488,1.3506891380166415,0.6599851936768716,0.2885771375,0.607835231113345
0.009000000000000001,1.797975,1.0,1207.884500205121,0.0963021463279451,1.3494422493049738,0.6831050571366906,0.28856795,0.610618987247068
0.0095,1.79774375,1.0,1287.873312016928,0.10137117664345295,1.3482623738185617,0.7041182897423985,0.2885582375,0.6132440018566976
0.01,1.7975,1.0,1365.1657792229005,0.10641177398504864,1.3471444016027438,0.7232348542884556,0.288548,0.6157231008796968
0.0105,1.79724375,1.0,1439.6612310047515,0.1114240973375256,1.3460839247124947,0.7406472133819302,0.2885372375,0.6180673375497331
0.011,1.796975,1.0,1511.3077642769913,0.1164083051019517,1.3450767301553477,0.7565297259333127,0.28852595000000003,0.6202871502082059
0.0115,1.79669375,1.0,1580.1123021768688,0.12136455609370875,1.3441185871166208,0.7710391277744453,0.2885141375,0.6223928507680506
0.012,1.7964,1.0,1646.068150145735,0.1262930066595818,1.343206034573365,0.784315965350494,0.28850180000000003,0.6243929140064612
0.0125,1.79609375,1.0,1709.1822019208084,0.1311938120604575,1.3423359402902868,0.7964856839283666,0.2884889375,0.6262949744437666
0.013000000000000001,1.7957750000000001,1.0,1769.4977601771402,0.13606712755722253,1.3415051720320936,0.8076598972316515,0.28847555,0.6281065608269456
0.0135,1.79544375,1.0,1827.0723858751776,0.14091310741067192,1.3407108077486627,0.8179378836384172,0.2884616375,0.6298346475869063
0.014,1.7951000000000001,1.0,1881.9856752099079,0.14573190605302655,1.3399500019941004,0.8274078692430002,0.2884472,0.63148595709251
0.0145,1.79474375,1.0,1934.2891467775892,0.15052367493352092,1.3392204934084595,0.8361484452114845,0.2884322375,0.6330658700628868
0.015,1.794375,1.0,1984.0515431883975,0.15528856529267426,1.338520059428355,0.8442294803404256,0.28841675,0.6345796216984151
0.0155,1.79399375,1.0,2031.3566252710275,0.1600267280261186,1.3378465183375046,0.8517131420081546,0.2884007375,0.6360323024465122
0.016,1.7936,1.0,2076.294773557346,0.16473831358006055,1.337197797311358,0.8586548263938865,0.2883842,0.6374287164807664
0.0165,1.7931937500000001,1.0,2118.9559321299716,0.16942347191194013,1.33657198400597,0.8651039745407593,0.2883671375,0.6387732767292253
0.017,1.792775,1.0,2159.40810350228,0.17408235000320144,1.335967524942222,0.8711048301399511,0.28834955,0.640069586046548
0.0175,1.7923437500000001,1.0,2197.7300525237747,0.17871509483528847,1.335382866640996,0.876696949644532,0.2883314375,0.6413212141698595
0.018000000000000002,1.7919,1.0,2234.010403193696,0.18332185338964527,1.3348164556231734,0.8819157535145307,0.2883128,0.6425316997574475
0.0185,1.79144375,1.0,2268.329249937399,0.18790277084145487,1.3342669132893359,0.8867930533385604,0.2882936375,0.6437041794643482
0.019,1.790975,1.0,2300.787930211919,0.1924579947503396,1.3337327270875812,0.8913573932037532,0.28827395,0.6448420499703
0.0195,1.79049375,1.0,2331.4544194153623,0.19698766792014438,1.3332127854134754,0.8956345504660312,0.2882537375,0.6459478304751058
0.02,1.79,1.0,2360.398026165486,0.20149193264287507,1.332706019494912,0.89964776411453,0.288233,0.6470239304587091
0.0205,1.78949375,1.0,2387.6931967657947,0.20597093121053747,1.332211360559784,0.903418009992021,0.2882117375,0.6480727420759476
0.021,1.788975,1.0,2413.4190818830552,0.2104248059151374,1.3317277398359844,0.9069642520012491,0.28818995000000003,0.6490966410182062
0.021500000000000002,1.78844375,1.0,2437.6435637444183,0.21485369680625102,1.3312542382595,0.9103036931162893,0.2881676375,0.650097671030352
0.022,1.7879,1.0,2460.4524525066504,0.219257747215003,1.3307897998147937,0.9134519091680128,0.2881448,0.6510781515895685
0.0225,1.78734375,1.0,2481.9040957602365,0.22363709526793046,1.3303336642010333,0.9164231050961321,0.28812143749999997,0.6520397649729559
0.023,1.786775,1.0,2502.0543404121468,0.22799187822961714,1.3298851207202738,0.9192302121187098,0.28809755,0.6529840788500332
0.0235,1.78619375,1.0,2520.9614499071276,0.23232223336464677,1.32944345867457,0.9218850111709311,0.28807313749999996,0.6539126515833447
0.024,1.7856,1.0,2538.6859012437226,0.2366282979376031,1.329007967365977,0.9243982511176685,0.2880482,0.6548270325564677
0.0245,1.78499375,1.0,2555.2863212477314,0.24091020846047637,1.3285779724709768,0.9267797594651603,0.2880227375,0.6557286862463714
0.025,1.784375,1.0,2570.8162700839484,0.2451681002870243,1.328152863924032,0.9290385389228528,0.28799675,0.6566189346251776
0.025500000000000002,1.78374375,1.0,2585.3460932160506,0.24940211145386265,1.327731889416438,0.9311828155539313,0.2879702375,0.6574993898582004
0.026000000000000002,1.7831000000000001,1.0,2598.9170620479936,0.25361237388587204,1.3273145821554615,0.9332201810329062,0.2879432,0.6583710596568739
0.0265,1.78244375,1.0,2611.5715685845607,0.257799019507933,1.3269004753483682,0.9351576093988551,0.2879156375,0.6592349464828156
0.027,1.781775,1.0,2623.353031468365,0.26196218024492623,1.3264891022024248,0.9370015155871497,0.28788755,0.6600920476500467
0.0275,1.7810937500000001,1.0,2634.3058068476003,0.2661019880217323,1.3260799959248974,0.9387578077020212,0.2878589375,0.6609433554133255
0.028,1.7804,1.0,2644.475104074736,0.2702185747632318,1.3256726897230526,0.940431933766815,0.2878298,0.6617898570425775
0.0285,1.77969375,1.0,2653.8992340604555,0.27431206877074127,1.3252667875276072,0.942028932342427,0.2878001375,0.6626323881743318
0.029,1.778975,1.0,2662.6278503354147,0.27838260449616936,1.3248617948520924,0.9435534490809497,0.28776995,0.6634719842011385
0.029500000000000002,1.7782437500000001,1.0,2670.693292525552,0.2824303093946606,1.3244573823127017,0.9450098030502389,0.2877392375,0.6643093337461394
0.03,1.7775,1.0,2678.12602103553,0.28645530985690265,1.324053242209361,0.9464019977528376,0.287708,0.6651450772117387
0.0305,1.77674375,1.0,2684.956923727911,0.2904577322735835,1.323649066841997,0.9477337458502443,0.2876762375,0.665979851824951
0.031,1.775975,1.0,2691.21727660219,0.29443770303539096,1.3232445485105355,0.9490084939517396,0.28764395,0.6668142916397324
0.0315,1.7751937500000001,1.0,2696.938706572234,0.2983953485330128,1.3228393795149038,0.9502294449992846,0.2876111375,0.667649027533265
0.032,1.7744,1.0,2702.152895924855,0.30233079491682735,1.3224332545340827,0.9513995787250257,0.2875778,0.66848468230408
0.0325,1.77359375,1.0,2706.8832512651443,0.30624415953068407,1.3220259463560473,0.9525216764873567,0.2875439375,0.6693217151578194
0.033,1.772775,1.0,2711.1718058401275,0.3101355805139694,1.3216170599316615,0.9535983169706714,0.28750955,0.6701609271712822
0.0335,1.7719437500000002,1.0,2715.038021567633,0.31400517772853936,1.3212064082420112,0.9546319246730591,0.2874746375,0.6710026891079925
0.034,1.7711000000000001,1.0,2718.5015222519028,0.31785307103625,1.3207938042681826,0.9556247634707431,0.2874392,0.6718473697166676
0.0345,1.7702437500000001,1.0,2721.5820778832767,0.3216793802989574,1.3203790609912613,0.9565789491542916,0.2874032375,0.6726953357090486
0.035,1.7693750000000001,1.0,2724.29958971351,0.32548422537851757,1.3199619913923335,0.9574964608464648,0.28736675,0.6735469517354984
0.035500000000000004,1.76849375,1.0,2726.67407610663,0.32926772613678656,1.319542408452485,0.95837915141315,0.2873297375,0.6744025803583715
0.036000000000000004,1.7676,1.0,2728.7256591648047,0.3330300024356205,1.3191201251528015,0.9592287569666597,0.2872922,0.6752625820231515
0.0365,1.76669375,1.0,2730.474552130308,0.3367711741368753,1.3186949544743694,0.9600469055498921,0.2872541375,0.6761273150273586
0.037,1.765775,1.0,2731.94104756263,0.3404913611024072,1.3182667093982743,0.9608351250803885,0.28721555,0.6769971354872271
0.0375,1.76484375,1.0,2733.1370016046485,0.3441906734989926,1.3178352801584745,0.9615948561135995,0.2871764375,0.6778722407097705
0.038,1.7639,1.0,2734.0832519895616,0.3478692360546478,1.3174004758910989,0.9623274479435643,0.28713679999999997,0.6787529907656377
0.0385,1.76294375,1.0,2734.8010928367244,0.3515271738676767,1.3169621020494848,0.9630341694517247,0.28709663750000003,0.6796397508430229
0.039,1.761975,1.0,2735.301253272595,0.3551645990326476,1.3165200603961107,0.9637162214078365,0.28705595,0.6805326893075333
0.0395,1.7609937500000001,1.0,2735.594493270102,0.3587816236441286,1.316074252693455,0.9643747349268007,0.2870147375,0.6814319731641388
0.04,1.76,1.0,2735.691599448281,0.3623783597966881,1.3156245807039963,0.9650107762505034,0.286973,0.6823377680338856
0.0405,1.7589937500000001,1.0,2735.603381086916,0.3659549195848942,1.315170946190213,0.9656253511525221,0.2869307375,0.6832502381299932
0.041,1.757975,1.0,2735.3406663541487,0.3695114151033152,1.3147132509145836,0.9662194089990982,0.28688795,0.6841695462333366
0.0415,1.75694375,1.0,2734.914298748784,0.3730479584465193,1.3142513966395866,0.9667938464965171,0.2868446375,0.6850958536673126
0.042,1.7559,1.0,2734.3351337564723,0.37656466170907477,1.3137852851277003,0.9673495111521139,0.28680079999999997,0.6860293202720913
0.0425,1.75484375,1.0,2733.614035719552,0.3800616369855498,1.3133148181414036,0.9678872044735095,0.2867564375,0.6869701043782499
0.043000000000000003,1.753775,1.0,2732.76187492097,0.38353899637051264,1.3128398974431745,0.968407684928349,0.28671155,0.687918362779796
0.043500000000000004,1.75269375,1.0,2731.7895248825603,0.38699685195853156,1.3123604247954916,0.9689116706847134,0.28666613750000003,0.6888742507065689
0.044,1.7516,1.0,2730.695839121423,0.39043531416152233,1.311876411200906,0.9693998505175193,0.2866202,0.68983770451672
0.0445,1.75049375,1.0,2729.5120726321434,0.39385449032442693,1.311387573226607,0.9698728539643516,0.2865737375,0.6908092450256522
0.045,1.7493750000000001,1.0,2728.237552529897,0.3972544878057028,1.3108939175242935,0.9703313004963608,0.28652675,0.6917888139234624
0.0455,1.7482443163490666,1.0,2726.886952897835,0.40063541362201205,1.310395566998462,0.9707757867154619,0.2864792612866608,0.6927761224097683
0.046,1.747110579157415,1.0,2725.887712632543,0.40399737479001674,1.3098926445536083,0.9712068790480859,0.28643164432461143,0.6937708828175095
0.0465,1.7459768419657635,1.0,2725.3758026300175,0.4073404777827192,1.3093852905781471,0.9716251167742853,0.2863840273625621,0.6947727741513886
0.047,1.7448431047741118,1.0,2725.30438674285,0.4106648292422969,1.308873929872189,0.9720310330806506,0.2863364104005127,0.6957809165985653
0.0475,1.7437093675824602,1.0,2725.6367817609803,0.413970534020198,1.3083588959498635,0.9724251281428024,0.2862887934384633,0.696794615078384
0.048,1.7425756303908084,1.0,2726.3425075100604,0.4172576960889875,1.3078404666959114,0.9728078737610941,0.28624117647641395,0.6978132878330469
0.0485,1.7414418931991569,1.0,2727.391149031374,0.42052641942123065,1.3073189199950723,0.9731797190295784,0.2861935595143646,0.6988363565467549
0.049,1.7403081560075053,1.0,2728.7535760178507,0.4237768075803302,1.3067945224639677,0.9735410908210612,0.28614594255231524,0.6998632684505933
0.0495,1.7391744188158536,1.0,2730.4018867036843,0.4270089641094055,1.3062675298112445,0.9738923951339983,0.2860983255902658,0.7008934954825207
0.05,1.738040681624202,1.0,2732.312614124596,0.4302229912090978,1.3057381575819569,0.9742340161622881,0.28605070862821647,0.7019265911938473
0.0505,1.7369069444325504,1.0,2734.465639863475,0.433418989894465,1.3052065909739905,0.9745663182057929,0.2860030916661671,0.702962171001388
0.051000000000000004,1.7357732072408987,1.0,2736.8408472900674,0.43659706118056485,1.3046730151852306,0.9748896489070622,0.28595547470411775,0.7039998527357789
0.051500000000000004,1.7346394700492471,1.0,2739.4217686338843,0.4397573038236426,1.3041375822448207,0.9752043377730902,0.2859078577420684,0.7050393210021523
0.052000000000000005,1.7335057328575956,1.0,2742.190305330706,0.44289981797319583,1.3036004589043328,0.9755107006335808,0.28586024078001904,0.7060802339065004
0.0525,1.7323719956659438,1.0,2745.1198327128013,0.4460247099906863,1.3030618890410792,0.9758090448173179,0.2858126238179696,0.7071221027131779
0.053,1.7312382584742922,1.0,2748.1999712005036,0.4491320763277638,1.3025219689947516,0.9760996538641878,0.28576500685592027,0.7081647266439368
0.0535,1.7301045212826405,1.0,2751.4203300908403,0.4522220134360782,1.301980795105042,0.9763827989735652,0.2857173898938709,0.7092079062108632
0.054,1.728970784090989,1.0,2754.7705047767054,0.4552946177672794,1.3014384637116423,0.9766587396490091,0.2856697729318215,0.7102514432243779
0.0545,1.7278370468993374,1.0,2758.240074171742,0.4583499857730172,1.3008950711542444,0.976927724304053,0.28562215596977214,0.7112951408006447
0.055,1.7267033097076856,1.0,2761.8185983403137,0.4613882139049415,1.3003507137725403,0.9771899908317415,0.2855745390077228,0.7123388033683851
0.0555,1.725569572516034,1.0,2765.4956163341167,0.46440939861470204,1.2998054879062217,0.9774457671403683,0.2855269220456734,0.713382236675103
0.056,1.7244358353243825,1.0,2769.260644234141,0.4674136363539487,1.2992594898949807,0.9776952716576836,0.28547930508362407,0.7144252477927167
0.0565,1.7233020981327307,1.0,2773.103173398354,0.4704010235743314,1.2987128160785093,0.9779387138056683,0.2854316881215747,0.7154676451225979
0.057,1.7221683609410792,1.0,2777.0193633111135,0.4733716494713741,1.2981655024698007,0.9781762903385534,0.28538407115952535,0.7165093531152147
0.0575,1.7210346237494276,1.0,2780.996129269358,0.4763256174593292,1.2976176682502787,0.9784081960304523,0.28533645419747594,0.7175501388560812
0.058,1.7199008865577758,1.0,2785.028751150471,0.47926301899837487,1.29706935701047,0.9786346125328081,0.2852888372354266,0.7185899143028887
0.0585,1.7187671493661243,1.0,2789.1128268035714,0.48218394511106866,1.2965206093699975,0.9788557140711246,0.2852412202733772,0.7196285976366243
0.059000000000000004,1.7176334121744725,1.0,2793.243942192756,0.48508848681996797,1.2959714659484836,0.9790716680020133,0.2851936033113278,0.7206661076030154
0.059500000000000004,1.716499674982821,1.0,2797.4176710221777,0.4879767351476303,1.2954219673655512,0.9792826351391287,0.28514598634927846,0.7217023635136073
0.06,1.7153659377911694,1.0,2801.629574397859,0.4908487811166131,1.2948721542408228,0.9794887700611928,0.2850983693872291,0.722737285246736
0.0605,1.7142322005995176,1.0,2805.875200526124,0.493704715749474,1.294322067193921,0.979690221403221,0.28505075242517974,0.7237707932483961
0.061,1.713098463407866,1.0,2810.150084448685,0.49654463006877037,1.2937717468444687,0.9798871321319913,0.2850031354631304,0.7248028085330018
0.0615,1.7119647262162145,1.0,2814.449747814235,0.4993686150970597,1.2932212338120885,0.980079639806719,0.28495551850108103,0.725833252684045
0.062,1.7108309890245628,1.0,2818.7742571910044,0.5021767467253004,1.2926705279427335,0.9802678735398812,0.2849079015390316,0.7268621239595716
0.0625,1.7096972518329112,1.0,2823.1162652088683,0.5049691302615372,1.292119695348131,0.9804519633067396,0.28486028457698226,0.7278892971610813
0.063,1.7085635146412594,1.0,2827.4714308934376,0.5077458604825713,1.2915687750886982,0.9806320320937617,0.2848126676149329,0.7289146983203959
0.0635,1.7074297774496079,1.0,2831.8383181326585,0.5105070219250978,1.2910177801825748,0.9808081963032819,0.28476505065288354,0.7299383023520618
0.064,1.7062960402579563,1.0,2836.2154863553496,0.5132526991258116,1.2904667236479017,0.9809805681149815,0.28471743369083413,0.7309600843534869
0.0645,1.7051623030663046,1.0,2840.6014905117404,0.5159829766214078,1.2899156185028187,0.9811492556705222,0.2846698167287848,0.7319800196050004
0.065,1.704028565874653,1.0,2844.99488105712,0.5186979389485812,1.2893644777654663,0.981314363248811,0.2846221997667354,0.7329980835698948
0.0655,1.7028948286830015,1.0,2849.39420393996,0.5213976706440268,1.2888133144539848,0.981475991432437,0.28457458280468606,0.7340142518944632
0.066,1.7017610914913497,1.0,2853.798000593549,0.5240822562444396,1.2882621415865145,0.9816342372657851,0.2845269658426367,0.7350285004080238
0.0665,1.7006273542996981,1.0,2858.204807931191,0.5267517802865146,1.287710972181196,0.9817891944053005,0.28447934888058735,0.7360408051229308
0.067,1.6994936171080464,1.0,2862.6131583455253,0.5294063273069466,1.287159819256169,0.9819409532623447,0.28443173191853793,0.73705114223458
0.0675,1.6983598799163948,1.0,2867.021579711372,0.5320459818424308,1.2866086958295742,0.9820896011390592,0.2843841149564886,0.7380594881213988
0.068,1.6972261427247433,1.0,2871.428595392097,0.534670828429662,1.2860576149195517,0.9822352223576264,0.2843364979944392,0.7390658193448261
0.0685,1.6960924055330915,1.0,2875.8327242503115,0.5372809516053352,1.2855065895442421,0.9823778983832903,0.2842888810323898,0.7400701126492846
0.069,1.69495866834144,1.0,2880.232480662018,0.5398764359061453,1.2849556327217855,0.9825177079414826,0.28424126407034045,0.7410723449621394
0.0695,1.6938249311497884,1.0,2884.6286198639277,0.5424573378082993,1.284404737617483,0.9826547244564815,0.2841936471082911,0.7420725294028402
0.07,1.6926911939581366,1.0,2889.0192333372156,0.545023760733475,1.2838539209522803,0.982789022925294,0.28414603014624173,0.7430706363520937
0.07050000000000001,1.691557456766485,1.0,2893.402349583128,0.547575805186833,1.2833031999526476,0.9829206757037533,0.2840984131841924,0.744066635512086
0.07100000000000001,1.6904237195748335,1.0,2897.777710034317,0.5501135476891279,1.282752576682303,0.9830497506375295,0.284050796222143,0.7450605241693826
0.07150000000000001,1.6892899823831817,1.0,2902.1450554793387,0.5526370647611141,1.2822020532049643,0.9831763133773808,0.28400317926009366,0.7460522996393575
0.07200000000000001,1.6881562451915302,1.0,2906.5041260671724,0.5551464329235462,1.2816516315843502,0.9833004274650046,0.28395556229804425,0.7470419592661781
0.0725,1.6870225079998784,1.0,2910.8546613120034,0.5576417286971783,1.281101313884179,0.9834221544149845,0.2839079453359949,0.7480295004227944
