Time [s],Phi [rad],STIM [ ],Fsee [N],Gamma [ ],Lcerel [ ],q [ ],Lmtc [m],fisomrel [ ]
0.0,1.8,1.0,17.967177814539948,1.0000164611898882e-05,1.379339744018605,0.005000026652646464,0.288653,0.5411395363772297
0.0005,1.79999375,1.0,18.276507972272125,0.005619153380391328,1.3793024140239003,0.012940514932838276,0.2886527375,0.5412298428432454
0.001,1.799975,1.0,21.618126201768064,0.011196843681552538,1.3789383281946355,0.0356085790447395,0.28865195,0.5421101512278532
0.0015,1.79994375,1.0,31.068889201044687,0.016743247551030634,1.3780462332755017,0.07060170902685678,0.2886506375,0.5442635379662148
0.002,1.7999,1.0,53.58177340284013,0.022258540480110157,1.3763681715485583,0.11471784135524031,0.2886488,0.5483003808839126
0.0025,1.79984375,1.0,97.11795151322023,0.027742896975987388,1.3739352147790902,0.16457467887786217,0.28864643749999996,0.5541213493243485
0.003,1.7997750000000001,1.0,160.9570514950949,0.03319649056948891,1.371214385504049,0.2172802321511893,0.28864354999999997,0.5605863520243982
0.0035,1.79969375,1.0,237.68216226702413,0.038619493814661905,1.368584770249991,0.27061266680540663,0.2886401375,0.5667897549099535
0.004,1.7996,1.0,321.4656051077437,0.04401207829955667,1.3661561232852026,0.3229155863216919,0.2886362,0.5724798896069883
0.0045000000000000005,1.7994937500000001,1.0,409.26662025056555,0.049374414651411014,1.3639228407046493,0.3730343029345429,0.2886317375,0.5776791008082222
0.005,1.799375,1.0,499.4124028575346,0.054706672527740516,1.361858365749577,0.42024726950103125,0.28862675,0.5824570253094556
0.0055,1.79924375,1.0,590.7893524878148,0.06000902066380602,1.359938855838687,0.4641735216412865,0.2886212375,0.5868750639589827
0.006,1.7991000000000001,1.0,682.5170798500683,0.0652816268157637,1.3581464334423974,0.5046798004703933,0.2886152,0.5909793756775843
0.006500000000000001,1.79894375,1.0,773.8805210698087,0.07052465781602649,1.3564672661947887,0.54180061068251,0.2886086375,0.5948057657258088
0.007,1.798775,1.0,864.2846704412723,0.07573827955794585,1.354890413423343,0.5756766501792699,0.28860155,0.5983826353960735
0.0075,1.79859375,1.0,953.2416580523691,0.08092265700409215,1.3534068031449344,0.6065098024717026,0.2885939375,0.6017335187846862
0.008,1.7984,1.0,1040.3538710934738,0.08607795414091433,1.3520087138274468,0.6345319839155278,0.2885858,0.6048783972880952
0.0085,1.79819375,1.0,1125.3184259446132,0.09120433427532465,1.3506891820642073,0.6599842999783588,0.2885771375,0.6078351325992898
0.009000000000000001,1.797975,1.0,1207.8818628644499,0.09630195934897089,1.3494422853413526,0.6831042420014429,0.28856795,0.6106189069369028
0.0095,1.79774375,1.0,1287.8704161635305,0.10137099070992787,1.348262412138749,0.7041175508031768,0.2885582375,0.6132439167452173
0.01,1.7975,1.0,1365.1630376282073,0.10641158909428491,1.347144436839681,0.7232341810834871,0.288548,0.6157230228675407
0.0105,1.79724375,1.0,1439.6588597057669,0.11142391348794259,1.3460839543911158,0.7406465979030021,0.2885372375,0.6180672720440308
0.011,1.796975,1.0,1511.3059892715662,0.11640812230929114,1.3450767518379168,0.7565291610606321,0.28852595000000003,0.6202871024904109
0.0115,1.79669375,1.0,1580.1104103177067,0.1213643743151192,1.3441186097178643,0.771038612189896,0.2885141375,0.6223928011665949
0.012,1.7964,1.0,1646.0659103178043,0.1262928258749151,1.3432060607900804,0.7843154951618379,0.28850180000000003,0.6243928566229453
0.0125,1.79609375,1.0,1709.1795800816794,0.13119363227455857,1.3423359704064335,0.7964852546943028,0.2884889375,0.6262949086922369
0.013000000000000001,1.7957750000000001,1.0,1769.4949356418037,0.1360669487999294,1.3415052039187922,0.8076595040689338,0.28847555,0.6281064913787759
0.0135,1.79544375,1.0,1827.0715283788,0.14091292967979424,1.3407108172753486,0.8179375135896417,0.2884616375,0.6298346268863649
0.014,1.7951000000000001,1.0,1881.9848070753994,0.14573172933357076,1.3399500114972223,0.8274075281732887,0.2884472,0.6314859364892809
0.0145,1.79474375,1.0,1934.2865057409847,0.15052349917165728,1.3392205219252897,0.8361481370353798,0.2884322375,0.6330658083696876
0.015,1.794375,1.0,1984.0476106198907,0.1552883904924875,1.3385201013547396,0.8442292001238411,0.28841675,0.634579531182324
0.0155,1.79399375,1.0,2031.351743737497,0.16002655405915248,1.3378465697715671,0.8517128857065563,0.2884007375,0.6360321916249543
0.016,1.7936,1.0,2076.291049653676,0.16473814063846132,1.3371978361211672,0.858654585103397,0.2883842,0.6374286330204162
0.0165,1.7931937500000001,1.0,2118.9539556534073,0.16942330004733194,1.3365720043960152,0.8651037451224781,0.2883671375,0.63877323296189
0.017,1.792775,1.0,2159.4079695363757,0.1740821792067485,1.3359675263112563,0.8711046112507587,0.28834955,0.6400695831131866
0.0175,1.7923437500000001,1.0,2197.7313416887405,0.17871492503769515,1.3353828535820347,0.8766967414926348,0.2883314375,0.64132124210195
0.018000000000000002,1.7919,1.0,2234.0121648479803,0.18332168446115601,1.3348164379234946,0.8819155576448208,0.2883128,0.6425317375517305
0.0185,1.79144375,1.0,2268.3335756448596,0.1879026029133596,1.3342668701581626,0.886792863377352,0.2882936375,0.6437042714115628
0.019,1.790975,1.0,2300.7927259962216,0.1924578275252578,1.3337326796078228,0.8913572136325675,0.28827395,0.6448421510260915
0.0195,1.79049375,1.0,2331.461543571935,0.19698750162482628,1.333212715347522,0.8956343761887111,0.2882537375,0.6459479793709545
0.02,1.79,1.0,2360.4081661090845,0.20149176738607238,1.3327059203820928,0.8996475932179029,0.288233,0.6470241407611752
0.0205,1.78949375,1.0,2387.705836977388,0.20597076698300346,1.3322112377163677,0.9034178433486886,0.2882117375,0.6480730023436193
0.021,1.788975,1.0,2413.4324766446052,0.2104246425896269,1.3317276103551792,0.9069640929196855,0.28818995000000003,0.6490969149491149
0.021500000000000002,1.78844375,1.0,2437.6574880512226,0.21485353444037,1.3312541043303108,0.9103035415418016,0.2881676375,0.6500979539678686
0.022,1.7879,1.0,2460.4649947196112,0.21925758550218624,1.330789679739542,0.913451768131572,0.2881448,0.6510784049037348
0.0225,1.78734375,1.0,2481.9164071267282,0.22363693444895683,1.3303335468463025,0.9164229718084235,0.28812143749999997,0.6520400122064468
0.023,1.786775,1.0,2502.066766300543,0.22799171843284366,1.3298850027518114,0.919230085477915,0.28809755,0.6529843270390223
0.0235,1.78619375,1.0,2520.973515472043,0.2323220746060086,1.3294433445572886,0.9218848915737174,0.28807313749999996,0.6539128913485575
0.024,1.7856,1.0,2538.696299310326,0.2366281401206136,1.3290078693639535,0.9243981402912683,0.2880482,0.6548272381906624
0.0245,1.78499375,1.0,2555.296621678424,0.24091005208424934,1.3285778757050326,0.9267796544774757,0.2880227375,0.6557288890215821
0.025,1.784375,1.0,2570.826408294892,0.24516794411174134,1.3281527689701438,0.9290384388217919,0.28799675,0.6566191333457507
0.025500000000000002,1.78374375,1.0,2585.3554999608773,0.2494019558766992,1.3277318015613335,0.9311827211314003,0.2879702375,0.6574995734864882
0.026000000000000002,1.7831000000000001,1.0,2598.925393804957,0.2536122191814488,1.3273145045437227,0.9332200925933793,0.2879432,0.6583712216686778
0.0265,1.78244375,1.0,2611.5787104079945,0.25779886582831585,1.3269004089824321,0.9351575268148333,0.2879156375,0.6592350848441283
0.027,1.781775,1.0,2623.3590993870653,0.2619620276196264,1.3264890459425824,0.9370014383481311,0.28788755,0.6600921647943313
0.0275,1.7810937500000001,1.0,2634.3111498549806,0.2661018363577062,1.3260799464892943,0.9387577349577616,0.2878589375,0.6609434582191932
0.028,1.7804,1.0,2644.4803057551358,0.27021842384488104,1.3256726416876887,0.940431864365567,0.2878298,0.6617899568117421
0.0285,1.77969375,1.0,2653.89938535948,0.27431191703435126,1.3252667861329055,0.9420288719827592,0.2878001375,0.6626323910675087
0.029,1.778975,1.0,2662.622479112039,0.2783824519740684,1.3248618442837958,0.9435533979112859,0.28776995,0.6634718817874068
0.029500000000000002,1.7782437500000001,1.0,2670.6875217687434,0.2824301580270492,1.324457435341084,0.9450097548540334,0.2877392375,0.6643092240174944
0.03,1.7775,1.0,2678.123386517441,0.2864551608528209,1.3240532663847326,0.9464019484411104,0.287708,0.665145027249316
0.0305,1.77674375,1.0,2684.959362135495,0.29045758611091116,1.3236490444947042,0.9477336932856415,0.2876762375,0.6659798979517377
0.031,1.775975,1.0,2691.2251157196138,0.2944375594608474,1.323244476750962,0.949008437788169,0.28764395,0.666814439572694
0.0315,1.7751937500000001,1.0,2696.9506573187123,0.29839520656215707,1.322839270233468,0.9502293865357504,0.2876111375,0.6676492525354651
0.032,1.7744,1.0,2702.166306468595,0.3023306530743677,1.3224331320221852,0.9513995205549921,0.2875778,0.6684849342294774
0.0325,1.77359375,1.0,2706.902660629486,0.30624402465700673,1.3220257691970763,0.9525216156477615,0.2875439375,0.6693220789956358
0.033,1.772775,1.0,2711.1822842483148,0.3101354435403876,1.3216169643655862,0.9535982668712327,0.28750955,0.6701611231896214
0.0335,1.7719437500000002,1.0,2715.0334827415063,0.31400503531960106,1.3212064496079754,0.9546318902902676,0.2874746375,0.6710026043693851
0.034,1.7711000000000001,1.0,2718.489295416635,0.31785292611037147,1.320793915630212,0.9556247374518679,0.2874392,0.6718471418834071
0.0345,1.7702437500000001,1.0,2721.567747153716,0.32167923511540975,1.3203791914416965,0.9565789261526044,0.2874032375,0.6726950691682552
0.035,1.7693750000000001,1.0,2724.2869874203698,0.32548408153742675,1.3199621060518285,0.9574964373743162,0.28736675,0.6735467177642809
0.035500000000000004,1.76849375,1.0,2726.66527749808,0.32926758457913335,1.3195424884700089,0.9583791257071689,0.2873297375,0.674402417290798
0.036000000000000004,1.7676,1.0,2728.7209783561643,0.3330298634432404,1.3191201677056377,0.9592287288640442,0.2872922,0.675262495419406
0.0365,1.76669375,1.0,2730.4725391745233,0.33677103733245883,1.318694972768115,0.9600468763748636,0.2872541375,0.6761272778454415
0.037,1.765775,1.0,2731.9384865140432,0.3404912254494995,1.318266732666841,0.9608350975399527,0.28721555,0.676997088257569
0.0375,1.76484375,1.0,2733.1374141360293,0.3441905469970734,1.3178352764112162,0.9615948287131545,0.2871764375,0.6778722483055031
0.038,1.7639,1.0,2734.087157993627,0.34786911434314427,1.3174004404167814,0.9623274192710434,0.28713679999999997,0.6787530625740855
0.0385,1.76294375,1.0,2734.80462869626,0.3515270527567978,1.3169620699410327,0.9630341419923671,0.28709663750000003,0.6796398157483925
0.039,1.761975,1.0,2735.3017009323753,0.3551644758098578,1.3165200563313697,0.9637161968676604,0.28705595,0.6805326975127122
0.0395,1.7609937500000001,1.0,2735.5901684921378,0.35878149652338276,1.3160742919602546,0.9643747142610677,0.2870147375,0.6814318940109175
0.04,1.76,1.0,2735.681852465503,0.36237822791843094,1.31562466920015,0.96501075970644,0.286973,0.6823375898989026
0.0405,1.7589937500000001,1.0,2735.588596850875,0.3659547830160606,1.315171080423519,0.9656253383091207,0.2869307375,0.6832499683184685
0.041,1.757975,1.0,2735.322264419284,0.36951127483733004,1.3147134180028242,0.9662193988041894,0.28688795,0.6841692108704709
0.0415,1.75694375,1.0,2734.8947328362137,0.37304781640329765,1.3142515743105276,0.9667938373012956,0.2868446375,0.6850954975872288
0.042,1.7559,1.0,2734.3178910397587,0.37656452073502167,1.3137854417190922,0.9673495007432806,0.28680079999999997,0.6860290069041908
0.0425,1.75484375,1.0,2733.5906589414903,0.38006147190584394,1.3133150304679828,0.9678871951257785,0.2867564375,0.6869696801111194
0.043000000000000003,1.753775,1.0,2732.729023279652,0.3835387969205412,1.3128401958748115,0.9684076775161663,0.28671155,0.6879177673629133
0.043500000000000004,1.75269375,1.0,2731.755776607466,0.3869966396059082,1.3123607314269317,0.9689116623299158,0.28666613750000003,0.6888736398674499
0.044,1.7516,1.0,2730.67607725611,0.3904351037195341,1.3118765907897827,0.9693998328454221,0.2866202,0.6898373473129542
0.0445,1.75049375,1.0,2729.4950859745745,0.3938542930190084,1.3113877276288037,0.9698728368161863,0.2865737375,0.6908089383997766
0.045,1.7493750000000001,1.0,2728.2179649574077,0.39725431126192035,1.3108940956094342,0.9703312886627926,0.28652675,0.6917884608265051
0.0455,1.74824375,1.0,2726.849876920749,0.40063526220585927,1.310395648397113,0.9707757715090299,0.2864792375,0.6927759612759431
0.046,1.7471,1.0,2725.3959842262566,0.40399724960841454,1.3098923396572801,0.9712068390746311,0.2864312,0.6937714854009469
0.0465,1.7459437500000001,1.0,2723.8614480519486,0.4073403772271754,1.3093841230553744,0.9716250174360199,0.28638263750000004,0.6947750778101305
0.047,1.744775,1.0,2722.251427610936,0.41066474881973125,1.3088709522568351,0.9720308066654335,0.28633355,0.6957867820534307
0.0475,1.74359375,1.0,2720.571079418183,0.41397046814367144,1.3083527809271018,0.9724246823578984,0.28628393750000003,0.6968066406075343
0.048,1.7424,1.0,2718.8255566040198,0.4172576389565852,1.3078295627316134,0.9728070970547109,0.2862338,0.6978346948611724
0.0485,1.74119375,1.0,2717.020008275995,0.4205263650160619,1.3073012513358095,0.97317848157134,0.2861831375,0.698870985100273
0.049,1.739975,1.0,2715.1595789278895,0.42377675007969084,1.3067678004051293,0.97353924623699,0.28613195,0.6999155504929808
0.0495,1.73874375,1.0,2713.2494078965724,0.42700889790506147,1.306229163605012,0.9738897820524591,0.2860802375,0.7009684290745368
0.05,1.7375,1.0,2711.294628866339,0.43022291224976295,1.3056852946008972,0.9742304617723737,0.286028,0.7020296577320239
0.0505,1.73624375,1.0,2709.300369420876,0.43341889687138474,1.3051361470582237,0.974561640917375,0.2859752375,0.7030992721889735
0.051000000000000004,1.734975,1.0,2707.2717506427944,0.4365969555275161,1.3045816746424312,0.9748836587213804,0.28592195,0.7041773069898347
0.051500000000000004,1.73369375,1.0,2705.213886760926,0.4397571919757463,1.3040218310189589,0.9751968390186238,0.2858681375,0.7052637954843101
0.052000000000000005,1.7324,1.0,2703.128617107058,0.442899700867864,1.3034565997002743,0.9755014920045034,0.2858138,0.706358712048302
0.0525,1.73109375,1.0,2701.015966328471,0.4460245797342639,1.3028859807591489,0.9757979154214942,0.28575893750000003,0.7074619982766853
0.053,1.729775,1.0,2698.8827644724215,0.44913194097004766,1.3023099120640607,0.9760863915213726,0.28570355000000003,0.7085737151397319
0.0535,1.72844375,1.0,2696.7307930060606,0.45222187929225566,1.3017283775557804,0.9763671912160081,0.2856476375,0.7096938334743509
0.054,1.7271,1.0,2694.5618308215408,0.4552944894179282,1.301141361175079,0.9766405736779632,0.2855912,0.7108223233087392
0.0545,1.7257437500000001,1.0,2692.377654175111,0.45834986606410566,1.3005488468627275,0.97690678694593,0.2855342375,0.7119591538567753
0.055,1.724375,1.0,2690.180036631707,0.46138810394782837,1.2999508185594968,0.9771660684940241,0.28547675,0.7131042935123975
0.0555,1.72299375,1.0,2687.970749015811,0.46440929778613665,1.2993472602061573,0.9774186457673721,0.2854187375,0.7142577098439642
0.056,1.7216,1.0,2685.7515593669887,0.4674135422960709,1.2987381557434805,0.9776647366862551,0.2853602,0.7154193695885969
0.0565,1.72019375,1.0,2683.5242329022803,0.47040093219467144,1.2981234891122369,0.9779045501208942,0.28530113749999997,0.7165892386465116
0.057,1.718775,1.0,2681.290531983665,0.4733715621989786,1.2975032442531973,0.9781382863388164,0.28524155,0.7177672820753267
0.0575,1.71734375,1.0,2679.052216091073,0.47632552702603276,1.296877405107133,0.9783661374265881,0.2851814375,0.7189534640843598
0.058,1.7159,1.0,2676.8110418017736,0.47926292139287424,1.2962459556148145,0.9785882876875854,0.2851208,0.7201477480289074
0.0585,1.71444375,1.0,2674.5687627750535,0.4821838400165434,1.2956088797170127,0.9788049140173384,0.2850596375,0.721350096404505
0.059000000000000004,1.7129750000000001,1.0,2672.3272355281256,0.4850883721080203,1.2949661603827152,0.9790161857396997,0.28499795,0.7225604726692549
0.059500000000000004,1.71149375,1.0,2670.0887929630267,0.4879765911313537,1.2943177761742735,0.9792222639413226,0.2849357375,0.7237788476652751
0.06,1.71,1.0,2667.8537131976127,0.49084862552213826,1.2936637245098668,0.979423308942457,0.284873,0.7250051559534219
0.0605,1.7084937500000001,1.0,2665.6225600891266,0.4937045618746878,1.293004000175177,0.9796194712494055,0.2848097375,0.7262393363563293
0.061,1.7069750000000001,1.0,2663.395896550524,0.4965444867833162,1.2923385979558855,0.9798108955682655,0.28474595,0.7274813269935816
0.0615,1.7054437500000001,1.0,2661.174284553631,0.49936848684233714,1.2916675126376742,0.9799977210709049,0.2846816375,0.728731065279822
0.062,1.7039,1.0,2658.958285133972,0.5021766486460645,1.2909907390062245,0.9801800816467835,0.2846168,0.7299884879228677
0.0625,1.70234375,1.0,2656.7484583945206,0.504969058788812,1.290308271847218,0.9803581061414719,0.2845514375,0.7312535309218168
0.063,1.7007750000000001,1.0,2654.5453635116996,0.5077458038648937,1.2896201059463364,0.9805319185826642,0.28448555,0.732526129565156
0.0635,1.69919375,1.0,2652.349558740952,0.5105069704686231,1.2889262360892615,0.9807016383944327,0.28441913750000003,0.7338062184288658
0.064,1.6976,1.0,2650.1616014231695,0.5132526451943142,1.2882266570616745,0.9808673806004109,0.2843522,0.7350937313745277
0.0645,1.69599375,1.0,2647.98204799212,0.5159829146362808,1.2875213636492573,0.9810292560165597,0.2842847375,0.7363886015474221
0.065,1.694375,1.0,2645.811453981884,0.5186978653888366,1.2868103506376916,0.9811873714341199,0.28421675,0.7376907613746315
0.0655,1.69274375,1.0,2643.6503740352273,0.5213975840462954,1.2860936128126588,0.9813418297933174,0.2841482375,0.7390001425631394
0.066,1.6911,1.0,2641.4993619123784,0.5240821572029711,1.2853711449598404,0.9814927303483539,0.2840792,0.7403166760979265
0.0665,1.6894437500000001,1.0,2639.358970500957,0.5267516714531776,1.2846429418649183,0.9816401688241738,0.2840096375,0.741640292240066
0.067,1.687775,1.0,2637.2297518254118,0.5294062133912285,1.2839089983135743,0.9817842375654805,0.28393955,0.7429709205248178
0.0675,1.68609375,1.0,2635.1123462798346,0.532045866976921,1.2831693082661044,0.9819250254636552,0.2838689375,0.744308491250306
0.068,1.6844000000000001,1.0,2633.0097912275614,0.5346706574223409,1.2824238434905288,0.9820626134002612,0.2837978,0.7456529739414455
0.0685,1.68269375,1.0,2630.91966165154,0.5372807510077021,1.2816726262832714,0.9821970910503364,0.2837261375,0.7470042461820298
0.069,1.680975,1.0,2628.84185045718,0.5398762250799174,1.2809156575083875,0.9823285382367556,0.28365395,0.7483622237456324
0.0695,1.67924375,1.0,2626.7762507728607,0.5424571569858992,1.2801529380299328,0.9824570320678793,0.28358123749999997,0.7497268217895301
0.07,1.6775,1.0,2624.722755948252,0.5450236240725603,1.2793844687119627,0.9825826470468708,0.283508,0.7510979548550203
0.07050000000000001,1.67574375,1.0,2622.6812595521747,0.5475757036868132,1.2786102504185324,0.9827054551758901,0.2834342375,0.7524755368677382
0.07100000000000001,1.673975,1.0,2620.651655370345,0.5501134731755706,1.2778302840136972,0.9828255260554283,0.28335995,0.753859481137973
0.07150000000000001,1.67219375,1.0,2618.633837403812,0.552637009885745,1.277044570361513,0.9829429269790488,0.2832851375,0.7552497003609844
0.07200000000000001,1.6704,1.0,2616.6276998668004,0.5551463911642492,1.2762531103260348,0.9830577230237689,0.2832098,0.7566461066173202
0.0725,1.66859375,1.0,2614.6331371846036,0.5576416943579958,1.275455904771318,0.9831699771363145,0.2831339375,0.7580486113731331
0.073,1.6667750000000001,1.0,2612.6500439920696,0.5601229968138973,1.2746529545614185,0.9832797502154598,0.28305755,0.7594571254804956
0.0735,1.66494375,1.0,2610.678315131204,0.5625903758788665,1.273844260560391,0.983387101190655,0.2829806375,0.760871559177719
0.074,1.6631,1.0,2608.7178456496276,0.5650439088998158,1.2730298236322912,0.9834920870971294,0.2829032,0.7622918220896682
0.0745,1.6612437500000001,1.0,2606.768530798374,0.5674836732236581,1.2722096446411748,0.9835947631476536,0.2828252375,0.7637178232280782
0.075,1.659375,1.0,2604.83026603047,0.5699097461973058,1.2713837244510968,0.9836951828011261,0.28274675,0.7651494709918724
0.0755,1.65749375,1.0,2602.902946998806,0.5723222051676716,1.2705520639261128,0.9837933978281448,0.2826677375,0.7665866731674764
