Time [s],Phi [rad],STIM [ ],Fsee [N],Gamma [ ],Lcerel [ ],q [ ],Lmtc [m],fisomrel [ ]
0.0,1.8,1.0,18.49219564311068,0.0007374501105016632,1.3792813480206538,0.005140064183789221,0.288653,0.5412808005217975
0.0005,1.79999375,1.0,19.023143359611225,0.006342522907408424,1.3792203069991884,0.015082812326774862,0.2886527375,0.5414284399216878
0.001,1.799975,1.0,22.905038574070204,0.01191615567754846,1.3788087882499618,0.03949944200142037,0.28865195,0.542423156711083
0.0015,1.79994375,1.0,33.5643780560173,0.01745852477536646,1.3778377309382797,0.0758617798554645,0.2886506375,0.5447661003807787
0.002,1.7999,1.0,58.4603402006918,0.022969805564575813,1.3760585672496073,0.12090500037428456,0.2886488,0.549043220657438
0.0025,1.79984375,1.0,104.90248327195312,0.02845017242596607,1.3735673248738498,0.17127879268765142,0.28864643749999996,0.5549982582480726
0.003,1.7997750000000001,1.0,170.82121425137044,0.03389979876339736,1.3708506492069046,0.22417895688016334,0.28864354999999997,0.5614470535166372
0.0035,1.79969375,1.0,248.68355853560777,0.039318857005680004,1.368249730384244,0.27746183474138125,0.2886401375,0.567576964515088
0.004,1.7996,1.0,333.0865921294436,0.04470751861629367,1.3658510597047198,0.32953864014360035,0.2886362,0.5731919710233853
0.0045000000000000005,1.7994937500000001,1.0,421.2471625117444,0.05006595409685939,1.363643639860575,0.37931516267941057,0.2886317375,0.5783268596586496
0.005,1.799375,1.0,511.58670177734024,0.055394332952643656,1.3616012203117225,0.42611946464374023,0.28862675,0.5830502470314833
0.0055,1.79924375,1.0,603.0526970606479,0.06069282390585291,1.3597004902278198,0.4696073989748052,0.2886212375,0.5874220578120731
0.006,1.7991000000000001,1.0,694.7646574976177,0.06596159445389055,1.3579247948027164,0.5096718391799356,0.2886152,0.5914854632188564
0.006500000000000001,1.79894375,1.0,786.0318909245908,0.07120081135185022,1.3562606421765364,0.5463640260136485,0.2886086375,0.595275366186103
0.007,1.798775,1.0,876.2787596534461,0.07641064043467578,1.354697337864188,0.579834737597901,0.28860155,0.5988195105614096
0.0075,1.79859375,1.0,965.0140116385084,0.08159124635481181,1.3532262876555607,0.6102914100529004,0.2885939375,0.6021402733069868
0.008,1.7984,1.0,1051.8774046760275,0.0867427934152063,1.3518395198696438,0.6379679025789302,0.2885858,0.6052581385774827
0.0085,1.79819375,1.0,1136.5506599109253,0.09186544425695167,1.350530570034249,0.6631056746449581,0.2885771375,0.6081897942329864
0.009000000000000001,1.797975,1.0,1218.7957206791423,0.09695936088913824,1.3492934946621338,0.6859410051407049,0.28856795,0.6109504291668174
0.0095,1.79774375,1.0,1298.4551284143615,0.10202470496458567,1.3481226335193564,0.7066977103480966,0.2885582375,0.613554311325089
0.01,1.7975,1.0,1375.3964358479222,0.10706163645204654,1.3470131553815654,0.725583658318471,0.288548,0.6160136160463314
0.0105,1.79724375,1.0,1449.5331567087148,0.11207031453685791,1.3459605811446778,0.7427889166619946,0.2885372375,0.618339528998842
0.011,1.796975,1.0,1520.827449650919,0.11705089772384383,1.3449606250748,0.7584854899938629,0.28852595000000003,0.6205426248341939
0.0115,1.79669375,1.0,1589.2768717584308,0.12200354440684887,1.3440092601954867,0.7728280098759948,0.2885141375,0.622632745216052
0.012,1.7964,1.0,1654.867577443214,0.12692841042166958,1.3431031764408718,0.7859550412461375,0.28850180000000003,0.6246180175898723
0.0125,1.79609375,1.0,1717.6246396873273,0.13182565151895298,1.3422390844617316,0.7979900919763163,0.2884889375,0.6265064064629967
0.013000000000000001,1.7957750000000001,1.0,1777.587868872591,0.13669542254747932,1.3414139454973195,0.809043133448452,0.28847555,0.6283052226401573
0.0135,1.79544375,1.0,1834.8403133992824,0.1415378790433031,1.34062459851355,0.8192118489903253,0.2884616375,0.6300219479830447
0.014,1.7951000000000001,1.0,1889.4281841936356,0.14635317328856262,1.3398686122171113,0.8285832863032911,0.2884472,0.6316623929515779
0.0145,1.79474375,1.0,1941.4088027162109,0.15114145700641915,1.339143688919444,0.8372348298262947,0.2884322375,0.6332320097771411
0.015,1.794375,1.0,1990.860332427063,0.15590288192003388,1.338447530931989,0.8452352695878667,0.28841675,0.6347361887947716
0.0155,1.79399375,1.0,2037.8609444137542,0.1606375987266395,1.3377780406790665,0.8526458732583729,0.2884007375,0.636179831744295
0.016,1.7936,1.0,2082.5154260111553,0.16534575855479314,1.3371330153809453,0.8595211764767217,0.2883842,0.6375680163907886
0.0165,1.7931937500000001,1.0,2124.894477737964,0.1700275094055827,1.336510762706331,0.8659099654782353,0.2883671375,0.6389046766033271
0.017,1.792775,1.0,2165.0726682871727,0.17468299880828092,1.3359096751195605,0.8718558275904519,0.28834955,0.6401935272993347
0.0175,1.7923437500000001,1.0,2203.1354175434817,0.17931237429216063,1.3353281450849703,0.8773977406134861,0.2883314375,0.6414382497253606
0.018000000000000002,1.7919,1.0,2239.1635084553914,0.1839157821749269,1.3347647111976026,0.8825706527888341,0.2883128,0.6426421815586278
0.0185,1.79144375,1.0,2273.2586957956173,0.18849336983231113,1.3342177889552158,0.8874058826521978,0.2882936375,0.6438088952356085
0.019,1.790975,1.0,2305.492452703101,0.19304528106688215,1.3336861746103086,0.8919316633422572,0.28827395,0.6449411252357737
0.0195,1.79049375,1.0,2335.936386734489,0.1975716591304397,1.3331687264751129,0.8961734162436924,0.2882537375,0.6460414531216563
0.02,1.79,1.0,2364.667857925489,0.20207264727478363,1.332664302861861,0.900154054929458,0.288233,0.647112441331097
0.0205,1.78949375,1.0,2391.763259195285,0.20654838780875695,1.3321718226021761,0.9038942793821421,0.2882117375,0.6481565059602947
0.021,1.788975,1.0,2417.304508398711,0.21099902374937124,1.3316901963135797,0.9074128068590798,0.28818995000000003,0.6491760639969995
0.021500000000000002,1.78844375,1.0,2441.364102857923,0.2154246963692772,1.3312184663163595,0.910726616978862,0.2881676375,0.6501732384280567
0.022,1.7879,1.0,2464.0011289405297,0.21982554430233844,1.330755838086551,0.9138511442428576,0.2881448,0.6511497945524978
0.0225,1.78734375,1.0,2485.2777023734498,0.2242017061824188,1.3303015171001897,0.9168004107000789,0.28812143749999997,0.6521074866113299
0.023,1.786775,1.0,2505.2587154623398,0.22855332064338194,1.3298547088333108,0.9195871747580397,0.28809755,0.6530480582286089
0.0235,1.78619375,1.0,2524.005821644989,0.23288052522475103,1.32941467336525,0.9222230721817992,0.28807313749999996,0.6539731280984235
0.024,1.7856,1.0,2541.582315846591,0.2371834577230219,1.3289806763438827,0.9247187227039974,0.2880482,0.654884293980617
0.0245,1.78499375,1.0,2558.05688618355,0.24146225655821052,1.328551951814239,0.9270838263824784,0.2880227375,0.655783210966371
0.025,1.784375,1.0,2573.4745623850304,0.2457170551908101,1.328127972922752,0.929327299421572,0.28799675,0.656671024826549
0.025500000000000002,1.78374375,1.0,2587.8817925923627,0.24994798708131377,1.3277082128158553,0.9314573123896353,0.2879702375,0.6575488751691266
0.026000000000000002,1.7831000000000001,1.0,2601.3263250598693,0.2541551856902147,1.3272921446399826,0.9334813626920708,0.2879432,0.6584178955897984
0.0265,1.78244375,1.0,2613.8570960095158,0.2583387844780061,1.3268792415415667,0.9354063391165648,0.2879156375,0.6592792138048793
0.027,1.781775,1.0,2625.523226379418,0.2624989165278533,1.3264689849827314,0.9372385805224718,0.28788755,0.6601339344526311
0.0275,1.7810937500000001,1.0,2636.3673332604294,0.2666357119704051,1.326060925593264,0.9389839352173539,0.2878589375,0.6609830127591324
0.028,1.7804,1.0,2646.442558065598,0.27074930660531915,1.3256545244693818,0.9406477860840459,0.2878298,0.6618275851167755
0.0285,1.77969375,1.0,2655.782686515391,0.27483982836811355,1.3252494286040106,0.9422351272427393,0.2878001375,0.6626683966606014
0.029,1.778975,1.0,2664.422106497072,0.27890740519430623,1.3248452849900771,0.9437505753134591,0.28776995,0.6635061888383788
0.029500000000000002,1.7782437500000001,1.0,2672.395755047133,0.2829521650194152,1.3244417406205073,0.9451984028195671,0.2877392375,0.6643416994360186
0.03,1.7775,1.0,2679.7390680969615,0.2869742357789584,1.3240384424882272,0.9465825682367607,0.287708,0.6651756625950378
0.0305,1.77674375,1.0,2686.4879329809346,0.2909737454084539,1.3236350375861634,0.9479067430609522,0.2876762375,0.6660088088220746
0.031,1.775975,1.0,2692.6713317596905,0.2949508181751654,1.3232312398230186,0.9491743435520731,0.28764395,0.6668417270487061
0.0315,1.7751937500000001,1.0,2698.321615687724,0.2989055818385646,1.322826735359742,0.9503885425047836,0.2876111375,0.6676750603857496
0.032,1.7744,1.0,2703.4793139645067,0.30283816818851195,1.3224211385260642,0.9515522842240779,0.2875778,0.668509596401647
0.0325,1.77359375,1.0,2708.1659579053803,0.30674869868811727,1.3220142398169987,0.9526683287032042,0.2875439375,0.6693457568720678
0.033,1.772775,1.0,2712.4032879285096,0.3106372948004903,1.3216058297275595,0.953739248631824,0.28750955,0.6701839613687757
0.0335,1.7719437500000002,1.0,2716.2132338669453,0.3145040779887408,1.3211956987527598,0.9547674443560376,0.2874746375,0.6710246272408368
0.034,1.7711000000000001,1.0,2719.6178962531317,0.31834916971597865,1.3207836373876136,0.9557551574741541,0.2874392,0.6718681695930231
0.0345,1.7702437500000001,1.0,2722.639528577778,0.32217269144531363,1.3203694361271348,0.9567044832070323,0.2874032375,0.6727150012614214
0.035,1.7693750000000001,1.0,2725.3005205204554,0.32597476463985553,1.319952885466337,0.9576173816663258,0.28736675,0.6735655327862407
0.035500000000000004,1.76849375,1.0,2727.6233821545907,0.32975551076271403,1.319533775900234,0.9584956881303409,0.2873297375,0.6744201723818212
0.036000000000000004,1.7676,1.0,2729.629864385004,0.3335150501503484,1.31911190578381,0.9593411229745658,0.2872922,0.6752793099076043
0.0365,1.76669375,1.0,2731.3368780229425,0.3372534971812316,1.318687118275432,0.9601553028597938,0.2872541375,0.6761432418536377
0.037,1.765775,1.0,2732.7694673229475,0.34097098087425853,1.3182591833110668,0.9609397411342061,0.28721555,0.6770124114737652
0.0375,1.76484375,1.0,2733.9405833384158,0.34466761585059363,1.3178279813021512,0.9616958669807514,0.2871764375,0.6778870353998707
0.038,1.7639,1.0,2734.863227314321,0.3483435167314012,1.3173933926601213,0.9624250238658744,0.28713679999999997,0.6787673287490371
0.0385,1.76294375,1.0,2735.550444540438,0.3519987981378456,1.316955297796414,0.9631284756175045,0.28709663750000003,0.6796535050981711
0.039,1.761975,1.0,2736.0153185211625,0.3556335746910913,1.3165135771224654,0.9638074120084639,0.28705595,0.6805457764577205
0.0395,1.7609937500000001,1.0,2736.2709654632363,0.35924796101230266,1.316068111049712,0.9644629538904381,0.2870147375,0.6814443532444734
0.04,1.76,1.0,2736.3305290796015,0.36284207172264404,1.3156187799895906,0.965096157919117,0.286973,0.6823494442534515
0.0405,1.7589937500000001,1.0,2736.2071757111976,0.3664160214432799,1.3151654643535373,0.9657080209070565,0.2869307375,0.6832612566288878
0.041,1.757975,1.0,2735.91408976508,0.36996992479537455,1.3147080445529888,0.9662994838372067,0.28688795,0.684179995834292
0.0415,1.75694375,1.0,2735.4549367832387,0.37350387891550846,1.3142464875534619,0.966871439945017,0.2868446375,0.685105692156607
0.042,1.7559,1.0,2734.8516413766106,0.3770180170368405,1.3137805946429097,0.9674247257329396,0.28680079999999997,0.6860387067141007
0.0425,1.75484375,1.0,2734.1150726861515,0.38051245365941977,1.3133102675415262,0.9679601375076147,0.2867564375,0.6869791972355141
0.043000000000000003,1.753775,1.0,2733.2519124373625,0.38398729556011346,1.312835446046008,0.9684784307248487,0.28671155,0.6879272439323825
0.043500000000000004,1.75269375,1.0,2732.268847293921,0.38744264951578883,1.3123560699530517,0.9689803207709852,0.28666613750000003,0.6888829259039678
0.044,1.7516,1.0,2731.1725673609594,0.39087862230331294,1.3118720790593537,0.9694664854839878,0.2866202,0.6898463211198861
0.0445,1.75049375,1.0,2729.9697647701887,0.39429532069955314,1.3113834131616111,0.9699375674918054,0.2865737375,0.6908175064025044
0.045,1.7493750000000001,1.0,2728.6671323445576,0.39769285148137656,1.3108900120565203,0.9703941763829297,0.28652675,0.6917965574091092
0.0455,1.74824375,1.0,2727.2713623432383,0.40107132142565044,1.3103918155407783,0.970836890722709,0.2864792375,0.6927835486138376
0.046,1.7471,1.0,2725.7891452875942,0.40443083730924195,1.3098887634110816,0.9712662599277733,0.2864312,0.6937785532893836
0.0465,1.7459437500000001,1.0,2724.227168866788,0.40777150590901834,1.309380795464127,0.9716828060098199,0.28638263750000004,0.6947816434884695
0.047,1.744775,1.0,2722.592116924105,0.4110934340018468,1.3088678514966112,0.9720870251990262,0.28633355,0.6957928900250872
0.0475,1.74359375,1.0,2720.8906685241336,0.4143967283645944,1.3083498713052308,0.9724793894564622,0.28628393750000003,0.6968123624555089
0.048,1.7424,1.0,2719.129497098758,0.41768149577412855,1.3078267946866826,0.9728603478840598,0.2862338,0.6978401290590656
0.0485,1.74119375,1.0,2717.3103697234124,0.42094782650183904,1.3072986060761445,0.9732303291088192,0.2861831375,0.698876169335646
0.049,1.739975,1.0,2715.4407316212496,0.42419583852389703,1.306765238159835,0.9735897412445672,0.28613195,0.6999205633186855
0.0495,1.73874375,1.0,2713.526757754903,0.42742564281866,1.3062266351259015,0.973938973100682,0.2860802375,0.7009733671539158
0.05,1.7375,1.0,2711.571321552267,0.43063733777176755,1.3056827712036747,0.9742783958897251,0.286028,0.7020345771340621
0.0505,1.73624375,1.0,2709.5772933936223,0.4338310217688591,1.3051336206224848,0.9746083637006624,0.2859752375,0.7031041886664972
0.051000000000000004,1.734975,1.0,2707.547540399867,0.4370067931955743,1.304579157611662,0.9749292144383145,0.28592195,0.7041821962645737
0.051500000000000004,1.73369375,1.0,2705.484926234639,0.44016475043755254,1.3040193564005371,0.975241270703232,0.2858681375,0.7052685935389132
0.052000000000000005,1.7324,1.0,2703.3923109219304,0.4433049918804335,1.30345419121844,0.9755448406162539,0.2858138,0.7063633731886556
0.0525,1.73109375,1.0,2701.272550677795,0.4464276159098566,1.3028836362947014,0.97584021859169,0.28575893750000003,0.7074665269926628
0.053,1.729775,1.0,2699.1284977571454,0.4495327209114614,1.3023076658586514,0.9761276860627373,0.28570355000000003,0.7085780458006823
0.0535,1.72844375,1.0,2696.963000315239,0.4526204052708875,1.3017262541396204,0.97640751216247,0.2856476375,0.7096979195244681
0.054,1.7271,1.0,2694.778902283728,0.4556907673737744,1.301139375366939,0.9766799543634829,0.2855912,0.710826137128858
0.0545,1.7257437500000001,1.0,2692.579043261594,0.45874390560576156,1.3005470037699371,0.9769452590790176,0.2855342375,0.7119626866228106
0.055,1.724375,1.0,2690.366258420651,0.4617799183524886,1.2999491135779455,0.977203662228207,0.28547675,0.7131075550503978
0.0555,1.7229937593343427,1.0,2688.143838670848,0.464798903999595,1.2993456790202942,0.9774553897678531,0.2854187378920424,0.714260728481757
0.056,1.7216067424063544,1.0,2686.240055057062,0.467800958262203,1.2987367246458246,0.9777006608893223,0.2853604831810669,0.7154220961348368
0.0565,1.720219725478366,1.0,2684.8892975390095,0.4707861743957011,1.2981227078040727,0.9779397105354023,0.28530222847009135,0.716590724144029
0.057,1.7188327085503776,1.0,2684.050751996068,0.47375464602224765,1.2975039987858747,0.9781727590668422,0.28524397375911587,0.7177658504668822
0.0575,1.7174456916223892,1.0,2683.6862752171237,0.4767064665094631,1.2968809450453511,0.978400016581443,0.28518571904814033,0.7189467616995511
0.058,1.7160586746944007,1.0,2683.757866805064,0.47964172922496756,1.2962538940366217,0.9786216847303834,0.28512746433716485,0.720132749579522
0.0585,1.7146716577664123,1.0,2684.2287294107787,0.4825605272570348,1.2956231832012277,0.9788379565535397,0.2850692096261893,0.7213231299552723
0.059000000000000004,1.713284640838424,1.0,2685.064909016716,0.4854629533304989,1.2949891246735314,0.9790490160496129,0.2850109549152138,0.7225172714424226
0.059500000000000004,1.7118976239104355,1.0,2686.2350382814875,0.48834909980789676,1.2943520074204509,0.9792550387296649,0.2849527002042383,0.7237145909679555
0.06,1.7105106069824472,1.0,2687.7148086374327,0.49121905717877995,1.2937120561063593,0.9794561896708909,0.28489444549326276,0.7249146304138229
0.0605,1.7091235900544588,1.0,2689.479940865236,0.49407291593270025,1.293069495395631,0.9796526276111435,0.2848361907822873,0.7261169351675709
0.061,1.7077365731264704,1.0,2691.5061715363604,0.49691076655920924,1.2924245499526394,0.9798445052472077,0.28477793607131174,0.7273210541613402
0.0615,1.7063495561984818,1.0,2693.7713360554067,0.4997326988225948,1.2917774252687302,0.9800319684488014,0.2847196813603362,0.7285265755853017
0.062,1.7049625392704935,1.0,2696.2531783016,0.5025388030308953,1.2911283276346956,0.9802151577151732,0.2846614266493607,0.7297330894407694
0.0625,1.703575522342505,1.0,2698.934712008788,0.5053291675027775,1.2904774150442002,0.9803942056825447,0.2846031719383852,0.7309402785371156
0.063,1.7021885054145167,1.0,2701.800502461912,0.5081038799384411,1.2898248312142202,0.980569239328701,0.2845449172274097,0.7321478546289821
0.0635,1.7008014884865283,1.0,2704.8351012546495,0.5108630280380861,1.2891707198617317,0.9807403809999392,0.2844866625164342,0.7333555318069129
0.064,1.69941447155854,1.0,2708.0241343539356,0.5136066987071749,1.288515214727971,0.9809077480554488,0.2844284078054587,0.7345630448675791
0.0645,1.6980274546305516,1.0,2711.3595557183876,0.5163349745135889,1.287858391653839,0.9810714504283252,0.28437015309448316,0.735770237099697
0.065,1.696640437702563,1.0,2714.81508870741,0.519047952289229,1.2872004925597118,0.981231603414214,0.2843118983835077,0.7369766488311829
0.0655,1.6952534207745746,1.0,2718.3831479521837,0.5217457155012069,1.2865415885882232,0.9813883088818051,0.28425364367253214,0.7381821365093668
0.066,1.6938664038465863,1.0,2722.056134617573,0.5244283476166343,1.2858817508820062,0.9815416651288851,0.2841953889615566,0.7393865577571384
0.0665,1.692479386918598,1.0,2725.8264348729695,0.5270959321026227,1.2852210505836947,0.9816917670348115,0.2841371342505811,0.7405897713773388
0.067,1.6910923699906095,1.0,2729.686418475517,0.5297485524262842,1.2845595588359222,0.9818387062054554,0.2840788795396056,0.741791637356841
0.0675,1.6897053530626212,1.0,2733.628437465916,0.5323862920547301,1.2838973467813222,0.9819825711110352,0.2840206248286301,0.7429920168702988
0.068,1.6883183361346328,1.0,2737.6448249756854,0.5350092344550723,1.283234485562528,0.9821234472172341,0.2839623701176546,0.7441907722835783
0.0685,1.6869313192066442,1.0,2741.727894147565,0.5376174630944224,1.2825710463221733,0.982261417109979,0.28390411540667904,0.7453877671568627
0.069,1.6855443022786558,1.0,2745.8699371675043,0.5402110614398921,1.2819071002028917,0.9823965606142228,0.28384586069570356,0.7465828662474387
0.0695,1.6841572853506674,1.0,2750.0642207236288,0.54279011117009,1.2812427093251133,0.9825289543739939,0.283787605984728,0.747775951694738
0.07,1.682770268422679,1.0,2754.3096641829466,0.5453546862324161,1.280577884484139,0.9826586696538492,0.28372935127375254,0.7489669985280778
0.07050000000000001,1.6813832514946907,1.0,2758.593132519369,0.54790488411663,1.2799127454439632,0.9827857818405006,0.283671096562777,0.7501557874299205
0.07100000000000001,1.6799962345667023,1.0,2762.911882633932,0.5504407826793627,1.2792473177186237,0.9829103583808715,0.28361284185180147,0.7513422689635014
0.07150000000000001,1.678609217638714,1.0,2767.263163184254,0.5529624597772458,1.2785816268221568,0.9830324645459713,0.283554587140826,0.7525263941234712
0.07200000000000001,1.6772222007107254,1.0,2771.644214427823,0.5554699932669108,1.2779156982686,0.9831521635163128,0.28349633242985045,0.7537081143363409
0.0725,1.675835183782737,1.0,2776.0522680808654,0.557963461004989,1.2772495575719902,0.9832695164634379,0.28343807771887497,0.7548873814608918
0.073,1.6744481668547486,1.0,2780.484547190828,0.5604429408481117,1.2765832302463647,0.9833845826277566,0.28337982300789943,0.7560641477885409
0.0735,1.6730611499267602,1.0,2784.938266023721,0.5629085106529106,1.2759167418057602,0.9834974193928907,0.2833215682969239,0.7572383660436655
