Time [s],Phi [rad],STIM [ ],Fsee [N],Gamma [ ],Lcerel [ ],q [ ],Lmtc [m],fisomrel [ ]
0.0,1.8,1.0,17.96737453722498,1.0005438110647754e-05,1.3793397219791579,0.005000026680651457,0.288653,0.5411395896963496
0.0005,1.79999375,1.0,18.276688279594048,0.005619158624309848,1.3793023939951867,0.012940529175890732,0.2886527375,0.5412298912931126
0.001,1.799975,1.0,21.61829971842665,0.01119684889605688,1.3789383104723938,0.035608605230927244,0.28865195,0.5421101940571674
0.0015,1.79994375,1.0,31.069069811458288,0.016743252736285665,1.3780462178880513,0.07060174443103463,0.2886506375,0.5442635750654976
0.002,1.7999,1.0,53.58197388811187,0.02225854563628007,1.3763681585420444,0.1147178831683742,0.2886488,0.5483004121035412
0.0025,1.79984375,1.0,97.11817021213128,0.02774290210323523,1.373935204240464,0.1645747246020264,0.28864643749999996,0.5541213744567681
0.003,1.7997750000000001,1.0,160.95727344503385,0.033196495667976965,1.3712143771962257,0.21728027969587618,0.28864354999999997,0.5605863716926602
0.0035,1.79969375,1.0,237.68237696201712,0.03861949888455152,1.3685847636368023,0.27061271442688695,0.2886401375,0.5667897704553655
0.004,1.7996,1.0,321.4658093719818,0.044012083341008236,1.3661561178750141,0.322915632684452,0.2886362,0.5724799022407486
0.0045000000000000005,1.7994937500000001,1.0,409.2668140260665,0.049374419664583925,1.3639228361559939,0.37303434713016254,0.2886317375,0.5776791113653624
0.005,1.799375,1.0,499.41258596445897,0.05470667751279209,1.3618583618585662,0.42024731099891877,0.28862675,0.5824570342890145
0.0055,1.79924375,1.0,590.7895268503617,0.06000902562089761,1.3599388524320626,0.46417356016189953,0.2886212375,0.5868750717789856
0.006,1.7991000000000001,1.0,682.5172443759386,0.0652816317450508,1.3581464304517528,0.5046798359674167,0.2886152,0.5909793825085071
0.006500000000000001,1.79894375,1.0,773.8805044649624,0.07052466271790894,1.3564672664782444,0.5418006450913257,0.2886086375,0.5948057650814039
0.007,1.798775,1.0,864.285024771691,0.07573828443223334,1.354890407699768,0.5756766777788465,0.28860155,0.5983826483504222
0.0075,1.79859375,1.0,953.2425366326918,0.08092266185062182,1.353406789631453,0.6065098225324363,0.2885939375,0.6017335492423148
0.008,1.7984,1.0,1040.3443350167074,0.08607795861599836,1.3520088542275956,0.6345320919713885,0.2885858,0.6048780820962223
0.0085,1.79819375,1.0,1125.314517134055,0.09120433881446482,1.3506892373985382,0.6599843542848923,0.2885771375,0.607835008841938
0.009000000000000001,1.797975,1.0,1207.899721119127,0.09630196436849076,1.3494420413285828,0.6831041276594073,0.28856795,0.6106194507401563
0.0095,1.79774375,1.0,1287.891158310944,0.10137099582623017,1.348262137663453,0.7041174234970797,0.2885582375,0.6132445263714354
0.01,1.7975,1.0,1365.166055730598,0.10641159373583714,1.347144398048871,0.7232341782996714,0.288548,0.6157231087477262
0.0105,1.79724375,1.0,1439.6594006158782,0.11142391802311748,1.3460839476212096,0.7406466100741023,0.2885372375,0.6180672869863515
0.011,1.796975,1.0,1511.3223243347081,0.11640812744129682,1.345076552297525,0.7565290816994269,0.28852595000000003,0.6202875416277216
0.0115,1.79669375,1.0,1580.1205343228762,0.12136437917027877,1.344118488770802,0.7710385707087473,0.2885141375,0.6223930666010824
0.012,1.7964,1.0,1646.0555950697924,0.1262928298127289,1.3432061815281207,0.7843155588112232,0.28850180000000003,0.6243925923497662
0.0125,1.79609375,1.0,1709.1729611413468,0.13119363635512382,1.342336046435983,0.7964852968213645,0.2884889375,0.6262947426995551
0.013000000000000001,1.7957750000000001,1.0,1769.5063374257234,0.1360669536014329,1.3415050752021143,0.8076594628672633,0.28847555,0.6281067717193823
0.0135,1.79544375,1.0,1827.0917526904723,0.14091293496058072,1.3407105925861729,0.8179374374442853,0.2884616375,0.6298351151134532
0.014,1.7951000000000001,1.0,1881.9928597569335,0.14573173384149202,1.3399499233478178,0.8274075041198786,0.2884472,0.6314861276014438
0.0145,1.79474375,1.0,1934.2798970934978,0.1505235027263888,1.3392205932828405,0.836148168996196,0.2884322375,0.6330656539950184
0.015,1.794375,1.0,1984.0508040408279,0.15528839459655253,1.338520067308643,0.8442291953466458,0.28841675,0.6345796046854331
0.0155,1.79399375,1.0,2031.371744596006,0.16002655934231408,1.3378463590337968,0.8517128244515717,0.2884007375,0.636032645687522
0.016,1.7936,1.0,2076.3132846295334,0.16473814620912472,1.3371976043930345,0.8586545197410946,0.2883842,0.637429131350761
0.0165,1.7931937500000001,1.0,2118.9602635910305,0.16942330444243558,1.3365719393210889,0.8651037312841784,0.2883671375,0.6387733726455398
0.017,1.792775,1.0,2159.396423418338,0.17408218222266034,1.3359676443043538,0.8711046497927659,0.28834955,0.6400693302952272
0.0175,1.7923437500000001,1.0,2197.723493822933,0.17871492852794135,1.3353829330792713,0.876696768193537,0.2883314375,0.6413210720636003
0.018000000000000002,1.7919,1.0,2234.0159770872847,0.18332168906922205,1.3348163996212186,0.881915552409007,0.2883128,0.6425318193389173
0.0185,1.79144375,1.0,2268.347712578982,0.18790260880497886,1.3342667292005697,0.8867928325665566,0.2882936375,0.6437045719054626
0.019,1.790975,1.0,2300.8000510404277,0.19245783269368827,1.3337326070876994,0.8913572004022301,0.28827395,0.6448423053777018
0.0195,1.79049375,1.0,2331.454345222533,0.1969875047803987,1.3332127861431615,0.8956343965218737,0.2882537375,0.6459478289244633
0.02,1.79,1.0,2360.3979322051673,0.20149176979405897,1.3327060204133279,0.8996476190551469,0.288233,0.647023928509969
0.0205,1.78949375,1.0,2387.707042123686,0.20597077055240676,1.332211226004216,0.9034178436777395,0.2882117375,0.6480730271580858
0.021,1.788975,1.0,2413.444989274733,0.21042464743751416,1.3317274894018445,0.9069640700002662,0.28818995000000003,0.6490971708391235
0.021500000000000002,1.78844375,1.0,2437.679034191365,0.2148535408314533,1.331253897092232,0.9103035019461893,0.2881676375,0.6500983917768142
0.022,1.7879,1.0,2460.480054592747,0.2192575911162963,1.3307895355613977,0.9134517422225313,0.2881448,0.6510787090659274
0.0225,1.78734375,1.0,2481.9155894073815,0.2236369371914261,1.3303335546409794,0.9164229752472993,0.28812143749999997,0.6520399957852523
0.023,1.786775,1.0,2502.0571216714566,0.22799171958543357,1.3298850943156264,0.9192301040934207,0.28809755,0.6529841344016909
0.0235,1.78619375,1.0,2520.967857728516,0.23232207691862286,1.3294433980687408,0.9218849031326442,0.28807313749999996,0.6539127789187538
0.024,1.7856,1.0,2538.699360733003,0.23662814449246267,1.3290078405100105,0.924398137559123,0.2880482,0.6548272987338631
0.0245,1.78499375,1.0,2555.305079525639,0.2409100576084217,1.3285777962491248,0.9267796433915886,0.2880227375,0.6557290555231782
0.025,1.784375,1.0,2570.840189576348,0.24516795156796872,1.3281526398957713,0.9290384204218599,0.28799675,0.6566194034739677
0.025500000000000002,1.78374375,1.0,2585.3614425985234,0.2494019616725724,1.3277317460596385,0.9311827147348534,0.2879702375,0.6574996894920301
0.026000000000000002,1.7831000000000001,1.0,2598.922522489935,0.2536122226701457,1.3273145312904986,0.9332200986895121,0.2879432,0.6583711658357183
0.0265,1.78244375,1.0,2611.5722693281623,0.2577988681189908,1.3269004688366512,0.9351575374470352,0.2879156375,0.659234960058602
0.027,1.781775,1.0,2623.3548851733176,0.2619620299487799,1.326489085015446,0.9370014454698218,0.28788755,0.6600920834367885
0.0275,1.7810937500000001,1.0,2634.3104277815887,0.26610183936864273,1.326079953170198,0.9387577372654444,0.2878589375,0.6609434443256428
0.028,1.7804,1.0,2644.4798245857023,0.27021842754616004,1.3256726461310873,0.9404318665498281,0.2878298,0.6617899475828304
0.0285,1.779699636750827,1.0,2654.18784114374,0.274311923871101,1.325266785700648,0.9420288746310806,0.28780038474353475,0.6626323919641861
0.029,1.7789992680644688,1.0,2663.757253731441,0.2783824609004572,1.3248623617605357,0.9435534740045348,0.2877709692587077,0.6634708096663483
0.029500000000000002,1.7782988993781106,1.0,2673.185731203152,0.28243016578126523,1.3244593904302238,0.9450100257357119,0.28774155377388067,0.6643051784491314
0.03,1.7775985306917526,1.0,2682.4706780511456,0.28645516566056156,1.3240578878291853,0.9464025687680914,0.2877121382890536,0.665135476197982
0.0305,1.7768981620053943,1.0,2691.609500830604,0.29045758768538266,1.3236578700768937,0.9477348477998585,0.2876827228042266,0.6659616809224764
0.031,1.776197793319036,1.0,2700.599608687355,0.294437559002765,1.3232593532928223,0.9490103384214325,0.28765330731939953,0.6667837707548032
0.0315,1.7754974246326778,1.0,2709.4409587427435,0.29839520147699006,1.3228623303792348,0.9502322652451818,0.2876238918345725,0.667601771754113
0.032,1.7747970559463198,1.0,2718.1303932566825,0.3023306479089162,1.3224668227923728,0.9514036343007012,0.28759447634974544,0.6684156511421953
0.0325,1.7740966872599615,1.0,2726.668201605895,0.3062440235381004,1.3220728206397319,0.9525272380046399,0.2875650608649184,0.6692254407052523
0.033,1.7733963185736032,1.0,2735.0563436164352,0.31013544969869034,1.32168029905987,0.9536056757644792,0.28753564538009135,0.6700312027957673
0.0335,1.7726959498872452,1.0,2743.296810666432,0.3140050477248337,1.3212892331913448,0.9546413723759712,0.2875062298952643,0.670832999474865
0.034,1.771995581200887,1.0,2751.391624876632,0.31785293895067807,1.320899598172715,0.9556365918397797,0.28747681441043726,0.6716308925146368
0.0345,1.7712952125145287,1.0,2759.3428383151336,0.3216792447103711,1.3205113691425383,0.9565934499298686,0.2874473989256102,0.6724249434004322
0.035,1.7705948438281705,1.0,2767.152532215206,0.3254840863380604,1.320124521239373,0.957513925639521,0.2874179834407832,0.6732152133331064
0.035500000000000004,1.7698944751418124,1.0,2774.822816207467,0.3292675851678936,1.3197390296017772,0.9583998716169537,0.28738856795595613,0.6740017632312303
0.036000000000000004,1.7691941064554542,1.0,2782.355793930903,0.333029861790675,1.3193548696711137,0.9592530235477943,0.2873591524711291,0.6747846531165369
0.0365,1.768493737769096,1.0,2789.7528917239906,0.33677100561268103,1.318972023218572,0.9600750025924004,0.28732973698630204,0.675563929859218
0.037,1.7677933690827377,1.0,2797.019714950777,0.34049118290925623,1.3185904346914574,0.9608673437540385,0.287300321501475,0.676339715953789
0.0375,1.7670930003963796,1.0,2804.159122195036,0.34419050620148134,1.3182100735553575,0.9616314791489674,0.28727090601664795,0.6771120825506824
0.038,1.7663926317100214,1.0,2811.1739995780786,0.34786908801043714,1.3178309092758596,0.9623687549789591,0.2872414905318209,0.677881100474746
0.0385,1.7656922630236631,1.0,2818.067259937985,0.3515270408572044,1.317452911318551,0.963080437632554,0.28721207504699386,0.6786468402276029
0.039,1.7649918943373049,1.0,2824.8418420296107,0.35516447726286393,1.3170760491490192,0.963767719289211,0.2871826595621668,0.6794093719899514
0.0395,1.7642915256509468,1.0,2831.5007097455264,0.3587815097484966,1.316700292232852,0.9644317230717847,0.2871532440773398,0.680168765623808
0.04,1.7635911569645886,1.0,2838.0468513573346,0.36237825083518305,1.3163256100356362,0.9650735077881948,0.28712382859251273,0.6809250906746895
0.0405,1.7628907882782303,1.0,2844.4832787776536,0.3659548130440041,1.3159519720229598,0.9656940722990689,0.2870944131076857,0.6816784163737336
0.041,1.762190419591872,1.0,2850.8130268431437,0.36951130889604067,1.3155793476604098,0.9662943595445008,0.28706499762285864,0.6824288116397645
0.0415,1.761490050905514,1.0,2857.039152617568,0.3730478509123734,1.3152077064135743,0.9668752602598281,0.2870355821380316,0.6831763450812944
0.042,1.7607896822191558,1.0,2863.1647347163293,0.37656455161408314,1.31483701774804,0.9674376164074283,0.28700616665320455,0.6839210849984706
0.0425,1.7600893135327975,1.0,2869.192872650736,0.3800615235222507,1.3144672511293949,0.9679822243489506,0.2869767511683775,0.6846630993849556
0.043000000000000003,1.7593889448464393,1.0,2875.1266861939553,0.3835388791579568,1.314098376023226,0.9685098377800623,0.28694733568355046,0.6854024559297578
0.043500000000000004,1.7586885761600812,1.0,2880.9693147667535,0.38699673104228227,1.3137303618951213,0.9690211704477333,0.2869179201987234,0.6861392220189931
0.044,1.757988207473723,1.0,2886.723379848758,0.3904351867610518,1.3133631829569719,0.9695168982969563,0.2868885047138964,0.6868734552521537
0.0445,1.7572878387873647,1.0,2892.385863868005,0.39385430061449694,1.3129968633578877,0.9699976582470222,0.28685908922906933,0.6876051132912111
0.045,1.7565874701010067,1.0,2897.9686198966638,0.3972542646906377,1.3126312960140145,0.9704640646393856,0.2868296737442423,0.6883344156651711
0.0455,1.7558871014146484,1.0,2903.473456755981,0.4006351803045021,1.312266462811292,0.9709166940839283,0.28680025825941524,0.6890614037095792
0.046,1.7551867327282902,1.0,2908.90219470912,0.40399714877111836,1.3119023456356598,0.9713560942461288,0.2867708427745882,0.6897861185809102
0.0465,1.754486364041932,1.0,2914.2566651698917,0.40734027140551443,1.311538926373058,0.9717827855773891,0.28674142728976115,0.6905086012574057
0.047,1.753785995355574,1.0,2919.5387104191605,0.41066464952271836,1.3111761869094263,0.9721972629260299,0.2867120118049341,0.691228892539891
0.0475,1.7530856266692156,1.0,2924.75018332785,0.4139703844377583,1.3108141091307044,0.9725999970382356,0.28668259632010706,0.6919470330525721
0.048,1.7523852579828574,1.0,2929.892947087767,0.4172575774656623,1.3104526749228322,0.9729914359574309,0.28665318083528,0.6926630632438082
0.0485,1.7516848892964991,1.0,2934.9688749493585,0.4205263299214583,1.3100918661717496,0.9733720063298534,0.286623765350453,0.6933770233868679
0.049,1.750984520610141,1.0,2939.9798499670173,0.4237767431201745,1.3097316647633963,0.9737421146234139,0.28659434986562593,0.6940889535806604
0.0495,1.7502841519237828,1.0,2944.9277647514236,0.4270089183768389,1.3093720525837123,0.974102148266356,0.2865649343807989,0.694798893750449
0.05,1.7495837832374246,1.0,2949.8145212292993,0.43022295700647967,1.3090130115186371,0.9744524767116699,0.28653551889597184,0.6955068836485416
0.0505,1.7488834145510663,1.0,2954.6420304103995,0.43341896032412475,1.3086545234541107,0.9747934524327347,0.2865061034111448,0.6962129628549611
0.051000000000000004,1.7481830458647083,1.0,2959.4122121618498,0.43659702964480224,1.308296570276073,0.9751254118552082,0.28647668792631775,0.6969171707780946
0.051500000000000004,1.74748267717835,1.0,2964.1269949894545,0.43975726628354017,1.3079391338704638,0.9754486762297807,0.2864472724414907,0.6976195466553208
0.052000000000000005,1.7467823084919918,1.0,2968.78831582685,0.4428997715553667,1.3075821961232226,0.9757635524500347,0.28641785695666366,0.6983201295536208
0.0525,1.7460819398056335,1.0,2973.3981198313663,0.4460246467753098,1.3072257389202895,0.9760703338193137,0.2863884414718366,0.6990189583701598
0.053,1.7453815711192755,1.0,2977.9583601874915,0.4491319932583976,1.3068697441476043,0.9763693007702017,0.2863590259870096,0.6997160718328568
0.0535,1.7446812024329172,1.0,2982.470997917416,0.45222191231965814,1.3065141936911067,0.9766607215399166,0.28632961050218253,0.7004115085009271
0.054,1.743980833746559,1.0,2986.9380016991213,0.4552945052741195,1.3061590694367364,0.9769448528046868,0.2863001950173555,0.7011053067654069
0.0545,1.743280465060201,1.0,2991.3588147674222,0.458349837294245,1.3058043752629624,0.9772219380874649,0.28627077953252844,0.7017974619580014
0.055,1.7425800963738427,1.0,2995.7358977918,0.4613880273166694,1.3054500888671672,0.9774922142681823,0.2862413640477014,0.7024880204433663
0.0555,1.7418797276874844,1.0,3000.0721826886784,0.46440919719310697,1.3050961839360964,0.9777559082707554,0.28621194856287435,0.7031770361850499
0.056,1.7411793590011262,1.0,3004.3685622057033,0.4674134373387017,1.304742651908364,0.9780132356604102,0.2861825330780473,0.7038645284051585
0.0565,1.7404789903147682,1.0,3008.6259328568053,0.4704008381685978,1.3043894842225843,0.9782644031369083,0.28615311759322026,0.7045505162458837
0.057,1.73977862162841,1.0,3012.8451948526763,0.4733714900979392,1.304036672317371,0.9785096089712447,0.2861237021083932,0.7052350187697052
0.0575,1.7390782529420517,1.0,3017.027252032006,0.47632548354187,1.3036842076313389,0.9787490434174233,0.2860942866235662,0.7059180549595852
0.058,1.7383778842556934,1.0,3021.1730117952475,0.4792629089155343,1.3033320816031013,0.9789828891009156,0.28606487113873913,0.7065996437191628
0.0585,1.7376775155693354,1.0,3025.283385038931,0.48218385663407615,1.3029802856712729,0.9792113213853072,0.2860354556539121,0.7072798038729396
0.059000000000000004,1.736977146882977,1.0,3029.3592860927833,0.4850884171126396,1.3026288112744673,0.9794345087185138,0.28600604016908504,0.7079585541664632
0.059500000000000004,1.7362767781966189,1.0,3033.401632657464,0.4879766807663688,1.3022776498512987,0.979652612959859,0.285976624684258,0.7086359132665041
0.06,1.7355764095102606,1.0,3037.4113457444846,0.4908487380104076,1.301926792840381,0.9798657896892154,0.28594720919943095,0.7093118997612298
0.0605,1.7348760408239026,1.0,3041.389349617613,0.49370467925990036,1.3015762316803288,0.9800741884993224,0.2859177937146039,0.709986532160372
0.061,1.7341756721375443,1.0,3045.3365717359006,0.49654459492999103,1.3012259578097558,0.9802779532723189,0.28588837822977686,0.7106598288953929
0.0615,1.733475303451186,1.0,3049.2539426984786,0.4993685754358236,1.300875962667276,0.9804772224414589,0.2858589627449498,0.7113318083196429
0.062,1.7327749347648278,1.0,3053.1423961904197,0.5021767111925423,1.3005262376915034,0.9806721292389108,0.2858295472601228,0.7120024887085139
0.0625,1.7320745660784698,1.0,3057.0028689311634,0.5049690926152909,1.3001767743210526,0.9808628019304787,0.28580013177529573,0.7126718882595914
0.063,1.7313741973921115,1.0,3060.836300623733,0.5077458101192138,1.2998275639945371,0.9810493640380306,0.2857707162904687,0.7133400250927989
0.0635,1.7306738287057533,1.0,3064.643633905893,0.5105069541194549,1.2994785981505712,0.9812319345503618,0.28574130080564164,0.7140069172505379
0.064,1.7299734600193952,1.0,3068.425814303063,0.5132526150311583,1.299129868227769,0.9814106281231797,0.2857118853208146,0.714672582697824
0.0645,1.729273091333037,1.0,3072.1827324603837,0.5159828541764624,1.2987813747269827,0.9815855536783697,0.28568246983598755,0.7153370220543824
0.065,1.7285727226466787,1.0,3075.915307253737,0.5186977714288459,1.2984331093468002,0.9817568185035108,0.2856530543511605,0.7160002526964311
0.0655,1.7278723539603205,1.0,3079.625046584303,0.5213974798040418,1.2980850587684993,0.9819245267047663,0.28562363886633346,0.7166623014635851
0.066,1.7271719852739624,1.0,3083.3123812289728,0.5240820600700951,1.2977372189199707,0.9820887769590679,0.2855942233815064,0.7173231775184994
0.0665,1.7264716165876042,1.0,3086.9777434030034,0.5267515929950504,1.2973895857291053,0.982249664497088,0.2855648078966794,0.7179828899868339
0.067,1.725771247901246,1.0,3090.6215667412816,0.5294061593469528,1.2970421551237936,0.9824072812480876,0.28553539241185233,0.7186414479573091
0.0675,1.7250708792148877,1.0,3094.2442862796415,0.532045839893847,1.2966949230319265,0.9825617159776923,0.2855059769270253,0.7192988604817578
0.068,1.7243705105285296,1.0,3097.8463384371053,0.5346707154037779,1.2963478853813943,0.9827130544189898,0.28547656144219824,0.7199551365751784
0.0685,1.7236701418421714,1.0,3101.428160997691,0.5372808666447902,1.2960010381000884,0.9828613793973138,0.2854471459573712,0.7206102852157845
0.069,1.7229697731558131,1.0,3104.9901930934275,0.5398763743849289,1.295654377115899,0.9830067709490652,0.28541773047254415,0.7212643153450566
0.0695,1.7222694044694549,1.0,3108.532875187276,0.5424573193922387,1.295307898356717,0.9831493064348878,0.2853883149877171,0.7219172358677899
0.07,1.7215690357830968,1.0,3112.056649056291,0.5450237824347647,1.294961597750433,0.9832890606475091,0.28535889950289006,0.7225690556521422
0.07050000000000001,1.7208686670967386,1.0,3115.561957775485,0.5475758442805513,1.2946154712249378,0.9834261059145295,0.285329484018063,0.7232197835296806
