Time [s],Phi [rad],STIM [ ],Fsee [N],Gamma [ ],Lcerel [ ],q [ ],Lmtc [m],fisomrel [ ]
0.0,1.8,1.0,17.983042286606185,0.00012956585012217664,1.3793379670603145,0.005004384543995282,0.288653,0.5411438352887364
0.0005,1.79999375,1.0,18.331832781901916,0.00573804839699142,1.3792962731185245,0.013275785539563111,0.2886527375,0.541244697698972
0.001,1.799975,1.0,21.76232610336061,0.01131507179112168,1.3789236246886794,0.03623434711820856,0.28865195,0.5421456844795691
0.0015,1.79994375,1.0,31.403728752407716,0.01686081249442996,1.3780177823869821,0.07145653509142047,0.2886506375,0.5443321307373349
0.002,1.7999,1.0,54.296585253852896,0.022375445977037292,1.376321951612697,0.11572910850453144,0.2886488,0.5484113161173819
0.0025,1.79984375,1.0,98.3136470455687,0.027859146725586172,1.3738777730344,0.1656741599771288,0.28864643749999996,0.5542583253534363
0.003,1.7997750000000001,1.0,162.50898818141192,0.03331208824989043,1.37115643419115,0.21841408282818875,0.28864354999999997,0.5607235374952506
0.0035,1.79969375,1.0,239.43351957771975,0.038734443083407524,1.3685309226909201,0.2717401164118166,0.2886401375,0.5669163234074588
0.004,1.7996,1.0,323.3275842634541,0.044126382793754575,1.3661068776863947,0.3240070616064259,0.2886362,0.5725948791795894
0.0045000000000000005,1.7994937500000001,1.0,411.19384471101046,0.04948807798797448,1.3638776544708442,0.3740702581321941,0.2886317375,0.5777839686760107
0.005,1.799375,1.0,501.37821750206314,0.05481969830424927,1.3618166333325854,0.4212163868677304,0.28862675,0.5825533285837802
0.0055,1.79924375,1.0,592.7718587555422,0.060121412452858874,1.3599001548789242,0.46507071352607204,0.2886212375,0.5869638983358622
0.006,1.7991000000000001,1.0,684.500854328957,0.06539338817504552,1.3581103998399355,0.5055042802546872,0.2886152,0.5910616757859742
0.006500000000000001,1.79894375,1.0,775.8517931917443,0.07063579227161595,1.3564336366724035,0.5425544421347812,0.2886086375,0.5948822150780775
0.007,1.798775,1.0,866.235029702632,0.07584879065919992,1.35485892660432,0.5763635812564932,0.28860155,0.5984538973508604
0.0075,1.79859375,1.0,955.1568894008053,0.0810325481768962,1.3533773596653091,0.607134581359853,0.2885939375,0.6017998777932868
0.008,1.7984,1.0,1042.2343113028276,0.08618722896088146,1.3519810405721635,0.6350996200227284,0.2885858,0.604940520018294
0.0085,1.79819375,1.0,1127.151602206305,0.0913129961837811,1.3506632416368738,0.6604999686314169,0.2885771375,0.6078931472089268
0.009000000000000001,1.797975,1.0,1209.6597959032174,0.09641001170701968,1.349418000748739,0.6835729025702063,0.28856795,0.6106730253595478
0.0095,1.79774375,1.0,1289.5880451479288,0.10147843675433312,1.3482396906950471,0.7045438432584968,0.2885582375,0.6132943808182969
0.01,1.7975,1.0,1366.8283102348928,0.10651843264990034,1.3471230400767762,0.7236223042328853,0.288548,0.6157703923719925
0.0105,1.79724375,1.0,1441.2706107776646,0.11153015796690487,1.3460637877278132,0.7410004421801906,0.2885372375,0.6181117819626245
0.011,1.796975,1.0,1512.862839245587,0.11651377108533713,1.3450577390353793,0.7568522433049129,0.28852595000000003,0.6203289436600513
0.0115,1.79669375,1.0,1581.592473605349,0.12146942980789767,1.3441009082773656,0.7713341894750423,0.2885141375,0.6224316483504211
0.012,1.7964,1.0,1647.4855106328876,0.1263972919359304,1.3431894482420763,0.7845863107491149,0.28850180000000003,0.6244292175232756
0.0125,1.79609375,1.0,1710.5522995607491,0.13129751276957413,1.3423202056177914,0.7967337439108968,0.2884889375,0.6263293266128604
0.013000000000000001,1.7957750000000001,1.0,1770.818373208513,0.1361702467886119,1.3414902661754613,0.8078879202714541,0.28847555,0.6281390245772085
0.0135,1.79544375,1.0,1828.3405415056866,0.1410156484223509,1.3406967211313952,0.8181478730545161,0.2884616375,0.6298652557726925
0.014,1.7951000000000001,1.0,1883.1910512666786,0.14583387108775295,1.3399368093374655,0.8276016340897173,0.2884472,0.631514558856708
0.0145,1.79474375,1.0,1935.444563823301,0.1506250681771277,1.339208019555777,0.8363275070573384,0.2884322375,0.6330928554497692
0.015,1.794375,1.0,1985.1609437875695,0.15538939020688552,1.3385082334085558,0.8443952268203865,0.28841675,0.6346051527889627
0.0155,1.79399375,1.0,2032.4183947928266,0.1601269876934369,1.3378353325180288,0.8518668285714619,0.2884007375,0.6360564033878602
0.016,1.7936,1.0,2077.3011235331182,0.16483801024616968,1.3371873106003804,0.858797591626772,0.2883842,0.637451267761743
0.0165,1.7931937500000001,1.0,2119.906418182885,0.16952260834372848,1.336562179550683,0.8652368118850565,0.2883671375,0.638794321734993
0.017,1.792775,1.0,2160.3228427242566,0.1741809308986583,1.3359581779618532,0.8712285685671489,0.28834955,0.6400896130757391
0.0175,1.7923437500000001,1.0,2198.616891242747,0.17881312380784123,1.335373884062004,0.8768123669317096,0.2883314375,0.641340426942492
0.018000000000000002,1.7919,1.0,2234.86440918724,0.18341933296815932,1.3348078760792472,0.8820235814787871,0.2883128,0.6425500195003299
0.0185,1.79144375,1.0,2269.1498165857397,0.18799970427649465,1.3342587322416954,0.8868939383330472,0.2882936375,0.6437216196434138
0.019,1.790975,1.0,2301.560532757961,0.19255438300629438,1.3337250787197972,0.8914519492712321,0.28827395,0.6448583285505904
0.0195,1.79049375,1.0,2332.182211308417,0.1970835139193229,1.3332056281461515,0.895723289362905,0.2882537375,0.6459630400884203
0.02,1.79,1.0,2361.099332951393,0.20158724147273427,1.332699165077584,0.899731114616155,0.288233,0.6470384743516537
0.0205,1.78949375,1.0,2388.3750312611596,0.20606570665080978,1.3322047346413532,0.9034963843819264,0.2882117375,0.6480867802355488
0.021,1.788975,1.0,2414.076846202297,0.21051905043783078,1.331721381964718,0.9070380475325768,0.28818995000000003,0.6491100916690614
0.021500000000000002,1.78844375,1.0,2438.276359981398,0.21494741381807864,1.331248152174937,0.9103732628828296,0.2881676375,0.650110528318526
0.022,1.7879,1.0,2461.0453287742434,0.2193509371575049,1.3307841241361729,0.9135175995479128,0.2881448,0.6510901250620695
0.0225,1.78734375,1.0,2482.4511621938473,0.22372975987978008,1.3303284497208816,0.916485214254989,0.28812143749999997,0.6520507503348183
0.023,1.786775,1.0,2502.5721934851945,0.22808402314937348,1.3298802045932339,0.919288972382399,0.28809755,0.6529944216120095
0.0235,1.78619375,1.0,2521.459782659766,0.23241386286861498,1.3294387456224024,0.9219406462128993,0.28807313749999996,0.6539225538352618
0.024,1.7856,1.0,2539.1673747217774,0.23671941493983453,1.3290034296775597,0.9244509767559083,0.2880482,0.6548365537640404
0.0245,1.78499375,1.0,2555.750326992558,0.24100081526536202,1.3285736136278783,0.9268297782872549,0.2880227375,0.6557378202408092
0.025,1.784375,1.0,2571.265745606102,0.24525819974752733,1.3281486543425307,0.9290860310258786,0.28799675,0.6566277444298033
0.025500000000000002,1.78374375,1.0,2585.7657373697134,0.24949170278843721,1.3277279702691225,0.9312279730285046,0.2879702375,0.6575075813242385
0.026000000000000002,1.7831000000000001,1.0,2599.3049149248186,0.25370145971310853,1.3273109693715788,0.9332631614711875,0.2879432,0.6583786011767775
0.0265,1.78244375,1.0,2611.940081422978,0.2578876057414101,1.3268970510333153,0.9351985378545212,0.2879156375,0.6592420855412054
0.027,1.781775,1.0,2623.7096814113943,0.2620502713541512,1.3264857955662879,0.9370405137502056,0.28788755,0.6600989326959441
0.0275,1.7810937500000001,1.0,2634.6530409890142,0.2661895870321409,1.3260767832824518,0.9387949941967865,0.2878589375,0.6609500363653347
0.028,1.7804,1.0,2644.8102924519685,0.2703056832561884,1.3256695944937624,0.9404674244136996,0.2878298,0.6617962857852945
0.0285,1.77969375,1.0,2654.222302844225,0.2743986905071028,1.3252638095121758,0.9420628316418108,0.2878001375,0.6626385657577392
0.029,1.778975,1.0,2662.930606413749,0.2784687392656933,1.3248590086496468,0.9435858626718556,0.28776995,0.6634777566937777
0.029500000000000002,1.7782437500000001,1.0,2670.972958743243,0.2825159567558281,1.3244548124849778,0.9450408218773262,0.2877392375,0.6643146513244194
0.03,1.7775,1.0,2678.388403082364,0.28654047523785253,1.3240508345482813,0.9464316976969014,0.287708,0.6651500530247526
0.0305,1.77674375,1.0,2685.2068717857323,0.2905424207519414,1.3236467761938948,0.9477621983286479,0.2876762375,0.6659845799084789
0.031,1.775975,1.0,2691.4575571684263,0.2945219183823239,1.3232423490207461,0.9490357672964524,0.28764395,0.6668188258914227
0.0315,1.7751937500000001,1.0,2697.1699900810486,0.2984790932132291,1.3228372646277629,0.9502556047286705,0.2876111375,0.6676533819121934
0.032,1.7744,1.0,2702.3740070934737,0.3024140703288862,1.3224312346138731,0.9514246875702209,0.2875778,0.6684888359227472
0.0325,1.77359375,1.0,2707.099719522802,0.3063269748135244,1.3220239705780041,0.9525457878818523,0.2875439375,0.6693257728736504
0.033,1.772775,1.0,2711.369008270204,0.31021792585197366,1.321615261420143,0.9536214967901673,0.28750955,0.6701646161404753
0.0335,1.7719437500000002,1.0,2715.2073535396185,0.31408704764187645,1.321204865008609,0.9546542294708052,0.2874746375,0.6710058504298511
0.034,1.7711000000000001,1.0,2718.6559121568826,0.3179344760624052,1.3207923981062981,0.9556462284431612,0.2874392,0.6718502465472269
0.0345,1.7702437500000001,1.0,2721.731332929371,0.3217603290888641,1.3203777023658645,0.9565996097487667,0.2874032375,0.672698111692505
0.035,1.7693750000000001,1.0,2724.4503840737166,0.32556472469655734,1.3199606194399613,0.9575163527642722,0.28736675,0.6735497512997328
0.035500000000000004,1.76849375,1.0,2726.8299414997805,0.32934778086078903,1.3195409909812428,0.9583983106100117,0.2873297375,0.6744054690137925
0.036000000000000004,1.7676,1.0,2728.886977650482,0.33310961555686336,1.3191186586423624,0.9592472196515082,0.2872922,0.6752655666654954
0.0365,1.76669375,1.0,2730.6385508977187,0.3368503467600844,1.318693464075974,0.9600647081823324,0.2872541375,0.6761303442450761
0.037,1.765775,1.0,2732.1017954938156,0.34057009244575653,1.3182652489347313,0.960852304367248,0.28721555,0.6770000998740866
0.0375,1.76484375,1.0,2733.29391207953,0.3442689705891838,1.317833854871288,0.9616114435162071,0.2871764375,0.6778751297756921
0.038,1.7639,1.0,2734.232158747222,0.34794709916567046,1.3173991235382978,0.9623434747523477,0.28713679999999997,0.6787557282433685
0.0385,1.76294375,1.0,2734.933842660772,0.35160459615052053,1.3169608965884145,0.96304966713058,0.28709663750000003,0.6796421876079988
0.039,1.761975,1.0,2735.416312230508,0.3552415795190383,1.3165190156742916,0.9637312152575306,0.28705595,0.6805347982033723
0.0395,1.7609937500000001,1.0,2735.6888399276395,0.3588581551625876,1.3160733960811828,0.9643892488643542,0.2870147375,0.6814336999034047
0.04,1.76,1.0,2735.7729913975168,0.3624544521154723,1.3156238417251125,0.9650248272664635,0.286973,0.6823392555315088
0.0405,1.7589937500000001,1.0,2735.6783501940263,0.3660305815241213,1.3151702655146253,0.9656389560173538,0.2869307375,0.6832516062992364
0.041,1.757975,1.0,2735.4140829918742,0.3695866538470862,1.3147125843024046,0.966232584509069,0.28688795,0.6841708841891005
0.0415,1.75694375,1.0,2734.9893710574597,0.3731227795429184,1.314250714941133,0.9668066094867682,0.2868446375,0.685097219894728
0.042,1.7559,1.0,2734.4134074864337,0.3766390690701694,1.3137845742834937,0.9673618785080487,0.28680079999999997,0.6860307427988732
0.0425,1.75484375,1.0,2733.695394593936,0.38013563288739066,1.31331407918217,0.9678991931407448,0.2867564375,0.686971580950985
0.043000000000000003,1.753775,1.0,2732.8445414587122,0.3836125814531336,1.3128391464898446,0.9684193119214333,0.28671155,0.6879198610443418
0.043500000000000004,1.75269375,1.0,2731.870061620582,0.38707002522594974,1.3123596930592005,0.9689229530947974,0.28666613750000003,0.6888757083927362
0.044,1.7516,1.0,2730.7811709301936,0.39050807466439047,1.3118756357429209,0.9694107971521156,0.2866202,0.6898392469067249
0.0445,1.75049375,1.0,2729.587085553649,0.39392684022700736,1.3113868913936886,0.9698834891854606,0.2865737375,0.6908105990694362
0.045,1.7493750000000001,1.0,2728.291290347059,0.3973264131171366,1.3108934289572483,0.9703416422860794,0.28652675,0.6917897826250141
0.0455,1.74824375,1.0,2726.906242901684,0.40070692242975203,1.310395135805391,0.9707858375678453,0.2864792375,0.6927769759832683
0.046,1.7471,1.0,2725.4395884793403,0.4040684813169973,1.3098919430143783,0.9712166277881803,0.2864312,0.693772269307313
0.0465,1.7459437500000001,1.0,2723.895959683656,0.4074111921568989,1.3093838090341599,0.9716345386324275,0.28638263750000004,0.6947756974091661
0.047,1.744775,1.0,2722.2799873729195,0.41073515732748356,1.3088706923146858,0.9720400698133733,0.28633355,0.6957872940977254
0.0475,1.74359375,1.0,2720.59630003139,0.4140404792067778,1.3083525513059062,0.9724336965956741,0.28628393750000003,0.6968070921656202
0.048,1.7424,1.0,2718.8495231773404,0.4173272601728083,1.3078293444577709,0.9728158712170253,0.2862338,0.6978351233759537
0.0485,1.74119375,1.0,2717.04427881125,0.4205956026036017,1.30730103022023,0.9731870242139533,0.2861831375,0.6988714184489329
0.049,1.739975,1.0,2715.1851849001414,0.4238456088771846,1.3067675670432333,0.973547565659459,0.28613195,0.699916007048391
0.0495,1.73874375,1.0,2713.276854902225,0.4270773813715836,1.3062289133767306,0.9738978863191248,0.2860802375,0.7009689177681977
0.05,1.7375,1.0,2711.323897328412,0.43029102246482526,1.3056850276706724,0.9742383587317526,0.286028,0.7020301781185594
0.0505,1.73624375,1.0,2709.3309153427313,0.4334866345349363,1.3051358683750083,0.9745693382200917,0.2859752375,0.7030998145122118
0.051000000000000004,1.734975,1.0,2707.3025064009526,0.4366643199599433,1.3045813939396884,0.9748911638367701,0.28592195,0.7041778522504986
0.051500000000000004,1.73369375,1.0,2705.2432619273563,0.4398241811178729,1.3040215628146625,0.975204159250117,0.2858681375,0.7052643155093438
0.052000000000000005,1.7324,1.0,2703.1577670296538,0.44296632038675166,1.3034563334498808,0.9755086335741959,0.2858138,0.7063592273251109
0.0525,1.73109375,1.0,2701.0399433912125,0.44609081317360344,1.3028857616710339,0.9758048854569015,0.28575893750000003,0.7074624214826457
0.053,1.729775,1.0,2698.8989919779683,0.4491977838625862,1.3023097637280887,0.9760931967804802,0.28570355000000003,0.708574001130954
0.0535,1.72844375,1.0,2696.741971965314,0.45228734227142264,1.3017282753278654,0.9763738367407345,0.2856476375,0.7096940301902802
0.054,1.7271,1.0,2694.570303101629,0.45535958174766494,1.3011412836676621,0.9766470643311705,0.2855912,0.7108224721651552
0.0545,1.7257437500000001,1.0,2692.3854030222765,0.4584145956388654,1.3005487759447776,0.976913127425466,0.2855342375,0.7119592897898466
0.055,1.724375,1.0,2690.188687211267,0.4614524772925761,1.2999507393565097,0.9771722633457597,0.28547675,0.7131044450238622
0.0555,1.72299375,1.0,2687.9815689664306,0.4644733200563493,1.299347161100157,0.9774246993973198,0.2854187375,0.7142578990474383
0.056,1.7216,1.0,2685.7654593679013,0.4674772172777373,1.2987380283730177,0.9776706533718383,0.2853602,0.715419612257022
0.0565,1.72019375,1.0,2683.541767251104,0.47046426230429217,1.2981233283723903,0.9779103340214372,0.28530113749999997,0.7165895442607396
0.057,1.718775,1.0,2681.311899182412,0.4734345484835662,1.2975030482955732,0.9781439415053138,0.28524155,0.717767653873858
0.0575,1.71734375,1.0,2679.077259439045,0.4763881691631116,1.2968771753398645,0.9783716678108132,0.2851814375,0.7189538991142328
0.058,1.7159,1.0,2676.8392499921542,0.47932521769048064,1.2962456967025624,0.9785936971505889,0.2851208,0.7201482371977469
0.0585,1.71444375,1.0,2674.599270494221,0.48224578741322544,1.2956085995809659,0.9788102063373824,0.2850596375,0.7213506245337379
0.059000000000000004,1.7129750000000001,1.0,2672.3587182693414,0.48514997167889823,1.2949658711723726,0.9790213651378569,0.28499795,0.7225610167204186
0.059500000000000004,1.71149375,1.0,2670.118988307636,0.4880378638350513,1.2943174986740813,0.9792273366068085,0.2849357375,0.7237793685402811
0.06,1.71,1.0,2667.8814732628634,0.49090955722923674,1.2936634692833904,0.9794282774029851,0.284873,0.725005633955495
0.0605,1.7084937500000001,1.0,2665.6475634544267,0.4937651452090069,1.2930037701975978,0.9796243380876656,0.2848097375,0.7262397661032949
0.061,1.7069750000000001,1.0,2663.417588490429,0.49660471040993476,1.2923383983529042,0.9798156630763867,0.28474595,0.7274816991341158
0.0615,1.7054437500000001,1.0,2661.1918944208837,0.4994283371183633,1.291667350529064,0.9800023913895218,0.2846816375,0.7287313668219266
0.062,1.7039,1.0,2658.9736953640895,0.5022361397328642,1.2909905970873656,0.9801846577104727,0.2846168,0.7299887512969976
0.0625,1.70234375,1.0,2656.7633094091707,0.5050282030924511,1.290308135021518,0.9803625907408765,0.2845514375,0.7312537842484952
0.063,1.7007750000000001,1.0,2654.5610541286956,0.5078046120361376,1.2896199613252288,0.9805363143741626,0.28448555,0.7325263966899649
0.0635,1.69919375,1.0,2652.3672465826817,0.5105654514029375,1.2889260729922067,0.9807059479091983,0.28441913750000003,0.7338065189582335
0.064,1.6976,1.0,2650.182203322867,0.5133108060318645,1.2882264670161598,0.9808716062529056,0.2843522,0.7350940807123167
0.0645,1.69599375,1.0,2648.0062403979264,0.5160407607619322,1.2875211403907965,0.9810334001124994,0.2842847375,0.7363890109323212
0.065,1.694375,1.0,2645.839673358112,0.5187554004321544,1.2868100901098247,0.9811914361779503,0.28421675,0.7376912379183489
0.0655,1.69274375,1.0,2643.6828172604837,0.5214548098815447,1.2860933131669527,0.9813458172952317,0.2841482375,0.7390006892894002
0.066,1.6911,1.0,2641.535986674077,0.5241390739491167,1.2853708065558893,0.9814966426308833,0.2840792,0.7403172919822743
0.0665,1.6894437500000001,1.0,2639.399495685824,0.5268082774738844,1.284642567270342,0.9816440078283843,0.2840096375,0.7416409722504744
0.067,1.687775,1.0,2637.2736579056423,0.5294625052948613,1.2839085923040197,0.9817880051567969,0.28393955,0.7429716556631057
0.0675,1.68609375,1.0,2635.1587864731728,0.5321018422510609,1.2831688786506303,0.9819287236521138,0.2838689375,0.7443092671037774
0.068,1.6844000000000001,1.0,2633.0551940632376,0.5347263731814973,1.282423423303882,0.9820662492517194,0.2837978,0.7456537307695035
0.0685,1.68269375,1.0,2630.96319289243,0.5373361829251839,1.2816722232574835,0.9822006649223413,0.2837261375,0.7470049701695993
0.069,1.680975,1.0,2628.8830947258775,0.5399313563211345,1.2809152755051425,0.9823320507818525,0.28365395,0.7483629081245851
0.0695,1.67924375,1.0,2626.8141576960506,0.5425119430628416,1.2801525867989603,0.982460482448372,0.28358123749999997,0.7497274493298821
0.07,1.6775,1.0,2624.75673483488,0.5450780487651488,1.2793841537534156,0.9825860360351173,0.283508,0.7510985160442851
0.07050000000000001,1.67574375,1.0,2622.711548595486,0.5476297815520241,1.278609969552691,0.9827087850717886,0.2834342375,0.7524760359242624
0.07100000000000001,1.673975,1.0,2620.6785017731763,0.5501672174892598,1.2778300349744933,0.9828287989989001,0.28335995,0.7538599224045658
0.07150000000000001,1.67219375,1.0,2618.657497367245,0.5526904326426478,1.27704435079653,0.9829461449569717,0.2832851375,0.7552500883027082
0.07200000000000001,1.6704,1.0,2616.6484385794847,0.5551995030779805,1.276252917796507,0.9830608878765335,0.2832098,0.7566464458192487
0.0725,1.66859375,1.0,2614.651228811847,0.5576945048610497,1.275455736752132,0.9831730905640239,0.2831339375,0.7580489065380746
0.073,1.6667750000000001,1.0,2612.6657716651134,0.5601755140576476,1.2746528084411113,0.9832828137837952,0.28305755,0.7594573814266908
0.0735,1.66494375,1.0,2610.6919709369636,0.5626426067335666,1.2738441336411521,0.9833901163364219,0.2829806375,0.7608717808365013
0.074,1.6631,1.0,2608.729730620066,0.5650958589545986,1.2730297131299613,0.9834950551335072,0.2829032,0.7622920145030965
0.0745,1.6612437500000001,1.0,2606.778954900685,0.5675353467865357,1.2722095476852453,0.9835976852691605,0.2828252375,0.7637179915465375
0.075,1.659375,1.0,2604.839548156638,0.5699611462951701,1.2713836380847117,0.9836980600883177,0.28274675,0.7651496204716398
0.0755,1.65749375,1.0,2602.911414955833,0.5723733335462939,1.2705519851060667,0.9837962312520606,0.2826677375,0.766586809168261
