Time [s],Phi [rad],STIM [ ],Fsee [N],Gamma [ ],Lcerel [ ],q [ ],Lmtc [m],fisomrel [ ]
0.0,1.8,1.0,17.965990657676404,1.0435952507038135e-05,1.3793398770220002,0.00500002901644415,0.288653,0.5411392146075693
0.0005,1.79999375,1.0,18.275577361927528,0.005619586723861604,1.3793025173985791,0.0129417272101864,0.2886527375,0.5412295927777442
0.001,1.799975,1.0,21.617585029145463,0.0111972745943082,1.378938383468126,0.035610857724067614,0.28865195,0.5421100176484808
0.0015,1.79994375,1.0,31.069044805101285,0.016743676046707068,1.378046220018513,0.07060483100791617,0.2886506375,0.544263569928935
0.002,1.7999,1.0,53.58328600214116,0.022258966572263873,1.37636807341904,0.11472153964590957,0.2886488,0.5483006164248729
0.0025,1.79984375,1.0,97.12123679032752,0.027743320678101518,1.3739350564699626,0.16457870109069347,0.28864643749999996,0.5541217268584371
0.003,1.7997750000000001,1.0,160.96172151674676,0.033196911894969046,1.3712142107013565,0.21728437963834482,0.28864354999999997,0.560586765858957
0.0035,1.79969375,1.0,237.6876662079859,0.038619912776838614,1.368584600714614,0.27061679013879697,0.2886401375,0.5667901534312771
0.004,1.7996,1.0,321.47161208281904,0.044012494911686496,1.3661559641838312,0.32291957747433064,0.2886362,0.5724802611371458
0.0045000000000000005,1.7994937500000001,1.0,409.27295132820973,0.04937482892667768,1.3639226920904945,0.3730380905831007,0.2886317375,0.5776794457321655
0.005,1.799375,1.0,499.4189533081047,0.05470708447926317,1.3618582265533494,0.4202508123077758,0.28862675,0.5824573465422986
0.0055,1.79924375,1.0,590.7960268638454,0.060009430304585776,1.359938725437816,0.46417680115996857,0.2886212375,0.5868753632978335
0.006,1.7991000000000001,1.0,682.5238256348591,0.0652820341587744,1.358146310822196,0.504682813750562,0.2886152,0.590979655753989
0.006500000000000001,1.79894375,1.0,773.8681420775575,0.07052506259879245,1.3564674775132544,0.5418035720310891,0.2886086375,0.5948052853167651
0.007,1.798775,1.0,864.2970197583376,0.07573868240317955,1.3548902139428822,0.575679103335748,0.28860155,0.5983830868864009
0.0075,1.79859375,1.0,953.2630867257603,0.0809230577364107,1.353406473551375,0.6065119461968884,0.2885939375,0.6017342616453483
0.008,1.7984,1.0,1040.364286153373,0.08607835249667617,1.3520085604867194,0.6345340237982015,0.2885858,0.604878741530828
0.0085,1.79819375,1.0,1125.3245842861813,0.0912047302859919,1.350689094885015,0.6599861853999607,0.2885771375,0.6078353275788551
0.009000000000000001,1.797975,1.0,1207.888891017621,0.0963023531629974,1.3494421893094057,0.6831059475474067,0.28856795,0.6106191209523261
0.0095,1.79774375,1.0,1287.879626731042,0.10137138242822089,1.3482622902574968,0.7041190853522613,0.2885582375,0.6132441874509027
0.01,1.7975,1.0,1365.1609449519299,0.1064119783078222,1.347144463736278,0.7232356507307801,0.288548,0.615722963320319
0.0105,1.79724375,1.0,1439.662685542092,0.11142430073669606,1.3460839065078591,0.7406479016021993,0.2885372375,0.6180673777304191
0.011,1.796975,1.0,1511.3215679446578,0.11640850782942845,1.3450765615371574,0.7565302832072912,0.28852595000000003,0.6202875212936622
0.0115,1.79669375,1.0,1580.114119177679,0.12136475716737283,1.3441185654096912,0.7710396995964139,0.2885141375,0.6223928984068114
0.012,1.7964,1.0,1646.0610755415876,0.12629320622095655,1.3432061173801806,0.7843165335699492,0.28850180000000003,0.6243927327577223
0.0125,1.79609375,1.0,1709.1833220138021,0.13119401083464666,1.3423359274241784,0.796486167119912,0.2884889375,0.6262950025338893
0.013000000000000001,1.7957750000000001,1.0,1769.5055606265212,0.1360673254474995,1.3415050839715195,0.8076603111151595,0.28847555,0.6281067526199153
0.0135,1.79544375,1.0,1827.082445952495,0.140913304338543,1.3407106959825303,0.8179382543540676,0.2884616375,0.629834890443558
0.014,1.7951000000000001,1.0,1881.9861964896563,0.1457321011144332,1.3399499962878603,0.8274082474938952,0.2884472,0.6314859694639152
0.0145,1.79474375,1.0,1934.2927927427347,0.1505238691223561,1.339220454040855,0.8361487828843921,0.2884322375,0.6330659552306002
0.015,1.794375,1.0,1984.060527754756,0.15528875885415935,1.3385199636411431,0.8442297736769729,0.28841675,0.6345798284961708
0.0155,1.79399375,1.0,2031.3660069195016,0.1600269208016907,1.3378464194883533,0.8517134122053033,0.2884007375,0.6360325154301647
0.016,1.7936,1.0,2076.2964942460626,0.1647385049175172,1.3371977793786827,0.8586551012844118,0.2883842,0.6374287550449147
0.0165,1.7931937500000001,1.0,2118.9436877454937,0.16942366097675182,1.3365721103236097,0.865104272324482,0.2883671375,0.6387730055877294
0.017,1.792775,1.0,2159.4011164252934,0.17408253839295973,1.3359675963451292,0.8711050929996078,0.28834955,0.6400694330550905
0.0175,1.7923437500000001,1.0,2197.735492118538,0.17871528310042947,1.3353828115391075,0.8766971607430262,0.2883314375,0.641321332028455
0.018000000000000002,1.7919,1.0,2234.022906380136,0.18332204103344962,1.3348163300014109,0.8819159314575435,0.2883128,0.642531967998681
0.0185,1.79144375,1.0,2268.348050831119,0.18790295812630867,1.3342667258279055,0.8867932032332343,0.2882936375,0.6437045790953184
0.019,1.790975,1.0,2300.7959917017547,0.19245817938046195,1.333732647276349,0.891357557899812,0.28827395,0.6448422198403061
0.0195,1.79049375,1.0,2331.4560661762944,0.196987850203268,1.3332127692176015,0.8956347187043739,0.2882537375,0.6459478648926578
0.02,1.79,1.0,2360.408221296096,0.20149211443672704,1.3327059198426683,0.8996479026925838,0.288233,0.6470241419057525
0.0205,1.78949375,1.0,2387.7163580020906,0.20597111316255856,1.3322111354684365,0.9034181119232126,0.2882117375,0.6480732189756764
0.021,1.788975,1.0,2413.4488159044345,0.2104249874624819,1.3317274524117926,0.9069643332906648,0.28818995000000003,0.6490972490956055
0.021500000000000002,1.78844375,1.0,2437.678005176622,0.21485387841821646,1.3312539069896236,0.9103037595156754,0.2881676375,0.6500983708676971
0.022,1.7879,1.0,2460.47541851093,0.21925792621904416,1.3307895799456337,0.9134519920265032,0.2881448,0.6510786154317322
0.0225,1.78734375,1.0,2481.911515492713,0.22363727095701955,1.3303335934744298,0.916423210673751,0.28812143749999997,0.6520399139740758
0.023,1.786775,1.0,2502.0587642008527,0.22799205310768328,1.3298850787218306,0.9192303173221992,0.28809755,0.6529841672088381
0.0235,1.78619375,1.0,2520.969540962326,0.23232240866431622,1.3294433821485563,0.9218851048824976,0.28807313749999996,0.6539128123677307
0.024,1.7856,1.0,2538.6983309921047,0.2366284736201993,1.3290078502153282,0.9243983329063826,0.2880482,0.6548272783695415
0.0245,1.78499375,1.0,2555.3015525347982,0.2409103839686133,1.3285778293828663,0.926779832365307,0.2880227375,0.6557289860907016
0.025,1.784375,1.0,2570.8373904760433,0.2451682757028392,1.3281526661118914,0.9290385985359317,0.28799675,0.6566193486086018
0.025500000000000002,1.78374375,1.0,2585.3569495840593,0.24940228274919388,1.3277317880224666,0.9311828860960245,0.2879702375,0.6574996017844292
0.026000000000000002,1.7831000000000001,1.0,2598.9176202006747,0.2536125414840864,1.32731457695617,0.9332202621931338,0.2879432,0.658371070510215
0.0265,1.78244375,1.0,2611.5724128615575,0.2577991864679882,1.3269004675028555,0.9351576863512129,0.2879156375,0.6592349628393319
0.027,1.781775,1.0,2623.360042132002,0.26196234818947034,1.3264890372017524,0.9370015808424011,0.28788755,0.6600921829944922
0.0275,1.7810937500000001,1.0,2634.3201094093474,0.2661021571371039,1.3260798635920898,0.9387578604154616,0.2878589375,0.6609436306114926
0.028,1.7804,1.0,2644.493026930935,0.2702187437994598,1.3256725242130978,0.9404319791138537,0.2878298,0.6617902008057055
0.0285,1.77969375,1.0,2653.919945739278,0.2743122386651091,1.3252665966040051,0.9420289722081963,0.2878001375,0.662632784227192
0.029,1.778975,1.0,2662.6426876043147,0.27838277222262287,1.3248616583040416,0.9435534938060544,0.28776995,0.6634722671044264
0.029500000000000002,1.7782437500000001,1.0,2670.6951911926494,0.28243047095996565,1.3244573648655669,0.9450098598613066,0.2877392375,0.664309369848509
0.03,1.7775,1.0,2678.1231241669757,0.2864554682982211,1.3240532687921642,0.9464020571872092,0.287708,0.6651450222739584
0.0305,1.77674375,1.0,2684.957655221494,0.29045789096462576,1.323649060138071,0.9477337988712835,0.2876762375,0.6659798656624467
0.031,1.775975,1.0,2691.226136632243,0.2944378636312224,1.3232444674054973,0.9490085361546092,0.28764395,0.6668144588384453
0.0315,1.7751937500000001,1.0,2696.9562495230143,0.29839551097005357,1.3228392190966523,0.950229476235101,0.2876111375,0.6676493578222698
0.032,1.7744,1.0,2702.175973013096,0.30233095765316215,1.3224330437137464,0.9513996025406686,0.2875778,0.6684851158210756
0.0325,1.77359375,1.0,2706.91355499992,0.3062443283525907,1.3220256697589892,0.9525216930832877,0.2875439375,0.6693222832151609
0.033,1.772775,1.0,2711.197484575346,0.310135747740382,1.3216168257345904,0.9535983370962511,0.28750955,0.6701614075395603
0.0335,1.7719437500000002,1.0,2715.050058242403,0.3140053361058399,1.3212062985423052,0.9546319556171523,0.2874746375,0.6710029138289271
0.034,1.7711000000000001,1.0,2718.498020030549,0.3178532181670204,1.3207938361663931,0.9556248061428877,0.2874392,0.67184730445679
0.0345,1.7702437500000001,1.0,2721.57385992435,0.32167952304320857,1.32037913579804,0.9565789940831824,0.2874032375,0.6726951828612918
0.035,1.7693750000000001,1.0,2724.2944094368413,0.32548436871438685,1.3199620385240338,0.9574965016169966,0.28736675,0.6735468555597727
0.035500000000000004,1.76849375,1.0,2726.676607499659,0.32926787316053774,1.3195423854311636,0.9583791844559626,0.2873297375,0.6744026272734747
0.036000000000000004,1.7676,1.0,2728.737489298432,0.3330301543616437,1.3191200176062174,0.9592287813640662,0.2872922,0.6752628009024473
0.0365,1.76669375,1.0,2730.4941756678472,0.33677133029768713,1.3186947761359837,0.9600469228569214,0.2872541375,0.6761276774988367
0.037,1.765775,1.0,2731.9638630466525,0.34049151894865065,1.3182665021072506,0.9608351391597658,0.28721555,0.6769975562385697
0.0375,1.76484375,1.0,2733.163813992672,0.3441908382945166,1.3178350366068066,0.9615948674949005,0.2871764375,0.6778727343914219
0.038,1.7639,1.0,2734.1113482576175,0.3478694063152675,1.3174002207214401,0.9623274587618758,0.28713679999999997,0.6787535072894806
0.0385,1.76294375,1.0,2734.8238344219158,0.35152734099088584,1.3169618955379394,0.9630341836671376,0.28709663750000003,0.6796401682939937
0.039,1.761975,1.0,2735.3148167495715,0.3551647593175951,1.3165199372401908,0.9637162414162666,0.28705595,0.6805329379128371
0.0395,1.7609937500000001,1.0,2735.597633362311,0.35878177535153033,1.316074224183023,0.9643747612622608,0.2870147375,0.6814320306348856
0.04,1.76,1.0,2735.68619778715,0.3623785028046787,1.3156246297474858,0.9650108071852113,0.286973,0.6823376693136559
0.0405,1.7589937500000001,1.0,2735.592194593809,0.36595505516022847,1.3151710477578191,0.965625384595325,0.2869307375,0.6832500339771637
0.041,1.7579750005018926,1.0,2735.327177056985,0.369511545522799,1.3147133736230345,0.9662194425804596,0.2868879500210795,0.6841692999451795
0.0415,1.7569501125166973,1.0,2735.2054782307205,0.37304808709025,1.3142516260142783,0.9667938881079364,0.2868449047257013,0.6850953939648667
0.042,1.755925224531502,1.0,2735.5040293432803,0.37656479215645267,1.3137860625647817,0.9673495981928886,0.2868018594303231,0.6860277644773307
0.0425,1.7549003365463067,1.0,2736.1912430396546,0.38006177108439343,1.3133169706641779,0.9678874041510543,0.28675881413494486,0.6869658032328532
0.043000000000000003,1.7538754485611114,1.0,2737.2356035529606,0.3835391342370587,1.3128446377020997,0.9684080924373933,0.2867157688395667,0.6879089051691389
0.043500000000000004,1.7528505605759162,1.0,2738.6056451365143,0.386996991977435,1.31236935106818,0.9689124075263271,0.2866727235441885,0.688856468473355
0.044,1.7518256725907209,1.0,2740.2781175922296,0.39043545162059584,1.3118913238975025,0.9694010482582568,0.28662967824881025,0.6898080423388495
0.0445,1.7508007846055256,1.0,2742.2153248349136,0.3938546270341891,1.3114109005451666,0.9698746881938034,0.28658663295343206,0.6907629177986235
0.045,1.7497758966203303,1.0,2744.39775890296,0.39725462499463116,1.3109282603874814,0.9703339523596147,0.2865435876580539,0.6917207171314239
0.0455,1.748751008635135,1.0,2746.8075076862915,0.40063555164406905,1.3104435683684095,0.9707794327042404,0.28650054236267564,0.6926810932993899
0.046,1.7477261206499397,1.0,2749.426656692742,0.40399751312465004,1.3099569894319125,0.9712116912880774,0.28645749706729745,0.6936437012190857
0.0465,1.7467012326647444,1.0,2752.237281845099,0.40734061557852125,1.3094686885219529,0.9716312620832875,0.28641445177191927,0.6946081977822147
0.047,1.7456763446795491,1.0,2755.221442882471,0.4106649651478299,1.3089788305824928,0.9720386526489283,0.2863714064765411,0.6955742418746023
0.0475,1.7446514566943538,1.0,2758.361177364675,0.41397066797472315,1.3084875805574943,0.9724343456910425,0.28632836118116284,0.6965414943934423
0.048,1.7436265687091586,1.0,2761.6443860754434,0.41725782670220596,1.3079950501583164,0.9728187963202197,0.28628531588578465,0.6975097228251791
0.0485,1.7426016807239633,1.0,2765.052481579619,0.420526549860003,1.3075014095302855,0.9731924426322666,0.28624227059040647,0.698478581431402
0.049,1.7415767927387678,1.0,2768.5757155022534,0.4237769393667584,1.3070067487067911,0.9735556955871048,0.2861992252950282,0.6994478834454247
0.0495,1.7405519047535725,1.0,2772.2049187784974,0.4270090967128712,1.306511152333432,0.9739089464279169,0.28615617999965004,0.7004174537475498
0.05,1.7395270167683772,1.0,2775.930903951646,0.4302231233887399,1.306014705055808,0.9742525682035796,0.28611313470427185,0.7013871182704301
0.0505,1.7385021287831819,1.0,2779.744463497265,0.4334191208847635,1.3055174915195178,0.9745869167806456,0.28607008940889367,0.7023567040038947
0.051000000000000004,1.7374772407979866,1.0,2783.6363683053096,0.4365971906913406,1.3050195963701607,0.9749123317903526,0.2860270441135154,0.7033260389993119
0.051500000000000004,1.7364523528127913,1.0,2787.597366321933,0.43975743429887004,1.3045211042533362,0.9752291375153702,0.28598399881813724,0.7042949523734973
0.052000000000000005,1.735427464827596,1.0,2791.6214225810936,0.44289994974171465,1.3040220706827084,0.9755376414904139,0.28594095352275906,0.7052633307965507
0.0525,1.7344025768424007,1.0,2795.6988885905084,0.44602484091667144,1.303522583485105,0.9758381402816164,0.2858979082273808,0.7062309990896922
0.053,1.7333776888572054,1.0,2799.8249575682803,0.449132205116241,1.3030226867921697,0.9761309140070981,0.28585486293200263,0.7071978676315518
0.0535,1.7323528008720102,1.0,2803.995001618485,0.45222213938293976,1.3025224230120196,0.9764162304742472,0.28581181763662444,0.7081638506853849
0.054,1.7313279128868149,1.0,2808.2043797441597,0.4552947407592838,1.3020218345527719,0.9766943459524846,0.2857687723412462,0.7091288630528638
0.0545,1.7303030249016196,1.0,2812.4484375221537,0.45835010628778944,1.3015209638225442,0.9769655057691511,0.285725727045868,0.7100928200750127
0.055,1.7292781369164243,1.0,2816.7225068177186,0.46138833301097293,1.3010198532294535,0.9772299448698014,0.28568268175048983,0.7110556376330304
0.0555,1.728253248931229,1.0,2821.021905538938,0.4644095179713505,1.3005185451816172,0.9774878883453023,0.2856396364551116,0.7120172321489933
0.056,1.7272283609460337,1.0,2825.348532179722,0.46741373824619403,1.3000170231689019,0.9777395466375449,0.2855965911597334,0.7129776333191027
0.0565,1.7262034729608384,1.0,2829.689784360585,0.4704011189211214,1.2995154001871398,0.9779851334234477,0.2855535458643552,0.7139366232485251
0.057,1.7251785849756431,1.0,2834.04388627117,0.4733717512817806,1.2990136923095252,0.9782248450082842,0.285510500568977,0.7148941703170426
0.0575,1.7241536969904476,1.0,2838.4092301954784,0.47632572606846185,1.2985119140620562,0.9784588696246824,0.2854674552735988,0.7158502460555087
0.058,1.7231288090052523,1.0,2842.7842034407445,0.4792631340214554,1.2980100799707317,0.9786873879600939,0.2854244099782206,0.7168048221806063
0.0585,1.722103921020057,1.0,2847.1671883171125,0.4821840658810512,1.2975082045615494,0.9789105735198973,0.28538136468284236,0.7177578705949086
0.059000000000000004,1.7210790330348618,1.0,2851.55656212229,0.48508861238753975,1.2970063023605083,0.9791285929702548,0.2853383193874642,0.7187093633869207
0.059500000000000004,1.7200541450496665,1.0,2855.950697130314,0.48797686428121106,1.2965043878936062,0.9793416064619994,0.285295274092086,0.7196592728311157
0.06,1.7190292570644712,1.0,2860.3479605850916,0.4908489123023553,1.296002475686842,0.9795497679367442,0.28525222879670775,0.7206075713879481
0.0605,1.718004369079276,1.0,2864.74671469953,0.49370484719126273,1.2955005802662136,0.9797532254163178,0.28520918350132957,0.7215542317038617
0.061,1.7169794810940806,1.0,2869.1453166575593,0.49654475968822354,1.2949987161577197,0.979952121276558,0.2851661382059514,0.7224992266112792
0.0615,1.7159545931088853,1.0,2873.5421186227873,0.49936874053352787,1.2944968978873583,0.980146592506424,0.2851230929105732,0.7234425291285805
0.062,1.71492970512369,1.0,2877.9354677503507,0.502176880467466,1.2939951399811283,0.9803367709533155,0.285080047615195,0.7243841124600664
0.0625,1.7139048171384947,1.0,2882.3237062042185,0.5049692702303279,1.2934934569650276,0.9805227835554357,0.28503700231981677,0.7253239499959103
0.063,1.7128799291532995,1.0,2886.70642415484,0.5077459868111841,1.2929918522904376,0.9807047509766116,0.2849939570244386,0.7262620360057985
0.0635,1.7118550411681042,1.0,2891.083230160437,0.5105071173720743,1.2924903292362098,0.9808827902145041,0.2849509117290604,0.7271983651252986
0.064,1.7108301531829089,1.0,2895.451357723228,0.5132527753873184,1.2919889120322208,0.9810570169633276,0.28490786643368216,0.7281328930173471
0.0645,1.7098052651977136,1.0,2899.8105258889677,0.5159830436285604,1.291487602916669,0.9812275394344081,0.28486482113830397,0.7290656165366526
0.065,1.708780377212518,1.0,2904.1604530167097,0.5186980048674441,1.2909864041277532,0.9813944619751201,0.2848217758429258,0.7299965325663261
0.0655,1.7077554892273228,1.0,2908.5008567840882,0.5213977418756136,1.290485317903672,0.9815578852350454,0.28477873054754754,0.7309256380178656
0.066,1.7067306012421275,1.0,2912.831454193191,0.5240823374247127,1.2899843464826237,0.9817179063238399,0.28473568525216936,0.7318529298311405
0.0665,1.7057057132569322,1.0,2917.1519615758593,0.5267518742863854,1.289483492102807,0.9818746189612712,0.28469263995679117,0.7327784049743751
0.067,1.704680825271737,1.0,2921.4620945995093,0.5294064352322755,1.2889827570024208,0.9820281136198714,0.28464959466141293,0.733702060444132
0.0675,1.7036559372865416,1.0,2925.761568273334,0.5320461030340271,1.2884821434196634,0.982178477660618,0.28460654936603474,0.7346238932652959
0.068,1.7026310493013463,1.0,2930.050096953702,0.5346709604632841,1.2879816535927335,0.9823257954620295,0.28456350407065656,0.7355439004910549
0.0685,1.701606161316151,1.0,2934.3273943506847,0.5372810902916904,1.2874812897598296,0.9824701485430384,0.2845204587752783,0.7364620792028855
0.069,1.7005812733309558,1.0,2938.593173534252,0.5398765752908897,1.2869810541591502,0.9826116156799848,0.28447741347990013,0.7373784265105322
0.0695,1.6995563853457605,1.0,2942.8471469402407,0.5424574982325263,1.286480949028894,0.9827502730180477,0.28443436818452195,0.7382929395519906
0.07,1.6985314973605652,1.0,2947.0890263769447,0.5450239418882439,1.2859809766072596,0.9828861941774164,0.2843913228891437,0.7392056154934886
0.07050000000000001,1.69750660937537,1.0,2951.318523031882,0.5475759890296865,1.2854811391324457,0.9830194503544828,0.2843482775937655,0.7401164515294681
0.07100000000000001,1.6964817213901746,1.0,2955.535347478129,0.5501137224284981,1.2849814388426506,0.983150110418324,0.28430523229838733,0.7410254448825657
0.07150000000000001,1.6954568334049793,1.0,2959.739209681108,0.5526372248563224,1.2844818779760732,0.9832782410027171,0.28426218700300915,0.7419325928035925
