Time [s],Phi [rad],STIM [ ],Fsee [N],Gamma [ ],Lcerel [ ],q [ ],Lmtc [m],fisomrel [ ]
0.0,1.8,1.0,17.96755286253653,1.0040935575797348e-05,1.379339702000929,0.005000026869551129,0.288653,0.5411396380288469
0.0005,1.79999375,1.0,18.276862069992738,0.005619193922662238,1.3793023746904727,0.012940627364280113,0.2886527375,0.5412299379916081
0.001,1.799975,1.0,21.618490243281954,0.011196883996413474,1.37893829101309,0.03560878903166969,0.28865195,0.5421102410844345
0.0015,1.79994375,1.0,31.069315348981533,0.016743287639756962,1.378046196969083,0.07060199563838922,0.2886506375,0.5442636255013182
0.002,1.7999,1.0,53.58233445901612,0.022258580343970526,1.3763681351500112,0.11471818058396888,0.2886488,0.5483004682516037
0.0025,1.79984375,1.0,97.11867095908445,0.02774293661624297,1.3739351801105992,0.16457504839205586,0.28864643749999996,0.5541214320014469
0.003,1.7997750000000001,1.0,160.95786939188756,0.03319652998739403,1.3712143548893265,0.2172806140874381,0.28864354999999997,0.5605864245028735
0.0035,1.79969375,1.0,237.68301823710885,0.03861953301146383,1.3685847438838068,0.27061304733214053,0.2886401375,0.5667898168881013
0.004,1.7996,1.0,321.46647010143107,0.04401211727649556,1.3661561003747975,0.32291595526704797,0.2886362,0.5724799431068917
0.0045000000000000005,1.7994937500000001,1.0,409.2674823801433,0.04937445340971996,1.3639228204671647,0.37303465352126325,0.2886317375,0.5776791477781371
0.005,1.799375,1.0,499.4132548288924,0.05470671106864359,1.3618583476452444,0.42024759779171644,0.28862675,0.5824570670900939
0.0055,1.79924375,1.0,590.7901924642454,0.06000905898852885,1.3599388394275753,0.4641738257803868,0.2886212375,0.5868751016311549
0.006,1.7991000000000001,1.0,682.5179018668096,0.06528166492551662,1.3581464185003143,0.5046800801574041,0.2886152,0.5909794098067531
0.006500000000000001,1.79894375,1.0,773.881150170316,0.07052469571225863,1.3564672554556274,0.5418008684393185,0.2886086375,0.5948057901400907
0.007,1.798775,1.0,864.2856601949416,0.07573831724150945,1.3548903974356437,0.5756768813386003,0.28860155,0.5983826715815399
0.0075,1.79859375,1.0,953.2431592348781,0.08092269447586137,1.353406780055186,0.6065100076876444,0.2885939375,0.6017335708259737
0.008,1.7984,1.0,1040.3447133431255,0.08607799104789532,1.352008848657464,0.6345322621896416,0.2885858,0.604878094600914
0.0085,1.79819375,1.0,1125.314815383552,0.09120437106194577,1.3506892331764229,0.6599845094865967,0.2885771375,0.6078350182848613
0.009000000000000001,1.797975,1.0,1207.9003970971055,0.09630199644981038,1.3494420320921467,0.683104265806792,0.28856795,0.6106194713243338
0.0095,1.79774375,1.0,1287.8922301691584,0.10137102774017749,1.3482621234798995,0.7041175462229317,0.2885582375,0.6132445578739516
0.01,1.7975,1.0,1365.1670387085694,0.10641162546173552,1.3471443854149445,0.7232342903960439,0.288548,0.6157231367183689
0.0105,1.79724375,1.0,1439.6596843542118,0.1114239495614611,1.3460839440700068,0.7406467164242244,0.2885372375,0.618067294824453
0.011,1.796975,1.0,1511.3225815310536,0.11640815880253473,1.3450765491557606,0.7565291788900215,0.28852595000000003,0.6202875485419387
0.0115,1.79669375,1.0,1580.1211482064823,0.1213644103630542,1.3441184814370157,0.7710386575954832,0.2885141375,0.6223930826960531
0.012,1.7964,1.0,1646.056905396974,0.12629286087364072,1.343206166190966,0.7843156348259138,0.28850180000000003,0.6243926259199586
0.0125,1.79609375,1.0,1709.1739716887162,0.13119366722235923,1.3423360348281546,0.7964853677986434,0.2884889375,0.6262947680425273
0.013000000000000001,1.7957750000000001,1.0,1769.5069223833705,0.13606698425578662,1.3415050685984389,0.8076595298294992,0.28847555,0.6281067861019629
0.0135,1.79544375,1.0,1827.092025481009,0.14091296541688128,1.3407105895555178,0.8179375003137185,0.2884616375,0.6298351216987612
0.014,1.7951000000000001,1.0,1881.9931881451828,0.1457317641486016,1.3399499197530904,0.8274075618807377,0.2884472,0.6314861353949853
0.0145,1.79474375,1.0,1934.2785806814782,0.15052353288568754,1.339220607496949,0.8361482287106878,0.2884322375,0.6330656232442629
0.015,1.794375,1.0,1984.049703404866,0.1552884246439481,1.3385200790428768,0.8442292500207859,0.28841675,0.6345795793520549
0.0155,1.79399375,1.0,2031.3700980528251,0.16002658918228632,1.3378463763824546,0.8517128770519286,0.2884007375,0.6360326083075409
0.016,1.7936,1.0,2076.310896798864,0.16473817582681208,1.3371976292784324,0.8586545710697615,0.2883842,0.6374290778348368
0.0165,1.7931937500000001,1.0,2118.9575327347998,0.16942333390363518,1.3365719674935606,0.8651037802780455,0.2883671375,0.638773312173194
0.017,1.792775,1.0,2159.3911794431106,0.17408221156730624,1.3359676978941473,0.8711047032156127,0.28834955,0.6400692154710045
0.0175,1.7923437500000001,1.0,2197.7182194792476,0.17871495779040195,1.3353829865073477,0.8766968185494698,0.2883314375,0.6413209577851157
0.018000000000000002,1.7919,1.0,2234.010773926828,0.18332171809876976,1.3348164518983456,0.8819155994974954,0.2883128,0.6425317077111059
0.0185,1.79144375,1.0,2268.3430225585857,0.1879026375719899,1.334266775964125,0.8867928754651604,0.2882936375,0.6437044722147626
0.019,1.790975,1.0,2300.796665891519,0.19245786128964268,1.3337326406016692,0.8913572375554243,0.28827395,0.6448422340466745
0.0195,1.79049375,1.0,2331.4517120270298,0.1969875332167596,1.3332128120406201,0.8956344297340381,0.2882537375,0.6459477738902499
0.02,1.79,1.0,2360.39707321323,0.20149179843707324,1.3327060288095494,0.8996476465958715,0.288233,0.6470239106944493
0.0205,1.78949375,1.0,2387.7036769047654,0.2059707989650955,1.3322112587089285,0.9034178751303639,0.2882117375,0.6480729578668027
0.021,1.788975,1.0,2413.437124435396,0.2104246754283855,1.3317275654272747,0.906964109187784,0.28818995000000003,0.6490970099990216
0.021500000000000002,1.78844375,1.0,2437.667019540406,0.21485356845450232,1.331254012653104,0.9103035476243813,0.2881676375,0.6500981476441874
0.022,1.7879,1.0,2460.466630936331,0.21925761867100496,1.330789664074934,0.9134517886923121,0.2881448,0.6510784379502308
0.0225,1.78734375,1.0,2481.898460737818,0.22363696417103365,1.330333717915439,0.9164230265043536,0.28812143749999997,0.6520396518117446
0.023,1.786775,1.0,2502.044882414071,0.22799174739544842,1.3298852105124799,0.919230144801881,0.28809755,0.6529838899398497
0.0235,1.78619375,1.0,2520.9596817603137,0.23232210479084434,1.3294434753978965,0.9218849349772874,0.28807313749999996,0.6539126164469247
0.024,1.7856,1.0,2538.694458614502,0.23662817195958127,1.3290078867125403,0.9243981622047526,0.2880482,0.654827201788738
0.0245,1.78499375,1.0,2555.3027006308007,0.2409100845040191,1.3285778185972625,0.9267796624672094,0.2880227375,0.6557290086921698
0.025,1.784375,1.0,2570.8396239991653,0.24516797802651769,1.3281526451929149,0.9290384355087404,0.28799675,0.6566193923880514
0.025500000000000002,1.78374375,1.0,2585.3620228492077,0.24940198812943684,1.3277317406403486,0.9311827273577283,0.2879702375,0.6574997008190284
0.026000000000000002,1.7831000000000001,1.0,2598.918103638555,0.2536122467057965,1.3273145724528608,0.9332201172057151,0.2879432,0.6583710799107174
0.0265,1.78244375,1.0,2611.5691537204398,0.2577988922191905,1.326900497788697,0.9351575533596652,0.2879156375,0.6592348996986677
0.027,1.781775,1.0,2623.355029858459,0.26196205550988066,1.3264890836739704,0.9370014567315923,0.28788755,0.6600920862300099
0.0275,1.7810937500000001,1.0,2634.3144419130163,0.2661018666397897,1.3260799160299048,0.9387577433719986,0.2878589375,0.6609435215622775
0.028,1.7804,1.0,2644.486901614957,0.2702184556708404,1.325672580777723,0.940431868510602,0.2878298,0.6617900833213568
0.0285,1.77969375,1.0,2653.912652015078,0.2743119526649555,1.3252666638386483,0.9420288684994215,0.2878001375,0.6626326447553437
0.029,1.778975,1.0,2662.632600735705,0.2783824876840578,1.3248617511339043,0.9435533984322464,0.28776995,0.6634720747774658
0.029500000000000002,1.7782437500000001,1.0,2670.685450169946,0.28243018926216057,1.3244574543773415,0.9450097689095228,0.2877392375,0.6643091846268347
0.03,1.7775,1.0,2678.1028720557465,0.28645518268486375,1.3240534546338913,0.9464019813398183,0.287708,0.6651446382010221
0.0305,1.77674375,1.0,2684.9350767231062,0.29045760521569985,1.323649267063863,0.9477337288765456,0.2876762375,0.6659794385491844
0.031,1.775975,1.0,2691.2069841391,0.2944375804438926,1.323244642728286,0.9490084658637898,0.28764395,0.6668140974090011
0.0315,1.7751937500000001,1.0,2696.943827422163,0.29839523195866585,1.3228393326881898,0.950229402353348,0.2876111375,0.6676491239459321
0.032,1.7744,1.0,2702.171124781786,0.3023306833492433,1.3224330880046038,0.9513995243995566,0.2875778,0.6684850247443095
0.0325,1.77359375,1.0,2706.91465283297,0.30624405820484873,1.3220256597385573,0.9525216124331396,0.2875439375,0.6693223037944735
0.033,1.772775,1.0,2711.200421283687,0.31013548011470593,1.3216167989510799,0.9535982579165053,0.28750955,0.6701614624759589
0.0335,1.7719437500000002,1.0,2715.0546489973012,0.3140050726680387,1.3212062567032006,0.9546318784595932,0.2874746375,0.6710029995367272
0.034,1.7711000000000001,1.0,2718.5037414281605,0.3178529594540708,1.3207937840559494,0.9556247315549365,0.2874392,0.6718474110684468
0.0345,1.7702437500000001,1.0,2721.572316127992,0.32167926221252713,1.3203791498509865,0.9565789285508723,0.2874032375,0.672695154147829
0.035,1.7693750000000001,1.0,2724.2799898576563,0.32548409886347,1.3199621697178967,0.9574964485455653,0.28736675,0.6735465878489026
0.035500000000000004,1.76849375,1.0,2726.656804009232,0.329267599808252,1.319542565530907,0.9583791375181989,0.2873297375,0.6744022602484886
0.036000000000000004,1.7676,1.0,2728.71795730172,0.3330298817157923,1.3191201951698082,0.9592287359818024,0.2872922,0.6752624395241822
0.0365,1.76669375,1.0,2730.4787290661443,0.33677106125501,1.3186949165143917,0.9600468760867918,0.2872541375,0.6761273921807553
0.037,1.765775,1.0,2731.954470397458,0.3404912550948245,1.3182665874444484,0.9608350895874697,0.28721555,0.676997383024443
0.0375,1.76484375,1.0,2733.1605957547636,0.3441905799041548,1.3178350658397688,0.9615948151373431,0.2871764375,0.677872675135937
0.038,1.7639,1.0,2734.1125750087326,0.3478691523519203,1.3174002095801447,0.9623274049766072,0.28713679999999997,0.6787535298420926
0.0385,1.76294375,1.0,2734.8259259378688,0.35152708910704,1.3169618765453666,0.9630341310685578,0.28709663750000003,0.6796402066863514
0.039,1.761975,1.0,2735.316207171278,0.35516450683843315,1.3165199246152255,0.9637161907358466,0.28705595,0.6805329633978698
0.0395,1.7609937500000001,1.0,2735.599011580414,0.358781522215019,1.3160742116695126,0.9643747118423197,0.2870147375,0.6814320558593628
0.04,1.76,1.0,2735.679727716598,0.3623782380594718,1.315624688491485,0.9650107633171789,0.286973,0.6823375510671333
0.0405,1.7589937500000001,1.0,2735.5822705452088,0.365954785053032,1.3151711378632516,0.965625343738737,0.2869307375,0.6832498528634671
0.041,1.757975,1.0,2735.319382778451,0.3695112786965647,1.3147134441679662,0.9662194017510906,0.28688795,0.6841691583543892
0.0415,1.75694375,1.0,2734.8992169761386,0.37304782805839687,1.3142515335916267,0.966793835826528,0.2868446375,0.6850955791942306
0.042,1.7559,1.0,2734.329937248965,0.37656454220685553,1.3137853323202313,0.9673494951487963,0.28680079999999997,0.6860292258312564
0.0425,1.75484375,1.0,2733.61971698176,0.3800615302102675,1.3133147665397775,0.9678871828178965,0.2867564375,0.6869702074876426
0.043000000000000003,1.753775,1.0,2732.7767366764238,0.3835389011369598,1.3128397624362629,0.9684076588150694,0.28671155,0.6879186321391026
0.043500000000000004,1.75269375,1.0,2731.8091819172423,0.3869967640552594,1.3123602461956856,0.9689116427481541,0.28666613750000003,0.6888746064941668
0.044,1.7516,1.0,2730.7252414556237,0.3904352280334931,1.3118761440040432,0.969399816395637,0.2866202,0.6898382359731166
0.0445,1.75049375,1.0,2729.533105416754,0.39385440213998796,1.3113873820473334,0.9698728260660004,0.2865737375,0.6908096246865689
0.045,1.7493750000000001,1.0,2728.2409636262023,0.39725439544307095,1.310893886511554,0.9703312847874771,0.28652675,0.6917888754137148
0.0455,1.74824375,1.0,2726.8570040575196,0.4006353170110689,1.310395583582703,0.9707757743419436,0.2864792375,0.692776089580208
0.046,1.7471,1.0,2725.3894114012332,0.4039972759123088,1.3098923994467782,0.9712068471554509,0.2864312,0.6937713672357095
0.0465,1.7459437500000001,1.0,2723.8413396947894,0.4073403661577959,1.3093843060221622,0.971625029387023,0.28638263750000004,0.6947747167958709
0.047,1.744775,1.0,2722.2229720987666,0.41066470954176776,1.3088712112514909,0.9720308202575313,0.28633355,0.6957862718751178
0.0475,1.74359375,1.0,2720.5404967758946,0.41397041494415954,1.3083530593683457,0.9724246954056146,0.28628393750000003,0.6968060930426706
0.048,1.7424,1.0,2718.797729383551,0.41725758348482794,1.3078298161672288,0.9728071079350493,0.2862338,0.6978341973164863
0.0485,1.74119375,1.0,2716.9984828920074,0.4205263162836298,1.3073014474426432,0.9731784892068326,0.2861831375,0.6988706007642105
0.049,1.739975,1.0,2715.1465671771066,0.4237767144604218,1.3067679189890913,0.9735392500793374,0.28613195,0.6999153184920355
0.0495,1.73874375,1.0,2713.2457886392485,0.42700887913506075,1.3062291966010753,0.9738897820667747,0.2860802375,0.7009683646334821
0.05,1.7375,1.0,2711.299949848278,0.43022291142740343,1.3056852460730983,0.9742304584220356,0.286028,0.7020297523381037
0.0505,1.73624375,1.0,2709.312849214153,0.4334189124573065,1.3051360331996624,0.9745616351494867,0.2859752375,0.7030994937601228
0.051000000000000004,1.734975,1.0,2707.2882806836847,0.4365969833446268,1.3045815237752705,0.9748836519528401,0.28592195,0.7041776000469846
0.051500000000000004,1.73369375,1.0,2705.2300334632146,0.4397572252092211,1.304021683594425,0.9751968331227945,0.2858681375,0.7052640813278424
0.052000000000000005,1.7324,1.0,2703.1418917671117,0.44289973917094605,1.3034564784516283,0.9755014883687747,0.2858138,0.7063589467019658
0.0525,1.73109375,1.0,2701.0276345923608,0.4460246263496585,1.3028858741413833,0.9757979135987506,0.28575893750000003,0.7074622042270731
0.053,1.729775,1.0,2698.8910355191033,0.4491319878652152,1.3023098364581922,0.9760863916507911,0.28570355000000003,0.7085738609075928
0.0535,1.72844375,1.0,2696.734383138628,0.4522219205084168,1.3017283447251728,0.9763671933758867,0.2856476375,0.7096938966498956
0.054,1.7271,1.0,2694.563087730327,0.45529452292792244,1.3011413496764248,0.9766405763196181,0.2855912,0.7108223453924147
0.0545,1.7257437500000001,1.0,2692.3782904063182,0.4583498910046091,1.3005488410398944,0.9769067890389637,0.2855342375,0.7119591650177814
0.055,1.724375,1.0,2690.181045711986,0.46138812052326,1.2999508093205518,0.9771660695378755,0.28547675,0.7131043111860522
0.0555,1.72299375,1.0,2687.9724066035424,0.4644093072686583,1.299347245023368,0.9774186457660632,0.2854187375,0.7142577388294632
0.056,1.7216,1.0,2685.7534244231956,0.46741354702558735,1.2987381386533134,0.9776647361248256,0.2853602,0.715419402149087
0.0565,1.72019375,1.0,2683.5252624616214,0.4704009355635463,1.2981234796741066,0.9779045498816078,0.28530113749999997,0.7165892565912072
0.057,1.718775,1.0,2681.2931876051684,0.47337156758024873,1.297503219898569,0.9781382854242198,0.28524155,0.7177673282843868
0.0575,1.71734375,1.0,2679.056621436576,0.47632553667971034,1.2968773646889686,0.978366135982352,0.2851814375,0.7189535406101184
0.058,1.7159,1.0,2676.818585501524,0.4792629363543561,1.2962458863739297,0.97858828509053,0.2851208,0.7201478788473366
0.0585,1.71444375,1.0,2674.579590673096,0.48218385954242476,1.295608780290041,0.9788049101436458,0.2850596375,0.721350283850237
0.059000000000000004,1.7129750000000001,1.0,2672.3398370014434,0.4850883986477313,1.2949660446214213,0.9790161815804421,0.28499795,0.7225606904349289
0.059500000000000004,1.711493952140549,1.0,2670.111518810361,0.4879766456091207,1.294317658609126,0.979222262027758,0.28493574598990307,0.723779068338144
0.06,1.7100087001427116,1.0,2668.275408088864,0.4908486914298307,1.2936637766802244,0.9794233171636774,0.2848733654059939,0.7250050582458779
0.0605,1.708523448144874,1.0,2666.995824824296,0.4937046278059156,1.2930047827337074,0.9796195186479745,0.28481098482208467,0.7262378740279748
0.061,1.7070381961470364,1.0,2666.2290368667614,0.4965445449019195,1.2923410752864732,0.9798110322477281,0.2847486042381755,0.7274767082281524
0.0615,1.705552944149199,1.0,2665.9366212060186,0.4993685320397424,1.2916730056936188,0.9799980149128604,0.2846862236542663,0.7287208474159765
0.062,1.7040676921513613,1.0,2666.0802968477888,0.5021766785412842,1.291000925310241,0.9801806177187229,0.28462384307035715,0.7299695837646158
0.0625,1.702582440153524,1.0,2666.6285727895443,0.5049690718769106,1.290325124055696,0.9803589828075284,0.284561462486448,0.7312223288968261
0.063,1.7010971881556864,1.0,2667.5412419431364,0.5077458024122617,1.28964597276321,0.9805332514805807,0.2844990819025388,0.7324783496876718
0.0635,1.699611936157849,1.0,2668.7809375162938,0.5105069602841869,1.2889638166426658,0.9807035585766924,0.28443670131862964,0.7337369664263516
0.064,1.6981266841600116,1.0,2670.3263345462324,0.513252631199572,1.2882788537587537,0.9808700262935588,0.28437432073472046,0.7349977757510813
0.0645,1.696641432162174,1.0,2672.156138071825,0.5159829008653027,1.287591282176163,0.9810327724445206,0.2843119401508113,0.7362603776029036
0.065,1.6951561801643364,1.0,2674.2490712430813,0.518697854988265,1.2869012999595832,0.9811919106530655,0.2842495595669021,0.7375243752598892
0.0655,1.693670928166499,1.0,2676.5838642999643,0.5213975792753446,1.2862091051737041,0.981347550537396,0.28418717898299295,0.7387893753688379
0.066,1.6921856761686616,1.0,2679.1392444214907,0.5240821594334271,1.285514895883215,0.9814997978856407,0.2841247983990838,0.74005498797448
0.0665,1.690700424170824,1.0,2681.893926444073,0.5267516811693985,1.2848188701528056,0.9816487548222412,0.2840624178151746,0.7413208265461712
0.067,1.6892151721729864,1.0,2684.8327447056326,0.5294062270788841,1.284121169772173,0.981794517031503,0.28400003723126543,0.7425866099722322
0.0675,1.687729920175149,1.0,2687.935191201019,0.5320458844356214,1.2834219853354834,0.9819371795888474,0.28393765664735626,0.7438519713918784
0.068,1.6862446681773116,1.0,2691.1848561730753,0.5346707382589689,1.2827214696276061,0.9820768324066285,0.2838752760634471,0.7451166154706843
0.0685,1.684759416179474,1.0,2694.5718528185744,0.5372808698825293,1.282019715506853,0.9822135593014554,0.2838128954795379,0.7463803573515106
0.069,1.6832741641816364,1.0,2698.086279539206,0.5398763606399046,1.2813168158315356,0.9823474412897764,0.28375051489562875,0.7476430138086922
0.0695,1.681788912183799,1.0,2701.7182174875475,0.5424572918646974,1.2806128634599658,0.9824785567030073,0.2836881343117196,0.7489044032550976
0.07,1.6803036601859616,1.0,2705.4577283041717,0.5450237448905098,1.2799079512504552,0.9826069812972006,0.2836257537278104,0.7501643457486378
0.07050000000000001,1.678818408188124,1.0,2709.2948520457403,0.5475758010509443,1.2792021720613158,0.9827327883575403,0.28356337314390123,0.7514226629982251
0.07100000000000001,1.6773331561902864,1.0,2713.21960530486,0.5501135416796032,1.2784956187508587,0.9828560487979455,0.28350099255999206,0.7526791783691849
0.07150000000000001,1.675847904192449,1.0,2717.221979520305,0.5526370481100888,1.2777883841773963,0.9829768312560381,0.2834386119760829,0.7539337168881101
0.07200000000000001,1.6743626521946116,1.0,2721.3006955231135,0.5551463917686379,1.2770804814902332,0.9830951979874822,0.2833762313921737,0.7551862461005756
0.0725,1.6728774001967741,1.0,2725.4386390567684,0.557641666065295,1.2763720678685953,0.9832112170359508,0.2833138508082645,0.7564364799172085
0.073,1.6713921481989364,1.0,2729.631027658238,0.5601229484385852,1.2756631879453522,0.9833249483627312,0.2832514702243553,0.7576843329458082
0.0735,1.669906896201099,1.0,2733.8739429644734,0.5625903152205635,1.2749538783822798,0.9834364496357434,0.28318908964044615,0.758929734574434
