Time [s],Phi [rad],STIM [ ],Fsee [N],Gamma [ ],Lcerel [ ],q [ ],Lmtc [m],fisomrel [ ]
0.0,1.8,1.0,18.15802088069535,0.00044292441504831546,1.3793184197004154,0.005050739725908743,0.288653,0.5411911239667715
0.0005,1.79999375,1.0,18.604289907568862,0.006049649268198167,1.379266165399917,0.014185989132818905,0.2886527375,0.5413175248177386
0.001,1.799975,1.0,22.267123851652986,0.011624924827843861,1.378872532407797,0.03790014324424536,0.28865195,0.5422691460041543
0.0015,1.79994375,1.0,32.42182304344683,0.01716892750058987,1.3779321955644748,0.07371517728310581,0.2886506375,0.5445384424611468
0.002,1.7999,1.0,56.3329223289342,0.022681832701456475,1.376191924191326,0.11839013895470417,0.2886488,0.5487233296340165
0.0025,1.79984375,1.0,101.60459228226578,0.028163814863197585,1.3737214541185707,0.16856029253790847,0.28864643749999996,0.5546309780978987
0.003,1.7997750000000001,1.0,166.70953825224754,0.03361504743961939,1.3710009539352845,0.22138577700919157,0.28864354999999997,0.5610914929180768
0.0035,1.79969375,1.0,244.13097012792082,0.03903570291207765,1.368387458829714,0.2746917980510458,0.2886401375,0.5672534444419189
0.004,1.7996,1.0,328.29863316878834,0.044425952793193814,1.3659760937826548,0.3268622216566356,0.2886362,0.5729001874349153
0.0045000000000000005,1.7994937500000001,1.0,416.32312613923494,0.04978596763095837,1.3637579052944229,0.3767785644012714,0.2886317375,0.5780618186728752
0.005,1.799375,1.0,506.6009201549702,0.05511591702931417,1.3617061559536336,0.42374883130672714,0.28862675,0.5828082166621353
0.0055,1.79924375,1.0,598.0339485385373,0.06041596962817536,1.3597977451497025,0.46741443848724507,0.2886212375,0.5871989240599162
0.006,1.7991000000000001,1.0,689.7597218295031,0.06568629311483246,1.3580151288110143,0.5076576005930795,0.2886152,0.5912792332347987
0.006500000000000001,1.79894375,1.0,781.0726241839013,0.07092705424155665,1.3563447761512513,0.5445229689260284,0.2886086375,0.5950841852988349
0.007,1.798775,1.0,871.3903423209449,0.07613841889650397,1.3547758689264098,0.5781573150454413,0.28860155,0.5986418457509914
0.0075,1.79859375,1.0,960.217135645423,0.08132055175099005,1.353299708565848,0.6087659432737809,0.2885939375,0.6019748594620117
0.008,1.7984,1.0,1047.1884252195555,0.08647361717680078,1.3519082532886129,0.6365818613727463,0.2885858,0.6051038943474409
0.0085,1.79819375,1.0,1131.9831202857442,0.09159777792491855,1.3505949739531367,0.661846494203877,0.2885771375,0.6080458043329063
0.009000000000000001,1.797975,1.0,1214.3580729366504,0.0966931959731176,1.3493539132543109,0.6847966110466391,0.28856795,0.6108158268300365
0.0095,1.79774375,1.0,1294.153939628143,0.10176003291475291,1.3481793647901965,0.7056567781042328,0.2885582375,0.6134283480047681
0.01,1.7975,1.0,1371.2409503181643,0.10679844909296625,1.3470664058718698,0.7246357283710864,0.288548,0.6158957586581078
0.0105,1.79724375,1.0,1445.524795417557,0.1118086034690577,1.346010612320374,0.7419245126637064,0.2885372375,0.6182291331686223
0.011,1.796975,1.0,1516.9588274528028,0.1167906544379422,1.3450077640542022,0.7576961036683534,0.28852595000000003,0.6204389118058673
0.0115,1.79669375,1.0,1585.5522373820445,0.12174476079277871,1.344053654363474,0.7721059360579265,0.2885141375,0.6225353409411325
0.012,1.7964,1.0,1651.2974261713614,0.12667107870588074,1.3431448755517654,0.7852933613205,0.28850180000000003,0.6245267678015416
0.0125,1.79609375,1.0,1714.2031019776625,0.13156976340329818,1.342278309287248,0.7973827174728425,0.2884889375,0.6264207876003287
0.013000000000000001,1.7957750000000001,1.0,1774.3140307051399,0.13644097011108092,1.3414508372380933,0.808484620251416,0.28847555,0.6282248907825418
0.0135,1.79544375,1.0,1831.6899010051343,0.141284853023738,1.3406595400653971,0.8186974509637043,0.2884616375,0.6299460387832656
0.014,1.7951000000000001,1.0,1886.4078287443554,0.14610156647049102,1.3399016228540568,0.8281086557473378,0.2884472,0.6315908379501867
0.0145,1.79474375,1.0,1938.5202341680283,0.15089126182239887,1.3391748328335473,0.8367961185809724,0.2884322375,0.6331646453199465
0.015,1.794375,1.0,1988.0977668804064,0.1556540902941235,1.3384769433216104,0.844829079020295,0.28841675,0.6346727003815669
0.0155,1.79399375,1.0,2035.224285606853,0.1603902026219032,1.337805786308645,0.8522691549854078,0.2884007375,0.6361200597461674
0.016,1.7936,1.0,2079.991532204529,0.1650997494251883,1.3371592875534788,0.859171253750072,0.2883842,0.6375115268381077
0.0165,1.7931937500000001,1.0,2122.48787386076,0.1697828804548374,1.3365355624005664,0.8655843936129829,0.2883671375,0.6388514516573167
0.017,1.792775,1.0,2162.7812920205783,0.1744397426025375,1.335933066858201,0.8715524398847466,0.28834955,0.6401434138751385
0.0175,1.7923437500000001,1.0,2200.9504219164764,0.17907048275997547,1.335350256934676,0.8771146151945177,0.2883314375,0.641390960375787
0.018000000000000002,1.7919,1.0,2237.083659001933,0.1836752478188383,1.3347855886382844,0.8823060452370997,0.2883128,0.6425976072707825
0.0185,1.79144375,1.0,2271.262652341689,0.188254183030151,1.334237674079242,0.8871582761798067,0.2882936375,0.6437665090117932
0.019,1.790975,1.0,2303.586197237088,0.19280743567239886,1.333705031776459,0.8916996272663711,0.28827395,0.6449009941552057
0.0195,1.79049375,1.0,2334.12421816806,0.19733514875482897,1.333186535482691,0.8959556655416726,0.2882537375,0.6460036115211781
0.02,1.79,1.0,2362.9452844651096,0.20183746444384557,1.332681128020558,0.8999494493570603,0.288233,0.6470767444482435
0.0205,1.78949375,1.0,2390.1230380842057,0.20631452490585292,1.3321877522126797,0.9037017940338898,0.2882117375,0.6481227591833141
0.021,1.788975,1.0,2415.735766886472,0.21076647230725526,1.331705350881676,0.9072315206104139,0.28818995000000003,0.6491440057285209
0.021500000000000002,1.78844375,1.0,2439.852032253613,0.21519344673197421,1.331233001162287,0.9105557014656402,0.2881676375,0.6501425348884706
0.022,1.7879,1.0,2462.5565940342863,0.2195955912735967,1.3307696596965202,0.9136897991639091,0.2881448,0.6511206384701793
0.0225,1.78734375,1.0,2483.909261081016,0.2239730442886968,1.3303145543468369,0.9166479126351792,0.28812143749999997,0.6520800229166153
0.023,1.786775,1.0,2503.96525725191,0.22832594291638783,1.3298669823652267,0.9194428818191309,0.28809755,0.6530222383458522
0.0235,1.78619375,1.0,2522.7821923729657,0.2326544242957831,1.329426241003679,0.9220864057949243,0.28807313749999996,0.6539488256957462
0.024,1.7856,1.0,2540.4198623788216,0.23695862556599592,1.3289916275141838,0.9245891599057573,0.2880482,0.6548613170458182
0.0245,1.78499375,1.0,2556.938653065138,0.24123868353087613,1.3285624523654986,0.9269609016144789,0.2880227375,0.6557612082129127
0.025,1.784375,1.0,2572.3900092678687,0.24549473246094305,1.3281381266157715,0.9292105760944022,0.28799675,0.6566497763427677
0.025500000000000002,1.78374375,1.0,2586.844769295113,0.24972691131665314,1.3277178944170271,0.9313463544291084,0.2879702375,0.657528640557622
0.026000000000000002,1.7831000000000001,1.0,2600.344181912414,0.2539353518875821,1.3273012901040815,0.9333757787466787,0.2879432,0.6583988057914665
0.0265,1.78244375,1.0,2612.9306073212283,0.25812018596330566,1.3268878480117507,0.935305778267393,0.2879156375,0.6592612717546127
0.027,1.781775,1.0,2624.6474238236806,0.26228154533339965,1.326477102474851,0.9371427273265559,0.28788755,0.6601170330345207
0.0275,1.7810937500000001,1.0,2635.538939294346,0.26641956178743975,1.3260685878281984,0.9388924971984329,0.2878589375,0.660967079182795
0.028,1.7804,1.0,2645.6503074600755,0.2705343671150017,1.325661838406609,0.9405605024504723,0.2878298,0.6618123947883536
0.0285,1.77969375,1.0,2655.022471638604,0.27462609038436003,1.3252564344172697,0.942151747981205,0.2878001375,0.6626538643819015
0.029,1.778975,1.0,2663.697643249534,0.27869486455902914,1.3248519504749432,0.9436708609670877,0.28776995,0.6634923796958707
0.029500000000000002,1.7782437500000001,1.0,2671.7095048417937,0.28274081762537745,1.3244480450727965,0.9451221331735213,0.2877392375,0.664328654491201
0.03,1.7775,1.0,2679.089923190966,0.2867640760293965,1.3240443978627818,0.9465095429269562,0.287708,0.6651633552734284
0.0305,1.77674375,1.0,2685.8711979958407,0.2907647662170781,1.323640688496851,0.9478367798802408,0.2876762375,0.6659971452464422
0.031,1.775975,1.0,2692.086021086457,0.2947430146344137,1.323236596626956,0.949107269590086,0.28764395,0.6668306843144853
0.0315,1.7751937500000001,1.0,2697.767437908035,0.2986989477273951,1.3228318019050487,0.9503241957133649,0.2876111375,0.6676646290776129
0.032,1.7744,1.0,2702.9472242658862,0.3026326915724182,1.32242599847912,0.951490521734071,0.2875778,0.6684996030125718
0.0325,1.77359375,1.0,2707.6523744635374,0.3065443708576498,1.322018926670144,0.9526090124448564,0.2875439375,0.6693361315886747
0.033,1.772775,1.0,2711.9076822491465,0.31043410894194007,1.3216103489775028,0.9536822471322356,0.28750955,0.6701746920617628
0.0335,1.7719437500000002,1.0,2715.7351827685998,0.3143020283573382,1.321200054863162,0.9547126350548195,0.2874746375,0.6710157039410133
0.034,1.7711000000000001,1.0,2719.157082746471,0.31814825163589355,1.320787833789087,0.9557024260100955,0.2874392,0.6718595844799269
0.0345,1.7702445414425574,1.0,2722.238329348415,0.32197289912700733,1.3203734450283424,0.9566537188981488,0.2874032707405874,0.6727068103337744
0.035,1.769386489595425,1.0,2725.4288238544386,0.3257760956715511,1.3199569072026087,0.957568506255719,0.28736723256300784,0.6735573263180524
0.035500000000000004,1.7685284377482924,1.0,2728.837073798636,0.3295579599843704,1.3195384067695095,0.9584486694485912,0.28733119438542826,0.6744107353290927
0.036000000000000004,1.76767038590116,1.0,2732.4429703318965,0.33331861060216794,1.319118130087669,0.9592959708296673,0.28729515620784873,0.6752666423767523
0.0365,1.7668123340540276,1.0,2736.2263729761657,0.33705816606164635,1.3186962635157125,0.9601120626763511,0.28725911803026916,0.6761246544040931
0.037,1.7659542822068952,1.0,2740.167102670743,0.3407767448995083,1.318272993412264,0.9608984953118721,0.2872230798526896,0.6769843803073885
0.0375,1.7650962303597626,1.0,2744.2455597548596,0.3444744652413445,1.3178485004777656,0.9616567239006186,0.28718704167511,0.6778454424235838
0.038,1.7642381785126302,1.0,2748.449377628934,0.34815144127863246,1.3174228994565897,0.9623881088105449,0.2871510034975305,0.6787075985349864
0.0385,1.7633801266654978,1.0,2752.7535887633476,0.35180779675731194,1.3169964188742895,0.9630939421924102,0.2871149653199509,0.6795703776175892
0.039,1.7625220748183654,1.0,2757.148903498325,0.3554436449393085,1.3165691448079258,0.9637754248186369,0.2870789271423714,0.6804335987103908
0.0395,1.761664022971233,1.0,2761.626006323691,0.35905909908654776,1.3161411633345599,0.9644336877737034,0.2870428889647918,0.6812970817776502
0.04,1.7608059711241004,1.0,2766.1755544470707,0.3626542724609552,1.3157125605312527,0.9650697972472875,0.2870068507872122,0.6821606477130104
0.0405,1.759947919276968,1.0,2770.788176525842,0.3662292783244564,1.3152834224750658,0.9656847589490463,0.28697081260963264,0.6830241183431416
0.041,1.7590898674298356,1.0,2775.4544715634865,0.3697842299389769,1.3148538352430599,0.9662795221785567,0.28693477443205306,0.6838873164309187
0.0415,1.7582318155827033,1.0,2780.1650079702213,0.37331924056644233,1.3144238849122962,0.9668549835806733,0.28689873625447354,0.6847500656781221
0.042,1.7573737637355706,1.0,2784.911101259163,0.3768344224029059,1.3139936505545742,0.9674119898492417,0.28686269807689396,0.685612204755778
0.0425,1.7565157118884382,1.0,2789.6870722555914,0.38032988539976265,1.3135631839572723,0.9679513391375812,0.2868266598993144,0.6864736277633221
0.043000000000000003,1.7556576600413059,1.0,2794.4837215228677,0.38380574551030755,1.3131325683578892,0.9684737903124467,0.28679062172173486,0.6873341665611986
0.043500000000000004,1.7547996081941735,1.0,2799.297317897284,0.387262110466658,1.3127018376292678,0.9689800567126711,0.2867545835441553,0.68819375237015
0.044,1.7539415563470409,1.0,2804.1241173388985,0.3906990880009315,1.3122710256442511,0.9694708142726625,0.2867185453665757,0.6890523167828044
0.0445,1.7530835044999085,1.0,2808.960362857332,0.39411678584524573,1.3118401662756822,0.9699467038558182,0.2866825071889961,0.6899097917638868
0.045,1.752225452652776,1.0,2813.802284463723,0.39751531173171806,1.311409293396404,0.970408333420276,0.2866464690114166,0.6907661096503581
0.0455,1.7513674008056437,1.0,2818.6460991474987,0.400894773392466,1.31097844087926,0.9708562800305774,0.286610430833837,0.6916212031514816
0.046,1.750509348958511,1.0,2823.488010879548,0.40425527855960713,1.3105476425970926,0.9712910917275972,0.28657439265625745,0.6924750053488153
0.0465,1.7496512971113787,1.0,2828.324758794542,0.4075969333485909,1.3101169275280469,0.9717132886924684,0.2865383544786779,0.6933274593767988
0.047,1.7487932452642463,1.0,2833.153889852129,0.4109198436253571,1.3096863173442783,0.9721233649199712,0.28650231630109835,0.69417852311779
0.0475,1.747935193417114,1.0,2837.972122193537,0.41422411846939783,1.3092558410329347,0.9725217912496962,0.28646627812351877,0.6950281402647074
0.048,1.7470771415699815,1.0,2842.7781640919748,0.4175098603530054,1.3088255097582295,0.9729090136866102,0.2864302399459392,0.6958762899316635
0.0485,1.746219089722849,1.0,2847.570719713553,0.4207771717484722,1.3083953346843769,0.9732854569329039,0.28639420176835967,0.6967229513549464
0.049,1.7453610378757165,1.0,2852.3484891545663,0.4240261551280904,1.3079653269755902,0.9736515256022018,0.2863581635907801,0.697568103892914
0.0495,1.7445029860285841,1.0,2857.110168481773,0.4272569129641524,1.3075354977960831,0.97400760535385,0.2863221254132005,0.6984117270258781
0.05,1.7436449341814517,1.0,2861.8544497749695,0.4304695477289505,1.3071058583100696,0.9743540639532227,0.286286087235621,0.6992538003559803
0.0505,1.742786882334319,1.0,2866.580021172429,0.4336641618947771,1.3066764196817635,0.974691252263499,0.2862500490580414,0.7000943036070627
0.051000000000000004,1.7419288304871867,1.0,2871.2870281609253,0.43684084146914604,1.3062471801253412,0.9750195025030367,0.28621401088046183,0.7009332419173367
0.051500000000000004,1.7410707786400543,1.0,2875.9745193395966,0.4399996888319497,1.3058181475762574,0.9753391343770434,0.28617797270288226,0.7017706014445997
0.052000000000000005,1.740212726792922,1.0,2880.639249946321,0.44314083552349814,1.3053893502381255,0.9756504577034759,0.28614193452530273,0.7026063289577025
0.0525,1.7393546749457893,1.0,2885.2812152191896,0.4462643761607618,1.3049607875819424,0.9759537628078888,0.28610589634772315,0.703440427415183
0.053,1.738496623098657,1.0,2889.9004109561292,0.449370405360711,1.3045324590787044,0.9762493273079305,0.2860698581701436,0.7042728997687412
0.0535,1.7376385712515245,1.0,2894.4968335117114,0.45245901774031605,1.3041043641994081,0.9765374167787073,0.28603381999256405,0.7051037489632455
0.054,1.7367805194043922,1.0,2899.070479794375,0.45553030791654725,1.30367650241505,0.976818285377835,0.2859977818149845,0.7059329779367414
0.0545,1.7359224675572595,1.0,2903.621347264029,0.4585843705063749,1.3032488731966267,0.9770921764329384,0.2859617436374049,0.7067605896204598
0.055,1.7350644157101272,1.0,2908.1494339290166,0.46162130012676944,1.3028214760151344,0.9773593229941558,0.2859257054598253,0.7075865869388245
0.0555,1.7342063638629948,1.0,2912.65473834356,0.4646411913947011,1.30239431034157,0.9776199483540056,0.2858896672822458,0.7084109728094586
0.056,1.7333483120158624,1.0,2917.137259604803,0.4676441389271403,1.3019673756469297,0.9778742665368008,0.2858536291046662,0.7092337501431953
0.0565,1.73249026016873,1.0,2921.5969973504766,0.47063023734105724,1.30154067140221,0.9781224827596292,0.28581759092708664,0.710054921844083
0.057,1.7316322083215974,1.0,2926.0339517558805,0.47359958125342233,1.3011141970784077,0.9783647938667739,0.2857815527495071,0.7108744908093937
0.0575,1.730774156474465,1.0,2930.448123531292,0.47655226528120587,1.3006879521465189,0.9786013887393027,0.28574551457192754,0.7116924599296326
0.058,1.7299161046273326,1.0,2934.8395139192667,0.4794883840413782,1.3002619360775405,0.9788324486814408,0.28570947639434796,0.7125088320885427
0.0585,1.7290580527802,1.0,2939.2081246920247,0.4824080321509097,1.2998361483424685,0.9790581477852147,0.2856734382167684,0.7133236101631162
0.059000000000000004,1.7282000009330676,1.0,2943.5539581485605,0.4853113042267706,1.2994105884123,0.9792786532747513,0.2856374000391888,0.7141367970235979
0.059500000000000004,1.7273419490859352,1.0,2947.877017112345,0.4881982948859313,1.298985255758031,0.9794941258315234,0.2856013618616093,0.7149483955334974
0.06,1.7264838972388028,1.0,2952.1774671715893,0.4910690594202037,1.2985601484326348,0.9797047166544,0.2855653236840297,0.7157584112496271
0.0605,1.7256258453916704,1.0,2956.455821913925,0.4939237177008646,1.298135261458377,0.9799105761659067,0.2855292855064502,0.7165668554692131
0.061,1.7247677935445378,1.0,2960.7123449677206,0.49676238587567667,1.297710592056302,0.9801118488196124,0.2854932473288706,0.7173737352598412
0.0615,1.7239097416974054,1.0,2964.9473045792734,0.4995851486733274,1.297286137417937,0.9803086711383374,0.285457209151291,0.7181790577140418
0.062,1.723051689850273,1.0,2969.1609702248247,0.5023920908225042,1.2968618947348083,0.9805011745332664,0.28542117097371145,0.7189828298930472
0.0625,1.7221936380031406,1.0,2973.353612596928,0.5051832970518947,1.2964378611984428,0.9806894855338971,0.28538513279613187,0.7197850588268264
0.063,1.721335586156008,1.0,2977.5255035915816,0.5079588520901861,1.2960140340003672,0.9808737260059871,0.28534909461855235,0.7205857515141245
0.0635,1.7204775343088756,1.0,2981.6769162949813,0.5107188406660662,1.295590410332108,0.981054013358203,0.28531305644097277,0.7213849149224999
0.064,1.7196194824617432,1.0,2985.808124971311,0.5134633475082222,1.295166987385192,0.9812304607381438,0.28527701826339324,0.7221825559883606
0.0645,1.7187614306146108,1.0,2989.919405049399,0.5161924573453418,1.2947437623511462,0.9814031772183545,0.28524098008581367,0.7229786816169996
0.065,1.7179033787674782,1.0,2994.0110331109963,0.5189062549061123,1.294320732421497,0.9815722679729126,0.2852049419082341,0.7237732986826326
0.0655,1.7170453269203458,1.0,2998.0832868781954,0.5216048249192212,1.2938978947877708,0.9817378344451279,0.2851689037306545,0.7245664140284324
0.066,1.7161872750732134,1.0,3002.1364452015064,0.5242882521133562,1.293475246641495,0.9818999745068651,0.28513286555307493,0.7253580344665616
0.0665,1.715329223226081,1.0,3006.170788047834,0.5269566212172043,1.2930527851741955,0.9820587826099648,0.2850968273754954,0.7261481667782106
0.067,1.7144711713789484,1.0,3010.186596488764,0.5296100169594535,1.2926305075773996,0.9822143499302082,0.28506078919791583,0.7269368177136272
0.0675,1.713613119531816,1.0,3014.184152689166,0.532248524068791,1.2922084110426337,0.9823667645042385,0.28502475102033625,0.7277239939921532
0.068,1.7127550676846837,1.0,3018.163739895901,0.5348722272739042,1.2917864927614247,0.9825161113598391,0.28498871284275673,0.7285097023022548
0.0685,1.7118970158375513,1.0,3022.12564242615,0.5374812113034807,1.291364749925299,0.9826624726399251,0.28495267466517715,0.7292939493015562
0.069,1.7110389639904189,1.0,3026.070145657092,0.540075560886208,1.2909431797257833,0.9828059277206014,0.2849166364875976,0.7300767416168703
0.0695,1.7101809121432863,1.0,3029.9975360145854,0.5426553607507736,1.2905217793544046,0.9829465533236044,0.284880598310018,0.7308580858442304
0.07,1.7093228602961539,1.0,3033.9081009626416,0.5452206956258647,1.2901005460026895,0.9830844236234334,0.2848445601324385,0.7316379885489204
0.07050000000000001,1.7084648084490215,1.0,3037.8017194382865,0.5477716090461774,1.2896794803909029,0.9832196080351202,0.2848085219548589,0.7324164497463537
0.07100000000000001,1.7076067566018889,1.0,3041.679057980845,0.5503082177698264,1.2892585764573854,0.9833521777823478,0.2847724837772793,0.7331934819701752
0.07150000000000001,1.7067487047547565,1.0,3045.540525185849,0.5528306174480765,1.28883783037709,0.9834822006040678,0.2847364455996998,0.7339690935684164
