Time [s],Phi [rad],STIM [ ],Fsee [N],Gamma [ ],Lcerel [ ],q [ ],Lmtc [m],fisomrel [ ]
0.0,1.8,1.0,17.970685926729455,6.361155420138265e-05,1.3793393510121161,0.005001062811760985,0.288653,0.5411404871610541
0.0005,1.79999375,1.0,18.29787933882277,0.005672464052498971,1.3793000407593194,0.013090020655850798,0.2886527375,0.5412355838009522
0.001,1.799975,1.0,21.67938350167387,0.01124985532294092,1.3789320760520267,0.035888487956806395,0.28865195,0.5421252606470058
0.0015,1.79994375,1.0,31.21524217573985,0.01679596183904778,1.3780337790844495,0.07098451934545269,0.2886506375,0.5442935646400819
0.002,1.7999,1.0,53.89792857107267,0.022310959082606947,1.376347691079236,0.1151709967715749,0.2886488,0.5483495389646937
0.0025,1.79984375,1.0,97.64984650269813,0.027795021551603936,1.3739096188968845,0.16506754817317013,0.28864643749999996,0.5541823880624575
0.003,1.7997750000000001,1.0,161.649366099049,0.033248322767442905,1.371188499225653,0.21778862959817993,0.28864354999999997,0.5606476340644372
0.0035,1.79969375,1.0,238.46451518154123,0.03867103527493525,1.3685606914495088,0.27111827986937603,0.2886401375,0.5668463543311864
0.004,1.7996,1.0,322.29800540138086,0.04406333065297241,1.3661340903945354,0.3234051276503572,0.2886362,0.5725313388104789
0.0045000000000000005,1.7994937500000001,1.0,410.1286095778554,0.049425379519742366,1.363902617144598,0.3734989853952771,0.2886317375,0.5777260371023982
0.005,1.799375,1.0,500.29196235633265,0.05475735152410343,1.36183968338483,0.4206820003857856,0.28862675,0.5825001388009117
0.0055,1.79924375,1.0,591.676674119648,0.060059415390078044,1.359921526214695,0.46457600608697824,0.2886212375,0.5869148436456778
0.006,1.7991000000000001,1.0,683.4054816999894,0.06533173886716652,1.358130289900922,0.5050496740622655,0.2886152,0.591016248263653
0.006500000000000001,1.79894375,1.0,774.7654901417703,0.0705744887836049,1.3564521635013265,0.5421387755790187,0.2886086375,0.5948400992832387
0.007,1.798775,1.0,865.1555954349808,0.0757878309296846,1.3548763487269864,0.5759848554289753,0.28860155,0.5984144678386555
0.0075,1.79859375,1.0,954.1017606775274,0.08097193045923141,1.3533935768497045,0.6067900789410177,0.2885939375,0.6017633285758035
0.008,1.7984,1.0,1041.2051811492317,0.08612695141806033,1.351996182537454,0.634786567772205,0.2885858,0.6049065289510822
0.0085,1.79819375,1.0,1126.1385291448887,0.09125305654115667,1.3506775745542305,0.6602156561496657,0.2885771375,0.6078610928085526
0.009000000000000001,1.797975,1.0,1208.6733545028571,0.0963504081377956,1.3494314722380663,0.6833145362619644,0.28856795,0.6106430044946988
0.0095,1.79774375,1.0,1288.6483220016905,0.1014191680963646,1.3482521198311055,0.704308739757095,0.2885582375,0.6132667762536395
0.01,1.7975,1.0,1365.9125461261333,0.10645949614760522,1.3471348049370993,0.7234082810194052,0.288548,0.6157443469428637
0.0105,1.79724375,1.0,1440.3774813558744,0.11147155172196854,1.3460749614097705,0.7408053619589633,0.2885372375,0.6180871208074805
0.011,1.796975,1.0,1512.004166731965,0.1164554935266054,1.3450682242373166,0.7566740978967768,0.28852595000000003,0.6203058693294163
0.0115,1.79669375,1.0,1580.7860536053784,0.12141147993123734,1.3441105389527221,0.7711711497712247,0.2885141375,0.6224105133343977
0.012,1.7964,1.0,1646.7067315951379,0.1263396669246922,1.3431985608390304,0.784436961292271,0.28850180000000003,0.6244092724426604
0.0125,1.79609375,1.0,1709.7895791140243,0.1312402104211433,1.3423289641838243,0.7965967520169098,0.2884889375,0.6263102049771363
0.013000000000000001,1.7957750000000001,1.0,1770.073960506503,0.13611326535540852,1.3414986677327374,0.8077620338156268,0.28847555,0.6281207268391755
0.0135,1.79544375,1.0,1827.6416298977047,0.14095898735159232,1.3407044840064626,0.818031873733685,0.2884616375,0.6298483883223536
0.014,1.7951000000000001,1.0,1882.5336528272142,0.1457775286515522,1.3399440039392756,0.8274945691621652,0.2884472,0.631498961051447
0.0145,1.79474375,1.0,1934.8084959586147,0.1505690412028538,1.3392148860672621,0.8362285880174972,0.2884322375,0.6330780008621633
0.015,1.794375,1.0,1984.5459314139093,0.1553336769530628,1.3385147889265083,0.8443036781052585,0.28841675,0.6345910002488568
0.0155,1.79399375,1.0,2031.8273950391388,0.1600715865508258,1.337841558382962,0.8517819482145842,0.2884007375,0.6360429892518231
0.016,1.7936,1.0,2076.754151550383,0.16478292136575776,1.3371930100290483,0.8587187001958686,0.2883842,0.637439011439892
0.0165,1.7931937500000001,1.0,2119.3921653407333,0.16946782925866752,1.3365674838994819,0.8651633998538065,0.2883671375,0.6387829361657271
0.017,1.792775,1.0,2159.8177829585643,0.1741264579584606,1.3359633385144367,0.8711602143981474,0.28834955,0.6400785560402871
0.0175,1.7923437500000001,1.0,2198.1184537518816,0.17875895519404253,1.3353789323940868,0.8767486333750445,0.2883314375,0.6413296291651869
0.018000000000000002,1.7919,1.0,2234.3737010020236,0.18336546709061363,1.3348128056480453,0.8819640664369955,0.2883128,0.6425394935398095
0.0185,1.79144375,1.0,2268.689909956507,0.18794614169710244,1.3342633173275245,0.8868382254549555,0.2882936375,0.6437118453099449
0.019,1.790975,1.0,2301.135524020609,0.1925011226338576,1.3337292859287921,0.8913997113837254,0.28827395,0.6448493740862835
0.0195,1.79049375,1.0,2331.7813351121977,0.1970305531375287,1.333209570313636,0.8956742662694048,0.2882537375,0.6459546627914607
0.02,1.79,1.0,2360.703949387625,0.20153457644476547,1.3327030293438438,0.8996850881595228,0.288233,0.6470302750810888
0.0205,1.78949375,1.0,2387.9837571126977,0.20601333552273574,1.33220853684225,0.9034531199669772,0.2882117375,0.648078724646465
0.021,1.788975,1.0,2413.6946557645474,0.21046697185367363,1.3317250760663524,0.90699731954742,0.28818995000000003,0.649102276494811
0.021500000000000002,1.78844375,1.0,2437.9192884139907,0.21489562870830642,1.3312515863077312,0.9103348458745745,0.2881676375,0.6501032734968486
0.022,1.7879,1.0,2460.7158037094346,0.2192994445245119,1.3307872786364079,0.9134813148606641,0.2881448,0.6510834703198962
0.0225,1.78734375,1.0,2482.145396336125,0.22367855774016795,1.3303313641224033,0.9164509107162029,0.28812143749999997,0.6520446105772711
0.023,1.786775,1.0,2502.272054560867,0.22803310679315245,1.3298830538357385,0.9192565370270566,0.28809755,0.6529884272704314
0.0235,1.78619375,1.0,2521.162321577156,0.23236323012134324,1.3294415588464346,0.9219099501060583,0.28807313749999996,0.6539166431914261
0.024,1.7856,1.0,2538.8732100287166,0.23666906301296753,1.3290062020070064,0.9244218955524419,0.2880482,0.6548307367376434
0.0245,1.78499375,1.0,2555.4739468157914,0.24095074640950304,1.3285762098795997,0.926802177870926,0.2880227375,0.6557323797868535
0.025,1.784375,1.0,2571.0123743321046,0.24520841432139884,1.328151027256376,0.9290598027009958,0.28799675,0.6566227784138561
0.025500000000000002,1.78374375,1.0,2585.535031445443,0.24944219988054867,1.3277301248421767,0.9312030252468144,0.2879702375,0.6575030780323065
0.026000000000000002,1.7831000000000001,1.0,2599.089773756722,0.25365223621884625,1.3273129733418436,0.9332394193945655,0.2879432,0.6583744179914591
0.0265,1.78244375,1.0,2611.7256602286448,0.2578386564681854,1.3268990434602184,0.9351759431433124,0.2879156375,0.6592379317117165
0.027,1.781775,1.0,2623.4928460260717,0.26200159376045973,1.3264878059021428,0.9370189969539882,0.28788755,0.6600947468023111
0.0275,1.7810937500000001,1.0,2634.4316809994225,0.26614117830427353,1.3260788313011194,0.9387744897378525,0.2878589375,0.6609457773510719
0.028,1.7804,1.0,2644.5897816388056,0.2702575439633974,1.3256716307342022,0.9404478629685811,0.2878298,0.6617920565526958
0.0285,1.77969375,1.0,2654.016893940267,0.2743508237513618,1.325265702929729,0.9420441383616792,0.2878001375,0.6626346380664199
0.029,1.778975,1.0,2662.744503219974,0.27842114477537505,1.3248607213006283,0.9435679799997195,0.28776995,0.6634742084057256
0.029500000000000002,1.7782437500000001,1.0,2670.804626377576,0.2824686341426453,1.3244563592598282,0.9450237036923705,0.2877392375,0.6643114506883205
0.03,1.7775,1.0,2678.2297653511446,0.28649341896038083,1.324052290220257,0.9464153074403773,0.287708,0.6651470446524438
0.0305,1.77674375,1.0,2685.0528629370297,0.29049562633578996,1.323648187594843,0.9477464988729896,0.2876762375,0.6659816666663692
0.031,1.775975,1.0,2691.3072609745486,0.294475383376081,1.3232437247965145,0.9490207199924053,0.28764395,0.666815989731107
0.0315,1.7751937500000001,1.0,2697.0266608952707,0.29843281718846204,1.3228385752382,0.9502411695187478,0.2876111375,0.6676506834763046
0.032,1.7744,1.0,2702.238190946058,0.3023680507538236,1.3224324753273922,0.9514108295312687,0.2875778,0.6684862846117686
0.0325,1.77359375,1.0,2706.974352760956,0.30628121339520237,1.3220251148326585,0.9525324731212684,0.2875439375,0.6693234228858838
0.033,1.772775,1.0,2711.260968509415,0.31017242924320476,1.3216162467485522,0.9536086908631097,0.28750955,0.6701625951128011
0.0335,1.7719437500000002,1.0,2715.1196518275474,0.31404181927862806,1.321205664285867,0.9546419032849428,0.2874746375,0.6710042131080196
0.034,1.7711000000000001,1.0,2718.572187338797,0.3178895044822696,1.3207931606553969,0.9556343705923064,0.2874392,0.6718486864691351
0.0345,1.7702437500000001,1.0,2721.64051310634,0.32171560583492653,1.3203785290679362,0.9565882051789228,0.2874032375,0.6726964225518672
0.035,1.7693750000000001,1.0,2724.346704032871,0.3255202443173961,1.3199615627342784,0.9575053830214096,0.28736675,0.6735478264433623
0.035500000000000004,1.76849375,1.0,2726.7129562091955,0.3293035409104757,1.3195420548652177,0.9583877540691549,0.2873297375,0.6744033009327621
0.036000000000000004,1.7676,1.0,2728.7615722104256,0.3330656165949625,1.319119798671548,0.9592370517284138,0.2872922,0.675263246479052
0.0365,1.76669375,1.0,2730.497533063709,0.33680658044793865,1.3186947456240894,0.9600549149039623,0.2872541375,0.6761277395140208
0.037,1.765775,1.0,2731.9590238406354,0.3405265676569496,1.3182665460739846,0.960842857404813,0.28721555,0.6769974669966079
0.0375,1.76484375,1.0,2733.1615475929716,0.3442256948327373,1.3178350571937156,0.9616023173404,0.2871764375,0.6778726926615674
0.038,1.7639,1.0,2734.1171780631576,0.34790407595135936,1.317400167775445,0.9623346489424421,0.28713679999999997,0.6787536144646664
0.0385,1.76294375,1.0,2734.838032200776,0.3515618249888731,1.3169617666113353,0.9630411260518408,0.28709663750000003,0.6796404289114202
0.039,1.761975,1.0,2735.3362647648146,0.35519905592133616,1.3165197424935493,0.9637229477625681,0.28705595,0.6805333310325805
0.0395,1.7609937500000001,1.0,2735.624063201043,0.3588158827248059,1.3160739842142493,0.9643812436106929,0.2870147375,0.6814325143588346
0.04,1.76,1.0,2735.713642792673,0.3624124193753399,1.3156243805655978,0.9650170783496872,0.286973,0.6823381708947152
0.0405,1.7589937500000001,1.0,2735.6172420858056,0.3659887798489956,1.3151708203397576,0.9656314563490389,0.2869307375,0.6832504910917226
0.041,1.757975,1.0,2735.3471185888498,0.36954507812183035,1.314713192328891,0.9662253256495532,0.28688795,0.6841696638206582
0.0415,1.75694375,1.0,2734.915544745907,0.3730814281699018,1.314251385325161,0.9667995817054453,0.2868446375,0.6850958763431672
0.042,1.7559,1.0,2734.334622928403,0.3765979435982172,1.3137852897668274,0.9673550709165776,0.28680079999999997,0.6860293109883551
0.0425,1.75484375,1.0,2733.6108257830756,0.38009472553176604,1.3133148472965583,0.96789259594184,0.2867564375,0.686970046120964
0.043000000000000003,1.753775,1.0,2732.7621090018433,0.383571901868672,1.3128398953167384,0.968412912171696,0.28671155,0.6879183670223603
0.043500000000000004,1.75269375,1.0,2731.794843505294,0.3870295792443235,1.3123603764715073,0.9689167399262484,0.28666613750000003,0.6888743469725072
0.044,1.7516,1.0,2730.7154037589926,0.39046786429410896,1.3118762334050054,0.9694047616704168,0.2866202,0.689838058154039
0.0445,1.75049375,1.0,2729.53016643944,0.3938868636534168,1.3113874087613722,0.96987762437437,0.2865737375,0.6908095716354532
0.045,1.7493750000000001,1.0,2728.245509171687,0.39728668395763556,1.310893845184748,0.9703359417043695,0.28652675,0.6917889573540877
0.0455,1.74824375,1.0,2726.8678093407775,0.40066743184215353,1.3103954853192725,0.9707802960577475,0.2864792375,0.6927762840988945
0.046,1.7471,1.0,2725.403442975729,0.4040292139423593,1.3098922718090857,0.971211240454516,0.2864312,0.6937716194929966
0.0465,1.7459437500000001,1.0,2723.858783706422,0.4073721368936412,1.3093841472983276,0.9716293002969898,0.28638263750000004,0.6947750299760418
0.047,1.744775,1.0,2722.240201793491,0.41069630733138773,1.3088710544311384,0.9720349750078058,0.28633355,0.6957865807863417
0.0475,1.74359375,1.0,2720.55406323158,0.41400183189098727,1.3083529358516575,0.9724287395558137,0.28628393750000003,0.6968063359428049
0.048,1.7424,1.0,2718.8049063182707,0.4172888102407865,1.3078297508033767,0.9728110461701698,0.2862338,0.6978343256388106
0.0485,1.74119375,1.0,2716.9953808123746,0.42055733397476747,1.3073014757041783,0.973182325586753,0.2861831375,0.6988705453763848
0.049,1.739975,1.0,2715.138780640764,0.42380753953033706,1.3067679899526463,0.9735429868652706,0.28613195,0.6999151796569295
0.0495,1.73874375,1.0,2713.237897761818,0.4270395252456386,1.306229268540742,0.9738934216491749,0.2860802375,0.7009682241358488
0.05,1.7375,1.0,2711.295521453317,0.4302533894588154,1.305685286460426,0.9742340033269913,0.286028,0.702029673602064
0.0505,1.73624375,1.0,2709.31443809202,0.4334492305080109,1.30513601870366,0.9745650880441961,0.2859752375,0.7030995219696416
0.051000000000000004,1.734975,1.0,2707.297430947772,0.4366271467313683,1.3045814402624045,0.974887015650276,0.28592195,0.7041777622693856
0.051500000000000004,1.73369375,1.0,2705.2472799908887,0.43978723646703105,1.3040215261286208,0.9752001105856646,0.2858681375,0.7052643866403838
0.052000000000000005,1.7324,1.0,2703.1667617136623,0.44292959805314236,1.3034562512942698,0.9755046827128627,0.2858138,0.706359386321521
0.0525,1.73109375,1.0,2701.0586489658026,0.4460543298278456,1.3028855907513128,0.9758010280957145,0.28575893750000003,0.7074627516429473
0.053,1.729775,1.0,2698.9257108034553,0.44916153012928417,1.3023095194917107,0.9760894297304956,0.28570355000000003,0.7085744720175096
0.0535,1.72844375,1.0,2696.770712352598,0.4522512972956014,1.3017280125074244,0.97637015823218,0.2856476375,0.7096945359321414
0.054,1.7271,1.0,2694.5964146856254,0.4553237296649405,1.3011410447904153,0.9766434724789934,0.2855912,0.7108229309392127
0.0545,1.7257437500000001,1.0,2692.405574712516,0.4583789255754449,1.300548591332644,0.9769096202181213,0.2855342375,0.7119596436478424
0.055,1.724375,1.0,2690.2009450850487,0.4614169833652579,1.299950627126072,0.9771688386352196,0.28547675,0.7131046597151665
0.0555,1.72299375,1.0,2687.985274115798,0.46443800137252284,1.29934712716266,0.977421354890174,0.2854187375,0.714257963837571
0.056,1.7216,1.0,2685.761180529984,0.4674420759422805,1.2987380675814382,0.9776673865031504,0.2853602,0.7154195375564671
0.0565,1.72019375,1.0,2683.5294649287443,0.4704292694800879,1.2981234411494578,0.9779071398171997,0.28530113749999997,0.7165893298380287
0.057,1.718775,1.0,2681.295082283134,0.4733997258302956,1.297503202522539,0.9781408178902707,0.28524155,0.7177673612526567
0.0575,1.71734375,1.0,2679.058831252612,0.47635353429026855,1.2968773444143609,0.9783686127096857,0.2851814375,0.7189535789970567
0.058,1.7159,1.0,2676.821509176507,0.47929078415737164,1.2962458595386033,0.9785907084979267,0.2851208,0.7201479295479405
0.0585,1.71444375,1.0,2674.583912070586,0.4822115647289698,1.2956087406089452,0.9788072820864931,0.2850596375,0.7213503586594177
0.059000000000000004,1.7129750000000001,1.0,2672.346834624281,0.48511596530242784,1.294965980339066,0.9790185032688882,0.28499795,0.7225608113603753
0.059500000000000004,1.71149375,1.0,2670.111070199744,0.48800407517511074,1.2943175714426456,0.9792245351340644,0.2849357375,0.7237792319518597
0.06,1.71,1.0,2667.8774108317525,0.49087598364438334,1.293663506633363,0.9794255343815439,0.284873,0.7250055640044539
0.0605,1.7084937500000001,1.0,2665.646647228857,0.4937317800076106,1.2930037786248978,0.9796216516193597,0.2848097375,0.7262397503556501
0.061,1.7069750000000001,1.0,2663.419568775808,0.49657155356215743,1.2923383801309292,0.979813031645878,0.28474595,0.7274817331072205
0.0615,1.7054437500000001,1.0,2661.1969635366627,0.49939539360538865,1.2916673038651365,0.9799998137164898,0.2846816375,0.7287314536225833
0.062,1.7039,1.0,2658.9796182601517,0.5022033894346692,1.2909905425411996,0.9801821317960928,0.2846168,0.7299888525241656
0.0625,1.70234375,1.0,2656.7683183848508,0.504995630347364,1.2903080888727976,0.9803601147982196,0.2845514375,0.7312538696907649
0.063,1.7007750000000001,1.0,2654.563848046606,0.507772205640838,1.2896199355736098,0.9805338868116179,0.28448555,0.7325264442549048
0.0635,1.69919375,1.0,2652.36699008668,0.5105332046124561,1.288926075357316,0.9807035673150236,0.28441913750000003,0.7338065146001869
0.064,1.6976,1.0,2650.178526061007,0.513278716559583,1.288226500937595,0.9808692713808281,0.2843522,0.7350940183586432
0.0645,1.69599375,1.0,2647.9992362509574,0.5160088307795838,1.2875212050281268,0.9810311098682905,0.2842847375,0.7363888924080799
0.065,1.694375,1.0,2645.828584679132,0.5187236210803278,1.2868101924829312,0.981189189115124,0.28421675,0.7376910506629591
0.0655,1.69274375,1.0,2643.6646793869645,0.5214231471834906,1.2860934806881692,0.9813436112785275,0.2841482375,0.7390003836343373
0.066,1.6911,1.0,2641.5130390973636,0.524107555532696,1.2853710185856804,0.9814944775158826,0.2840792,0.740316906094934
0.0665,1.6894437500000001,1.0,2639.373623781134,0.5267769259136827,1.2846428064169801,0.9816418832690954,0.2840096375,0.7416405381220204
0.067,1.687775,1.0,2637.246393524418,0.5294313381121899,1.283908844423584,0.9817859206198302,0.28393955,0.7429711991647487
0.0675,1.68609375,1.0,2635.131308528782,0.5320708719139564,1.283169132847007,0.9819266784299154,0.2838689375,0.7443088080442415
0.068,1.6844000000000001,1.0,2633.0283291101387,0.5346956071047212,1.2824236719287647,0.9820642424749294,0.2837978,0.7456532829536782
0.0685,1.68269375,1.0,2630.9374156984127,0.537305623470223,1.2816724619103725,0.9821986955713345,0.2837261375,0.7470045414583857
0.069,1.680975,1.0,2628.858528837086,0.5399010007962011,1.280915503033346,0.9823301176975174,0.28365395,0.7483625004959256
0.0695,1.67924375,1.0,2626.7916291822467,0.5424818188683941,1.2801527955391998,0.9824585861090667,0.28358123749999997,0.7497270763761841
0.07,1.6775,1.0,2624.7366775025903,0.5450481574725411,1.2793843396694502,0.9825841754485963,0.283508,0.7510981847814582
0.07050000000000001,1.67574375,1.0,2622.69363467841,0.5476000963943809,1.2786101356656119,0.9827069578504136,0.2834342375,0.7524757407665477
0.07100000000000001,1.673975,1.0,2620.662461701145,0.5501377154196525,1.2778301837692005,0.9828270030402995,0.28335995,0.7538596587588401
0.07150000000000001,1.67219375,1.0,2618.6431196730186,0.5526610943340949,1.2770444842217314,0.9829443784306665,0.2832851375,0.7552498525584018
0.07200000000000001,1.6704,1.0,2616.6355698063635,0.555170312923447,1.27625303726472,0.983059149211332,0.2832098,0.7566462353380651
0.0725,1.66859375,1.0,2614.6397734229777,0.5576654509734476,1.2754558431396816,0.9831713784361427,0.2831339375,0.7580487196435176
0.073,1.6667750000000001,1.0,2612.6556919537984,0.5601465882698357,1.2746529020881316,0.9832811271056592,0.28305755,0.7594572173933902
0.0735,1.66494375,1.0,2610.6832869381033,0.5626138045983503,1.2738442143515853,0.9833884542461081,0.2829806375,0.7608716398793463
0.074,1.6631,1.0,2608.7225200232224,0.5650671797447302,1.273029780171558,0.9834934169847919,0.2829032,0.7622918977661695
0.0745,1.6612437500000001,1.0,2606.7733529636093,0.5675067934947146,1.2722095997895653,0.983596070622138,0.2828252375,0.7637179010918518
0.075,1.659375,1.0,2604.8357476209403,0.5699327256340421,1.2713836734471224,0.9836964687005545,0.28274675,0.7651495592676837
0.0755,1.65749375,1.0,2602.909665962902,0.5723450559484516,1.270552001385745,0.9837946630702578,0.2826677375,0.7665867810783413
