Time [s],Phi [rad],STIM [ ],Fsee [N],Gamma [ ],Lcerel [ ],q [ ],Lmtc [m],fisomrel [ ]
0.0,1.8,1.0,18.256564454687254,0.0005468613588423578,1.3793074525601416,0.0050772142150913606,0.288653,0.5412176544398467
0.0005,1.79999375,1.0,18.733514489754235,0.006153003207931857,1.3792519626063517,0.014497922753689083,0.2886527375,0.5413518777398928
0.001,1.799975,1.0,22.47354726677425,0.011727699033700946,1.3788518066106499,0.038460842381564386,0.28865195,0.5423192239408379
0.0015,1.79994375,1.0,32.80386925048758,0.01727112522437559,1.3779004260350467,0.0744701188259182,0.2886506375,0.5446150127631704
0.002,1.7999,1.0,57.0596012729119,0.02278345717684121,1.3761460936516359,0.11927613241423904,0.2886488,0.5488332787966033
0.0025,1.79984375,1.0,102.75228580067693,0.02826486930463907,1.3736675359183101,0.16951890745801393,0.28864643749999996,0.5547594789564363
0.003,1.7997750000000001,1.0,168.1423917608322,0.033715535046449314,1.3709483668914022,0.22237148482180472,0.28864354999999997,0.5612159091218165
0.0035,1.79969375,1.0,245.7215097416395,0.0391356268628872,1.3683391957776079,0.27566982622929165,0.2886401375,0.5673668267025034
0.004,1.7996,1.0,329.9738444617333,0.044525316249734014,1.3659322437954804,0.3278075404478915,0.2886362,0.5730025285421081
0.0045000000000000005,1.7994937500000001,1.0,418.0489854968422,0.049884773740425284,1.36371777908643,0.3776747183548712,0.2886317375,0.5781549017105703
0.005,1.799375,1.0,508.3475086901321,0.055214168891477115,1.3616693370244255,0.42458654068453683,0.28862675,0.5828931462254864
0.0055,1.79924375,1.0,599.7953536570808,0.06051367040374367,1.3597635657618057,0.46818944189899514,0.2886212375,0.5872773493314762
0.006,1.7991000000000001,1.0,691.5141128178072,0.06578344585597531,1.35798342664333,0.5083695436157055,0.2886152,0.5913516143134554
0.006500000000000001,1.79894375,1.0,782.8141518373089,0.07102366204648734,1.356315200782753,0.5451737133465153,0.2886086375,0.5951513956988087
0.007,1.798775,1.0,873.1074901290744,0.07623448478358533,1.354748258387001,0.5787502427775258,0.28860155,0.5987043149597883
0.0075,1.79859375,1.0,961.902490482331,0.08141607878802853,1.3532738916973373,0.6093051688386654,0.2885939375,0.6020330275670218
0.008,1.7984,1.0,1048.8386158609624,0.08656860842508061,1.3518840464492206,0.6370717837721247,0.2885858,0.6051582201993712
0.0085,1.79819375,1.0,1133.5901734900185,0.09169223629683242,1.3505722991460962,0.6622915779176742,0.2885771375,0.6080965021410077
0.009000000000000001,1.797975,1.0,1215.9197377000105,0.09678712447563277,1.3493326386128994,0.6852011147393555,0.28856795,0.610863225764507
0.0095,1.79774375,1.0,1295.6684999256308,0.10185343466766836,1.3481593774977103,0.7060246995134409,0.2885582375,0.6134727291467055
0.01,1.7975,1.0,1372.7020218003008,0.10689132685735542,1.3470476737784582,0.7249707851203095,0.288548,0.6159372197862272
0.0105,1.79724375,1.0,1446.9329052869623,0.1119009602385251,1.3459930288164395,0.7422300462590894,0.2885372375,0.6182679337067172
0.011,1.796975,1.0,1518.3212315332348,0.11688249334653204,1.3449911563753503,0.7579750944904026,0.28852595000000003,0.6204754528788221
0.0115,1.79669375,1.0,1586.8646136007721,0.12183608464636538,1.3440380061193367,0.7723611260332287,0.2885141375,0.6225696758464008
0.012,1.7964,1.0,1652.549244522175,0.12676189000906019,1.3431302492760635,0.7855272313956919,0.28850180000000003,0.6245587756114366
0.0125,1.79609375,1.0,1715.3990004092113,0.13166006515613243,1.3422645949504586,0.7975974045506162,0.2884889375,0.626450723990429
0.013000000000000001,1.7957750000000001,1.0,1775.4556899394313,0.13653076501395883,1.3414379684163538,0.8086820411035459,0.28847555,0.6282529136597992
0.0135,1.79544375,1.0,1832.7972520791855,0.14137414504404622,1.3406472548971007,0.818879235613642,0.2884616375,0.6299727287342785
0.014,1.7951000000000001,1.0,1887.4723897116842,0.1461903577058844,1.3398899848403898,0.8282763698906429,0.2884472,0.6316160657053559
0.0145,1.79474375,1.0,1939.537894980952,0.1509795547138615,1.339163857991618,0.8369511372284013,0.2884322375,0.6331883846691375
0.015,1.794375,1.0,1989.0714798917274,0.15574188778236575,1.338466574096182,0.8449726005390017,0.28841675,0.6346950836083982
0.0155,1.79399375,1.0,2036.1516750438445,0.16047750761456317,1.3377960253174805,0.8524022658306579,0.2884007375,0.6361410882643879
0.016,1.7936,1.0,2080.882657917578,0.16518656541843224,1.3371500096668496,0.8592948825155964,0.2883842,0.6375314763445257
0.0165,1.7931937500000001,1.0,2123.335597363298,0.16986920924621432,1.3365268251330087,0.8656994221990448,0.2883671375,0.6388702039728871
0.017,1.792775,1.0,2163.5848840109866,0.17452558661567105,1.3359248619006252,0.8716596378260268,0.28834955,0.6401609922099678
0.0175,1.7923437500000001,1.0,2201.7158012710147,0.179155845044564,1.3353425101543672,0.8772146533122138,0.2883314375,0.6414075283270667
0.018000000000000002,1.7919,1.0,2237.8107842232985,0.18376013089937154,1.3347782886831883,0.8823995412710015,0.2883128,0.6426131933238388
0.0185,1.79144375,1.0,2271.9686140293265,0.18833859157689964,1.3342306400999147,0.8872457425208724,0.2882936375,0.6437815026096981
0.019,1.790975,1.0,2304.2621016672147,0.192891371040473,1.333698344664665,0.8917815875764339,0.28827395,0.6449152256634643
0.0195,1.79049375,1.0,2334.7627251130853,0.19741861248953313,1.33318025979499,0.8960325876701459,0.2882537375,0.646016946693058
0.02,1.79,1.0,2363.547735666464,0.20192045912352152,1.3326752429084399,0.9000217360985878,0.288233,0.6470892307264366
0.0205,1.78949375,1.0,2390.6948912461107,0.20639705340591985,1.332182197829959,0.9037698006556804,0.2882117375,0.6481345262910012
0.021,1.788975,1.0,2416.283088138687,0.21084853784339616,1.3317000630164406,0.9072955679248259,0.28818995000000003,0.649155191947989
0.021500000000000002,1.78844375,1.0,2440.3897144802404,0.21527505456116267,1.3312278321520816,0.9106160639445917,0.2881676375,0.6501534541066085
0.022,1.7879,1.0,2463.0726472638585,0.21967674204853896,1.3307647215267404,0.9137467763983539,0.2881448,0.6511310554634498
0.0225,1.78734375,1.0,2484.3927783228605,0.22405373879484472,1.3303099474302749,0.9167017748534809,0.28812143749999997,0.6520897277697993
0.023,1.786775,1.0,2504.4137645756555,0.22840618328939957,1.3298627261525435,0.9194938602380864,0.28809755,0.6530311922678957
0.0235,1.78619375,1.0,2523.201791888171,0.23273421402152314,1.3294222739834038,0.9221346967956864,0.28807313749999996,0.6539571600880205
0.024,1.7856,1.0,2540.812012042767,0.23703796614862574,1.3289879328946972,0.9246349498194735,0.2880482,0.6548690689084
0.0245,1.78499375,1.0,2557.320578644706,0.24131758062022501,1.3285588657092622,0.9270043369013441,0.2880227375,0.6557687237367443
0.025,1.784375,1.0,2572.7724339257106,0.245573190798355,1.3281345460742235,0.9292518011301939,0.28799675,0.65665726936436
0.025500000000000002,1.78374375,1.0,2587.2135306227124,0.24980492994460798,1.3277144514561559,0.9313855379260837,0.2879702375,0.6575358364374708
0.026000000000000002,1.7831000000000001,1.0,2600.691118609243,0.25401293132057634,1.3272980593216341,0.9334130671488928,0.2879432,0.6584055496310334
0.0265,1.78244375,1.0,2613.2536335725913,0.25819732818785235,1.3268848471372332,0.9353412979031991,0.2879156375,0.6592675277808281
0.027,1.781775,1.0,2624.950591744962,0.26235825380802846,1.326474292369528,0.9371765863361817,0.28788755,0.6601228839981375
0.0275,1.7810937500000001,1.0,2635.812859171927,0.26649583747083083,1.3260660540714146,0.9389248130011794,0.2878589375,0.6609723481578358
0.028,1.7804,1.0,2645.9151343502253,0.27061021567905535,1.3256593934431604,0.940591345155021,0.2878298,0.6618174727749773
0.0285,1.77969375,1.0,2655.293169101904,0.2747015177146721,1.3252539396709302,0.9421811893725014,0.2878001375,0.662659039312943
0.029,1.778975,1.0,2663.9737428600406,0.27876987109317225,1.3248494100904373,0.9436989852936896,0.28776995,0.6634976427420117
0.029500000000000002,1.7782437500000001,1.0,2671.9841309003123,0.28281540333004684,1.3244455220373947,0.9451490263767339,0.2877392375,0.6643338750952883
0.03,1.7775,1.0,2679.352064055857,0.2868382419407868,1.324041992847516,0.9465352901549936,0.287708,0.6651683254828138
0.0305,1.7767438270881422,1.0,2686.109489719749,0.29083851444088327,1.3236385398565143,0.9478614654908489,0.287676240737702,0.666001580100585
0.031,1.775982715325713,1.0,2692.654259699294,0.2948163483458274,1.3232348804001024,0.9491309771568968,0.2876442740436799,0.6668342222344754
0.0315,1.7752216035632842,1.0,2699.256630664227,0.29877186837311137,1.3228307672354578,0.9503470115700411,0.2876123073496579,0.6676667593308855
0.032,1.774460491800855,1.0,2705.8806172955224,0.30270520266422557,1.3224265305425407,0.9515126044857538,0.2875803406556359,0.6684985089359059
0.0325,1.7736993800384262,1.0,2712.507239680823,0.30661647676698217,1.3220223438341379,0.9526305620984402,0.2875483739616139,0.6693291137486235
0.033,1.772938268275997,1.0,2719.1293696139246,0.31050581241261604,1.3216182718432907,0.9537034854934484,0.28751640726759187,0.6701584413792575
0.0335,1.772177156513568,1.0,2725.7398443099632,0.31437333133236206,1.3212143793030402,0.9547338009786613,0.28748444057356987,0.6709863601051105
0.034,1.7714160447511391,1.0,2732.3314666156352,0.3182191552574551,1.3208107309464268,0.9557237739133934,0.28745247387954787,0.6718127388699597
0.0345,1.77065493298871,1.0,2738.8970053136554,0.32204340591912994,1.3204073915064918,0.9566755212886427,0.2874205071855258,0.6726374472831815
0.035,1.769893821226281,1.0,2745.4291955198087,0.3258462050486216,1.320004425716276,0.9575910231844967,0.2873885404915038,0.6734603556186111
0.035500000000000004,1.769132709463852,1.0,2751.9225958228503,0.32962767119730346,1.3196018815014605,0.9584721306810808,0.2873565737974818,0.6742813690711938
0.036000000000000004,1.768371597701423,1.0,2758.3730944297204,0.3333879236530557,1.3191997945493044,0.9593205770668187,0.28732460710345975,0.6751004182387816
0.0365,1.7676104859389938,1.0,2764.7723629436687,0.3371270906274559,1.318798238474234,0.960137993558848,0.28729264040943775,0.6759173569697876
0.037,1.766849374176565,1.0,2771.1191614382865,0.3408452873519676,1.3183972226196707,0.9609259016169719,0.28726067371541575,0.6767321703701525
0.0375,1.7660882624141359,1.0,2777.4122471589,0.3445426290580541,1.3179967563290356,0.9616857303128057,0.2872287070213937,0.6775448436358801
0.038,1.7653271506517068,1.0,2783.6503746359463,0.3482192309771789,1.3175968489457497,0.9624188229671721,0.2871967403273717,0.6783553620527125
0.0385,1.7645660388892779,1.0,2789.8322957991927,0.3518752083408054,1.3171975098132338,0.9631264432407867,0.2871647736333497,0.6791637109958018
0.039,1.7638049271268488,1.0,2795.956760094784,0.3555106763803969,1.3167987482749095,0.9638097807287251,0.28713280693932763,0.6799698759293703
0.0395,1.7630438153644197,1.0,2802.0225146040248,0.3591257503274169,1.3164005736741975,0.9644699561040272,0.28710084024530563,0.6807738424063735
0.04,1.7622827036019908,1.0,2808.028304163739,0.3627205454133289,1.316002995354519,0.9651080258512099,0.28706887355128363,0.6815755960681502
0.0405,1.7615215918395617,1.0,2813.972871488924,0.3662951768695961,1.315606022659295,0.9657249866264062,0.2870369068572616,0.6823751226440709
0.041,1.7607604800771326,1.0,2819.856645906271,0.36984974459510683,1.3152096498310422,0.9663217752853664,0.2870049401632396,0.6831724383080096
0.0415,1.7599993683147037,1.0,2825.679049368209,0.3733843717488754,1.3148138801572753,0.9668992816876246,0.2869729734692176,0.6839675410086757
0.042,1.7592382565522746,1.0,2831.438971403713,0.3768991858803381,1.3144187216850967,0.9674583480223747,0.2869410067751955,0.684760419177008
0.0425,1.7584771447898455,1.0,2837.137249675935,0.38039429383591034,1.3140241650821938,0.9679997659727728,0.2869090400811735,0.6855510961238238
0.043000000000000003,1.7577160330274166,1.0,2842.774728489076,0.3838698024620073,1.3136302010162544,0.9685242848762672,0.2868770733871515,0.6863395950590048
0.043500000000000004,1.7569549212649875,1.0,2848.3522586652175,0.38732581860504434,1.3132368201549662,0.9690326144169185,0.28684510669312946,0.6871259390918538
0.044,1.7561938095025587,1.0,2853.870697422855,0.3907624491114366,1.3128440131660168,0.9695254271205976,0.28681313999910746,0.6879101512314447
0.0445,1.7554326977401296,1.0,2859.3309082566166,0.3941798008275995,1.312451770717094,0.9700033606693188,0.28678117330508546,0.688692254386966
0.045,1.7546715859777005,1.0,2864.7337608200314,0.39757798059994826,1.3120600834758853,0.9704670200494759,0.2867492066110634,0.6894722713680597
0.0455,1.7539104742152716,1.0,2870.0801308095447,0.40095709527489815,1.3116689421100782,0.9709169795474151,0.2867172399170414,0.6902502248851553
0.046,1.7531493624528425,1.0,2875.3708998503403,0.40431725169886445,1.3112783372873607,0.9713537846045714,0.2866852732230194,0.6910261375497964
0.0465,1.7523882506904134,1.0,2880.6069553845564,0.4076585567182625,1.31088825967542,0.9717779535433199,0.28665330652899734,0.6918000318749635
0.047,1.7516271389279845,1.0,2885.7891905615734,0.41098111717950747,1.3104986999419443,0.9721899791736918,0.28662133983497534,0.6925719302753903
0.0475,1.7508660271655554,1.0,2890.918504129083,0.41428503992901466,1.310109648754621,0.9725903302902487,0.28658937314095334,0.6933418550678748
0.048,1.7501049154031263,1.0,2895.99580032771,0.4175704318131994,1.309721096781138,0.9729794530675744,0.2865574064469313,0.6941098284715849
0.0485,1.7493438036406974,1.0,2901.0215023369396,0.4208373825059794,1.3093330389781181,0.9733577705508363,0.2865254397529093,0.6948758641472004
0.049,1.7485826918782683,1.0,2905.9964172770124,0.4240859769599574,1.3089454669518212,0.9737256850479609,0.2864934730588873,0.6956399823020445
0.0495,1.7478215801158392,1.0,2910.9234545165814,0.4273163742019066,1.308558353847615,0.9740835875795546,0.2864615063648652,0.6964022393840879
0.05,1.7470604683534103,1.0,2915.803516739721,0.43052867075420986,1.3081716905622216,0.974431844774679,0.2864295396708432,0.6971626566837448
0.0505,1.7462993565909812,1.0,2920.6375114607954,0.43372296313925,1.3077854679923622,0.9747708064494405,0.2863975729768212,0.6979212553977124
0.051000000000000004,1.7455382448285521,1.0,2925.426350934727,0.4368993478794101,1.3073996770347587,0.9751008065277503,0.28636560628279917,0.6986780566292285
0.051500000000000004,1.7447771330661233,1.0,2930.170952069302,0.44005792149707285,1.3070143085861328,0.9754221639037851,0.28633363958877717,0.6994330813883254
0.052000000000000005,1.7440160213036942,1.0,2934.872236338501,0.44319878051462125,1.306629353543206,0.9757351832503225,0.28630167289475517,0.7001863505920776
0.0525,1.7432549095412653,1.0,2939.531129698343,0.44632202145443817,1.3062448028027,0.9760401557767928,0.2862697062007331,0.7009378850648449
0.053,1.7424937977788362,1.0,2944.1485625045048,0.4494277408389065,1.3058606472613368,0.9763373599405851,0.2862377395067111,0.701687705538508
0.0535,1.741732686016407,1.0,2948.7254694314292,0.4525160351904092,1.3054768778158374,0.9766270621148674,0.2862057728126891,0.7024358326527038
0.054,1.7409715742539782,1.0,2953.262789393415,0.4555870010313291,1.3050934853629241,0.976909517215931,0.28617380611866705,0.7031822869550485
0.0545,1.740210462491549,1.0,2957.761465467947,0.4586407348840491,1.3047104607993183,0.9771849692928347,0.28614183942464505,0.703927088901362
0.055,1.73944935072912,1.0,2962.2224448203215,0.4616773332709521,1.3043277950217413,0.9774536520819127,0.28610987273062305,0.7046702588558833
0.0555,1.7386882389666911,1.0,2966.646678630039,0.46469689271442105,1.3039454789269154,0.9777157895285187,0.286077906036601,0.7054118170914798
0.056,1.737927127204262,1.0,2971.035122019923,0.4676995097368387,1.303563503411562,0.9779715962781971,0.286045939342579,0.7061517837898552
0.0565,1.737166015441833,1.0,2975.388733985949,0.4706852808605881,1.3031818593724025,0.9782212781393078,0.286013972648557,0.7068901790417499
0.057,1.736404903679404,1.0,2979.7084773294887,0.4736543026080521,1.302800537706159,0.9784650325189914,0.28598200595453493,0.7076270228471335
0.0575,1.735643791916975,1.0,2983.9953185917057,0.4766066715016135,1.3024195293095528,0.9787030488342072,0.28595003926051293,0.708362335115397
0.058,1.7348826801545458,1.0,2988.250227988927,0.4795424840636553,1.3020388250793058,0.9789355088994637,0.28591807256649093,0.7090961356655374
0.0585,1.734121568392117,1.0,2992.473644139036,0.4824618211875767,1.3016584205583366,0.9791625862301305,0.2858861058724689,0.7098284352877862
0.059000000000000004,1.7333604566296879,1.0,2996.665684692695,0.4853647566315302,1.3012783140917596,0.9793844470866244,0.2858541391784469,0.7105592393431985
0.059500000000000004,1.7325993448672588,1.0,3000.828723461172,0.48825143108309477,1.3008984844758973,0.9796012556764294,0.2858221724844249,0.7112885906891206
0.06,1.7318382331048299,1.0,3004.9632968710284,0.4911219307955312,1.3005189264877772,0.9798131662196626,0.2857902057904028,0.7120165013476848
0.0605,1.7310771213424008,1.0,3009.0699435057027,0.4939763420221003,1.3001396349044274,0.9800203270172672,0.2857582390963808,0.7127429832890211
0.061,1.7303160095799717,1.0,3013.149204074082,0.49681475101606276,1.2997606045028753,0.980222880723693,0.2857262724023588,0.713468048431348
0.0615,1.7295548978175428,1.0,3017.2016213801253,0.49963724403067944,1.299381830060149,0.9804209646050047,0.28569430570833676,0.714191708641059
0.062,1.7287937860551137,1.0,3021.227740293062,0.5024439073192112,1.299003306353276,0.9806147107833019,0.28566233901431476,0.7149139757328093
0.0625,1.7280326742926846,1.0,3025.2281077178454,0.5052348271349186,1.2986250281592842,0.9808042464682714,0.28563037232029276,0.7156348614696006
0.063,1.7272715625302557,1.0,3029.203272566452,0.5080100897310627,1.2982469902552012,0.9809896941766495,0.28559840562627076,0.7163543775628634
0.0635,1.7265104507678266,1.0,3033.1537857297903,0.510769781360904,1.2978691874180548,0.9811711719402969,0.2855664389322487,0.7170725356725375
0.064,1.7257493390053977,1.0,3037.080200050247,0.5135139882777033,1.297491614424873,0.9813487935035703,0.2855344722382267,0.7177893474071516
0.0645,1.7249882272429686,1.0,3040.9830702947315,0.5162427967347217,1.297114266052683,0.981522668510607,0.2855025055442047,0.7185048243239014
0.065,1.7242271154805395,1.0,3044.8629531280167,0.5189562929852197,1.2967371370785132,0.981692902683112,0.28547053885018264,0.7192189779287234
0.0655,1.7234660037181107,1.0,3048.720407087898,0.5216545632824582,1.2963602222793909,0.9818595979891935,0.28543857215616064,0.7199318196763713
0.066,1.7227048919556815,1.0,3052.5559925589773,0.5243376938796979,1.295983516432344,0.9820228528037576,0.28540660546213864,0.7206433609704856
0.0665,1.7219437801932524,1.0,3056.370271749032,0.5270057710301995,1.2956070143144003,0.9821827620609428,0.2853746387681166,0.721353613163667
0.067,1.7211826684308236,1.0,3060.1638086647736,0.529658880987224,1.2952307107025876,0.9823394173990448,0.2853426720740946,0.7220625875575417
0.0675,1.7204215566683945,1.0,3063.9371690885223,0.532297110004032,1.2948546003739334,0.9824929072983459,0.2853107053800726,0.7227702954028317
0.068,1.7196604449059654,1.0,3067.690920555524,0.5349205443338845,1.2944786781054658,0.982643317212252,0.2852787386860505,0.723476747899418
0.0685,1.7188993331435365,1.0,3071.425326356108,0.5375292561399299,1.2941029412960445,0.9827907289283666,0.2852467719920285,0.7241819512787481
0.069,1.7181382213811074,1.0,3075.1403942231286,0.5401233116033197,1.2937273895413128,0.9829352212223667,0.2852148052980065,0.7248859076315238
0.0695,1.7173771096186783,1.0,3078.8374084264833,0.5427028362763329,1.2933520115146915,0.9830768733913905,0.28518283860398447,0.7255886394779474
0.07,1.7166159978562494,1.0,3082.516655831348,0.545267907235651,1.292976804449711,0.9832157595113237,0.28515087190996247,0.7262901532348081
0.07050000000000001,1.7158548860938203,1.0,3086.1784242715084,0.547818601557956,1.2926017655799014,0.9833519512237817,0.28511890521594047,0.7269904552918509
0.07100000000000001,1.7150937743313912,1.0,3089.8230025392736,0.5503549963199297,1.2922268921387927,0.9834855178325934,0.2850869385219184,0.7276895520118062
