Time [s],Phi [rad],STIM [ ],Fsee [N],Gamma [ ],Lcerel [ ],q [ ],Lmtc [m],fisomrel [ ]
0.0,1.8,1.0,17.96758327341282,1.0001779701907745e-05,1.3793396985939328,0.0050000266612192455,0.288653,0.5411396462712508
0.0005,1.79999375,1.0,18.276876481101603,0.005619154986421812,1.3793023730896843,0.012940518597901782,0.2886527375,0.5412299418639476
0.001,1.799975,1.0,21.618473818427244,0.01119684527857458,1.3789382926906433,0.03560858479508489,0.28865195,0.5421102370302946
0.0015,1.79994375,1.0,31.06923680178076,0.0167432491390945,1.3780462036610301,0.0706017159862888,0.2886506375,0.5442636093669737
0.002,1.7999,1.0,53.58213273941509,0.02225854205926638,1.3763681482365584,0.11471784935331239,0.2886488,0.5483004368398725
0.0025,1.79984375,1.0,97.1183111338384,0.027742898546285717,1.373935197449759,0.16457468805921416,0.28864643749999996,0.5541213906511793
0.003,1.7997750000000001,1.0,160.95739002364468,0.033196492130979145,1.371214372832566,0.21728024238806093,0.28864354999999997,0.5605863820233565
0.0035,1.79969375,1.0,237.68247020522955,0.03861949536739352,1.368584760764659,0.27061267766928926,0.2886401375,0.566789777206821
0.004,1.7996,1.0,321.4658828379828,0.044012079843578744,1.3661561159291775,0.32291559735735276,0.2886362,0.572479906784626
0.0045000000000000005,1.7994937500000001,1.0,409.2668712017917,0.04937441618677213,1.3639228348138603,0.37303431378964935,0.2886317375,0.577679114480369
0.005,1.799375,1.0,499.4126287524005,0.05470667405448649,1.3618583609493253,0.4202472799634613,0.28862675,0.5824570363873336
0.0055,1.79924375,1.0,590.7895589512328,0.060009022181992874,1.3599388518048892,0.4641735315333301,0.2886212375,0.58687507321868
0.006,1.7991000000000001,1.0,682.5172657979728,0.06528162832543659,1.3581464300623571,0.5046798097605506,0.2886152,0.5909793833979244
0.006500000000000001,1.79894375,1.0,773.8805158266634,0.07052465931747613,1.356467266284293,0.5418006212236645,0.2886086375,0.5948057655223311
0.007,1.798775,1.0,864.285033946217,0.07573828105087206,1.35489040755157,0.5756766560408124,0.28860155,0.5983826486858437
0.0075,1.79859375,1.0,953.2425439142885,0.0809226584882233,1.3534067895194546,0.6065098027734828,0.2885939375,0.6017335494947447
0.008,1.7984,1.0,1040.343960334439,0.08607795525532944,1.3520088597440751,0.6345320772918964,0.2885858,0.6048780697119772
0.0085,1.79819375,1.0,1125.314032624759,0.0912043354684175,1.3506892442574085,0.659984341907477,0.2885771375,0.6078349935018101
0.009000000000000001,1.797975,1.0,1207.8998819168567,0.09630196106552541,1.3494420391314725,0.6831041116718386,0.28856795,0.6106194556366021
0.0095,1.79774375,1.0,1287.8919901475535,0.10137099256275978,1.3482621266560273,0.7041174042204587,0.2885582375,0.613244550819583
0.01,1.7975,1.0,1365.166750373239,0.1064115904762273,1.3471443891208332,0.7232341614722979,0.288548,0.6157231285137867
0.0105,1.79724375,1.0,1439.658959489733,0.11142391476571394,1.3460839531422426,0.7406466016606249,0.2885372375,0.6180672748005039
0.011,1.796975,1.0,1511.32182305699,0.11640812420144186,1.3450765584208493,0.7565290744345194,0.28852595000000003,0.6202875281518565
0.0115,1.79669375,1.0,1580.120636666772,0.12136437596092446,1.3441184875481464,0.7710385608613862,0.2885141375,0.6223930692843629
0.012,1.7964,1.0,1646.056830216241,0.12629282668910213,1.3432061670709434,0.7843155441228387,0.28850180000000003,0.6243926239938511
0.0125,1.79609375,1.0,1709.173743638124,0.13119363321722388,1.3423360374476971,0.796485285313355,0.2884889375,0.6262947623233703
0.013000000000000001,1.7957750000000001,1.0,1769.5064865629367,0.1360669504189657,1.3415050735184817,0.8076594549562517,0.28847555,0.6281067753862768
0.0135,1.79544375,1.0,1827.091412871779,0.14091293175628203,1.3407105963614991,0.8179374321720105,0.2884616375,0.6298351069100498
0.014,1.7951000000000001,1.0,1881.9925211001532,0.1457317306911273,1.339949927054951,0.827407499357784,0.2884472,0.631486119564201
0.0145,1.79474375,1.0,1934.2790855164708,0.15052349963055897,1.3392206020459352,0.8361481665226067,0.2884322375,0.6330656350369683
0.015,1.794375,1.0,1984.051548932653,0.1552883916029782,1.3385200593671136,0.8442291875732864,0.28841675,0.634579621830631
0.0155,1.79399375,1.0,2031.3717747125481,0.16002655630263993,1.3378463587164766,0.8517128195719355,0.2884007375,0.6360326463712302
0.016,1.7936,1.0,2076.3116889224093,0.1647381431016533,1.3371976210231096,0.8586545204612266,0.2883842,0.637429095587868
0.0165,1.7931937500000001,1.0,2118.957559630215,0.16942330137212736,1.3365719672160978,0.8651037355895677,0.2883671375,0.638773312768769
0.017,1.792775,1.0,2159.390909337254,0.17408217917428906,1.335967700654444,0.8711046624361284,0.28834955,0.6400692095566517
0.0175,1.7923437500000001,1.0,2197.7189097303617,0.178714925634549,1.3353829795152345,0.8766967778512285,0.2883314375,0.6413209727407008
0.018000000000000002,1.7919,1.0,2234.011843667558,0.18332168615440736,1.3348164411504555,0.8819155604398964,0.2883128,0.6425317306611722
0.0185,1.79144375,1.0,2268.3440463943457,0.18790260581251822,1.3342667657555938,0.8867928389990466,0.2882936375,0.6437044939773438
0.019,1.790975,1.0,2300.79738057039,0.1924578296875357,1.3337326335261361,0.8913572041016842,0.28827395,0.6448422491062172
0.0195,1.79049375,1.0,2331.4520642364178,0.1969875017447486,1.3332128085766424,0.8956343991524415,0.2882537375,0.6459477812514856
0.02,1.79,1.0,2360.3973837291333,0.20149176705772928,1.3327060257744097,0.8996476178836684,0.288233,0.6470239171345595
0.0205,1.78949375,1.0,2387.7054274916627,0.2059707678132237,1.3322112416959342,0.903417844960083,0.2882117375,0.6480729939121352
0.021,1.788975,1.0,2413.4409861391973,0.210424644552334,1.3317275280981187,0.9069640762675516,0.28818995000000003,0.6490970889729333
0.021500000000000002,1.78844375,1.0,2437.672832940962,0.2148535378161622,1.3312539567378665,0.9103035124525297,0.2881676375,0.6500982657701138
0.022,1.7879,1.0,2460.473389354982,0.21925758814581037,1.3307895993720809,0.913451753340646,0.2881448,0.6510785744491654
0.0225,1.78734375,1.0,2481.9075951158607,0.22363693393694237,1.3303336308443543,0.9164229883635058,0.28812143749999997,0.6520398352461284
0.023,1.786775,1.0,2502.0526499577572,0.2279917169954747,1.329885136769073,0.9192301106984883,0.28809755,0.6529840450856188
0.0235,1.78619375,1.0,2520.965895541186,0.2323220745003663,1.3294434166273008,0.9218849051537706,0.28807313749999996,0.6539127399264373
0.024,1.7856,1.0,2538.699155391453,0.2366281419416959,1.3290078424453564,0.9243981364146989,0.2880482,0.654827294672996
0.0245,1.78499375,1.0,2555.3061439509597,0.24091005480954245,1.3285777862495587,0.9267796400365448,0.2880227375,0.6557290764774851
0.025,1.784375,1.0,2570.8423067817666,0.24516794859398475,1.3281526200662266,0.9290384153892214,0.28799675,0.6566194449734399
0.025500000000000002,1.78374375,1.0,2585.3646695113853,0.24940195878510166,1.3277317159216788,0.9311827081737383,0.2879702375,0.6574997524841582
0.026000000000000002,1.7831000000000001,1.0,2598.9199150059267,0.25361221743473283,1.3273145555796573,0.9332201001132546,0.2879432,0.6583711151329447
0.0265,1.78244375,1.0,2611.5701276757213,0.25779886261644525,1.326900488738134,0.9351575380480315,0.2879156375,0.6592349185675037
0.027,1.781775,1.0,2623.357885625035,0.26196202606668884,1.326489057196199,0.9370014394013885,0.28788755,0.6600921413620445
0.0275,1.7810937500000001,1.0,2634.3208272679444,0.2661018376532228,1.3260798569501955,0.9387577219493131,0.2878589375,0.6609436444239161
0.028,1.7804,1.0,2644.4973819463326,0.2702184272438062,1.3256724839964673,0.9404318424825597,0.2878298,0.6617902843353659
0.0285,1.77969375,1.0,2653.926701186948,0.27431192470619814,1.325266534331358,0.9420288387661767,0.2878001375,0.6626329134058273
0.029,1.778975,1.0,2662.6485935775336,0.2783824599081577,1.324861603951211,0.9435533671737428,0.28776995,0.6634723797137961
0.029500000000000002,1.7782437500000001,1.0,2670.703463261053,0.28243016271744403,1.3244572888523702,0.9450097364892754,0.2877392375,0.6643095271382959
0.03,1.7775,1.0,2678.123703175923,0.28645515793663284,1.3240532634789497,0.9464019470237106,0.287708,0.6651450332545995
0.0305,1.77674375,1.0,2684.9530203492336,0.29045757985012505,1.3236491026153427,0.9477336987588341,0.2876762375,0.6659797779855974
0.031,1.775975,1.0,2691.2200822983564,0.2944375541082766,1.323244522827076,0.9490084419234724,0.28764395,0.666814344586403
0.0315,1.7751937500000001,1.0,2696.950953805868,0.2983952045127136,1.3228392675222982,0.9502293855501909,0.2876111375,0.6676492581175573
0.032,1.7744,1.0,2702.1719890443724,0.3023306548650623,1.3224330801091586,0.9513995147589399,0.2875778,0.6684850409799774
0.0325,1.77359375,1.0,2706.9098040346116,0.30624402896694863,1.3220257039958065,0.9525216091231862,0.2875439375,0.6693222129018023
0.033,1.772775,1.0,2711.1912505619694,0.31013545061999886,1.3216168825903911,0.9535982593182071,0.28750955,0.6701612909210414
0.0335,1.7719437500000002,1.0,2715.043391554068,0.3140050436258391,1.3212063593010615,0.9546318822305854,0.2874746375,0.6710027893640225
0.034,1.7711000000000001,1.0,2718.493477916884,0.3178529317860955,1.3207938775359667,0.955624734687498,0.2874392,0.6718472198196404
0.0345,1.7702437500000001,1.0,2721.551836725985,0.3216792271513215,1.3203793362722842,0.9565789400191329,0.2874032375,0.6726947732453146
0.035,1.7693750000000001,1.0,2724.261713913036,0.3254840676429525,1.319962335998683,0.9574964586785205,0.28736675,0.6735462485403888
0.035500000000000004,1.76849375,1.0,2726.6404761548993,0.3292675716549602,1.3195427140225136,0.9583791464041108,0.2873297375,0.6744019576375195
0.036000000000000004,1.7676,1.0,2728.7033288459224,0.33302985591427925,1.3191203281561743,0.9592287437180789,0.2872922,0.6752621688695652
0.0365,1.76669375,1.0,2730.465558113113,0.3367710371478445,1.3186950362120637,0.9600468827782378,0.2872541375,0.6761271488960185
0.037,1.765775,1.0,2731.942521956721,0.3404912320825908,1.3182666960025795,0.9608350953447671,0.28721555,0.6769971626773013
0.0375,1.76484375,1.0,2733.1496418394627,0.3441905574454528,1.3178351653401204,0.9615948200757335,0.2871764375,0.6778724734477627
0.038,1.7639,1.0,2734.1023947239305,0.34786912996336533,1.3174003020370841,0.9623274092147506,0.28713679999999997,0.6787533426873973
0.0385,1.76294375,1.0,2734.816305558311,0.35152706636326314,1.3169619639058692,0.9630341347275437,0.28709663750000003,0.6796400300922656
0.039,1.761975,1.0,2735.3069402096994,0.35516448337208095,1.3165200087588738,0.9637161939383431,0.28705595,0.6805327935436304
0.0395,1.7609937500000001,1.0,2735.5898988471054,0.3587814977167536,1.3160742944084962,0.9643747147118383,0.2870147375,0.6814318890758012
0.04,1.76,1.0,2735.6796217440715,0.3623782255461882,1.3156246894536467,0.9650107610811458,0.286973,0.682337549130386
0.0405,1.7589937500000001,1.0,2735.587720632964,0.3659547796300089,1.3151710883791414,0.9656253383984604,0.2869307375,0.683249952327511
0.041,1.757975,1.0,2735.3251818596154,0.3695112722923968,1.314713391512639,0.9662193960603458,0.28688795,0.6841692640389426
0.0415,1.75694375,1.0,2734.9011767765746,0.3730478155462702,1.314251515795377,0.966793832164203,0.2868446375,0.6850956148606759
0.042,1.7559,1.0,2734.3248887567056,0.3765645214045473,1.3137853781685926,0.967349495521496,0.28680079999999997,0.6860291340803358
0.0425,1.75484375,1.0,2733.6084526728437,0.3800614988333839,1.313314868851013,0.9678871861596313,0.2867564375,0.6869700030512517
0.043000000000000003,1.7537807814811208,1.0,2733.035509083747,0.38353886389815706,1.3128400227505777,0.9684076740744343,0.28671179282220705,0.687918112772379
0.043500000000000004,1.752717803836465,1.0,2732.909110065296,0.3869967251952849,1.3123611165196278,0.9689117064512757,0.28666714776113156,0.6888728727251643
0.044,1.751654826191809,1.0,2733.198680825778,0.3904351906456359,1.3118784317225296,0.9693999912929692,0.28662250270005596,0.689833685670585
0.0445,1.7505918485471532,1.0,2733.873286115443,0.3938543681700789,1.3113922499236488,0.9698731996040818,0.2865778576389804,0.6907999575493873
0.045,1.7495288709024972,1.0,2734.9020612662553,0.39725436568948247,1.3109028526873516,0.9703319676951895,0.28653321257790487,0.6917710975474074
0.0455,1.7484658932578414,1.0,2736.254191240558,0.4006352911247152,1.310410521578004,0.9707768993222508,0.28648856751682933,0.6927465181558403
0.046,1.7474029156131854,1.0,2737.898891436606,0.40399725239664563,1.3099155381599719,0.9712085676743587,0.2864439224557538,0.693725635226451
0.0465,1.7463399379685294,1.0,2739.8144611809607,0.40734035403959595,1.3094181017015876,0.9716275107194837,0.28639927739467824,0.6947080304189606
0.047,1.7452769603238736,1.0,2741.9695058811317,0.41066470618889417,1.3089184994894354,0.9720342469123477,0.2863546323336027,0.695693114391568
0.0475,1.7442139826792176,1.0,2744.346082982388,0.41397041285479247,1.308416896725199,0.9724292597277345,0.28630998727252716,0.6966805414999935
0.048,1.7431510050345618,1.0,2746.9281991750513,0.41725757718597994,1.3079134409179278,0.9728130078471825,0.2862653422114516,0.6976700028765364
0.0485,1.7420880273899058,1.0,2749.6998546355653,0.4205263023311458,1.3074082795766715,0.9731859279480217,0.286220697150376,0.6986611914786702
0.049,1.74102504974525,1.0,2752.6450372077325,0.42377669143897917,1.3069015602104797,0.9735484359654213,0.2861760520893005,0.6996538021057823
0.0495,1.739962072100594,1.0,2755.747717065091,0.4270088476581691,1.306393430328402,0.9739009282710035,0.2861314070282249,0.700647531414524
0.05,1.7388990944559382,1.0,2758.9918418577654,0.43022287413740484,1.3058840374394876,0.974243782774251,0.2860867619671494,0.7016420779327748
0.0505,1.7378361168112821,1.0,2762.3659510597713,0.433418870927387,1.3053734873208434,0.974577356836826,0.28604211690607384,0.7026372233466414
0.051000000000000004,1.7367731391666263,1.0,2765.853946658202,0.43659694311590946,1.3048619274518587,0.9749019948030098,0.2859974718449983,0.7036326696120461
0.051500000000000004,1.7357101615219703,1.0,2769.4463519364535,0.4397571903364435,1.3043494452581792,0.9752180209495626,0.28595282678392275,0.7046282371525465
0.052000000000000005,1.7346471838773145,1.0,2773.1349868199945,0.442899711176521,1.3038361163002286,0.975525744168822,0.2859081817228472,0.7056237705089095
0.0525,1.7335842062326585,1.0,2776.911654001845,0.44602460422367374,1.3033220161384305,0.9758254596609103,0.28586353666177167,0.706619115196804
0.053,1.7325212285880027,1.0,2780.76813758759,0.44913196806543365,1.3028072203332086,0.9761174496611287,0.2858188916006961,0.7076141177107005
0.0535,1.7314582509433467,1.0,2784.6962018666177,0.4522219012893325,1.3022918044449865,0.9764019841227006,0.2857742465396206,0.7086086255274044
0.054,1.730395273298691,1.0,2788.6875902098095,0.45529450248290215,1.3017758440341878,0.9766793213579662,0.285729601478545,0.709602487109227
0.0545,1.729332295654035,1.0,2792.7407355766095,0.45834985905143055,1.3012593543510367,0.9769497039077314,0.2856849564174695,0.7105956677806011
0.055,1.728269318009379,1.0,2796.841252304086,0.46138808274268883,1.3007424657235978,0.9772133732841024,0.2856403113563939,0.7115879123421258
0.0555,1.727206340364723,1.0,2800.9831336419957,0.4644092710784697,1.3002252329267503,0.9774705550181517,0.28559566629531835,0.7125791119709137
0.056,1.7261433627200673,1.0,2805.1631207751875,0.46741351677852766,1.2997076859427774,0.9777214633682202,0.2855510212342428,0.7135692059528875
0.0565,1.7250803850754113,1.0,2809.377945619556,0.4704009125626172,1.2991898547539622,0.9779663037733236,0.28550637617316726,0.714558133967803
0.057,1.7240174074307555,1.0,2813.6243306231477,0.4733715511504928,1.2986717693425878,0.9782052732888992,0.2854617311120917,0.7155458360898217
0.0575,1.7229544297860995,1.0,2817.898988587133,0.4763255252619089,1.2981534596909372,0.9784385609976226,0.2854170860510162,0.7165322527880251
0.058,1.7218914521414437,1.0,2822.1986225069786,0.4792629276166201,1.2976349557812936,0.9786663483969152,0.28537244098994063,0.7175173249268731
0.0585,1.7208284744967877,1.0,2826.5199254331137,0.48218385093438076,1.2971162875959403,0.9788888097646365,0.2853277959288651,0.7185009937666023
0.059000000000000004,1.7197654968521319,1.0,2830.8595803519306,0.48508838793494546,1.2965974851171602,0.9791061125043548,0.28528315086778955,0.7194832009635712
0.059500000000000004,1.7187025192074759,1.0,2835.2142600862767,0.4879766313380686,1.2960785783272364,0.9793184174714901,0.28523850580671395,0.7204638885705439
0.06,1.71763954156282,1.0,2839.5806272168206,0.4908486738635047,1.2955595972084522,0.9795258792815263,0.28519386074563846,0.7214429990369181
0.0605,1.716576563918164,1.0,2843.95533402157,0.4937046082310083,1.2950405717430906,0.9797286466014162,0.28514921568456286,0.7224204752088974
0.061,1.7155135862735083,1.0,2848.3404513405067,0.49654450149167817,1.2945214836071428,0.9799268578426396,0.2851045706234874,0.7233963510645648
0.0615,1.7144506086288522,1.0,2852.728501827471,0.49936847686590974,1.2940023994273187,0.980120655041258,0.2850599255624118,0.724370501055419
0.062,1.7133876309841964,1.0,2857.118052892133,0.5021766228234249,1.2934833319220587,0.9803101693871263,0.28501528050133623,0.7253429014155828
0.0625,1.7123246533395404,1.0,2861.508257529258,0.5049690246594766,1.2929642885722243,0.9804955266809224,0.2849706354402607,0.7263135383334518
0.063,1.7112616756948846,1.0,2865.8982661501377,0.5077457676693174,1.2924452768586776,0.9806768480854337,0.28492599037918515,0.727282398096465
0.0635,1.7101986980502286,1.0,2870.287226587147,0.5105069371482002,1.29192630426228,0.9808542503313726,0.2848813453181096,0.7282494670910931
0.064,1.7091357204055728,1.0,2874.6742840997144,0.5132526183913776,1.2914073782638933,0.981027845912595,0.28483670025703406,0.7292147318028195
0.0645,1.7080727427609168,1.0,2879.058581381396,0.5159828966941024,1.2908885063443791,0.9811977432713371,0.2847920551959585,0.7301781788161228
0.065,1.7070097651162608,1.0,2883.4392585679893,0.5186978573516274,1.2903696959845994,0.9813640469740548,0.2847474101348829,0.7311397948144494
0.0655,1.705946787471605,1.0,2887.8154532477633,0.5213975856592054,1.2898509546654153,0.9815268578784029,0.28470276507380743,0.7320995665801893
0.066,1.7048838098269492,1.0,2892.186300471244,0.524082166912089,1.2893322898676889,0.9816862732918653,0.28465812001273183,0.7330574809946417
0.0665,1.7038208321822932,1.0,2896.5509327644,0.526751686405531,1.288813709072282,0.9818423871225038,0.28461347495165634,0.7340135250379825
0.067,1.7027578545376372,1.0,2900.9084801411777,0.5294062294347843,1.288295219760056,0.9819952900222814,0.28456882989058074,0.7349676857892253
0.0675,1.7016948768929814,1.0,2905.2580701184593,0.5320458812951014,1.2877768294118723,0.9821450695233609,0.2845241848295052,0.7359199504261803
0.068,1.7006318992483254,1.0,2909.598827731657,0.5346707272817354,1.2872585455085932,0.9822918101677859,0.28447953976842966,0.7368703062254065
0.0685,1.6995689216036696,1.0,2913.9298755518103,0.5372808526899387,1.28674037553108,0.9824355936308962,0.2844348947073541,0.7378187405621659
0.069,1.6985059439590136,1.0,2918.2520326433873,0.5398763076183869,1.2862223120252383,0.9825764959237959,0.28439024964627857,0.7387652681725994
0.0695,1.6974429663143578,1.0,2922.563836973833,0.5424572094348277,1.285704367597494,0.9827145956704147,0.284345604585203,0.7397098671419517
0.07,1.6963799886697017,1.0,2926.86453354224,0.5450236514850614,1.2851865486116734,0.9828499670888079,0.2843009595241275,0.7406525270757707
0.07050000000000001,1.695317011025046,1.0,2931.154036212933,0.5475757107299551,1.2846688555469221,0.9829826806808938,0.28425631446305194,0.7415932483469566
0.07100000000000001,1.69425403338039,1.0,2935.432258795427,0.550113464130376,1.284151288882386,0.983112804650232,0.2842116694019764,0.7425320313344349
0.07150000000000001,1.6931910557357341,1.0,2939.699115045974,0.5526369886471911,1.2836338490972106,0.9832404049925393,0.2841670243409008,0.7434688764231531
0.07200000000000001,1.6921280780910781,1.0,2943.9545186688024,0.5551463612412676,1.2831165366705415,0.9833655455820617,0.2841223792798253,0.7444037840040751
