Time [s],Phi [rad],STIM [ ],Fsee [N],Gamma [ ],Lcerel [ ],q [ ],Lmtc [m],fisomrel [ ]
0.0,1.8,1.0,17.9646540423126,1.666663309801457e-05,1.379340026775272,0.005000073734627422,0.288653,0.5411388523154845
0.0005,1.79999375,1.0,18.27646456798158,0.005625782455264605,1.3793024188453062,0.012959037970041335,0.2886527375,0.5412298311801654
0.001,1.799975,1.0,21.623189857985107,0.011203435572556132,1.3789378110439106,0.03564334260374614,0.28865195,0.5421114010243927
0.0015,1.79994375,1.0,31.084517419359496,0.016749802466741622,1.378044901964932,0.07064929779199323,0.2886506375,0.544266747762516
0.002,1.7999,1.0,53.61842219818427,0.022265058627920237,1.376365794356355,0.1147742021211556,0.2886488,0.5483060868574934
0.0025,1.79984375,1.0,97.18147746983355,0.02774937856214666,1.3739321540997416,0.16463599229880815,0.28864643749999996,0.5541286483747676
0.003,1.7997750000000001,1.0,161.0407549061503,0.033202935799073664,1.3712112528020834,0.21734348306629497,0.28864354999999997,0.56059376847292
0.0035,1.79969375,1.0,237.77733386392393,0.03862590289159984,1.3685818389992375,0.270675574477849,0.2886401375,0.5667966452804215
0.004,1.7996,1.0,321.5672463040301,0.04401845142663775,1.3661534314060149,0.32297649644196014,0.2886362,0.5724861756045944
0.0045000000000000005,1.7994937500000001,1.0,409.37215076927487,0.049380752030301914,1.3639203636573756,0.37309212135870745,0.2886317375,0.5776848498580469
0.005,1.799375,1.0,499.52030186355137,0.054712974359025744,1.361856073025961,0.42030136183312883,0.28862675,0.582462316371908
0.0055,1.79924375,1.0,590.8983868105812,0.06001528714666831,1.3599367256687949,0.46422360170537647,0.2886212375,0.5868799538100342
0.006,1.7991000000000001,1.0,682.6264125706049,0.06528785814855904,1.3581444461426402,0.504725822451425,0.2886152,0.5909839148507063
0.006500000000000001,1.79894375,1.0,773.9911774334059,0.07053085419416993,1.3564653772846809,0.5418426691965836,0.2886086375,0.5948100599403385
0.007,1.798775,1.0,864.3972319950791,0.07574444118502834,1.3548885952515624,0.5757149458175034,0.28860155,0.5983867505113928
0.0075,1.79859375,1.0,953.3541340977439,0.08092878406438818,1.3534050731967342,0.6065446151369231,0.2885939375,0.6017374178533512
0.008,1.7984,1.0,1040.468694831883,0.08608404688535849,1.3520070233221573,0.6345635740223889,0.2885858,0.604882192384803
0.0085,1.79819375,1.0,1125.428595081167,0.09121039276090993,1.3506876225153686,0.6600130121312935,0.2885771375,0.6078386205820101
0.009000000000000001,1.797975,1.0,1207.987756682401,0.09630798377856031,1.3494408384489487,0.6831303439527113,0.28856795,0.6106221314543869
0.0095,1.79774375,1.0,1287.9509186155267,0.10137698056154629,1.3482613468836628,0.704141445881973,0.2885582375,0.6132462827384473
0.01,1.7975,1.0,1365.256321500282,0.10641754594509685,1.3471432379084771,0.7232558363807461,0.288548,0.6157256772143446
0.0105,1.79724375,1.0,1439.7722498026847,0.11142983777229382,1.3460825352546613,0.7406661990012422,0.2885372375,0.6180704043102875
0.011,1.796975,1.0,1511.427901162943,0.116414013886219,1.3450752626534848,0.7565469882482635,0.28852595000000003,0.6202903797979226
0.0115,1.79669375,1.0,1580.208003057484,0.12137023212995429,1.3441174438362178,0.7710550252147118,0.2885141375,0.622395359845751
0.012,1.7964,1.0,1646.139824293481,0.12629865006989935,1.343205195651947,0.7843306330936238,0.28850180000000003,0.624394750247158
0.0125,1.79609375,1.0,1709.251009050722,0.1311994239544778,1.3423351499351701,0.7964991447270864,0.2884889375,0.6262966999963795
0.013000000000000001,1.7957750000000001,1.0,1769.5703352248986,0.13607270834941265,1.3415043527277701,0.8076722424997114,0.28847555,0.6281083452423047
0.0135,1.79544375,1.0,1827.1466264455712,0.14091865725004976,1.3407099829529598,0.8179492335277337,0.2884616375,0.6298364397837812
0.014,1.7951000000000001,1.0,1882.040953486132,0.14573742383137997,1.3399493968894036,0.8274184032162128,0.2884472,0.6314872689876618
0.0145,1.79474375,1.0,1934.3440924562174,0.15052916187717427,1.3392199001319705,0.8361581716561595,0.2884322375,0.63306715355375
0.015,1.794375,1.0,1984.113628838709,0.1552940219818513,1.3385193975186633,0.8442384496007871,0.28841675,0.6345810507130141
0.0155,1.79399375,1.0,2031.4208951808014,0.16003215448731903,1.3378458411662013,0.8517214423614269,0.2884007375,0.6360337615009626
0.016,1.7936,1.0,2076.3517527071754,0.16474370954502793,1.3371972034899398,0.8586625504146211,0.2883842,0.6374299934903194
0.0165,1.7931937500000001,1.0,2118.9956484695977,0.16942883639585513,1.3365715742799018,0.8651112043898284,0.2883671375,0.6387741562077441
0.017,1.792775,1.0,2159.448062759705,0.17408768456748222,1.335967116589538,0.8711115591225449,0.28834955,0.6400704610029077
0.0175,1.7923437500000001,1.0,2197.777176568389,0.17872040015071963,1.33538238928714,0.8767032025310926,0.2883314375,0.6413222351914838
0.018000000000000002,1.7919,1.0,2234.0606047737065,0.18332712923637773,1.3348159512409998,0.881921582205828,0.2883128,0.6425327767684452
0.0185,1.79144375,1.0,2268.384608363441,0.18790801791526696,1.3342663613194101,0.8867984889789599,0.2882936375,0.6437053561552346
0.019,1.790975,1.0,2300.8145154390554,0.1924632105169592,1.333732463886176,0.8913625511557633,0.28827395,0.6448426101672902
0.0195,1.79049375,1.0,2331.484236093841,0.19699285385720436,1.333212492167685,0.8956393777334134,0.2882537375,0.6459484536460476
0.02,1.79,1.0,2360.4524625539357,0.20149709013971234,1.332705487409249,0.8996522389410685,0.288233,0.6470250594635654
0.0205,1.78949375,1.0,2387.7669001469267,0.20597606072895133,1.3322106442808526,0.9034221723474309,0.2882117375,0.6480742596508318
0.021,1.7889787805957118,1.0,2413.6559614421553,0.2104299069893896,1.3317271574524794,0.906968195691639,0.2881901087850199,0.6490978731138328
0.021500000000000002,1.7884635024727322,1.0,2438.572824335604,0.21485877028549535,1.3312542215941132,0.9103075284573741,0.28816846710385474,0.6500977062374941
0.022,1.7879482243497524,1.0,2462.5903421111143,0.21926279120284478,1.3307911154802694,0.9134558035877798,0.2881468254226896,0.6510753760182368
0.0225,1.7874329462267726,1.0,2485.7285412137767,0.2236421098834495,1.330337504876495,0.9164272975957943,0.28812518374152446,0.6520316736988894
0.023,1.7869176681037928,1.0,2508.014553946687,0.22799686426109253,1.3298930001989422,0.9192349827618294,0.28810354206035926,0.652967501338459
0.0235,1.786402389980813,1.0,2529.478276863722,0.23232719147402386,1.329457198032097,0.9218906725580048,0.2880819003791941,0.6538837840077794
0.024,1.7858871118578332,1.0,2550.1508528092236,0.23663322866049363,1.3290296949604443,0.9244051440492048,0.288060258698029,0.6547814407979495
0.0245,1.7853718337348534,1.0,2570.0514464773664,0.2409151056539991,1.3286102107339566,0.9267882609666437,0.28803861701686384,0.6556611269176806
0.025,1.7848565556118738,1.0,2589.2304704647095,0.2451729691490623,1.3281981818966084,0.9290490072243008,0.2880169753356987,0.6565240860961759
0.025500000000000002,1.784341277488894,1.0,2607.7176648188292,0.249406954540852,1.327793249186157,0.9311956424514372,0.28799533365453356,0.6573711281504526
0.026000000000000002,1.7838259993659142,1.0,2625.5355146863017,0.2536171928254018,1.3273951288747168,0.9332357542117984,0.2879736919733684,0.6582029004754706
0.0265,1.7833107212429344,1.0,2642.7072388754978,0.2578038149987454,1.3270035372344025,0.9351763123947497,0.2879520502922033,0.6590200466715204
0.027,1.7827954431199546,1.0,2659.2567478941933,0.26196695205691645,1.3266181905373287,0.9370237277888461,0.2879304086110381,0.6598232066649276
0.0275,1.7822801649969748,1.0,2675.2086037724603,0.26610673499594867,1.3262388050556098,0.9387839043893612,0.28790876692987294,0.660613016823622
0.028,1.781764886873995,1.0,2690.587981669919,0.2702232948118756,1.3258650970613608,0.9404622861776869,0.2878871252487078,0.6613901100675699
0.0285,1.7812496087510152,1.0,2705.420633268285,0.2743167625007311,1.325496782826696,0.942063899016787,0.28786548356754266,0.6621551159740777
0.029,1.7807343306280357,1.0,2719.732851948392,0.2783872690585487,1.32513357862373,0.9435933882257763,0.28784384188637746,0.6629086608779555
0.029500000000000002,1.7802190525050559,1.0,2733.545998417533,0.28243494144278186,1.324775250147615,0.9450550576168524,0.2878222002052123,0.6636512655980678
0.03,1.779703774382076,1.0,2746.8828387722056,0.28645990924828213,1.3244215542044677,0.9464528938753225,0.2878005585240472,0.6643834667332833
0.0305,1.7791884962590963,1.0,2759.771324451563,0.2904623060515299,1.324072204422361,0.9477905898713885,0.28777891684288204,0.6651058875026514
0.031,1.7786732181361165,1.0,2772.2270209884923,0.2944422554693876,1.323727029997975,0.9490715854448893,0.2877572751617169,0.6658189095940374
0.0315,1.7781579400131367,1.0,2784.265783467151,0.29839988111871796,1.3233858601279902,0.9502990773167497,0.28773563348055176,0.6665229128484693
0.032,1.7776426618901568,1.0,2795.903741034337,0.3023353066163834,1.3230485240090863,0.9514760392885285,0.2877139917993866,0.66721827530469
0.0325,1.7771273837671773,1.0,2807.1572820579227,0.3062486555792466,1.3227148508379436,0.9526052405297175,0.2876923501182215,0.667905373241849
0.033,1.7766121056441975,1.0,2818.0430399318366,0.31014005162417,1.322384669811242,0.9536892621543926,0.2876707084370563,0.668584581220333
0.0335,1.7760968275212177,1.0,2828.577879528255,0.3140096183680163,1.3220578101256615,0.9547305122655384,0.28764906675589114,0.6692562721207378
0.034,1.7755815493982379,1.0,2838.7788842960085,0.31785747942764797,1.3217341009778825,0.955731239625043,0.287627425074726,0.669920817180975
0.0345,1.775066271275258,1.0,2848.662297167872,0.32168375716089403,1.3214133808788064,0.9566935467867367,0.28760578339356085,0.6705785669389519
0.035,1.7745509931522783,1.0,2858.236299624731,0.3254885654599132,1.3210955616126923,0.9576194064450365,0.28758414171239566,0.6712297203846612
0.035500000000000004,1.7740357150292985,1.0,2867.5261916354298,0.3292720400391404,1.3207804042511193,0.9585106550379164,0.2875625000312305,0.6718747839556394
0.036000000000000004,1.7735204369063189,1.0,2876.541645767536,0.33303429715171623,1.320467810224805,0.9593690233341495,0.2875408583500654,0.6725139751585405
0.0365,1.773005158783339,1.0,2885.292449270756,0.3367754530507811,1.3201576809644675,0.9601961345362119,0.28751921666890023,0.6731475105849944
0.037,1.7724898806603593,1.0,2893.7884985827886,0.34049562398947586,1.319849917900824,0.9609935121843769,0.2874975749877351,0.6737756059274111
0.0375,1.7719746025373795,1.0,2902.03979405046,0.344194926220941,1.3195444224645922,0.9617625873951364,0.28747593330656995,0.6743984759941652
0.038,1.7714593244143997,1.0,2910.0564348661073,0.3478734759983171,1.31924109608649,0.962504705496773,0.2874542916254048,0.6750163347241597
0.0385,1.7709440462914199,1.0,2917.848614219579,0.3515313895747447,1.3189398401972348,0.963221132118376,0.2874326499442396,0.6756293952007728
0.039,1.77042876816844,1.0,2925.4266146659584,0.3551687832033645,1.3186405562275443,0.9639130587827928,0.2874110082630745,0.6762378696651824
0.0395,1.7699134900454605,1.0,2932.8008037078225,0.358785773137317,1.3183431456081363,0.9645816080488807,0.28738936658190933,0.6768419695290719
0.04,1.7693982119224807,1.0,2939.9816295938963,0.36238247562974285,1.318047509769728,0.9652278382438237,0.2873677249007442,0.6774419053867182
0.0405,1.768882933799501,1.0,2946.972662360479,0.36595899319593017,1.3177536109837718,0.9658527506742957,0.28734608321957905,0.678037763733335
0.041,1.768367655676521,1.0,2953.788893757422,0.36951545494801963,1.3174613120788328,0.9664572867978833,0.28732444153841386,0.6786298320573532
0.0415,1.7678523775535413,1.0,2960.438940898096,0.37305197598123147,1.3171705323107665,0.9670423382967382,0.2873027998572487,0.679218282632988
0.042,1.7673370994305615,1.0,2966.9283281542225,0.3765686647500078,1.316881218400249,0.9676087492415009,0.2872811581760836,0.6798032315853754
0.0425,1.7668218213075817,1.0,2973.2626212901646,0.3800656297087907,1.316593317067957,0.9681573180450522,0.28725951649491843,0.6803847946042989
0.043000000000000003,1.766306543184602,1.0,2979.4474257630436,0.3835429793120224,1.3163067750345667,0.9686888003967156,0.2872378748137533,0.6809630869490817
0.043500000000000004,1.7657912650616223,1.0,2985.488385085247,0.38700082201414493,1.316021539020755,0.9692039119793254,0.28721623313258815,0.6815382234532954
0.044,1.7652759869386425,1.0,2991.391179250382,0.3904392662696004,1.3157375557471984,0.9697033309872691,0.287194591451423,0.6821103185292883
0.0445,1.7647607088156627,1.0,2997.161523221833,0.393858420532831,1.3154547719345733,0.9701877004619095,0.2871729497702578,0.682679486172533
0.045,1.764245430692683,1.0,3002.805165484592,0.3972583932582788,1.3151731343035564,0.9706576304593195,0.28715130808909267,0.6832458399657921
0.0455,1.7637301525697031,1.0,3008.3278866596243,0.40063929290038586,1.314892589574824,0.9711137000638934,0.28712966640792753,0.683809493083104
0.046,1.7632148744467233,1.0,3013.735498181331,0.4040012279135944,1.314613084469053,0.9715564592601893,0.2871080247267624,0.6843705582935861
0.0465,1.7626995963237435,1.0,3019.0338410381682,0.4073443067523465,1.3143345657069194,0.9719864306742589,0.2870863830455972,0.6849291479650585
0.047,1.762184318200764,1.0,3024.2233903360734,0.41066861754682393,1.3140570265902833,0.9724041118704733,0.28706474136443205,0.6854852807693561
0.0475,1.7616690400777841,1.0,3029.3134797063017,0.4139742874258716,1.313780384066995,0.9728099758294763,0.2870430996832669,0.6860391281083198
0.048,1.7611537619548043,1.0,3034.3094991350126,0.4172614267372109,1.3135045894111057,0.973204472906688,0.28702145800210177,0.6865907921497896
0.0485,1.7606384838318245,1.0,3039.2142974706862,0.42053013553421187,1.3132296159893189,0.9735880321721387,0.28699981632093663,0.687140330571377
0.049,1.7601232057088447,1.0,3044.0307381296807,0.4237805138702449,1.312955437168339,0.9739610624078794,0.2869781746397715,0.6876878008506819
0.0495,1.759607927585865,1.0,3048.7616986193643,0.42701266179868,1.3126820263148702,0.9743239532521748,0.28695653295860635,0.6882332602666672
0.05,1.7590926494628851,1.0,3053.410070076627,0.4302266793728876,1.3124093567956165,0.974677076269147,0.2869348912774412,0.6887767659009858
0.0505,1.7585773713399055,1.0,3057.9787568221573,0.43342266664623774,1.3121374019772822,0.9750207859493436,0.286913249596276,0.6893183746392619
0.051000000000000004,1.7580620932169257,1.0,3062.4706759310316,0.4366007236721006,1.3118661352265715,0.9753554206462831,0.28689160791511087,0.6898581431723273
0.051500000000000004,1.757546815093946,1.0,3066.8887568178875,0.43976095050384656,1.3115955299101882,0.9756813034536015,0.28686996623394573,0.6903961279974139
0.052000000000000005,1.7570315369709661,1.0,3071.235940838864,0.4429034471948457,1.3113255593948367,0.9759987430270619,0.2868483245527806,0.6909323854192984
0.0525,1.7565162588479863,1.0,3075.5151809088557,0.4460283137984682,1.311056197047221,0.9763080343553427,0.2868266828716154,0.6914669715514045
0.053,1.7560009807250065,1.0,3079.729441134523,0.4491356503680844,1.3107874162340454,0.9766094594832212,0.28680504119045025,0.6919999423168566
0.0535,1.7554857026020267,1.0,3083.881696462896,0.45222555695706435,1.3105191903220141,0.9769032881904708,0.2867833995092851,0.6925313534494922
0.054,1.7549704244790472,1.0,3087.974932346082,0.4552981336187784,1.310251492677831,0.9771897786295466,0.28676175782811997,0.6930612604948271
0.0545,1.7544551463560674,1.0,3092.008958952295,0.4583534537377006,1.30998432387267,0.9774691769685993,0.2867401161469548,0.6935896650293483
0.055,1.7539398682330876,1.0,3095.9871057467394,0.4613916268429748,1.3097176544559592,0.9777417206790587,0.2867184744657897,0.6941166279282496
0.0555,1.7534245901101078,1.0,3099.9146414996253,0.46441277837456235,1.309451438526625,0.9780076377601356,0.28669683278462454,0.6946422423271763
0.056,1.752909311987128,1.0,3103.7928612962023,0.4674169989444515,1.3091856641838466,0.978267145426952,0.2866751911034594,0.6951665340025307
0.0565,1.7523940338641482,1.0,3107.623065032212,0.4704043791646303,1.3089203195268042,0.9785204519555236,0.2866535494222942,0.6956895286462284
0.057,1.7518787557411684,1.0,3111.406557299601,0.4733750096470871,1.3086553926546773,0.978767757123194,0.28663190774112907,0.69621125186603
0.0575,1.7513634776181886,1.0,3115.14464727402,0.47632898100381005,1.3083908716666457,0.9790092526239295,0.2866102660599639,0.6967317291858625
0.058,1.750848199495209,1.0,3118.838648606678,0.47926638384678744,1.3081267446618887,0.9792451224600959,0.2865886243787988,0.6972509860461328
0.0585,1.7503329213722292,1.0,3122.489879318398,0.48218730878800736,1.3078629997395865,0.9794755433122309,0.28656698269763364,0.6977690478040286
0.059000000000000004,1.7498176432492494,1.0,3126.0996616975112,0.48509184643945813,1.3075996249989186,0.9797006848882109,0.28654534101646845,0.6982859397338159
0.059500000000000004,1.7493023651262696,1.0,3129.669322200787,0.48798008741312787,1.3073366085390645,0.9799207102531127,0.2865236993353033,0.6988016870271232
0.06,1.7487870870032898,1.0,3133.200191356729,0.49085212232100484,1.3070739384592043,0.9801357761409812,0.28650205765413816,0.699316314793217
0.0605,1.74827180888031,1.0,3136.693603673209,0.49370804177507727,1.306811602858517,0.9803460332496298,0.286480415972973,0.6998298480592717
0.061,1.7477565307573302,1.0,3140.150897547181,0.49654793638733336,1.3065495898361832,0.9805516265195173,0.2864587742918079,0.7003423117706246
0.0615,1.7472412526343506,1.0,3143.573415178422,0.4993718967697613,1.306287887491382,0.9807526953976816,0.28643713261064274,0.7008537307910286
0.062,1.7467259745113708,1.0,3146.9625024856305,0.5021800135343494,1.306026483923293,0.9809493740876315,0.2864154909294776,0.7013641299028908
0.0625,1.746210696388391,1.0,3150.319509026132,0.5049723772930856,1.3057653672310963,0.9811417917860533,0.2863938492483124,0.7018735338075027
0.063,1.7456954182654112,1.0,3153.6457879188565,0.5077490786579584,1.3055045255139712,0.9813300729071125,0.28637220756714726,0.7023819671252657
0.0635,1.7451801401424314,1.0,3156.9426957698647,0.5105102082409559,1.3052439468710977,0.9815143372950951,0.2863505658859821,0.7028894543959008
0.064,1.7446648620194516,1.0,3160.2108399679646,0.5132558419337159,1.3049836257595433,0.9816946997048335,0.286328924204817,0.703396007712254
0.0645,1.7441495838964718,1.0,3163.4497835525253,0.5159860439133744,1.3047235654692626,0.981871270378663,0.2863072825236518,0.7039016219633292
0.065,1.7436343057734922,1.0,3166.6629102920992,0.5187009543485718,1.3044637370444563,0.9820441592663349,0.28628564084248664,0.7044063546713144
0.0655,1.7431190276505124,1.0,3169.8507788847082,0.5214006541494232,1.304204135419878,0.9822134694869304,0.2862639991613215,0.704910216815831
0.066,1.7426037495275326,1.0,3173.0139495838143,0.5240852242260441,1.3039447555302817,0.9823793005274826,0.28624235748015636,0.7054132193419558
0.0665,1.7420884714045528,1.0,3176.1529841734164,0.5267547454885497,1.303685592310421,0.9825417483968097,0.2862207157989912,0.7059153731602961
0.067,1.741573193281573,1.0,3179.2684459429383,0.5294092988470556,1.3034266406950497,0.9827009057717823,0.2861990741178261,0.7064166891470576
0.0675,1.7410579151585932,1.0,3182.3608996635676,0.5320489652116769,1.3031678956189214,0.9828568621364444,0.28617743243666094,0.7069171781441159
0.068,1.7405426370356134,1.0,3185.4309115644605,0.5346738254925291,1.3029093520167903,0.9830097039143906,0.28615579075549574,0.7074168509590824
0.0685,1.7400273589126338,1.0,3188.4790493103956,0.5372839605997275,1.3026510048234095,0.9831595145947641,0.2861341490743306,0.7079157183653718
0.069,1.739512080789654,1.0,3191.5058819786173,0.5398794514433876,1.302392848973533,0.983306374852231,0.28611250739316546,0.7084137911022642
0.0695,1.7389968026666742,1.0,3194.511980037665,0.5424603789336244,1.302134879401915,0.9834503626612532,0.2860908657120003,0.7089110798749692
0.07,1.7384815245436944,1.0,3197.4979153260997,0.5450268239805537,1.3018770910433084,0.9835915534049705,0.2860692240308352,0.7094075953546879
