Time [s],Phi [rad],STIM [ ],Fsee [N],Gamma [ ],Lcerel [ ],q [ ],Lmtc [m],fisomrel [ ]
0.0,1.8,1.0,17.96779317442441,1.337962453527573e-05,1.3793396750783466,0.0050000476009991355,0.288653,0.5411397031615255
0.0005,1.79999375,1.0,18.278205141798118,0.005622513884218128,1.3793022255045602,0.012949898440538982,0.2886527375,0.54123029887528
0.001,1.799975,1.0,21.62230868139323,0.011200185335609904,1.3789379010340397,0.035626187203848796,0.28865195,0.5421111835456517
0.0015,1.79994375,1.0,31.07841405204971,0.01674657046105222,1.3780454218485592,0.07062581042069399,0.2886506375,0.5442654943218908
0.002,1.7999,1.0,53.601983668133066,0.022261844751231163,1.3763668605267858,0.11474638510387948,0.2886488,0.5483035277334534
0.0025,1.79984375,1.0,97.15175769757691,0.02774618271276201,1.3739335858732216,0.1646057337254195,0.28864643749999996,0.5541252339157974
0.003,1.7997750000000001,1.0,161.00096642357,0.03319975787587785,1.3712127418328928,0.21731227230177055,0.28864354999999997,0.5605902433064609
0.0035,1.79969375,1.0,237.7317360990678,0.03862274279404341,1.3685832433206844,0.2706445365575541,0.2886401375,0.5667933442066492
0.004,1.7996,1.0,321.51831085816303,0.04401530905473162,1.3661547273658676,0.32294644670838135,0.2886362,0.5724831493227907
0.0045000000000000005,1.7994937500000001,1.0,409.3211685728041,0.049377627284609774,1.3639215602885015,0.3730635988148817,0.2886317375,0.5776820725675464
0.005,1.799375,1.0,499.46803233196704,0.05470986714063314,1.3618571836594788,0.42027467894820886,0.28862675,0.5824597532972903
0.0055,1.79924375,1.0,590.8454662357229,0.060012197357401154,1.359937759537175,0.46419889902615824,0.2886212375,0.5868775805464246
0.006,1.7991000000000001,1.0,682.5732495453176,0.06528478569060152,1.358145412447084,0.5047031224434841,0.2886152,0.5909817077267479
0.006500000000000001,1.79894375,1.0,773.9385465268102,0.07052779897393918,1.356466275680262,0.5418219110953544,0.2886086375,0.594808017546695
0.007,1.798775,1.0,864.3423711413669,0.07574140309206452,1.3548894813870855,0.5756960575171136,0.28860155,0.5983847449005277
0.0075,1.79859375,1.0,953.2980137449943,0.08092576302156598,1.353405936348244,0.606527456944855,0.2885939375,0.6017354724292758
0.008,1.7984,1.0,1040.4135380748414,0.08608104278620565,1.352007835362019,0.6345479857114292,0.2885858,0.6048803693996992
0.0085,1.79819375,1.0,1125.3590266957651,0.09120740499148518,1.3506886073131033,0.6599989781827049,0.2885771375,0.6078364180510079
0.009000000000000001,1.797975,1.0,1207.919388128926,0.09630501261510506,1.3494417726033152,0.6831175948165307,0.28856795,0.6106200496168781
0.0095,1.79774375,1.0,1287.936090245361,0.10137402778889237,1.3482615430987466,0.7041294892213896,0.2885582375,0.6132458469339283
0.01,1.7975,1.0,1365.2379127584159,0.10641460953405131,1.347143474503635,0.7232449777173887,0.288548,0.6157251534105361
0.0105,1.79724375,1.0,1439.7253261305125,0.11142691687178596,1.346083122522218,0.740656479088285,0.2885372375,0.6180691081162992
0.011,1.796975,1.0,1511.3640291477213,0.11641110882330045,1.3450760428587334,0.7565382200858368,0.28852595000000003,0.6202886627709108
0.0115,1.79669375,1.0,1580.1570847878345,0.12136734372096925,1.3441180521216067,0.7710469477168302,0.2885141375,0.6223940248853035
0.012,1.7964,1.0,1646.1040809029314,0.12629577837430517,1.3432056140138418,0.784323165711051,0.28850180000000003,0.6243938345324678
0.0125,1.79609375,1.0,1709.2161730672353,0.13119656820672415,1.3423355500777283,0.7964922941662405,0.2884889375,0.6262958263806735
0.013000000000000001,1.7957750000000001,1.0,1769.5296185220075,0.1360698680354883,1.3415048123791462,0.8076659768569656,0.28847555,0.6281073441386613
0.0135,1.79544375,1.0,1827.1152776252272,0.14091583310743475,1.3407103312291169,0.8179434303047218,0.2884616375,0.6298356830157701
0.014,1.7951000000000001,1.0,1882.0304148105097,0.14573461653751812,1.33994951225053,0.8274129722121333,0.2884472,0.6314870188795496
0.0145,1.79474375,1.0,1934.3300023058623,0.15052636997914176,1.3392200522697,0.8361531691406701,0.2884322375,0.6330668244200957
0.015,1.794375,1.0,1984.0901235410345,0.15529124508570905,1.338519648112941,0.8442338556333709,0.28841675,0.6345805096986306
0.0155,1.79399375,1.0,2031.391472022826,0.16002939255973223,1.3378461511780384,0.8517172063453424,0.2884007375,0.6360330935401339
0.016,1.7936,1.0,2076.334033423046,0.16474096384586367,1.337197388154694,0.8586585828939677,0.2883842,0.637429596370066
0.0165,1.7931937500000001,1.0,2118.991515117476,0.1694261072848317,1.336571616920664,0.8651074757580098,0.2883671375,0.6387740646792404
0.017,1.792775,1.0,2159.4371968612227,0.17408497027039888,1.3359672276302366,0.8711081069677681,0.28834955,0.6400702230818011
0.0175,1.7923437500000001,1.0,2197.7553446743686,0.17871770019632782,1.335382610437699,0.8767000142370015,0.2883314375,0.6413217621683505
0.018000000000000002,1.7919,1.0,2234.033207660117,0.18332444366812287,1.334816226502863,0.8819186203254131,0.2883128,0.6425321889999477
0.0185,1.79144375,1.0,2268.3633479736327,0.18790534768856598,1.3342665733025267,0.8867957047124146,0.2882936375,0.6437049042493193
0.019,1.790975,1.0,2300.8268888217704,0.1924605574477268,1.333732341386642,0.8913598624633017,0.28827395,0.644842870894738
0.0195,1.79049375,1.0,2331.491997050227,0.19699021581387952,1.3332124158393095,0.8956368669142846,0.2882537375,0.6459486158499078
0.02,1.79,1.0,2360.43258050158,0.2014944656552983,1.3327056817446299,0.8996499437839188,0.288233,0.6470246471136514
0.0205,1.78949375,1.0,2387.7278086058836,0.2059734498402574,1.332211024186704,0.9034200572800232,0.2882117375,0.6480734547475165
0.021,1.788975,1.0,2413.449325743167,0.2104273094234336,1.3317274474834473,0.906966186072764,0.28818995000000003,0.6490972595220559
0.021500000000000002,1.78844375,1.0,2437.6845621750367,0.2148561880698683,1.331253843922359,0.9103054936492566,0.2881676375,0.6500985041028746
0.022,1.7879,1.0,2460.497763260812,0.21926022534673434,1.3307893660251489,0.9134535982391597,0.2881448,0.6510790667241075
0.0225,1.78734375,1.0,2481.945898227069,0.2236395591858534,1.3303332657316456,0.9164247051510794,0.28812143749999997,0.6520406044357974
0.023,1.786775,1.0,2502.088651279814,0.22799432751904716,1.3298847949816772,0.9192317367679292,0.28809755,0.6529847641578341
0.0235,1.78619375,1.0,2520.9881952313403,0.23232466827813725,1.329443205715072,0.9218864661636054,0.28807313749999996,0.6539131830617881
0.024,1.7856,1.0,2538.708165675469,0.23663071920848053,1.3290077575234265,0.9243996365046776,0.2880482,0.654827472861627
0.0245,1.78499375,1.0,2555.3019039538613,0.2409126151696397,1.328577826081516,0.9267810832609502,0.2880227375,0.6557289930087533
0.025,1.784375,1.0,2570.843849081496,0.2451704960323644,1.328152605621199,0.9290397769549216,0.28799675,0.6566194752041385
0.025500000000000002,1.78374375,1.0,2585.376933729629,0.24940449441645718,1.3277316013793978,0.9311839862248178,0.2879702375,0.6574999918918861
0.026000000000000002,1.7831000000000001,1.0,2598.94535599349,0.25361474294172054,1.3273143185930343,0.9332212970575025,0.2879432,0.6583716098341124
0.0265,1.78244375,1.0,2611.5944739298916,0.25780137422795696,1.3269002624990305,0.9351586783614136,0.2879156375,0.6592353902361765
0.027,1.781775,1.0,2623.370705522656,0.261964520894969,1.3264889383343084,0.9370025404417327,0.28788755,0.6600923888563017
0.0275,1.7810937500000001,1.0,2634.3214340751974,0.26610431556255915,1.3260798513357899,0.9387587872221563,0.2878589375,0.6609436560995828
0.028,1.7804,1.0,2644.4857020991963,0.27022088694472546,1.325672591854736,0.9404328739056783,0.2878298,0.6617900603144722
0.0285,1.77969375,1.0,2653.916948351129,0.27431437077106474,1.3252666242343671,0.9420298214907894,0.2878001375,0.6626327269106473
0.029,1.778975,1.0,2662.6495651384444,0.2783848953834962,1.3248615950099158,0.9435542938656458,0.28776995,0.6634723982385632
0.029500000000000002,1.7782437500000001,1.0,2670.7151913033244,0.2824325877412515,1.3244571810819468,0.9450106103174842,0.2877392375,0.6643097501414439
0.03,1.7775,1.0,2678.145948117064,0.2864575748035623,1.324053059351025,0.9464027720238505,0.287708,0.6651454551187537
0.0305,1.77674375,1.0,2684.9743955897247,0.29045998352966024,1.3236489067177146,0.9477344895193389,0.2876762375,0.6659801823355487
0.031,1.775975,1.0,2691.2334910947357,0.294439940878777,1.3232444000825807,0.9490092074662103,0.28764395,0.6668145976251674
0.0315,1.7751937500000001,1.0,2696.956550307629,0.2983975738101442,1.3228392163461877,0.9502301270227752,0.2876111375,0.6676493634852659
0.032,1.7744,1.0,2702.164141387424,0.30233300233401295,1.3224331518012433,0.9514002385361913,0.2875778,0.6684848935571314
0.0325,1.77359375,1.0,2706.8983758944178,0.3062463601633205,1.3220258083059402,0.9525223072062231,0.2875439375,0.6693219986763581
0.033,1.772775,1.0,2711.186738800569,0.3101377718643769,1.321616923738853,0.9535989237170652,0.28750955,0.6701612065202702
0.0335,1.7719437500000002,1.0,2715.049720968935,0.31400735784103223,1.3212063016161408,0.9546325113343457,0.2874746375,0.6710029075321453
0.034,1.7711000000000001,1.0,2718.5079796864593,0.3178552384971364,1.3207937454539622,0.9556253327922275,0.2874392,0.6718474900434264
0.0345,1.7702437500000001,1.0,2721.5823220693655,0.32168153423653967,1.3203790587684758,0.9565795028222307,0.2874032375,0.6726953402507191
0.035,1.7693750000000001,1.0,2724.2936893237916,0.325486365463092,1.3199620450758405,0.9574969995643023,0.28736675,0.6735468421903248
0.035500000000000004,1.76849375,1.0,2726.6631418632164,0.3292698525806434,1.319542507892215,0.9583796749715403,0.2873297375,0.6744023777103118
0.036000000000000004,1.7676,1.0,2728.711845281062,0.33303211599304394,1.3191202507337578,0.9592292643077857,0.2872922,0.6752623264401261
0.0365,1.76669375,1.0,2730.4610571798926,0.3367732761041437,1.3186950771166284,0.9600473948265509,0.2872541375,0.676127065757737
0.037,1.765775,1.0,2731.92670051283,0.34049344893504907,1.318266839749432,0.960835597649772,0.28721555,0.6769968709053233
0.0375,1.76484375,1.0,2733.125632572629,0.34419275432721735,1.3178353834300063,0.9615953108934696,0.2871764375,0.6778720313772351
0.038,1.7639,1.0,2734.079945307438,0.347871315385548,1.3174005059223959,0.9623278824275898,0.28713679999999997,0.6787529299751504
0.0385,1.76294375,1.0,2734.8013845609316,0.351529245606378,1.3169620994003934,0.9630345870742444,0.28709663750000003,0.6796397561980074
0.039,1.761975,1.0,2735.3017332649865,0.3551666584860443,1.3165200560377908,0.9637166248454176,0.28705595,0.6805326981053375
0.0395,1.7609937500000001,1.0,2735.592806510023,0.3587836675208838,1.3160742680083808,0.9643751261367104,0.2870147375,0.681431942292622
0.04,1.76,1.0,2735.686446872495,0.36238038620723356,1.3156246274859555,0.9650111565069756,0.286973,0.6823376738659177
0.0405,1.7589937500000001,1.0,2735.594520000162,0.36595692804143043,1.3151710266443075,0.9656257210809176,0.2869307375,0.6832500764157309
0.041,1.757975,1.0,2735.328910455661,0.36951340651981146,1.3147133576572287,0.9662197686080533,0.28688795,0.684169331990157
0.0415,1.75694375,1.0,2734.901517816902,0.3730499351387136,1.314251512698512,0.966794195208179,0.2868446375,0.6850956210672736
0.042,1.7559,1.0,2734.324253036456,0.3765666273944738,1.3137853839419493,0.9673498478305549,0.28680079999999997,0.6860291225267967
0.0425,1.75484375,1.0,2733.6001927756497,0.3800635836472381,1.3133149438739729,0.9678875319468445,0.2867564375,0.6869698531417388
0.043000000000000003,1.753775,1.0,2732.749311296123,0.3835409306502123,1.312840011573733,0.9684080015305844,0.28671155,0.6879181350718959
0.043500000000000004,1.75269375,1.0,2731.7813652910704,0.3869987801229123,1.3123604989320636,0.9689119755464085,0.28666613750000003,0.6888741030194907
0.044,1.7516,1.0,2730.702394972264,0.3904372381884174,1.3118763516237841,0.9694001369741095,0.2866202,0.6898378230160642
0.0445,1.75049375,1.0,2729.5184428699636,0.3938564109698071,1.311387515323714,0.9698731332706083,0.2865737375,0.6908093600144254
0.045,1.7493750000000001,1.0,2728.2355526480283,0.39725640459016065,1.310893935706673,0.9703315785626458,0.28652675,0.6917887778724973
0.0455,1.74824375,1.0,2726.859767985022,0.40063732517255735,1.3103955584474805,0.9707760556834781,0.2864792375,0.6927761393369793
0.046,1.7471,1.0,2725.39713152111,0.40399927884007664,1.3098923292209559,0.9712071180660822,0.2864312,0.6937715060268198
0.0465,1.7459437500000001,1.0,2723.8536838693067,0.4073423717157978,1.309384193701919,0.9716252915042632,0.28638263750000004,0.694774938416497
0.047,1.744775,1.0,2722.2354626931406,0.41066670992280013,1.3088710975651894,0.9720310757920563,0.28633355,0.6957864958191176
0.0475,1.74359375,1.0,2720.5485018498202,0.41397239958416304,1.308352986485586,0.9724249462509061,0.28628393750000003,0.6968062363693239
0.048,1.7424,1.0,2718.798830597549,0.4172595468229659,1.307829806137929,0.9728073551532893,0.2862338,0.697834217006011
0.0485,1.74119375,1.0,2716.9924728700184,0.42052825776228797,1.3073015021970378,0.9731787330507028,0.2861831375,0.6988704934548596
0.049,1.739975,1.0,2715.13291298988,0.4237786187978532,1.3067680434282707,0.9735394892126554,0.28613195,0.6999150750356844
0.0495,1.73874375,1.0,2713.2288951225983,0.4270107581699138,1.3062293506162628,0.9738900154050576,0.2860802375,0.7009680638429273
0.05,1.7375,1.0,2711.2835913400627,0.43022477631161876,1.3056853952642087,0.9742306851882753,0.286028,0.7020294614864939
0.0505,1.73624375,1.0,2709.299846070992,0.4334207715445144,1.305136151832977,0.9745618548180995,0.2859752375,0.7030992628972017
0.051000000000000004,1.734975,1.0,2707.280500535717,0.43659884219014716,1.3045815947834363,0.9748838642482418,0.28592195,0.7041774621147278
0.051500000000000004,1.73369375,1.0,2705.2283925510174,0.4397590865700633,1.3040216985764557,0.975197038017633,0.2858681375,0.7052640522789755
0.052000000000000005,1.7324,1.0,2703.146356349689,0.44290160300580916,1.3034564376729034,0.9755016860818858,0.2858138,0.7063590256214007
0.0525,1.73109375,1.0,2701.0372224145635,0.44602648981893106,1.3028857865336485,0.9757981045928885,0.28575893750000003,0.7074623734562918
0.053,1.729775,1.0,2698.9038173267336,0.44913384533097545,1.3023097196195594,0.9760865766301863,0.28570355000000003,0.7085740861720133
0.0535,1.72844375,1.0,2696.7489636286655,0.45222376786348856,1.3017282113915052,0.976367372887523,0.2856476375,0.709694153222204
0.054,1.7271,1.0,2694.5754797015056,0.45529635573801686,1.301141236310354,0.9766407523176494,0.2855912,0.7108225631169371
0.0545,1.7257437500000001,1.0,2692.386179656658,0.4583517072761065,1.3005487688369752,0.9769069627382702,0.2855342375,0.7119593034138343
0.055,1.724375,1.0,2690.183873242276,0.461389920799304,1.2999507834322372,0.9771662414017752,0.28547675,0.7131043607091426
0.0555,1.72299375,1.0,2687.9713657640577,0.4644110946291557,1.2993472545570086,0.9774188155312067,0.2854187375,0.7142577206287675
0.056,1.7216,1.0,2685.7453020154007,0.4674152827012111,1.298738213081841,0.9776649020001635,0.2853602,0.7154192603465197
0.0565,1.72019375,1.0,2683.514178027395,0.4704026332897991,1.2981235812869287,0.9779047111080398,0.28530113749999997,0.716589063394949
0.057,1.718775,1.0,2681.2801630167314,0.47337324574330764,1.297503339346811,0.9781384432852022,0.28524155,0.7177671016501794
0.0575,1.71734375,1.0,2679.0440893168134,0.47632720928033173,1.2968774796687497,0.9783662905640419,0.2851814375,0.7189533229130457
0.058,1.7159,1.0,2676.8067878860256,0.4792646131194666,1.296245994660008,0.9785884372098739,0.2851208,0.7201476742598932
0.0585,1.71444375,1.0,2674.5690883037887,0.4821855464793073,1.295608876727848,0.9788050600949058,0.2850596375,0.7213501020398596
0.059000000000000004,1.7129750000000001,1.0,2672.331818767669,0.48509009857844887,1.2949661182795322,0.9790163290513351,0.28499795,0.7225605518721461
0.059500000000000004,1.71149375,1.0,2670.0958060919547,0.4879783586354865,1.2943177117223232,0.9792224072048938,0.2849357375,0.7237789686432891
0.06,1.71,1.0,2667.8618757076415,0.4908504158690152,1.2936636494634837,0.9794234512900623,0.284873,0.7250052965044267
0.0605,1.7084937500000001,1.0,2665.630851663508,0.4937063594976302,1.2930039239102755,0.9796196119481005,0.2848097375,0.7262394788685633
0.061,1.7069750000000001,1.0,2663.403556628523,0.4965462787399265,1.2923385274699617,0.9798110340089542,0.28474595,0.7274814584078267
0.0615,1.7054437500000001,1.0,2661.1808118954114,0.49937026281449926,1.2916674525498046,0.9799978567580238,0.2846816375,0.7287311770507253
0.062,1.7039,1.0,2658.9634373860454,0.5021784009399435,1.2909906915570666,0.9801802141887193,0.2846168,0.7299885759794009
0.0625,1.70234375,1.0,2656.7522516571066,0.5049707823348545,1.2903082368990102,0.9803582352416602,0.2845514375,0.7312535956268755
0.063,1.7007750000000001,1.0,2654.548071907972,0.5077474962178271,1.289620080982898,0.9805320440313193,0.28448555,0.7325261756742973
0.0635,1.69919375,1.0,2652.3517139897094,0.5105086318074566,1.2889262162159922,0.9807017600608572,0.28441913750000003,0.7338062550481814
0.064,1.6976,1.0,2650.163992414418,0.513254278322338,1.2882266350055558,0.980867498425848,0.2843522,0.7350937719176471
0.0645,1.69599375,1.0,2647.9857203674933,0.5159845249810666,1.2875213297588508,0.9810293700075453,0.2842847375,0.7363886636916523
0.065,1.694375,1.0,2645.817709719782,0.5186994610022373,1.2868102928831398,0.9811874816562984,0.28421675,0.7376908670162232
0.0655,1.69274375,1.0,2643.6588673504193,0.5213991519721503,1.2860935343682016,0.9813419355837416,0.2841482375,0.7390002856910416
0.066,1.6911,1.0,2641.5087914559094,0.5240836829755686,1.2853710578329118,0.9814928314030384,0.2840792,0.7403168346662146
0.0665,1.6894437500000001,1.0,2639.3705649002095,0.5267531768484489,1.2846428346917866,0.9816402661899614,0.2840096375,0.7416404867940823
0.067,1.687775,1.0,2637.244169500922,0.5294077132881465,1.2839088649896624,0.9817843320312796,0.28393955,0.7429711619269186
0.0675,1.68609375,1.0,2635.129587152101,0.5320473719920169,1.283169148771376,0.9819251177936948,0.2838689375,0.7443087792860152
0.068,1.6844000000000001,1.0,2633.0267998238005,0.5346722326574156,1.282423686081764,0.9820627092574313,0.2837978,0.7456532574617005
0.0685,1.68269375,1.0,2630.9357895620647,0.5372823749816981,1.2816724769656633,0.9821971892433733,0.2837261375,0.7470045144133541
0.069,1.680975,1.0,2628.856538488961,0.5398778786622196,1.2809155214679107,0.9823286377341086,0.28365395,0.7483624674694255
0.0695,1.67924375,1.0,2626.789028802317,0.5424588233963359,1.2801528196333427,0.9824571319892106,0.28358123749999997,0.7497270333274482
0.07,1.6775,1.0,2624.733242775715,0.5450252888814023,1.2793843715067963,0.9825827466550656,0.283508,0.7510981280540575
0.07050000000000001,1.67574375,1.0,2622.689162758393,0.5475773548147743,1.2786101771331078,0.9827055538695425,0.2834342375,0.7524756670850075
0.07100000000000001,1.673975,1.0,2620.6567711749835,0.5501151008938073,1.2778302365571141,0.9828256233617778,0.28335995,0.7538595652251849
0.07150000000000001,1.67219375,1.0,2618.6360505255716,0.552638606815857,1.277044549823652,0.9829430225473357,0.2832851375,0.7552497366486288
0.07200000000000001,1.6704,1.0,2616.626983385791,0.5551479522782785,1.2762531169775582,0.9830578166189855,0.2832098,0.7566460948985445
0.0725,1.66859375,1.0,2614.629552406141,0.5576432169784274,1.2754559380636694,0.9831700686333282,0.2831339375,0.7580485528873212
0.073,1.6667750000000001,1.0,2612.6437403125983,0.5601244806136595,1.274653013126822,0.9832798395934835,0.28305755,0.7594570228965487
0.0735,1.66494375,1.0,2610.6695299059,0.5625918228813298,1.2738443422118535,0.9833871885280459,0.2829806375,0.7608714165770322
0.074,1.6631,1.0,2608.7069040617707,0.5650453234787941,1.2730299253635997,0.9834921725664953,0.2829032,0.7622916449488112
0.0745,1.6612437500000001,1.0,2606.7558457307205,0.5674850621034077,1.272209762626898,0.9835948470112503,0.2828252375,0.763717618401173
0.075,1.659375,1.0,2604.8163379381417,0.569911118452526,1.2713838540465847,0.9836952654065257,0.28274675,0.7651492466926723
0.0755,1.65749375,1.0,2602.888363783982,0.5723235722235046,1.2705521996674967,0.9837934796041612,0.2826677375,0.7665864389511449
