Time [s],Phi [rad],STIM [ ],Fsee [N],Gamma [ ],Lcerel [ ],q [ ],Lmtc [m],fisomrel [ ]
0.0,1.8,1.0,18.697260822995855,0.000872171712723107,1.3792587647918684,0.005195632755298044,0.288653,0.5413354251548032
0.0005,1.79999375,1.0,19.265039676668838,0.006476488827974234,1.3791940526401436,0.015506291227899014,0.2886527375,0.5414919338084949
0.001,1.799975,1.0,23.2477927232398,0.012049370155365358,1.3787749046990836,0.04024172327765272,0.28865195,0.5425050113845669
0.0015,1.79994375,1.0,34.14541320614115,0.01759099202512644,1.3777903085914758,0.07685120811624341,0.2886506375,0.5448803658621094
0.002,1.7999,1.0,59.49851778599289,0.02310152977761306,1.3759943705133086,0.12205973023298149,0.2886488,0.5491971726476428
0.0025,1.79984375,1.0,106.4680932052033,0.028581157771092745,1.373495003501856,0.17252421819644,0.28864643749999996,0.5551705432370808
0.003,1.7997750000000001,1.0,172.7508699788476,0.03403004938385654,1.3707807334624276,0.22545662503836456,0.28864354999999997,0.5616123969804345
0.0035,1.79969375,1.0,250.8088313107825,0.03944837702187664,1.3681858667543048,0.278727500086903,0.2886401375,0.5677269372524916
0.004,1.7996,1.0,335.31201673810176,0.04483631212368771,1.3657932503535322,0.33076057151088245,0.2886362,0.5733268430988461
0.0045000000000000005,1.7994937500000001,1.0,423.52704714511793,0.050194025179650666,1.3635909599147882,0.3804726236613265,0.2886317375,0.5784490238145501
0.005,1.799375,1.0,513.9001068739325,0.05552168567353124,1.3615527038298252,0.4272006200845537,0.28862675,0.5831621248512204
0.0055,1.79924375,1.0,605.3724546730017,0.060819462270260104,1.3596556739992434,0.47060729317622524,0.2886212375,0.58752486020456
0.006,1.7991000000000001,1.0,697.066521965274,0.06608752244010892,1.357883357737124,0.5105901583493715,0.2886152,0.5915800454553625
0.006500000000000001,1.79894375,1.0,788.3128101771426,0.07132603303897142,1.3562220354937298,0.5472032557180454,0.2886086375,0.5953630785354079
0.007,1.798775,1.0,878.5174990112724,0.07653515964432892,1.354661446278262,0.5805993947571384,0.28860155,0.5989006968233784
0.0075,1.79859375,1.0,967.2216162039648,0.08171506727582967,1.3531925594149432,0.6109866587796928,0.2885939375,0.6022162499168426
0.008,1.7984,1.0,1054.0320477898306,0.08686591967731201,1.3518079874039828,0.6385996201541949,0.2885858,0.6053288903021655
0.0085,1.79819375,1.0,1138.6382235712774,0.09198787969135486,1.3505011777444336,0.6636796650457008,0.2885771375,0.6082554987237404
0.009000000000000001,1.797975,1.0,1220.832604006546,0.09708110990670989,1.349265799320062,0.6864626176727384,0.28856795,0.6110121218919584
0.0095,1.79774375,1.0,1300.4280664392725,0.10214577101799721,1.3480966425504366,0.7071721911008575,0.2885582375,0.6136120135367142
0.01,1.7975,1.0,1377.2963322645778,0.10718202318469888,1.3469888359480517,0.7260158068265817,0.288548,0.6160674353552807
0.0105,1.79724375,1.0,1451.3716974204954,0.11219002599947821,1.3459376561677927,0.7431829712568246,0.2885372375,0.6183901085622896
0.011,1.796975,1.0,1522.6120583617794,0.11716993821745525,1.3449388999106766,0.7588453102560324,0.28852595000000003,0.6205904187768247
0.0115,1.79669375,1.0,1590.9850163211827,0.12212191678480988,1.343988918105457,0.7731572223277013,0.2885141375,0.6226773731525422
0.012,1.7964,1.0,1656.4982230306396,0.127046118221107,1.3430841455819804,0.7862567710731769,0.28850180000000003,0.62465965896136
0.0125,1.79609375,1.0,1719.1957029543007,0.13194269921268992,1.342221086735283,0.7982670368952297,0.2884889375,0.6265456881177356
0.013000000000000001,1.7957750000000001,1.0,1779.1191188672349,0.13681181492502512,1.3413967020362025,0.8092976926894005,0.28847555,0.6283427673431261
0.0135,1.79544375,1.0,1836.3036571462378,0.14165361838844212,1.3406083786187766,0.8194463612243225,0.2884616375,0.6300571824447965
0.014,1.7951000000000001,1.0,1890.8113731200358,0.14646826263327056,1.3398535036170431,0.8287997626703548,0.2884472,0.6316951405587388
0.0145,1.79474375,1.0,1942.7215060261483,0.1512559001486042,1.33912954329686,0.837434974578459,0.2884322375,0.6332626047935689
0.015,1.794375,1.0,1992.120978551269,0.1560166833499823,1.3384341159084219,0.845420570818186,0.28841675,0.634765144098485
0.0155,1.79399375,1.0,2039.0879893252009,0.1607507631478743,1.3377651345737793,0.8528176596751454,0.2884007375,0.6362076335024132
0.016,1.7936,1.0,2083.688333824666,0.16545828818479225,1.3371208115549613,0.8596807598938239,0.2883842,0.637594255154733
0.0165,1.7931937500000001,1.0,2126.0015591159263,0.17013940710324837,1.3364993591139964,0.8660584882997672,0.2883671375,0.6389291496041762
0.017,1.792775,1.0,2166.119535687234,0.17479426851762614,1.33589899219094,0.871994260048238,0.28834955,0.6402164127713992
0.0175,1.7923437500000001,1.0,2204.1256693866376,0.17942301918551845,1.3353181274858434,0.8775269568815146,0.2883314375,0.6414596727659045
0.018000000000000002,1.7919,1.0,2240.1242093299647,0.18402580794916276,1.334755070996699,0.8826913761946824,0.2883128,0.6426627628890145
0.0185,1.79144375,1.0,2274.1807624252174,0.18860277883686466,1.3342086060263527,0.887518855397429,0.2882936375,0.6438284682969457
0.019,1.790975,1.0,2306.36802100988,0.19315407587692984,1.33367751587765,0.8920375498326819,0.28827395,0.644959551650895
0.0195,1.79049375,1.0,2336.765179405009,0.1976798430976639,1.3331605838534366,0.8962727973320471,0.2882537375,0.6460587543572616
0.02,1.79,1.0,2365.4536590891657,0.2021802239128786,1.3326566296198477,0.900247445648832,0.288233,0.6471287205674856
0.0205,1.78949375,1.0,2392.5124229842213,0.20665536116694017,1.3321645486397016,0.9039821402359534,0.2882117375,0.6481719152646153
0.021,1.788975,1.0,2418.023170900896,0.21110539828089842,1.3316832554356417,0.9074955558001025,0.28818995000000003,0.6491907463763229
0.021500000000000002,1.78844375,1.0,2442.0457315027998,0.21553047436955244,1.331211915602595,0.9108046575231359,0.2881676375,0.6501870757744244
0.022,1.7879,1.0,2464.643323618101,0.2199307285477012,1.3307496947354887,0.9139248348563354,0.2881448,0.6511627532920314
0.0225,1.78734375,1.0,2485.8822753847276,0.22430629993014384,1.33029575842925,0.9168700696653349,0.28812143749999997,0.6521196172310155
0.023,1.786775,1.0,2505.831758831794,0.22865732763167926,1.3298492722788067,0.9196530844721308,0.28809755,0.6530594948250691
0.0235,1.78619375,1.0,2524.551395229311,0.23298394784766754,1.329409516662836,0.9222854931715669,0.28807313749999996,0.6539839615177194
0.024,1.7856,1.0,2542.1114861348456,0.23728630172277948,1.3289756919984168,0.9247778829667292,0.2880482,0.6548947515119987
0.0245,1.78499375,1.0,2558.5624443143533,0.24156452419872576,1.3285472052220277,0.9271399631789156,0.2880227375,0.655793156698963
0.025,1.784375,1.0,2573.9523845542612,0.2458187490531651,1.3281235001835485,0.929380625191535,0.28799675,0.65668038465337
0.025500000000000002,1.78374375,1.0,2588.3308827654473,0.2500491100637562,1.3277040207328594,0.9315080172188849,0.2879702375,0.6575576364652986
0.026000000000000002,1.7831000000000001,1.0,2601.7488508414226,0.25425574100815773,1.32728821071984,0.9335296165098246,0.2879432,0.6584261068998902
0.0265,1.78244375,1.0,2614.2584183737504,0.25843877566402845,1.3268755139943709,0.9354522936552476,0.2879156375,0.6592869845373592
0.027,1.781775,1.0,2625.9024530503525,0.26259834482535654,1.3264654704900927,0.9372823834976688,0.28788755,0.6601412518420996
0.0275,1.7810937500000001,1.0,2636.7311052141376,0.26673458340252365,1.3260575612627914,0.9390257143800923,0.2878589375,0.6609900087479625
0.028,1.7804,1.0,2646.7920108736334,0.27084762430081244,1.325651298722095,0.9406876656378588,0.2878298,0.6618342845682809
0.0285,1.77969375,1.0,2656.1184578377033,0.274937595354959,1.325246334599197,0.942273222590061,0.2878001375,0.6626748145082502
0.029,1.778975,1.0,2664.744331258944,0.2790046243996993,1.3248423206252922,0.9437869938359382,0.28776995,0.6635123301363995
0.029500000000000002,1.7782437500000001,1.0,2672.704061362372,0.28304883926976954,1.3244389085315744,0.9452332445794586,0.2877392375,0.6643475594095686
0.03,1.7775,1.0,2680.03257386345,0.28707036779990575,1.324035750049238,0.9466159266083083,0.287708,0.6651812266901398
0.0305,1.77674375,1.0,2686.7652430752205,0.29106933782484407,1.3236324969094768,0.9479387052995573,0.2876762375,0.6660140527555405
0.031,1.775975,1.0,2692.937847704847,0.2950458771793205,1.3232288008434856,0.9492049839792197,0.28764395,0.6668467548000074
0.0315,1.7751937500000001,1.0,2698.578723679189,0.299000108591169,1.3228243849382346,0.9504179332017825,0.2876111375,0.6676798995192937
0.032,1.7744,1.0,2703.7241643576485,0.3029321637531738,1.3224189022942316,0.9515804970087814,0.2875778,0.6685141946536439
0.0325,1.77359375,1.0,2708.397690236603,0.3068421654078685,1.3220121252225816,0.9526954287382046,0.2875439375,0.6693500995205244
0.033,1.772775,1.0,2712.6217866167594,0.3107302353607427,1.3216038374477437,0.9537652960118232,0.28750955,0.6701880476367514
0.0335,1.7719437500000002,1.0,2716.4191304683372,0.31459649541728574,1.321193822694177,0.9547924945073278,0.2874746375,0.6710284702267268
0.034,1.7711000000000001,1.0,2719.812571124043,0.31844106738298705,1.3207818646863405,0.9557792615182542,0.2874392,0.6718717962001095
0.0345,1.7702437500000001,1.0,2722.825112009577,0.32226407306333604,1.3203677471486932,0.9567276882920248,0.2874032375,0.6727184521265019
0.035,1.7693750000000001,1.0,2725.479893410427,0.32606563426382223,1.3199512538056946,0.9576397312690552,0.28736675,0.6735688622071557
0.035500000000000004,1.76849375,1.0,2727.7948247986624,0.32984586782418124,1.3195322170398958,0.9585172262614303,0.2873297375,0.6744233490866357
0.036000000000000004,1.7676,1.0,2729.789788093457,0.3336048932945116,1.3191104521936023,0.9593618925049024,0.2872922,0.6752822681785544
0.0365,1.76669375,1.0,2731.496001463085,0.33734284223831157,1.3186856724109877,0.9601753347761436,0.2872541375,0.6761461804845557
0.037,1.765775,1.0,2732.926500906087,0.34105982937151086,1.3182577568097358,0.9609590721239482,0.28721555,0.6770153068572548
0.0375,1.76484375,1.0,2734.0943796142355,0.34475596941003905,1.317826584507531,0.9617145314343208,0.2871764375,0.6778898666462922
0.038,1.7639,1.0,2735.012781408869,0.34843137706982574,1.3173920346220573,0.9624430540388512,0.28713679999999997,0.678770077673695
0.0385,1.76294375,1.0,2735.6948945017266,0.3520861670668006,1.316953986270999,0.9631459017795664,0.28709663750000003,0.6796561562083019
0.039,1.761975,1.0,2736.153945579014,0.35572045411689324,1.31651231857204,0.9638242625803952,0.28705595,0.6805483169392585
0.0395,1.7609937500000001,1.0,2736.4031942106303,0.3593343529360332,1.3160669106428644,0.9644792555702669,0.2870147375,0.6814467729485828
0.04,1.76,1.0,2736.4559275820675,0.3629279782401502,1.3156176416011567,0.9651119357983412,0.286973,0.6823517356827928
0.0405,1.7589937500000001,1.0,2736.325455551403,0.3665014447451739,1.3151643905646004,0.9657232985778328,0.2869307375,0.6832634149236096
0.041,1.757975,1.0,2736.0251060293917,0.37005486716703373,1.3147070366508802,0.9663142834912867,0.28688795,0.6841820187577219
0.0415,1.75694375,1.0,2735.5657673622986,0.37358835627774717,1.3142454812527058,0.9668857793082832,0.2868446375,0.6851077089038755
0.042,1.7559,1.0,2734.9559094731067,0.3771020204010163,1.3137796478220929,0.9674386275657062,0.28680079999999997,0.6860406014433781
0.0425,1.75484375,1.0,2734.2130900159914,0.3805959842684875,1.313309377361268,0.9679736200809881,0.2867564375,0.6869809759486433
0.043000000000000003,1.753775,1.0,2733.3439833538578,0.38407035500191106,1.312834609737805,0.9684915114023901,0.28671155,0.6879289124687349
0.043500000000000004,1.75269375,1.0,2732.3552687205333,0.38752523972303743,1.3123552848192774,0.9689930160640402,0.28666613750000003,0.6888844899409059
0.044,1.7516,1.0,2731.2536287292905,0.3909607455536168,1.31187134247326,0.969478811103125,0.2866202,0.6898477861732353
0.0445,1.75049375,1.0,2730.0457479636802,0.3943769796153997,1.311382722567326,0.969949538394671,0.2865737375,0.6908188778270399
0.045,1.7493750000000001,1.0,2728.7383116465244,0.39777404903013636,1.31088936496905,0.9704058068188041,0.28652675,0.6917978403990459
0.0455,1.74824375,1.0,2727.3380043902994,0.4011520609195771,1.3103912095460057,0.9708481942740206,0.2864792375,0.6927847482033405
0.046,1.7471,1.0,2725.8515090275564,0.4045111224054724,1.3098881961657671,0.9712772495488081,0.2864312,0.6937796743530837
0.0465,1.7459437500000001,1.0,2724.2855055209516,0.4078513406095724,1.3093802646959083,0.9716934940628374,0.28638263750000004,0.6947826907419953
0.047,1.744775,1.0,2722.646669953879,0.4111728226536276,1.3088673550040035,0.9720974234879864,0.28633355,0.6957938680256086
0.0475,1.74359375,1.0,2720.9416736016947,0.4144756756593883,1.3083494069576262,0.972489509258535,0.28628393750000003,0.6968132756022966
0.048,1.7424,1.0,2719.1742777254085,0.4177599852832025,1.3078263868739217,0.972870199140202,0.2862338,0.697840929668835
0.0485,1.74119375,1.0,2717.3548987162985,0.4210258844250218,1.3072982004192621,0.9732399211177524,0.2861831375,0.6988769643465658
0.049,1.739975,1.0,2715.486838404205,0.4242734731926729,1.3067648179848514,0.9735990832214946,0.28613195,0.6999213853530644
0.0495,1.73874375,1.0,2713.5732608080693,0.4275028509007589,1.30622621119026,0.9739480742918523,0.2860802375,0.7009741950894715
0.05,1.7375,1.0,2711.617326789346,0.4307141168638831,1.3056823516550584,0.9742872650652517,0.286028,0.702035395046662
0.0505,1.73624375,1.0,2709.6221937962828,0.4339073703966487,1.3051332109988165,0.9746170091764816,0.2859752375,0.7031049857957644
0.051000000000000004,1.734975,1.0,2707.591015625792,0.4370827108136588,1.3045787608411052,0.9749376440969116,0.28592195,0.704182966978625
0.051500000000000004,1.73369375,1.0,2705.526942203442,0.4402402374295167,1.3040189728014948,0.9752494920132032,0.2858681375,0.7052693372982268
0.052000000000000005,1.7324,1.0,2703.4331193809503,0.44338004955882554,1.3034538184995557,0.9755528606507846,0.2858138,0.7063640945090521
0.0525,1.73109375,1.0,2701.3126887521175,0.44650224651618853,1.3028832695548582,0.9758480440460058,0.28575893750000003,0.7074672354073951
0.053,1.729775,1.0,2699.1687874860036,0.44960692761620896,1.3023072975869725,0.976135323270594,0.28570355000000003,0.7085787558216252
0.0535,1.72844375,1.0,2697.004548178187,0.45269419217348994,1.3017258742154694,0.9764149671117387,0.2856476375,0.709698650602394
0.054,1.7271,1.0,2694.8230987202455,0.45576413950263467,1.3011389710599188,0.9766872327108804,0.2855912,0.7108269136127978
0.0545,1.7257437500000001,1.0,2692.6275621862724,0.4588168689182464,1.3005465597398917,0.9769523661640384,0.2855342375,0.7119635377184812
0.055,1.724375,1.0,2690.4150033972574,0.4618524432646767,1.299948667295737,0.977210602893175,0.28547675,0.7131084087611967
0.0555,1.72299375,1.0,2688.1927386754223,0.4648709958119101,1.2993452269182033,0.9774621695751895,0.2854187375,0.7142615915857442
0.056,1.7216,1.0,2685.964623280194,0.46787263526487666,1.2987362034021606,0.9777072828758406,0.2853602,0.7154230892119354
0.0565,1.72019375,1.0,2683.7316244246276,0.47085745180798316,1.2981215879585497,0.9779461502802719,0.28530113749999997,0.7165928532942369
0.057,1.718775,1.0,2681.494707747616,0.47382553562563645,1.2975013717983128,0.9781789707510175,0.28524155,0.7177708347516647
0.0575,1.71734375,1.0,2679.254837304301,0.47677697690224335,1.2968755461323913,0.9784059351447443,0.2851814375,0.7189569837646506
0.058,1.7159,1.0,2677.012975558538,0.4797118658222106,1.2962441021717264,0.9786272266053809,0.2851208,0.7201512497718998
0.0585,1.71444375,1.0,2674.7700833766676,0.4826302925699451,1.29560703112726,0.9788430209351436,0.2850596375,0.721353581467242
0.059000000000000004,1.7129750000000001,1.0,2672.5271200230086,0.48553234732985356,1.2949643242099336,0.9790534869448733,0.28499795,0.7225639267964834
0.059500000000000004,1.71149375,1.0,2670.2850431575494,0.48841812028634285,1.2943159726306885,0.9792587867849846,0.2849357375,0.7237822329542468
0.06,1.71,1.0,2668.044808834507,0.49128770162381974,1.2936619676004666,0.9794590762582457,0.284873,0.7250084463808116
0.0605,1.7084937500000001,1.0,2665.8073715035734,0.4941411815266911,1.2930023003302091,0.979654505115517,0.2848097375,0.7262425127589476
0.061,1.7069750000000001,1.0,2663.5736840120617,0.4969786501793637,1.2923369620308576,0.9798452173355036,0.28474595,0.7274843770107429
0.0615,1.7054437500000001,1.0,2661.344697609026,0.4998001977662444,1.2916659439133538,0.9800313513894965,0.2846816375,0.7287339832944273
0.062,1.7039,1.0,2659.12136195171,0.5026059144717399,1.2909892371886391,0.9802130404920207,0.2846168,0.7299912750011923
0.0625,1.70234375,1.0,2656.9046251123477,0.5053958904802571,1.290306833067655,0.9803904128382367,0.2845514375,0.7312561947520047
0.063,1.7007750000000001,1.0,2654.6954335881965,0.5081702159762028,1.2896187227613434,0.9805635918288896,0.28448555,0.7325286843944137
0.0635,1.69919375,1.0,2652.494732312185,0.5109289811439838,1.2889248974806453,0.9807326962835494,0.28441913750000003,0.7338086849993577
0.064,1.6976,1.0,2650.3034646656934,0.5136722761680068,1.2882253484365025,0.9808978406428297,0.2843522,0.7350961368579616
0.0645,1.6959940729387948,1.0,2648.1365943114547,0.516400189104827,1.2875200832868123,0.9810591358339341,0.2842847510634294,0.7363909493199761
0.065,1.6943844143239974,1.0,2646.38785030751,0.5191128018397112,1.2868092811180938,0.981216696870745,0.2842171454016079,0.7376927176802368
0.0655,1.6927747557091999,1.0,2645.1988756367737,0.5218101991413733,1.2860933154763603,0.9813706445038579,0.2841495397397864,0.7390006850757136
0.066,1.6911650970944025,1.0,2644.5271212604894,0.5244924658962952,1.285372575797741,0.9815210960689681,0.2840819340779649,0.7403140720107224
0.0665,1.6895554384796052,1.0,2644.3302197398693,0.5271596869909589,1.2846474515183648,0.9816681648623004,0.28401432841614344,0.7416321056890949
0.067,1.6879457798648076,1.0,2644.569987811767,0.5298119464603989,1.283918294747734,0.981811958456173,0.2839467227543219,0.7429540877153664
0.0675,1.6863361212500103,1.0,2645.2046392393563,0.5324493295672397,1.2831854918582375,0.9819525825139808,0.2838791170925004,0.7442792640338269
0.068,1.6847264626352128,1.0,2646.2012492151644,0.5350719198774098,1.2824493481088768,0.9820901351899165,0.28381151143067895,0.7456070336507352
0.0685,1.6831168040204154,1.0,2647.533760835314,0.5376797994616725,1.2817101058718976,0.9822247082990138,0.28374390576885744,0.7469369140613656
0.069,1.681507145405618,1.0,2649.1761580765956,0.540273050390791,1.2809680075195464,0.9823563906183085,0.28367630010703593,0.7482684271380615
0.0695,1.6798974867908205,1.0,2651.1024497968165,0.5428517547355285,1.280223295424069,0.9824852680146482,0.28360869444521447,0.7496010991762593
0.07,1.6782878281760232,1.0,2653.2866550377184,0.5454159945666482,1.2794762119577119,0.9826114235663422,0.28354108878339296,0.7509344609367605
0.07050000000000001,1.6766781695612258,1.0,2655.707867451222,0.5479658504588348,1.2787269527003826,0.9827349354281426,0.2834734831215715,0.7522681308621131
0.07100000000000001,1.6750685109464283,1.0,2658.341379877631,0.5505014049802202,1.2779757481909129,0.9828558809757854,0.28340587745975,0.7536016690615505
0.07150000000000001,1.673458852331631,1.0,2661.17148388821,0.5530227374476722,1.2772227459240122,0.9829743311597471,0.2833382717979285,0.7549347868059649
0.07200000000000001,1.6718491937168334,1.0,2664.1831243758065,0.5555299269421656,1.2764680872790097,0.9830903543951052,0.283270666136107,0.7562672089167279
0.0725,1.670239535102036,1.0,2667.3612308133106,0.5580230525446752,1.2757119136352346,0.983204016949358,0.2832030604742855,0.7575986628813678
0.073,1.6686298764872387,1.0,2670.6907122834905,0.5605021933361755,1.2749543663720158,0.9833153830274936,0.28313545481246405,0.7589288788678679
0.0735,1.6670202178724411,1.0,2674.1601204402723,0.5629674258723459,1.2741955531894147,0.9834245132105368,0.28306784915064254,0.7602576486324963
0.074,1.6654105592576438,1.0,2677.756001604332,0.5654188288128251,1.273435600014728,0.9835314671425102,0.283000243488821,0.7615847341982962
