Time [s],Phi [rad],STIM [ ],Fsee [N],Gamma [ ],Lcerel [ ],q [ ],Lmtc [m],fisomrel [ ]
0.0,1.8,1.0,17.966662046411617,2.0634280838090704e-05,1.3793398018022673,0.00500011282940724,0.288653,0.5411393965835987
0.0005,1.79999375,1.0,18.27962642973148,0.005629727847639275,1.379302067636515,0.012970065066803326,0.2886527375,0.5412306807610476
0.001,1.799975,1.0,21.629202025049963,0.011207358834399477,1.378937197100486,0.035664017921782365,0.28865195,0.5421128847373324
0.0015,1.79994375,1.0,31.096799957487775,0.016753703722189133,1.378043855895432,0.07067758768295693,0.2886506375,0.5442692698332712
0.002,1.7999,1.0,53.643279007619626,0.022268938000406583,1.3763641825033943,0.11480770114199303,0.2886488,0.5483099557670654
0.0025,1.79984375,1.0,97.22227594957783,0.027753236174422803,1.3739301889572975,0.16467243691101363,0.28864643749999996,0.5541333347779331
0.003,1.7997750000000001,1.0,161.09333217849172,0.033206771773194754,1.371209285450009,0.21738108440645976,0.28864354999999997,0.5605984260066763
0.0035,1.79969375,1.0,237.83644421944248,0.03862971734893718,1.368580018716986,0.2707129765674114,0.2886401375,0.5668009241153896
0.004,1.7996,1.0,321.6299304831891,0.04402224448788431,1.366151771481821,0.3230127145540434,0.2886362,0.572490051788024
0.0045000000000000005,1.7994937500000001,1.0,409.43690904055956,0.04938452381548007,1.3639188437878633,0.373126503829291,0.2886317375,0.5776883773472727
0.005,1.799375,1.0,499.58624751704934,0.05471672498749244,1.3618546718823543,0.4203335308120043,0.28862675,0.5824655498626075
0.0055,1.79924375,1.0,590.9648372161367,0.06001901673703738,1.359935427544128,0.4642533860979023,0.2886212375,0.5868829336690873
0.006,1.7991000000000001,1.0,682.6928619248331,0.06529156681885998,1.3581432383954657,0.504753194926747,0.2886152,0.5909866734426296
0.006500000000000001,1.79894375,1.0,774.057187402594,0.07053454206187067,1.356464250555237,0.5418676972740957,0.2886086375,0.5948126214161138
0.007,1.798775,1.0,864.4624186089394,0.0757481083667621,1.354887542366586,0.5757377544684256,0.28860155,0.5983891335236116
0.0075,1.79859375,1.0,953.4179571065163,0.08093243067371565,1.3534040916064374,0.606565362167418,0.2885939375,0.601739630216291
0.008,1.7984,1.0,1040.53186001262,0.08608767304510248,1.352006093405513,0.6345824192096848,0.2885858,0.6048842799916752
0.0085,1.79819375,1.0,1125.4902054814652,0.09121399857528241,1.3506867503948745,0.6600301317286966,0.2885771375,0.6078405711016677
0.009000000000000001,1.797975,1.0,1208.0500919100475,0.09631156943953177,1.3494399867540245,0.6831458834573618,0.28856795,0.6106240295196019
0.0095,1.79774375,1.0,1288.0297410706996,0.10138054674256992,1.3482603038915237,0.7041554503835096,0.2885582375,0.613248599277371
0.01,1.7975,1.0,1365.3230518210178,0.1064210917512472,1.3471423802819897,0.7232686508226484,0.288548,0.6157275759316149
0.0105,1.79724375,1.0,1439.8168371153756,0.11143336300490579,1.3460819772363966,0.7406780044789785,0.2885372375,0.6180716359443441
0.011,1.796975,1.0,1511.4611872724931,0.11641751904288784,1.345074856065718,0.7565578230050977,0.28852595000000003,0.6202912745893623
0.0115,1.79669375,1.0,1580.2430722830238,0.12137371774089314,1.3441170248941083,0.7710649169319934,0.2885141375,0.6223962792666697
0.012,1.7964,1.0,1646.1855897437522,0.12630211680125397,1.3432046599925376,0.7843396338146961,0.28850180000000003,0.6243959227021897
0.0125,1.79609375,1.0,1709.2964037352824,0.13120287136924472,1.3423346285165034,0.796507397989003,0.2884889375,0.6262978383879707
0.013000000000000001,1.7957750000000001,1.0,1769.608603385757,0.13607613616272013,1.3415039207228368,0.8076798534396601,0.28847555,0.6281092861317935
0.0135,1.79544375,1.0,1827.1801435729747,0.14092206546839253,1.3407096105908551,0.8179562552115007,0.2884616375,0.6298372488872062
0.014,1.7951000000000001,1.0,1882.0858115899898,0.14574081350101287,1.3399489058558522,0.8274248295201452,0.2884472,0.6314883335695438
0.0145,1.79474375,1.0,1934.3901168059713,0.15053253258084195,1.3392194031900997,0.8361640989524759,0.2884322375,0.6330682286331397
0.015,1.794375,1.0,1984.1545113223808,0.1552973735045967,1.3385189616665636,0.8442439481267535,0.28841675,0.6345819916842846
0.0155,1.79399375,1.0,2031.4589360984455,0.16003548706899387,1.3378454403582098,0.851726544541015,0.2884007375,0.6360346250930079
0.016,1.7936,1.0,2076.385546571995,0.164747023028008,1.3371968513031927,0.8586672971296085,0.2883842,0.637430750864836
0.0165,1.7931937500000001,1.0,2119.036416673208,0.16943213216041858,1.336571153706472,0.8651155943578819,0.2883671375,0.6387750589690512
0.017,1.792775,1.0,2159.485902908095,0.17409096191734386,1.3359667298959912,0.8711156529924982,0.28834955,0.6400712895503639
0.0175,1.7923437500000001,1.0,2197.807627218973,0.1787236588131942,1.3353820808329881,0.8767070386715349,0.2883314375,0.6413228949494101
0.018000000000000002,1.7919,1.0,2234.084866841631,0.18333036936237987,1.3348157074787004,0.8819251796497861,0.2883128,0.6425332972753104
0.0185,1.79144375,1.0,2268.405867821384,0.18791123947013386,1.3342661493465786,0.886801859501378,0.2882936375,0.6437058080389375
0.019,1.7909807008772147,1.0,2301.1057615308755,0.19246641487899496,1.3337321551552705,0.8913656825036765,0.288274189436843,0.6448432672685537
0.0195,1.7905176391321276,1.0,2332.545771583845,0.19699604066894477,1.3332128418721414,0.8956424738484693,0.28825474084354935,0.6459477104958269
0.02,1.7900545773870404,1.0,2362.7642481339485,0.20150025873244531,1.332707544493062,0.8996555525059691,0.2882352922502557,0.6470206946345572
0.0205,1.7895915156419535,1.0,2391.8020653070585,0.2059792109619586,1.3322155980139028,0.9034259632908561,0.28821584365696207,0.6480637641462531
0.021,1.7891284538968664,1.0,2419.702991163334,0.21043303924994666,1.3317363374305347,0.9069727294793662,0.2881963950636684,0.6490784516204542
0.021500000000000002,1.7886653921517792,1.0,2446.5087595564937,0.21486188401440937,1.331269143210768,0.9103130832926121,0.28817694647037473,0.6500661822589404
0.022,1.788202330406692,1.0,2472.2671741620006,0.21926588709629796,1.3308133609671797,0.9134626450961767,0.28815749787708106,0.6510284445331583
0.0225,1.7877392686616052,1.0,2497.024443875926,0.223645189491202,1.3303683736277556,0.916435609034625,0.2881380492837874,0.6519666380948714
0.023,1.787276206916518,1.0,2520.814667019795,0.22799992784009043,1.329933698493888,0.9192449100447311,0.2881186006904938,0.6528818705297964
0.0235,1.7868131451714309,1.0,2543.673637380692,0.2323302387839323,1.3295088528669694,0.9219023315471178,0.2880991520972001,0.6537752419716005
0.024,1.786350083426344,1.0,2565.638736431762,0.2366362589636967,1.329093354048392,0.9244186238639058,0.28807970350390644,0.6546478454119251
0.0245,1.7858870216812568,1.0,2586.7488307178996,0.2409181250203526,1.3286867193395484,0.9268036090357256,0.28806025491061277,0.6555007669955515
0.025,1.7854239599361696,1.0,2607.0421949128763,0.24517597276992034,1.3282884844524208,0.929066276486537,0.2880408063173191,0.6563350477548875
0.025500000000000002,1.7849608981910825,1.0,2626.549679889458,0.24940993500528527,1.3278982656167782,0.9312148745086957,0.2880213577240255,0.6571515542267501
0.026000000000000002,1.7844978364459956,1.0,2645.3206421506734,0.25362015258688864,1.3275155179636253,0.9332569479103969,0.2880019091307318,0.6579514843527368
0.0265,1.7840347747009084,1.0,2663.3808448166933,0.2578067560775298,1.3271399250326845,0.9351994597176921,0.28798246053743815,0.6587355530918673
0.027,1.7835717129558213,1.0,2680.756868961122,0.261969876040008,1.3267711703636778,0.9370488146587662,0.2879630119441445,0.6595044713620928
0.0275,1.7831086512107341,1.0,2697.4760645211263,0.2661096430371224,1.326408937496328,0.9388109113804536,0.2879435633508508,0.6602589461814996
0.028,1.7826455894656472,1.0,2713.5665034274484,0.2702261876316725,1.3260529099703569,0.9404911891472694,0.2879241147575572,0.6609996808031326
0.0285,1.78218252772056,1.0,2729.0569349550674,0.2743196403864574,1.3257027713254872,0.9420946696658524,0.2879046661642635,0.6617273748434229
0.029,1.781719465975473,1.0,2743.9767432942667,0.27839013186427636,1.325358205101441,0.9436259945967392,0.28788521757096985,0.6624427244042368
0.029500000000000002,1.781256404230386,1.0,2758.3493828498026,0.2824377886764891,1.3250189538321275,0.945089465873313,0.28786576897767624,0.6631462999039202
0.03,1.7807933424852989,1.0,2772.204330031046,0.2864627424486708,1.3246847101675505,0.9464890639246967,0.2878463203843825,0.6638387722685386
0.0305,1.7803302807402117,1.0,2785.569642021484,0.2904651239124414,1.3243551841601,0.9478284822407943,0.2878268717910889,0.6645207733050625
0.031,1.7798672189951246,1.0,2798.4631938845964,0.29444505705901336,1.3240301814305209,0.949111159845516,0.28780742319779523,0.6651927344454839
0.0315,1.7794041572500376,1.0,2810.9032005148383,0.2984026658795994,1.323709507599558,0.9503402927796548,0.28778797460450156,0.6658550851073077
0.032,1.7789410955049505,1.0,2822.9081975620134,0.30233807436541205,1.323392968287956,0.9515188542845769,0.28776852601120795,0.6665082527484221
0.0325,1.7784780337598634,1.0,2834.497023194157,0.306251406507664,1.3230803691164592,0.9526496130754386,0.2877490774179143,0.6671526629195551
0.033,1.7780149720147762,1.0,2845.6888006979957,0.3101427862975679,1.322771515705813,0.953735149905311,0.2877296288246206,0.6677887393143243
0.0335,1.7775519102696893,1.0,2856.502921916958,0.3140123377263363,1.3224662136767615,0.9547778725983659,0.28771018023132694,0.6684169038168788
0.034,1.7770888485246021,1.0,2866.9590315270243,0.31786018478518185,1.3221642686500499,0.9557800297099589,0.28769073163803327,0.6690375765471253
0.0345,1.776625786779515,1.0,2877.066260823148,0.32168644149164427,1.3218655814326512,0.9567437308093887,0.28767128304473966,0.6696509805134611
0.035,1.776162725034428,1.0,2886.8527342406674,0.32549124263273654,1.3215698862949123,0.9576709367295576,0.287651834451446,0.6702576792993532
0.035500000000000004,1.775699663289341,1.0,2896.330749911906,0.32927470641598655,1.3212770595157426,0.9585634943259819,0.2876323858581523,0.670857943332009
0.036000000000000004,1.7752366015442538,1.0,2905.5115848909836,0.33303694986681537,1.3209869876751559,0.9594231350560363,0.28761293726485865,0.6714520208648895
0.0365,1.7747735397991666,1.0,2914.4066495516813,0.3367780900106439,1.3206995573531655,0.9602514827829077,0.287593488671565,0.6720401591628946
0.037,1.7743104780540797,1.0,2923.027480801858,0.34049824387289324,1.3204146551297848,0.9610500616809713,0.28757404007827136,0.6726226045218784
0.0375,1.7738474163089926,1.0,2931.3857355834502,0.34419752847898444,1.320132167585028,0.9618203034754089,0.2875545914849777,0.6731996022873457
0.038,1.7733843545639054,1.0,2939.4931846580644,0.3478760608543385,1.3198519812989082,0.9625635540789014,0.287535142891684,0.6737713968723306
0.0385,1.7729212928188183,1.0,2947.361706677037,0.35153395802437637,1.3195739828514392,0.9632810796816934,0.28751569429839036,0.6743382317744516
0.039,1.7724582310737313,1.0,2955.0032825373246,0.3551713370145192,1.3192980588226344,0.9639740723455327,0.2874962457050967,0.6749003495921477
0.0395,1.7719951693286442,1.0,2962.4285293736734,0.35878831230494496,1.3190241085366061,0.9646436558159224,0.2874767971118031,0.6754579661110451
0.04,1.771532107583557,1.0,2969.642948373631,0.36238499118561907,1.3187520766376908,0.9652908922561396,0.2874573485185094,0.6760112042065042
0.0405,1.7710690458384701,1.0,2976.6650735029875,0.3659615050201203,1.3184817948179148,0.9659167782394762,0.28743789992521573,0.676560415719259
0.041,1.770605984093383,1.0,2983.5013416147017,0.36951796334221454,1.3182132009252852,0.9665222598168637,0.28741845133192206,0.6771057358319008
0.0415,1.7701429223482958,1.0,2990.1582417656905,0.3730544756856674,1.3179462328078086,0.9671082307257862,0.2873990027386284,0.6776472992452893
0.042,1.7696798606032087,1.0,2996.642312933647,0.3765711515842447,1.3176808283134926,0.9676755358244903,0.2873795541453348,0.6781852401851187
0.0425,1.7692167988581218,1.0,3002.9601418194034,0.380068100571712,1.3174169252903438,0.9682249742667858,0.2873601055520411,0.6787196924082407
0.043000000000000003,1.7687537371130346,1.0,3009.118360735416,0.3835454321818351,1.3171544615863693,0.968757302439476,0.28734065695874744,0.6792507892087379
0.043500000000000004,1.7682906753679475,1.0,3015.123645579182,0.38700325594837975,1.316893375049576,0.9692732366824004,0.2873212083654538,0.6797786634237526
0.044,1.7678276136228606,1.0,3020.98271389305,0.3904416814051116,1.3166336035279709,0.9697734558091998,0.28730175977216016,0.6803034474390681
0.0445,1.7673645518777734,1.0,3026.702323008822,0.3938608180857964,1.3163750848695612,0.9702586034452483,0.2872823111788665,0.680825273194445
0.045,1.7669014901326863,1.0,3032.2892682789284,0.39726077552419986,1.3161177569223539,0.970729290197695,0.2872628625855728,0.6813442721887104
0.0455,1.7664384283875991,1.0,3037.7503813926623,0.40064166325408773,1.3158615575343557,0.9711860956712024,0.28724341399227915,0.681860575484601
0.046,1.7659753666425122,1.0,3043.0868111023965,0.4040035729295699,1.3156064737744708,0.9716295715129463,0.28722396539898554,0.6823742146417229
0.0465,1.765512304897425,1.0,3048.3090842383194,0.40734663060466436,1.315352412166127,0.9720602407578423,0.28720451680569187,0.6828853831026949
0.047,1.765049243152338,1.0,3053.423315221253,0.4106709468416586,1.315099317536538,0.9724786013179142,0.2871850682123982,0.6833941967092092
0.0475,1.7645861814072508,1.0,3058.4329011726454,0.4139766230526591,1.3148471582864112,0.9728851273064079,0.28716561961910453,0.6839007235936593
0.048,1.7641231196621638,1.0,3063.3412572267553,0.41726376064977194,1.3145959028164544,0.9732802699693668,0.28714617102581086,0.6844050316680483
0.0485,1.7636600579170767,1.0,3068.1518158868084,0.4205324610451036,1.3143455195273752,0.9736644590003282,0.28712672243251725,0.6849071886258437
0.049,1.7631969961719896,1.0,3072.868026402143,0.4237828256507603,1.3140959768198814,0.9740381037677309,0.2871072738392236,0.6854072619437643
0.0495,1.7627339344269026,1.0,3077.4933541691657,0.4270149558788484,1.3138472430946802,0.9744015944615793,0.2870878252459299,0.68590531888351
0.05,1.7622708726818155,1.0,3082.0312801526716,0.4302289531414742,1.3135992867524793,0.9747553031653657,0.28706837665263624,0.6864014264934193
0.0505,1.7618078109367283,1.0,3086.485300330692,0.43342491885074397,1.3133520761939865,0.9750995848587493,0.28704892805934257,0.6868956516100704
0.051000000000000004,1.7613447491916412,1.0,3090.858925160722,0.436602954418764,1.3131055798199092,0.975434778356054,0.28702947946604895,0.6873880608598166
0.051500000000000004,1.7608816874465543,1.0,3095.1556790680047,0.43976316125764064,1.312859766030955,0.9757612071852216,0.2870100308727553,0.6878787206602552
0.052000000000000005,1.7604186257014671,1.0,3099.379099956804,0.4429056407794802,1.3126146032278319,0.9760791804114973,0.2869905822794616,0.6883676972216367
0.0525,1.75995556395638,1.0,3103.532738742971,0.4460304943963889,1.3123700598112469,0.9763889934097733,0.28697113368616795,0.6888550565482081
0.053,1.7594925022112928,1.0,3107.619026277855,0.44913781561827015,1.3121261138304534,0.9766909283757268,0.2869516850928743,0.6893408452330958
0.0535,1.759029440466206,1.0,3111.637017425339,0.4522276783509166,1.3118827721535848,0.9769852550345659,0.28693223649958066,0.6898250524036833
0.054,1.7585663787211188,1.0,3115.5959100540254,0.45530022966952916,1.3116399553569147,0.9772722335673077,0.286912787906287,0.6903078387281257
0.0545,1.7581033169760316,1.0,3119.4972750280917,0.4583555617971704,1.3113976490841015,0.9775521114750595,0.2868933393129933,0.6907892351559145
0.055,1.7576402552309447,1.0,3123.342689202766,0.46139376695690293,1.3111558389788045,0.9778251257983415,0.28687389071969965,0.6912692725427177
0.0555,1.7571771934858575,1.0,3127.133735264356,0.4644149373717892,1.310914510684683,0.9780915036459756,0.286854442126406,0.6917479816508425
0.056,1.7567141317407704,1.0,3130.872001574782,0.4674191652648918,1.310673649845395,0.978351462693009,0.28683499353311237,0.692225393149684
0.0565,1.7562510699956833,1.0,3134.559082019866,0.47040654285927325,1.3104332421046003,0.9786052116497249,0.2868155449398187,0.6927015376161563
0.057,1.7557880082505963,1.0,3138.1965758635624,0.4733771623779961,1.3101932731059576,0.9788529507036456,0.28679609634652503,0.6931764455351175
0.0575,1.7553249465055092,1.0,3141.7860876057402,0.47633111604412287,1.3099537284931257,0.9790948719362852,0.2867766477532314,0.6936501472997758
0.058,1.754861884760422,1.0,3145.3292268444993,0.4792684960807161,1.3097145939097636,0.9793311597162894,0.2867571991599377,0.6941226732120862
0.0585,1.754398823015335,1.0,3148.8276081440413,0.4821893947108384,1.3094758549995305,0.9795619910704763,0.2867377505666441,0.6945940534831301
0.059000000000000004,1.753935761270248,1.0,3152.2828509056644,0.4850939041575522,1.309237497406085,0.9797875360341868,0.2867183019733504,0.6950643182334872
0.059500000000000004,1.7534726995251608,1.0,3155.6965792446367,0.48798211664392016,1.3089995067730864,0.9800079579822539,0.28669885338005674,0.6955334974935885
0.06,1.7530096377800737,1.0,3159.07042187121,0.4908541243930047,1.3087618687441933,0.980223413941802,0.2866794047867631,0.6960016212040611
0.0605,1.7525465760349868,1.0,3162.4060119753963,0.4937100196278684,1.308524568963065,0.9804340548880134,0.28665995619346946,0.6964687192160555
0.061,1.7520835142898996,1.0,3165.7049871179015,0.4965498945715739,1.30828759307336,0.9806400260239073,0.2866405076001758,0.6969348212915638
0.0615,1.7516204525448125,1.0,3168.968989123966,0.49937384144718366,1.3080509267187377,0.9808414670451178,0.2866210590068821,0.697399957103721
0.062,1.7511573907997253,1.0,3172.199663983263,0.5021819524777602,1.3078145555428566,0.9810385123905775,0.28660161041358845,0.6978641562370971
0.0625,1.7506943290546384,1.0,3175.396081529462,0.5049742807890798,1.3075784869336888,0.9812312897082571,0.28658216182029483,0.6983274055343833
0.063,1.7502312673095513,1.0,3178.561114943767,0.5077509494055119,1.307342696233385,0.9814199254246881,0.28656271322700116,0.6987897546938561
0.0635,1.749768205564464,1.0,3181.696762787765,0.5105120627438834,1.3071071662011629,0.9816045403125152,0.2865432646337075,0.6992512387368984
0.064,1.749305143819377,1.0,3184.803708828135,0.5132577034482755,1.306871890697983,0.981785249737933,0.2865238160404138,0.6997118708528225
0.0645,1.74884208207429,1.0,3187.8826386930095,0.5159879541627697,1.3066368635848065,0.9819621649061762,0.28650436744712016,0.7001716641928342
0.065,1.748379020329203,1.0,3190.9342398384215,0.5187028975314472,1.3064020787225934,0.9821353930418371,0.28648491885382654,0.700630631870133
0.0655,1.7479159585841157,1.0,3193.959201514029,0.5214026161983893,1.3061675299723043,0.9823050375601148,0.2864654702605329,0.7010887869600068
0.066,1.7474528968390288,1.0,3196.9582147313004,0.5240871928076776,1.3059332111949,0.9824711982295071,0.2864460216672392,0.7015461424999258
0.0665,1.7469898350939417,1.0,3199.931972231444,0.5267567100033931,1.3056991162513412,0.9826339713264362,0.28642657307394553,0.7020027114896333
0.067,1.7465267733488545,1.0,3202.881168454628,0.5294112504296172,1.3054652390025883,0.9827934497822598,0.28640712448065186,0.7024585068912361
0.0675,1.7460637116037674,1.0,3205.806499509934,0.5320508967304313,1.3052315733096016,0.9829497233230952,0.28638767588735825,0.70291354162929
0.068,1.7456006498586805,1.0,3208.708663145855,0.5346757315499167,1.3049981130333421,0.983102878602852,0.2863682272940646,0.7033678285908822
0.0685,1.7451375881135933,1.0,3211.5883587224575,0.5372858375321546,1.3047648520347703,0.9832529993298532,0.2863487787007709,0.7038213806257161
0.069,1.7446745263685062,1.0,3214.446287183444,0.5398812973212266,1.3045317841748465,0.9834001663873913,0.28632933010747724,0.7042742105461886
0.0695,1.7442114646234192,1.0,3217.2831510294836,0.5424621935612137,1.3042989033145318,0.9835444579485529,0.2863098815141836,0.7047263311274656
0.07,1.743748402878332,1.0,3220.099654292698,0.5450286088961975,1.3040662033147863,0.9836859495856183,0.28629043292088996,0.7051777551075608
