Time [s],Phi [rad],STIM [ ],Fsee [N],Gamma [ ],Lcerel [ ],q [ ],Lmtc [m],fisomrel [ ]
0.0,1.8,1.0,17.96649367556003,1.0001746935557152e-05,1.3793398206657381,0.005000026661053524,0.288653,0.5411393509479772
0.0005,1.79999375,1.0,18.275887628874475,0.005619154953839651,1.3793024829330067,0.012940520707207533,0.2886527375,0.5412296761506892
0.001,1.799975,1.0,21.61754431828717,0.011196845246174859,1.3789383876262193,0.03560859178797123,0.28865195,0.542110007599621
0.0015,1.79994375,1.0,31.068314152542627,0.016743249106876905,1.3780462822681598,0.07060172801081284,0.2886506375,0.5442634198444606
0.002,1.7999,1.0,53.58119215756527,0.022258542027229135,1.376368209257075,0.11471786425183317,0.2886488,0.5483002903718832
0.0025,1.79984375,1.0,97.11738713416001,0.027742898514428377,1.3739352419753477,0.16457470297917348,0.28864643749999996,0.5541212844669585
0.003,1.7997750000000001,1.0,160.95653564063602,0.0331964920993004,1.371214404813055,0.21728025572676032,0.28864354999999997,0.5605863063115093
0.0035,1.79969375,1.0,237.681705304262,0.03861949533589217,1.368584784325694,0.27061268910486075,0.2886401375,0.5667897218226456
0.004,1.7996,1.0,321.46520316944026,0.044012079812253926,1.3661561339310357,0.32291560704374467,0.2886362,0.5724798647470581
0.0045000000000000005,1.7994937500000001,1.0,409.2662659020328,0.04937441615562364,1.3639228490225734,0.37303432196614017,0.2886317375,0.5776790815028483
0.005,1.799375,1.0,499.41209221202564,0.054706674023520745,1.3618583723507767,0.42024728678986756,0.28862675,0.582457010075404
0.0055,1.79924375,1.0,590.789075284575,0.06000902215118811,1.3599388612545715,0.46417353730171146,0.2886212375,0.5868750515266655
0.006,1.7991000000000001,1.0,682.5168373577812,0.06528162829479958,1.3581464378502655,0.5046798145259908,0.2886152,0.5909793656095853
0.006500000000000001,1.79894375,1.0,773.879865013855,0.07052465928745509,1.356467277394102,0.541800628107626,0.2886086375,0.594805740265422
0.007,1.798775,1.0,864.2848012515776,0.07573828102039688,1.354890411310336,0.5756766582110444,0.28860155,0.5983826401785095
0.0075,1.79859375,1.0,953.2376703677205,0.08092265840953874,1.3534068644797597,0.6065098484657199,0.2885939375,0.6017333805439566
0.008,1.7984,1.0,1040.3557836931632,0.08607795566511288,1.3520086856682205,0.6345319752030336,0.2885858,0.6048784605042472
0.0085,1.79819375,1.0,1125.3169501155242,0.09120433568158413,1.350689202956489,0.6599843189789795,0.2885771375,0.6078350858729034
0.009000000000000001,1.797975,1.0,1207.883491416056,0.09630196077901725,1.3494422630889698,0.6831042359179683,0.28856795,0.6106189565282503
0.0095,1.79774375,1.0,1287.869437829931,0.10137099206677026,1.3482624250848307,0.7041175633370721,0.2885582375,0.6132438879911756
0.01,1.7975,1.0,1365.1584345656295,0.10641159038709229,1.347144496001615,0.72323421664066,0.288548,0.6157228918870685
0.0105,1.79724375,1.0,1439.6566606794238,0.1114239149912087,1.3460839819136345,0.7406466167839673,0.2885372375,0.6180672112972037
0.011,1.796975,1.0,1511.3082859852755,0.11640812413107865,1.3450767237824257,0.7565291533648332,0.28852595000000003,0.6202871642333785
0.0115,1.79669375,1.0,1580.0950996098243,0.12136437546624776,1.3441187926289313,0.7710386994986327,0.2885141375,0.6223923997436435
0.012,1.7964,1.0,1646.0454502365408,0.1262928269106624,1.3432063002718568,0.7843156033565517,0.28850180000000003,0.6243923324416584
0.0125,1.79609375,1.0,1709.1677136395015,0.1311936336888046,1.342336106712383,0.7964853157130133,0.2884889375,0.626294611100153
0.013000000000000001,1.7957750000000001,1.0,1769.4887964469965,0.13606695035784983,1.3415052732253785,0.8076595356656606,0.28847555,0.6281063404313125
0.0135,1.79544375,1.0,1827.066064137586,0.140912931338988,1.3407108779824908,0.817937540652258,0.2884616375,0.6298344949757662
0.014,1.7951000000000001,1.0,1881.9721361741888,0.14573173028484424,1.3399501502007658,0.8274075817086044,0.2884472,0.631485635773204
0.0145,1.79474375,1.0,1934.27909856768,0.15052350030079484,1.3392206019050135,0.8361481676862724,0.2884322375,0.633065635341838
0.015,1.794375,1.0,1984.047171436723,0.15528839199709127,1.338520106037016,0.844229204268091,0.28841675,0.6345795210736207
0.0155,1.79399375,1.0,2031.3549927432448,0.1600265559839851,1.337846535538555,0.8517128774315811,0.2884007375,0.6360322653845534
0.016,1.7936,1.0,2076.285789551187,0.16473814186655647,1.3371978909410047,0.8586546042995622,0.2883842,0.637428515130543
0.0165,1.7931937500000001,1.0,2118.9398218130186,0.16942330044845205,1.3365721502060874,0.8651037901815996,0.2883671375,0.6387729199797543
0.017,1.792775,1.0,2159.398876155737,0.17408217998907913,1.335967619239099,0.8711046395600985,0.28834955,0.6400693840013132
0.0175,1.7923437500000001,1.0,2197.731875658389,0.17871492659336302,1.335382848173039,0.8766967418350619,0.2883314375,0.6413212536713657
0.018000000000000002,1.7919,1.0,2234.0172192578602,0.18332168636622911,1.3348163871409073,0.8819155459481185,0.2883128,0.6425318459882337
0.0185,1.79144375,1.0,2268.341988388173,0.1879026054126027,1.3342667862757038,0.886792843971275,0.2882936375,0.643704450232503
0.019,1.790975,1.0,2300.789822814072,0.19245782851445653,1.3337327083502244,0.8913572219192253,0.28827395,0.644842089850842
0.0195,1.79049375,1.0,2331.45314119302,0.1969875017024115,1.333212797984781,0.8956343965163818,0.2882537375,0.645947803760056
0.02,1.79,1.0,2360.4054298343826,0.20149176793357249,1.332705947127773,0.8996476000401552,0.288233,0.6470240840108787
0.0205,1.78949375,1.0,2387.712162347955,0.20597076845606221,1.3322111762436162,0.903417830516601,0.2882117375,0.6480731325855644
0.021,1.788975,1.0,2413.4432932212026,0.21042464451800352,1.331727505796727,0.9069640713005814,0.28818995000000003,0.6490971361539619
0.021500000000000002,1.78844375,1.0,2437.672883505368,0.21485353736751908,1.331253956251521,0.9103035120087746,0.2881676375,0.6500982667975617
0.022,1.7879,1.0,2460.4711091765785,0.2192575867115364,1.3307896212017405,0.9134517568440031,0.2881448,0.6510785283967125
0.0225,1.78734375,1.0,2481.912821367196,0.22363693402111287,1.3303335810265435,0.9164229783952834,0.28812143749999997,0.6520399401982782
0.023,1.786775,1.0,2502.0617809621212,0.22799171824653605,1.3298850500814068,0.9192300945931811,0.28809755,0.6529842274642467
0.0235,1.78619375,1.0,2520.97169228615,0.23232207556259715,1.3294433618011399,0.9218848954289925,0.28807313749999996,0.6539128551185054
0.024,1.7856,1.0,2538.698394098151,0.23662814214408742,1.3290078496205529,0.9243981378525106,0.2880482,0.6548272796175373
0.0245,1.78499375,1.0,2555.29967996203,0.24091005416579808,1.3285778469744558,0.9267796505160618,0.2880227375,0.6557289492271401
0.025,1.784375,1.0,2570.8351284686087,0.24516794780252038,1.3281526872976588,0.9290384266291054,0.28799675,0.6566193042708066
0.025500000000000002,1.78374375,1.0,2585.3536171428977,0.2494019559990367,1.3277318191460616,0.9311827241602055,0.2879702375,0.6574995367321848
0.026000000000000002,1.7831000000000001,1.0,2598.918675420205,0.2536122172927144,1.3273145671266142,0.9332201019385299,0.2879432,0.6583710910290725
0.0265,1.78244375,1.0,2611.575816301355,0.257798864464964,1.3269004358761267,0.9351575304713802,0.2879156375,0.659235028775505
0.027,1.781775,1.0,2623.3642131825013,0.26196202809764935,1.3264889985291226,0.9370014311890386,0.28788755,0.6600922635186561
0.0275,1.7810937500000001,1.0,2634.3239324263977,0.2661018387726342,1.3260798282201254,0.938757718078123,0.2878589375,0.6609437041707065
0.028,1.7804,1.0,2644.4958564592453,0.2702184270717824,1.3256724980836583,0.9404318444917957,0.2878298,0.6617902550763699
0.0285,1.77969375,1.0,2653.9216109078175,0.2743119235769576,1.3252665812542448,0.9420288450751438,0.2878001375,0.6626328160688003
0.029,1.778975,1.0,2662.6434957764254,0.2783824588700236,1.3248616508664084,0.9435533733685806,0.28776995,0.6634722825138768
0.029500000000000002,1.7782437500000001,1.0,2670.6950073960315,0.2824301588213535,1.324457366554501,0.9450097457145109,0.2877392375,0.6643093663536932
0.03,1.7775,1.0,2678.122886764269,0.28645515788061454,1.3240532709706652,0.9464019480068111,0.287708,0.6651450177717241
0.0305,1.77674375,1.0,2684.957437278079,0.2904575824776399,1.323649062135459,0.9477336943582679,0.2876762375,0.6659798615396613
0.031,1.775975,1.0,2691.2257906890413,0.29443755718577425,1.3232444705722715,0.9490084362540225,0.28764395,0.6668144523101146
0.0315,1.7751937500000001,1.0,2696.9554066110563,0.29839520657836227,1.3228392268044917,0.9502293811162037,0.2876111375,0.667649341952417
0.032,1.7744,1.0,2702.17404188389,0.30233065522874847,1.322433061355509,0.9513995125788455,0.2875778,0.6684850795437325
0.0325,1.77359375,1.0,2706.909721546697,0.30624402771027764,1.3220257047487123,0.9525216088435677,0.2875439375,0.669322211355533
0.033,1.772775,1.0,2711.1907114218116,0.31013544859629444,1.3216168875074907,0.953598259318284,0.28750955,0.6701612808354402
0.0335,1.7719437500000002,1.0,2715.0444182935657,0.3140050412179993,1.3212063499435749,0.9546318804975867,0.2874746375,0.6710028085329264
0.034,1.7711000000000001,1.0,2718.4918460165222,0.31785292209829197,1.3207938923993245,0.9556247337803271,0.2874392,0.6718471894110032
0.0345,1.7702437500000001,1.0,2721.56666018513,0.32167922705526686,1.3203792013362188,0.9565789251670689,0.2874032375,0.6726950489514241
0.035,1.7693750000000001,1.0,2724.285720374185,0.3254840738130042,1.3199621175798149,0.957496436692232,0.28736675,0.6735466942405636
0.035500000000000004,1.76849375,1.0,2726.6659938045536,0.32926758009558427,1.3195424819556707,0.9583791239375613,0.2873297375,0.6744024305663581
0.036000000000000004,1.7676,1.0,2728.724544145573,0.3330298636270872,1.3191201352893438,0.9592287255502678,0.2872922,0.6752625613932108
0.0365,1.76669375,1.0,2730.4785208793664,0.3367710421315932,1.3186949184063919,0.9600468719409337,0.2872541375,0.6761273883352782
0.037,1.765775,1.0,2731.945149226642,0.34049123333318254,1.3182666721323724,0.9608350932402877,0.28721555,0.676997211128141
0.0375,1.76484375,1.0,2733.1417206346064,0.3441905549559353,1.3178352372928432,0.9615948265855592,0.2871764375,0.6778723275988585
0.038,1.7639,1.0,2734.0855838262883,0.34786912472393183,1.3174004547133615,0.9623274227996881,0.28713679999999997,0.6787530336344112
0.0385,1.76294375,1.0,2734.7941364118533,0.3515270603612522,1.3169621652194854,0.9630341525201103,0.28709663750000003,0.6796396231485193
0.039,1.761975,1.0,2735.2821605190456,0.35516447672325085,1.3165202337581954,0.9637162135026243,0.28705595,0.6805323393547748
0.0395,1.7609937500000001,1.0,2735.5514268564975,0.35878147739114324,1.3160746437161224,0.9643747426758028,0.2870147375,0.6814311849481068
0.04,1.76,1.0,2735.6361838114117,0.3623782016110575,1.3156250838434085,0.9650107919811812,0.286973,0.682336755257785
0.0405,1.7589937500000001,1.0,2735.544936777141,0.3659547590633191,1.3151714768367886,0.9656253689140444,0.2869307375,0.6832491715195077
0.041,1.757975,1.0,2735.2862081257817,0.36951125942825347,1.3147137453929973,0.9662194244705145,0.28688795,0.6841685537650244
0.0415,1.75694375,1.0,2734.868534535578,0.3730478123861863,1.3142518122087694,0.9667938569007754,0.2868446375,0.6850950208019908
0.042,1.7559,1.0,2734.3004644507178,0.3765645276174429,1.3137855999808399,0.9673495151755707,0.28680079999999997,0.6860286901934449
0.0425,1.75484375,1.0,2733.5905556739235,0.3800615148023489,1.3133150314059434,0.967887202190606,0.2867564375,0.6869696782369028
0.043000000000000003,1.753775,1.0,2732.74737309064,0.3835388836212298,1.3128400291808147,0.9684076777311414,0.28671155,0.687918099943071
0.043500000000000004,1.75269375,1.0,2731.7794865271685,0.3869967437544111,1.3123605160021885,0.9689116612169645,0.28666613750000003,0.688874069014179
0.044,1.7516,1.0,2730.6954687396105,0.3904352048822183,1.3118764145667996,0.9693998342460572,0.2866202,0.6898376978219316
0.0445,1.75049375,1.0,2729.503893536885,0.39385437668497686,1.311387647571383,0.9698728429535728,0.2865737375,0.690809097385077
0.045,1.7493750000000001,1.0,2728.213334035283,0.39725436884301235,1.3108941377126733,0.9703313002012305,0.28652675,0.6917883773465987
0.0455,1.74824375,1.0,2726.832361045356,0.4006352910366503,1.3103958076874052,0.970775787610855,0.2864792375,0.692775645950521
0.046,1.7471,1.0,2725.367180094613,0.403997244527308,1.3098926016736994,0.9712068578942038,0.2864312,0.6937709675634754
0.0465,1.7459437500000001,1.0,2723.8237127823154,0.4073403394893546,1.309384466410736,0.9716250375761839,0.28638263750000004,0.694774400330817
0.047,1.744775,1.0,2722.20933704916,0.4106646909686763,1.3088713353546386,0.9720308268031688,0.28633355,0.6957860274114871
0.0475,1.74359375,1.0,2720.5284251950475,0.4139704007678449,1.308353169275107,0.9724247014360906,0.28628393750000003,0.696805876906879
0.048,1.7424,1.0,2718.785346781472,0.4172575706894322,1.3078299289418405,0.9728071142778928,0.2862338,0.6978339759172878
0.0485,1.74119375,1.0,2716.9844681185386,0.42052630253600987,1.307301575124539,0.9731784964012539,0.2861831375,0.6988703505292646
0.049,1.739975,1.0,2715.1301517849647,0.4237766981101498,1.3067680685929022,0.9735392583880346,0.28613195,0.6999150258028715
0.0495,1.73874375,1.0,2713.226756182917,0.4270088592144236,1.3062293701166299,0.9738897914870633,0.2860802375,0.7009680257588398
0.05,1.7375,1.0,2711.2786351267805,0.4302228876514032,1.3056854404654217,0.9742304686963384,0.286028,0.7020293733656287
0.0505,1.73624375,1.0,2709.2901374659455,0.43341888522366023,1.3051362404089772,0.9745616457752172,0.2859752375,0.7030990905263866
0.051000000000000004,1.734975,1.0,2707.265606741723,0.43659695373376656,1.3045817307169962,0.9748836621917097,0.28592195,0.7041771980658138
0.051500000000000004,1.73369375,1.0,2705.2093808786058,0.4397571949842939,1.3040218721591783,0.9751968420095741,0.2858681375,0.7052637157169268
0.052000000000000005,1.7324,1.0,2703.1257919091995,0.442899710777814,1.3034566255052233,0.9755014947195406,0.2858138,0.7063586621077252
0.0525,1.73109375,1.0,2701.0152194005955,0.4460245820097435,1.302885987584146,0.9757979160928736,0.28575893750000003,0.7074619850930373
0.053,1.729775,1.0,2698.8805973354247,0.4491319190321414,1.3023099318739397,0.9760863904884379,0.28570355000000003,0.7085736769463454
0.0535,1.72844375,1.0,2696.7280103613452,0.4522218433097381,1.3017284030021865,0.9763671891316688,0.2856476375,0.7096937845081318
0.054,1.7271,1.0,2694.559076679265,0.4552944479999337,1.3011413863709738,0.9766405710843354,0.2855912,0.7108222749189028
0.0545,1.7257437500000001,1.0,2692.3754120970993,0.4583498262601283,1.300548867382389,0.9769067842844489,0.2855342375,0.7119591145253925
0.055,1.724375,1.0,2690.1786299813502,0.46138807124772213,1.29995083143852,0.9771660661147412,0.28547675,0.7131042688754483
0.0555,1.72299375,1.0,2687.9703412131876,0.4644092761201153,1.2993472639414543,0.9774186439375124,0.2854187375,0.7142577027128996
0.056,1.7216,1.0,2685.752154149378,0.467413534034708,1.2987381502932793,0.9776647355980891,0.2853602,0.7154193799724173
0.0565,1.72019375,1.0,2683.525674587782,0.4704009381489002,1.2981234758960827,0.9779045498989845,0.28530113749999997,0.7165892637743554
0.057,1.718775,1.0,2681.292505737962,0.47337158162009224,1.2975032261519521,0.9781382870466888,0.28524155,0.7177673164195805
0.0575,1.71734375,1.0,2679.054248195738,0.4763255576056842,1.296877386462975,0.9783661390728744,0.2851814375,0.7189534993842901
0.058,1.7159,1.0,2676.81249992318,0.4792629592630762,1.2962459422312391,0.9785882902316818,0.2851208,0.720147773314813
0.0585,1.71444375,1.0,2674.568856233457,0.48218387974966836,1.2956088788588318,0.9788049173746172,0.2850596375,0.7213500980223996
0.059000000000000004,1.7129750000000001,1.0,2672.324909779339,0.4850884122228609,1.2949661817478408,0.979016190304494,0.28499795,0.7225604324779966
0.059500000000000004,1.71149375,1.0,2670.082250547915,0.4879766498400539,1.2943178363003536,0.9792222721097468,0.2849357375,0.7237787348070098
0.06,1.71,1.0,2667.8424658584495,0.4908486857586475,1.293663827918458,0.9794233194803468,0.284873,0.7250049622840506
0.0605,1.7084937500000001,1.0,2665.6071403666137,0.49370461313604186,1.293004142004241,0.9796194830064678,0.2848097375,0.7262390713276738
0.061,1.7069750000000001,1.0,2663.3778560718893,0.49654452512963715,1.292338763959791,0.9798109074609724,0.28474595,0.7274810174950945
0.0615,1.7054437500000001,1.0,2661.153280862374,0.49936847410685,1.291667705989021,0.9799977302938226,0.2846816375,0.7287307056221366
0.062,1.7039,1.0,2658.935584436511,0.5021765926504839,1.2909909480666084,0.980180088286918,0.2846168,0.729988099946736
0.0625,1.70234375,1.0,2656.725773072365,0.5049689777492736,1.2903084808528735,0.9803581108464984,0.2845514375,0.7312531439569412
0.063,1.7007750000000001,1.0,2654.52413765731,0.5077457132173601,1.28962030158665,0.9805319218767583,0.28448555,0.7325257682042661
0.0635,1.69919375,1.0,2652.330968610928,0.5105068828688836,1.2889264075067728,0.9807016406881192,0.28441913750000003,0.7338059025676986
0.064,1.6976,1.0,2650.1465558888294,0.5132525705179851,1.288226795852076,0.9808673821997346,0.2843522,0.735093476252697
0.0645,1.69599375,1.0,2647.9711889875875,0.5159828599788051,1.2875214638613934,0.9810292571316265,0.2842847375,0.7363884177901832
0.065,1.694375,1.0,2645.8051569488316,0.5186978350654844,1.2868104087735601,0.9811873721870517,0.28421675,0.7376906550355337
0.0655,1.69274375,1.0,2643.6487483640335,0.5213975795921635,1.28609362782741,0.9813418302256647,0.2841482375,0.7390001151675747
0.066,1.6911,1.0,2641.502251379428,0.524082177372983,1.2853711182617775,0.9814927304280023,0.2840792,0.7403167246875721
0.0665,1.6894437500000001,1.0,2639.365953701163,0.5267517122220837,1.2846428773154968,0.9816401684517851,0.2840096375,0.7416404094182241
0.067,1.687775,1.0,2637.240142600015,0.5294062679536063,1.2839089022274024,0.9817842365804946,0.28393955,0.7429710945026508
0.0675,1.68609375,1.0,2635.1251049173597,0.5320459283816914,1.2831691902363282,0.9819250238646638,0.2838689375,0.7443087044033869
0.068,1.6844000000000001,1.0,2633.0211270702875,0.5346707773204795,1.282423738581109,0.9820626162562816,0.2837978,0.7456531629013692
0.0685,1.68269375,1.0,2630.9284950573674,0.5372808985841115,1.281672544500579,0.9821970967366963,0.2837261375,0.7470043930949278
0.069,1.680975,1.0,2628.8474944647764,0.5398763759867279,1.2809156052335724,0.9823285454383717,0.28365395,0.7483623173987746
0.0695,1.67924375,1.0,2626.7784104719494,0.5424572933424693,1.2801529180189235,0.9824570397608359,0.28358123749999997,0.7497268575429921
0.07,1.6775,1.0,2624.7215278580793,0.5450237344654766,1.2793844800954668,0.9825826544811288,0.283508,0.7510979345720208
0.07050000000000001,1.67574375,1.0,2622.677131008461,0.5475757831698902,1.2786102887020363,0.9827054618590566,0.2834342375,0.7524754688436479
0.07100000000000001,1.673975,1.0,2620.6450933436286,0.5501135058168399,1.2778303448861774,0.9828255308456862,0.28335995,0.7538593732794251
0.07150000000000001,1.67219375,1.0,2618.6243232947604,0.5526369601893018,1.2770446586529345,0.9829429280048813,0.2832851375,0.7552495443618592
0.07200000000000001,1.6704,1.0,2616.615747849337,0.5551462837616411,1.2762532212839082,0.9830577216377999,0.2832098,0.7566459111296686
0.0725,1.66859375,1.0,2614.6192239176135,0.5576415510149793,1.2754560339859502,0.9831699744892338,0.2831339375,0.7580483843773311
0.073,1.6667750000000001,1.0,2612.634608681867,0.5601228364304377,1.274653097965912,0.9832797472652705,0.28305755,0.7594568742912217
0.0735,1.66494375,1.0,2610.6617595936455,0.5625902144891378,1.273844414430646,0.9833870987113913,0.2829806375,0.760871290450053
0.074,1.6631,1.0,2608.7005343707187,0.5650437596722009,1.273029984587004,0.9834920856870761,0.2829032,0.7622915418253202
0.0745,1.6612437500000001,1.0,2606.7507909948417,0.5674835464607483,1.272209809641837,0.9835947632370953,0.2828252375,0.7637175367817437
0.075,1.659375,1.0,2604.8123877087405,0.5699096493359015,1.2713838908019977,0.9836951846596526,0.28274675,0.7651491830777086
0.0755,1.65749375,1.0,2602.8851830135195,0.5723221427787817,1.2705522292743374,0.9837934015715405,0.2826677375,0.7665863878657091
