Time [s],Phi [rad],STIM [ ],Fsee [N],Gamma [ ],Lcerel [ ],q [ ],Lmtc [m],fisomrel [ ]
0.0,1.8,1.0,18.908918777540382,0.0009903290917902818,1.3792355850239988,0.005251948076799311,0.288653,0.5413914893224023
0.0005,1.79999375,1.0,19.507650977185445,0.0065939834375580144,1.379167885723121,0.01588450058060505,0.2886527375,0.5415552118503131
0.001,1.799975,1.0,23.5779876838393,0.01216620571380213,1.3787424981337446,0.04089820393263576,0.28865195,0.5425832911588344
0.0015,1.79994375,1.0,34.689426144044,0.01770717222777737,1.3777462722892673,0.07772276343902722,0.2886506375,0.5449864597307486
0.002,1.7999,1.0,60.44853062390361,0.023217058301144795,1.3759361145386368,0.12307460932714911,0.2886488,0.5493368551836509
0.0025,1.79984375,1.0,107.88046977866857,0.02869603827098121,1.373430215445658,0.17361731888182486,0.28864643749999996,0.5553248539292396
0.003,1.7997750000000001,1.0,174.4769565940147,0.034144285494758356,1.3707185236285961,0.22657704818943855,0.28864354999999997,0.5617594905568687
0.0035,1.79969375,1.0,252.69582018552848,0.03956197235876733,1.368129389869373,0.2798367923039154,0.2886401375,0.5678595418188879
0.004,1.7996,1.0,337.2842584100531,0.04494927028036401,1.3657421780149348,0.3318310249057467,0.2886362,0.5734459796584559
0.0045000000000000005,1.7994937500000001,1.0,425.5466139641574,0.05030634972961638,1.3635444132867205,0.3814862252244297,0.2886317375,0.5785569501531065
0.005,1.799375,1.0,515.9463459223633,0.05563338018752425,1.361509881260654,0.4281471766190736,0.28862675,0.5832608601750886
0.0055,1.79924375,1.0,607.4194427455926,0.06093053023785405,1.3596161987664999,0.471482591347407,0.2886212375,0.5876154004615219
0.006,1.7991000000000001,1.0,699.1092019908448,0.06619796741621824,1.3578466436450245,0.5113938038764404,0.2886152,0.5916638381122158
0.006500000000000001,1.79894375,1.0,790.3366527771697,0.07143585851369377,1.356187826811471,0.5479376201668705,0.2886086375,0.5954407909162037
0.007,1.798775,1.0,880.5081183415449,0.07664436905929736,1.354629570956286,0.5812684232313536,0.28860155,0.5989727914647973
0.0075,1.79859375,1.0,969.1730666976257,0.08182366413689601,1.3531627767861563,0.6115950437955575,0.2885939375,0.6022833325659808
0.008,1.7984,1.0,1055.9374162461731,0.08697390739961741,1.3517801298291237,0.6391523985752308,0.2885858,0.6053913911269289
0.0085,1.79819375,1.0,1140.4940370484496,0.09209526169702717,1.3504750710448334,0.6641818531150628,0.2885771375,0.6083138538779304
0.009000000000000001,1.797975,1.0,1222.6332978004655,0.09718788955742874,1.3492413346630352,0.6869190604199834,0.28856795,0.6110666140394829
0.0095,1.79774375,1.0,1302.1713661628637,0.10225195171786577,1.348073693178943,0.7075874062891913,0.2885582375,0.6136629595560301
0.01,1.7975,1.0,1378.980799257785,0.10728760828600173,1.3469672881220116,0.7263939516335047,0.288548,0.6161151178994164
0.0105,1.79724375,1.0,1452.9966440074493,0.11229501886558954,1.3459174066056994,0.7435278258804444,0.2885372375,0.6184347825484289
0.011,1.796975,1.0,1524.1771875499928,0.11727434216848552,1.3449198570857828,0.7591602850033066,0.28852595000000003,0.6206323092727143
0.0115,1.79669375,1.0,1592.490180921128,0.12222573511449938,1.3439710023284477,0.7734453770307533,0.2885141375,0.6227166758838107
0.012,1.7964,1.0,1657.9442910639482,0.1271493542504971,1.343067276716831,0.7865208360097029,0.28850180000000003,0.6246965677490348
0.0125,1.79609375,1.0,1720.5826885033866,0.13204535613980656,1.3422052045927606,0.7985094507094465,0.2884889375,0.6265803506046774
0.013000000000000001,1.7957750000000001,1.0,1780.448319455239,0.13691389600107443,1.3413817398761718,0.809520620704677,0.28847555,0.6283753433645337
0.0135,1.79544375,1.0,1837.5767640039248,0.14175512685518968,1.3405942725911002,0.8196517281370959,0.2884616375,0.6300878235910056
0.014,1.7951000000000001,1.0,1892.030398293421,0.14656920172304133,1.3398401927615813,0.8289892793383663,0.2884472,0.6317239903819237
0.0145,1.79474375,1.0,1943.8878015855485,0.1513562730222474,1.3391169793653672,0.8376101658523821,0.2884322375,0.6332897777618275
0.015,1.794375,1.0,1993.2366553176603,0.1561164932680971,1.338422247100011,0.8455827917775489,0.28841675,0.6347907610579693
0.0155,1.79399375,1.0,2040.1537625102962,0.16085001322331066,1.3377539278815056,0.852968122525201,0.2884007375,0.6362317735988989
0.016,1.7936,1.0,2084.7055384004443,0.16555698153409082,1.3371102305648166,0.859820543867197,0.2883842,0.6376170039813016
0.0165,1.7931937500000001,1.0,2126.9721394964863,0.17023754684664033,1.3364893640049087,0.866188555462293,0.2883671375,0.638950599207819
0.017,1.792775,1.0,2167.0456185898856,0.17489185773453875,1.335889543979066,0.8721154703813788,0.28834955,0.6402366525686708
0.0175,1.7923437500000001,1.0,2205.010056055537,0.17952006104610435,1.3353091827435708,0.8776400789425304,0.2883314375,0.6414788009178529
0.018000000000000002,1.7919,1.0,2240.968212012465,0.18412230549637196,1.3347466035152438,0.8827971034911322,0.2883128,0.6426808400351027
0.0185,1.79144375,1.0,2274.985807959874,0.18869873510682006,1.3342005900412113,0.8876178106568304,0.2882936375,0.6438455536227877
0.019,1.790975,1.0,2307.13563681282,0.19324949389892718,1.3336699260685998,0.89213029314848,0.28827395,0.6449757029253034
0.0195,1.79049375,1.0,2337.4969803581475,0.19777472589417175,1.3331533953445363,0.8963598332991581,0.2882537375,0.6460740279668595
0.02,1.79,1.0,2366.1511433769747,0.20227457447229621,1.3326498198478094,0.90032923002741,0.288233,0.6471431675867984
0.0205,1.78949375,1.0,2393.177364241253,0.20674918252278132,1.3321580933849635,0.9040590845352325,0.2882117375,0.648185589919853
0.021,1.788975,1.0,2418.656979812931,0.2111986933812974,1.3316771349337833,0.9075680333923595,0.28818995000000003,0.6492036931189954
0.021500000000000002,1.78844375,1.0,2442.6497756150493,0.2156232461538738,1.331206111270082,0.9108730071049258,0.2881676375,0.6501993362798155
0.022,1.7879,1.0,2465.218918566797,0.2200229799465398,1.3307441891696725,0.9139893641682107,0.2881448,0.6511743664875507
0.0225,1.78734375,1.0,2486.4306768582737,0.22439803386532478,1.330290535408368,0.9169310587690865,0.28812143749999997,0.6521306193228749
0.023,1.786775,1.0,2506.3541552184493,0.22874854701625802,1.3298443167619816,0.9197107886421311,0.28809755,0.6530699193234106
0.0235,1.78619375,1.0,2525.048759194891,0.23307465556732668,1.3294048161180136,0.9223401456759477,0.28807313749999996,0.6539938364740359
0.024,1.7856,1.0,2542.5852231206395,0.2373765006708608,1.3289712302287955,0.9248296962005245,0.2880482,0.6549041125055894
0.0245,1.78499375,1.0,2559.01374950165,0.24165421720084435,1.328542968396863,0.9271891317790221,0.2880227375,0.6558020341740366
0.025,1.784375,1.0,2574.3823920036416,0.24590793893128787,1.3281194753774188,0.9294273275735441,0.28799675,0.65668880700908
0.025500000000000002,1.78374375,1.0,2588.740661346848,0.2501377996362019,1.3277001959256656,0.9315524171616298,0.2879702375,0.6575656300710473
0.026000000000000002,1.7831000000000001,1.0,2602.139400521367,0.2543439330895971,1.3272845747968054,0.9335718645656294,0.2879432,0.6584336961099309
0.0265,1.78244375,1.0,2614.63066683756,0.2585264730654839,1.326872056746041,0.9354925284069205,0.2879156375,0.6592941917047607
0.027,1.781775,1.0,2626.2573716139973,0.26268555027608337,1.3264621815033362,0.937320732466852,0.28788755,0.6601480996431213
0.0275,1.7810937500000001,1.0,2637.070042001373,0.26682129982629826,1.3260544268282148,0.9390622947098692,0.2878589375,0.6609965266126413
0.028,1.7804,1.0,2647.11507369666,0.27093385435144135,1.3256483167662898,0.9407225870428261,0.2878298,0.6618404776380171
0.0285,1.77969375,1.0,2656.4258869196187,0.27502334169854686,1.3252435019288251,0.9423065862920057,0.2878001375,0.6626806902202627
0.029,1.778975,1.0,2665.036499361928,0.2790898897146489,1.3248396329270853,0.943818893320374,0.28776995,0.6635178982136368
0.029500000000000002,1.7782437500000001,1.0,2672.9814737768243,0.2831336262467817,1.3244363603723341,0.9452637662758365,0.2877392375,0.6643528318506152
0.03,1.7775,1.0,2680.295868275212,0.28715467914197934,1.324033334875836,0.9466451505024122,0.287708,0.6651862177590699
0.0305,1.77674375,1.0,2687.0151893287516,0.2911531762472761,1.323630207048855,0.9479667054855752,0.2876762375,0.6660187789716685
0.031,1.775975,1.0,2693.1753474791626,0.29512924540970614,1.3232266275026552,0.9492318291580704,0.28764395,0.6668512349274867
0.0315,1.7751937500000001,1.0,2698.8049115727513,0.2990830091647591,1.3228223172736546,0.9504436869484233,0.2876111375,0.6676841564734307
0.032,1.7744,1.0,2703.9400002858956,0.30301459949980125,1.3224169311370388,0.9516052188020021,0.2875778,0.6685182478194323
0.0325,1.77359375,1.0,2708.6036080393333,0.30692413879529656,1.3220102462657541,0.9527191744703186,0.2875439375,0.6693539582266211
0.033,1.772775,1.0,2712.8182589157723,0.3108117488888276,1.321602046073941,0.9537881177883449,0.28750955,0.6701917218145876
0.0335,1.7719437500000002,1.0,2716.6066683530153,0.31467755161797717,1.3211921139757403,0.9548144409468722,0.2874746375,0.6710319704075097
0.034,1.7711000000000001,1.0,2719.9917238319804,0.3185216688203279,1.3207802333852927,0.9558003780253038,0.2874392,0.6718751335117257
0.0345,1.7702437500000001,1.0,2722.9964666055344,0.32234422233346244,1.3203661877167392,0.956748017305303,0.2874032375,0.6727216382903158
0.035,1.7693750000000001,1.0,2725.6440744666897,0.3261453339949635,1.31994976038422,0.9576593124879421,0.28736675,0.6735719095346944
0.035500000000000004,1.76849375,1.0,2727.9505655077755,0.32992511916228606,1.319530800993521,0.9585360983324697,0.2873297375,0.6744262347462976
0.036000000000000004,1.7676,1.0,2729.938857556931,0.33368370041668477,1.3191090972989297,0.9593800895396565,0.2872922,0.6752850255773668
0.0365,1.76669375,1.0,2731.6388624491897,0.33742120765521855,1.3186843743501169,0.9601928895981877,0.2872541375,0.6761488187024062
0.037,1.765775,1.0,2733.0635390985926,0.34113775556304915,1.3182565119810727,0.9609760156208382,0.28721555,0.6770178334873767
0.0375,1.76484375,1.0,2734.2259033427113,0.3448334588253384,1.3178253900257884,0.9617308926973925,0.2871764375,0.6778922878027919
0.038,1.7639,1.0,2735.139021426543,0.34850843212724786,1.3173908883182543,0.9624588604914462,0.28713679999999997,0.6787723979992009
0.0385,1.76294375,1.0,2735.816003806927,0.3521627901539394,1.3169528866924616,0.9631611792947663,0.28709663750000003,0.6796583788817463
0.039,1.761975,1.0,2736.269999276745,0.35579664759057467,1.3165112649824007,0.9638390355892256,0.28705595,0.6805504436838028
0.0395,1.7609937500000001,1.0,2736.5141894098388,0.35941011912231546,1.3160659030220625,0.9644935471612435,0.2870147375,0.6814488040396944
0.04,1.76,1.0,2736.561783325523,0.3630033194343234,1.3156166806454375,0.9651257678091362,0.286973,0.6823536699564922
0.0405,1.7589937500000001,1.0,2736.4260127736106,0.36657636321176035,1.3151634776865169,0.9657366916797662,0.2869307375,0.6832652497848865
0.041,1.757975,1.0,2736.120127539298,0.3701293651397879,1.314706173979291,0.9663272572672761,0.28688795,0.6841837501891463
0.0415,1.75694375,1.0,2735.65609228699,0.3736624377001972,1.3142446611507996,0.9668983517302598,0.2868446375,0.6851093524815661
0.042,1.7559,1.0,2735.040922005798,0.377175685563449,1.3137788758674327,0.9674508161181605,0.28680079999999997,0.6860421462352368
0.0425,1.75484375,1.0,2734.2933099265897,0.3806692356816863,1.3133086488266599,0.9679854408326201,0.2867564375,0.6869824316658568
0.043000000000000003,1.753775,1.0,2733.4198860588785,0.3841431951421033,1.3128339203009878,0.9685029795922602,0.28671155,0.687930287975495
0.043500000000000004,1.75269375,1.0,2732.427285221475,0.38759767103189413,1.3123546305629226,0.9690041461543434,0.28666613750000003,0.6888857932586102
0.044,1.7516,1.0,2731.3221455667003,0.39103277043825285,1.3118707198849708,0.9694896168281096,0.2866202,0.6898490244847897
0.0445,1.75049375,1.0,2730.111107185236,0.3944486004483737,1.3113821285396392,0.969960032806021,0.2865737375,0.6908200574812615
0.045,1.7493750000000001,1.0,2728.8008107888913,0.39784526814945076,1.3108887967994343,0.9704160023277707,0.28652675,0.6917989669151788
0.0455,1.74824375,1.0,2727.3978964731778,0.4012228806286781,1.3103906649368622,0.9708581026905702,0.2864792375,0.6927858262756779
0.046,1.7471,1.0,2725.909002558595,0.40458154497324994,1.3098876732244296,0.9712868821180218,0.2864312,0.6937807078557052
0.0465,1.7459437500000001,1.0,2724.3407645111647,0.40792136827036035,1.3093797619346432,0.9717028614987857,0.28638263750000004,0.6947836827336208
0.047,1.744775,1.0,2722.6998139419325,0.41124245760720346,1.3088668713400091,0.9721065360052702,0.28633355,0.6957948207545734
0.0475,1.74359375,1.0,2720.992777685991,0.4145449200709734,1.3083489417130343,0.9724983766016816,0.28628393750000003,0.6968141905116447
0.048,1.7424,1.0,2719.2232757226666,0.4178288405380919,1.3078259406578292,0.9728788305801176,0.2862338,0.6978418056700338
0.0485,1.74119375,1.0,2717.4021558162344,0.42109435313418575,1.3072977699130974,0.9732483253650596,0.2861831375,0.6988778080562406
0.049,1.739975,1.0,2715.5326572204226,0.4243415577611273,1.3067644004376673,0.9736072685889783,0.28613195,0.6999222022452759
0.0495,1.73874375,1.0,2713.6179036325157,0.4275705536745478,1.3062258042164332,0.9739560487213693,0.2860802375,0.7009749898979551
0.05,1.7375,1.0,2711.6610156320544,0.4307814401300786,1.3056819532342894,0.9742950361486954,0.286028,0.7020361717693551
0.0505,1.73624375,1.0,2709.6651104294438,0.4339743163833509,1.30513281947613,0.9746245841753911,0.2859752375,0.7031057476994498
0.051000000000000004,1.734975,1.0,2707.6333016322924,0.43714928168999595,1.3045783749268491,0.974945029960825,0.28592195,0.7041837166036982
0.051500000000000004,1.73369375,1.0,2705.5686990287613,0.44030643530564506,1.3040185915713414,0.9752566953968497,0.2858681375,0.7052700764635775
0.052000000000000005,1.7324,1.0,2703.4744083889677,0.4434458764859295,1.3034534413945007,0.9755598879301907,0.2858138,0.7063648243170738
0.0525,1.73109375,1.0,2701.3535312831996,0.4465677044864805,1.3028828963812213,0.9758549013336035,0.28575893750000003,0.7074679562491146
0.053,1.729775,1.0,2699.2091649175018,0.4496720185629294,1.3023069285163977,0.9761420164293938,0.28570355000000003,0.7085794673819567
0.0535,1.72844375,1.0,2697.044401987379,0.45275891797090745,1.3017255097849236,0.9764215017686381,0.2856476375,0.7096993518655228
0.054,1.7271,1.0,2694.8623305480855,0.4558285019660459,1.3011386121716937,0.9766936142691656,0.2855912,0.7108276028676859
0.0545,1.7257437500000001,1.0,2692.6660339026757,0.458880869803976,1.300546207661602,0.9769585998151351,0.2855342375,0.7119642125645067
0.055,1.724375,1.0,2690.4573821778577,0.4619161178487311,1.2999482793022048,0.9772166942036928,0.28547675,0.7131091509682607
0.0555,1.72299375,1.0,2688.237929439953,0.464934342351014,1.2993448130090413,0.9774681234429263,0.2854187375,0.7142623817748155
0.056,1.7216,1.0,2686.0099316477626,0.46793563890836204,1.298735788243772,0.977713103648478,0.2853602,0.7154238801733808
0.0565,1.72019375,1.0,2683.7749641548853,0.47092010098896453,1.298121190673441,0.9779518421367418,0.28530113749999997,0.716593608646205
0.057,1.718775,1.0,2681.5345997511267,0.47388782206101066,1.297501005965093,0.978184537700874,0.28524155,0.7177715288576456
0.0575,1.71734375,1.0,2679.2904086415874,0.4768388955926897,1.2968752197857725,0.9784113810278846,0.2851814375,0.7189576016490731
0.058,1.7159,1.0,2677.043958430826,0.47977341505219095,1.296243817802524,0.9786325550920671,0.2851208,0.7201517870337533
0.0585,1.71444375,1.0,2674.796814111124,0.48269147390770367,1.2956067856823916,0.9788482355262897,0.2850596375,0.7213540441917239
0.059000000000000004,1.7129750000000001,1.0,2672.5478905910436,0.48559316541428243,1.2949641334119208,0.9790585922961039,0.28499795,0.7225642857160541
0.059500000000000004,1.71149375,1.0,2670.300670320927,0.4884785810818057,1.2943158290195635,0.9792637862215396,0.2849357375,0.7237825025144358
0.06,1.71,1.0,2668.0589775205463,0.49134781179274406,1.2936618373378437,0.9794639715980733,0.284873,0.7250086903423528
0.0605,1.7084937500000001,1.0,2665.818566579055,0.49420094831409916,1.2930021973628518,0.9796593006948575,0.2848097375,0.7262427051675397
0.061,1.7069750000000001,1.0,2663.5825040859318,0.4970380811239422,1.2923368808736895,0.9798499163212452,0.28474595,0.7274845283196503
0.0615,1.7054437500000001,1.0,2661.3546848140936,0.4998592998083164,1.291665851978461,0.980035955346722,0.2846816375,0.7287341543038218
0.062,1.7039,1.0,2659.128731701299,0.5026646936128224,1.2909891693197517,0.9802175543594535,0.2846168,0.7299914009521711
0.0625,1.7023440190595565,1.0,2656.9258030449855,0.5054543515020521,1.2903067594672706,0.9803948379466842,0.28455144880050137,0.731256331019172
0.063,1.7007841126071097,1.0,2655.131958132006,0.5082283615650027,1.2896188149395313,0.980567939639712,0.2844859327294986,0.7325285141359104
0.0635,1.699224206154663,1.0,2653.8988625107127,0.510986811502943,1.28892570663537,0.9807369971391715,0.2844204166584958,0.7338071940218497
0.064,1.6976642997022162,1.0,2653.180625353097,0.5137297889113929,1.288227854041188,0.9809021456265747,0.2843549005874931,0.7350915311059045
0.0645,1.6961043932497695,1.0,2652.936034754279,0.5164573803928147,1.287525635196787,0.9810635133097704,0.28428938451649033,0.7363807688287123
0.065,1.6945444867973227,1.0,2653.1273490148883,0.5191696720936133,1.286819397457509,0.981221222301572,0.2842238684454875,0.737674213144488
0.0655,1.6929845803448762,1.0,2653.7270823784384,0.5218667475200234,1.2861093946342097,0.9813753856225985,0.2841583523744848,0.7389713466264224
0.066,1.6914246738924295,1.0,2654.6849959644487,0.5245486965050399,1.2853960910433502,0.9815261231195666,0.28409283630348203,0.7402712730139533
0.0665,1.6898647674399827,1.0,2655.971975706293,0.5272156038109429,1.2846797567444326,0.9816735407319234,0.2840273202324793,0.7415734569513096
0.067,1.688304860987536,1.0,2657.5660007475253,0.529867552378329,1.2839605967915981,0.9818177375097257,0.28396180416147654,0.7428774855540798
0.0675,1.6867449545350892,1.0,2659.4450792942407,0.5325046251477947,1.2832388162389883,0.9819588091331182,0.28389628809047374,0.7441829495393388
0.068,1.6851850480826425,1.0,2661.587236234958,0.5351269050599365,1.2825146201407442,0.9820968480559482,0.283830772019471,0.7454894432612595
0.0685,1.6836251416301957,1.0,2663.9705016923267,0.5377344750553508,1.2817882135510072,0.9822319436423528,0.28376525594846824,0.7467965647440432
0.069,1.682065235177749,1.0,2666.572900507152,0.5403274180746341,1.2810598015239187,0.9823641822967024,0.28369973987746544,0.7481039157121665
0.0695,1.6805053287253022,1.0,2669.3724426553813,0.5429058170583831,1.2803295891136204,0.9824936475872658,0.2836342238064627,0.749411101617949
0.07,1.6789454222728555,1.0,2672.357509419442,0.545469750409183,1.279597685884312,0.9826204156497025,0.28356870773545995,0.7507179019392141
0.07050000000000001,1.6773855158204087,1.0,2675.501767272072,0.5480193054332183,1.2788643364327203,0.9827445669166232,0.28350319166445714,0.7520238579908756
0.07100000000000001,1.675825609367962,1.0,2678.7937519115394,0.5505545615083559,1.278129648495112,0.9828661725058502,0.2834376755934544,0.7533287583800559
0.07150000000000001,1.6742657029155152,1.0,2682.2232191634366,0.553075597379049,1.277393718470598,0.9829853007046546,0.28337215952245165,0.7546324137533631
0.07200000000000001,1.6727057964630685,1.0,2685.779908773973,0.5555824917897506,1.2766566427582897,0.9831020176292454,0.28330664345144885,0.7559346365360716
0.0725,1.6711458900106217,1.0,2689.4535418584287,0.558075323484914,1.2759185177572983,0.9832163873105496,0.2832411273804461,0.7572352409394627
0.073,1.669585983558175,1.0,2693.233818555247,0.5605541712089922,1.2751794398667349,0.9833284717760854,0.28317561130944335,0.7585340429675703
0.0735,1.6680260771057283,1.0,2697.110415886265,0.5630191137064385,1.2744395054857107,0.9834383311281335,0.28311009523844055,0.7598308604233373
0.074,1.6664661706532815,1.0,2701.072985823627,0.5654702297217059,1.2736988110133372,0.9835460236183943,0.2830445791674378,0.7611255129141759
