Time [s],Phi [rad],STIM [ ],Fsee [N],Gamma [ ],Lcerel [ ],q [ ],Lmtc [m],fisomrel [ ]
0.0,1.8,1.0,18.019123145026413,0.0002350229873996225,1.3793339286078028,0.005014358675544323,0.288653,0.5411536052518189
0.0005,1.79999375,1.0,18.401778356832928,0.005842914003139259,1.3792885225956049,0.013577022909678927,0.2886527375,0.5412634458776893
0.001,1.799975,1.0,21.910575479732504,0.0114193491841449,1.378908558970019,0.03679081062620386,0.28865195,0.5421820916430602
0.0015,1.79994375,1.0,31.722760452919445,0.016964504973759172,1.3779908154398992,0.07221372502777729,0.2886506375,0.5443971410812503
0.002,1.7999,1.0,54.95453268960295,0.02247855682347085,1.3762796767117547,0.1166229497794289,0.2886488,0.5485127707069433
0.0025,1.79984375,1.0,99.39488243148155,0.027961679201762308,1.3738261300243948,0.16664473561272725,0.28864643749999996,0.5543814557110468
0.003,1.7997750000000001,1.0,163.89992418800097,0.03341404559992395,1.371104729552514,0.2194141844797292,0.28864354999999997,0.5608459174226894
0.0035,1.79969375,1.0,240.99634889097382,0.0388358285332732,1.3684830376901274,0.2727339951474719,0.2886401375,0.5670288613987762
0.004,1.7996,1.0,324.98516891790194,0.04422719955138425,1.3660631570811126,0.3249688158693317,0.2886362,0.5726969548080635
0.0045000000000000005,1.7994937500000001,1.0,412.90690002204747,0.0495883292434573,1.3638375785192998,0.37498280369042986,0.2886317375,0.577876965743662
0.005,1.799375,1.0,503.1234515847798,0.05491938723018283,1.3617796521415506,0.4220698651872237,0.28862675,0.5826386584704677
0.0055,1.79924375,1.0,594.530608748391,0.06022054220169246,1.3598658760545852,0.4658607193639328,0.2886212375,0.5870425741437051
0.006,1.7991000000000001,1.0,686.2597951986486,0.06549196188492512,1.3580784938009884,0.5062301776227932,0.2886152,0.5911345417003044
0.006500000000000001,1.79894375,1.0,777.5977231144424,0.07073381305445144,1.356403887103242,0.5432181011529084,0.2886086375,0.5949498381941949
0.007,1.798775,1.0,867.9570247770189,0.07594626163115979,1.354831155973934,0.5769683632909806,0.28860155,0.5985167434636534
0.0075,1.79859375,1.0,956.8466789564624,0.08112947238202813,1.3533514064786332,0.6076846379404126,0.2885939375,0.6018583658787364
0.008,1.7984,1.0,1043.890794463644,0.08628360959001294,1.3519566838265304,0.6355993845565185,0.2885858,0.6049951935900246
0.0085,1.79819375,1.0,1128.7678212094413,0.09140883607873651,1.3506403887631027,0.6609539675257184,0.2885771375,0.6079442530869268
0.009000000000000001,1.797975,1.0,1211.2320630919112,0.09650531392452315,1.3493965401885069,0.6839854828281932,0.28856795,0.6107208472713683
0.0095,1.79774375,1.0,1291.12556724239,0.10157320488875454,1.3482193646045773,0.7049190025267763,0.2885582375,0.6133395220484199
0.01,1.7975,1.0,1368.3091840089446,0.10661266890361965,1.3471040235651957,0.7239639446905826,0.288548,0.6158124898751662
0.0105,1.79724375,1.0,1442.6925469955818,0.11162386531194772,1.346046005439341,0.7413119870531221,0.2885372375,0.618151027166695
0.011,1.796975,1.0,1514.2400505018268,0.11660695286981931,1.345040928197519,0.7571366900936345,0.28852595000000003,0.6203659370809773
0.0115,1.79669375,1.0,1582.9385385182381,0.12156208965547459,1.344084838357483,0.771594241658611,0.2885141375,0.622466913305181
0.012,1.7964,1.0,1648.774788095588,0.12648943175521285,1.3431743669682505,0.7848245886904012,0.28850180000000003,0.6244622253059328
0.0125,1.79609375,1.0,1711.7734756486861,0.1313891350126064,1.3423061865220909,0.7969525077021273,0.2884889375,0.6263599319792843
0.013000000000000001,1.7957750000000001,1.0,1771.9872675591316,0.1362613548717612,1.341477077415085,0.8080890574037177,0.28847555,0.6281677474491455
0.0135,1.79544375,1.0,1829.478257309507,0.14110624633506066,1.340684087590858,0.8183330452652877,0.2884616375,0.6298927055560731
0.014,1.7951000000000001,1.0,1884.2880610426048,0.14592396153112108,1.3399248064025362,0.8277724460606068,0.2884472,0.6315405803322649
0.0145,1.79474375,1.0,1936.4819435042355,0.1507146525885588,1.3391968232032454,0.8364854182901477,0.2884322375,0.6331170763036553
0.015,1.794375,1.0,1986.1434947894618,0.1554784713647728,1.3384977623426892,0.8445414488399334,0.28841675,0.6346277579368376
0.0155,1.79399375,1.0,2033.3589087449543,0.16021556887988006,1.3378254265749592,0.8520024144947171,0.2884007375,0.6360777460441546
0.016,1.7936,1.0,2078.22117784919,0.1649260962534589,1.3371777253593777,0.8589234555211901,0.2883842,0.6374718798516457
0.0165,1.7931937500000001,1.0,2120.7952000651885,0.16961020116294145,1.3365530135747352,0.8653538702360091,0.2883671375,0.6388139957071559
0.017,1.792775,1.0,2161.1579797547324,0.17426803128575977,1.3359496460998217,0.8713376728221867,0.28834955,0.6401078931294788
0.0175,1.7923437500000001,1.0,2199.397613239509,0.17889973429934602,1.335365977813427,0.8769142178720888,0.2883314375,0.6413573371340688
0.018000000000000002,1.7919,1.0,2235.5981053389937,0.18350545644609964,1.3348005065051514,0.8821187855311321,0.2883128,0.6425657552420092
0.0185,1.79144375,1.0,2269.8585788080504,0.18808534559427006,1.3342516670744735,0.8869830042756521,0.2882936375,0.6437366806694367
0.019,1.790975,1.0,2302.2518785209672,0.1926395458204358,1.3337182358406021,0.8915353714170964,0.28827395,0.6448728924344269
0.0195,1.79049375,1.0,2332.847816807419,0.1971682001153564,1.3331990834113008,0.8958015498987659,0.2882537375,0.6459769477483068
0.02,1.79,1.0,2361.7219720020053,0.20167145146979154,1.3326930803943324,0.8998046675632331,0.288233,0.6470513847504153
0.0205,1.78949375,1.0,2388.9552036811756,0.20614944287450077,1.33219909739746,0.9035656017215308,0.2882117375,0.6480987234958957
0.021,1.788975,1.0,2414.6183604719818,0.210602315254855,1.3317161484025737,0.9071032588926734,0.28818995000000003,0.6491211635489851
0.021500000000000002,1.78844375,1.0,2438.7994628515216,0.2150302124979194,1.331243121691474,0.9104347356111445,0.2881676375,0.6501211553956868
0.022,1.7879,1.0,2461.559668066278,0.21943327363020787,1.3307792008556152,0.9135755970182772,0.2881448,0.6511005111011499
0.0225,1.78734375,1.0,2482.956801001314,0.22381163667082027,1.330323630627891,0.9165399936116203,0.28812143749999997,0.6520609025791093
0.023,1.786775,1.0,2503.051406416858,0.2281654396388565,1.3298756557411948,0.9193407987224198,0.28809755,0.653003991547566
0.0235,1.78619375,1.0,2521.906520907013,0.23249482055341633,1.3294345209284208,0.9219897414609183,0.28807313749999996,0.6539314299128247
0.024,1.7856,1.0,2539.5825354107483,0.23679991651104623,1.3289995173051603,0.9244975322076455,0.2880482,0.6548447627964653
0.0245,1.78499375,1.0,2556.1380473067084,0.2410808641152123,1.3285699717091397,0.926873963887131,0.2880227375,0.6557454518209667
0.025,1.784375,1.0,2571.642578579341,0.2453378015145878,1.3281451253813445,0.92912798352212,0.28799675,0.6566351297463702
0.025500000000000002,1.78374375,1.0,2586.1390858424397,0.2495708614340448,1.3277244837544826,0.9312678315201417,0.2879702375,0.6575148684561795
0.026000000000000002,1.7831000000000001,1.0,2599.671787762733,0.2537801765984553,1.3273075522612616,0.9333010683594822,0.2879432,0.6583857341605277
0.0265,1.78244375,1.0,2612.286059764891,0.25796587973269136,1.3268938363343892,0.9352346398665148,0.2879156375,0.659248787521
0.027,1.781775,1.0,2624.0283341594222,0.262128103561625,1.326482841406573,0.9370749354305237,0.28788755,0.660105083759855
0.0275,1.7810937500000001,1.0,2634.9460056934586,0.26626698081012834,1.3260740729105207,0.9388278399958659,0.2878589375,0.6609556727536494
0.028,1.7804,1.0,2645.0820077835297,0.27038264010163543,1.325667085537415,0.9404987861396991,0.2878298,0.6618014968034629
0.0285,1.77969375,1.0,2654.48427429724,0.274475217237803,1.3252613948188372,0.9420927869007774,0.2878001375,0.6626435747465067
0.029,1.778975,1.0,2663.185650540538,0.2785448395383945,1.3248566616534707,0.9436144932483594,0.28776995,0.6634826191943957
0.029500000000000002,1.7782437500000001,1.0,2671.219387562333,0.2825916342288074,1.3244525481842222,0.9450682091754595,0.2877392375,0.6643193366606026
0.03,1.7775,1.0,2678.6192284521753,0.2866157285344392,1.3240487165539983,0.946457921900532,0.287708,0.6651544301648804
0.0305,1.77674375,1.0,2685.419362677057,0.29061724968068736,1.3236448289057061,0.9477873292029034,0.2876762375,0.6659885992429726
0.031,1.775975,1.0,2691.6543829487746,0.29459632489294935,1.3232405473822522,0.9490598640762501,0.28764395,0.6668225399490497
0.0315,1.7751937500000001,1.0,2697.358079641566,0.2985530810956586,1.3228355447786806,0.9502787182267944,0.2876111375,0.6676569229191727
0.032,1.7744,1.0,2702.56006469541,0.30248764367920133,1.322429534983065,0.9514468654151219,0.2875778,0.6684923309011621
0.0325,1.77359375,1.0,2707.285998548212,0.3064001368560269,1.3220222704103972,0.9525670790278259,0.2875439375,0.669329264539965
0.033,1.772775,1.0,2711.5569848531154,0.31029068374345836,1.3216135471104222,0.9536419488310038,0.28750955,0.6701681323821819
0.0335,1.7719441707516967,1.0,2715.4151689666282,0.3141594074588186,1.3212031611328843,0.9546738908611353,0.2874746551715713,0.6710093408107219
0.034,1.771109914020483,1.0,2719.307793707828,0.31800642936914614,1.320790938599092,0.955665164054331,0.2874396163888603,0.6718532325022757
0.0345,1.770275657289269,1.0,2723.377358569949,0.321831874244947,1.320377131285458,0.9566179272201929,0.2874045776061493,0.67269927853731
0.035,1.769441400558055,1.0,2727.603848491663,0.325635862460054,1.3199619247350014,0.9575341907717957,0.2873695388234383,0.6735470877546981
0.035500000000000004,1.7686071438268411,1.0,2731.9711418304255,0.329418513091693,1.319545468671735,0.9584158322818113,0.28733450004072736,0.6743963439137796
0.036000000000000004,1.7677728870956273,1.0,2736.4630754987693,0.33317994521709005,1.3191279128196707,0.9592646106319921,0.28729946125801636,0.6752467323321449
0.0365,1.7669386303644135,1.0,2741.0634410654525,0.33692027791347096,1.3187094069028213,0.960082174871845,0.28726442247530537,0.6760979398968491
0.037,1.7661043736331994,1.0,2745.755981352906,0.3406396302580619,1.3182901006451992,0.9608700723211157,0.2872293836925944,0.6769496550741995
0.0375,1.7652701169019855,1.0,2750.5265764070305,0.3443381203135612,1.3178701239509591,0.9616297538337876,0.2871943449098834,0.6778016080975825
0.038,1.7644358601707717,1.0,2755.363681094697,0.34801586531738776,1.3174495830106643,0.9623625804688514,0.28715930612717244,0.6786535785916945
0.0385,1.7636016034395579,1.0,2760.257731438131,0.35167298095447413,1.3170285657566279,0.963069830308321,0.2871242673444614,0.6795053842292587
0.039,1.7627673467083438,1.0,2765.199337609683,0.35530958276798397,1.3166071582522445,0.9637527061460334,0.28708922856175045,0.6803568473961678
0.0395,1.76193308997713,1.0,2770.184001476137,0.358925779754979,1.3161854021281125,0.9644123356369546,0.28705418977903946,0.6812078809983539
0.04,1.761098833245916,1.0,2775.1982291806576,0.3625216934634435,1.3157634199646302,0.9650497913780227,0.28701915099632846,0.6820582353706651
0.0405,1.7602645765147023,1.0,2780.230884758981,0.36609744366801533,1.3153413126679896,0.9656660827686248,0.2869841122136175,0.6829077057551953
0.041,1.7594303197834882,1.0,2785.278249980556,0.36965314041667036,1.3149191140349747,0.9662621549923133,0.2869490734309065,0.6837562232634776
0.0415,1.7585960630522743,1.0,2790.336593067933,0.3731888937573843,1.3144968578623697,0.9668389008686699,0.28691403464819554,0.6846037193708432
0.042,1.7577618063210605,1.0,2795.402168640127,0.376704813738133,1.3140745779469587,0.9673971642976182,0.28687899586548454,0.6854501259165808
0.0425,1.7569275495898466,1.0,2800.471217682993,0.38020101040689225,1.3136523080855254,0.9679377434432234,0.28684395708277355,0.6862953751040264
0.043000000000000003,1.7560932928586326,1.0,2805.5399675435983,0.38367759381163774,1.313230082074854,0.968461393679132,0.28680891830006255,0.6871393995005749
0.043500000000000004,1.7552590361274187,1.0,2810.6046319505185,0.3871346740003454,1.3128079337117284,0.9689688303157381,0.28677387951735156,0.687982132037624
0.044,1.754424779396205,1.0,2815.6614110594583,0.39057236102099085,1.3123858967929332,0.9694607311272759,0.2867388407346406,0.6888235060104431
0.0445,1.7535905226649908,1.0,2820.706491523998,0.39399076492155005,1.3119640051152517,0.9699377386953648,0.2867038019519296,0.6896634550779694
0.045,1.752756265933777,1.0,2825.7360465917977,0.3973899957499987,1.3115422924754683,0.9704004625840243,0.28666876316921863,0.6905019132625312
0.0455,1.7519220092025631,1.0,2830.7519418931524,0.40077014178873416,1.31112074174395,0.9708494744618404,0.28663372438650764,0.691338915997112
0.046,1.7510877524713493,1.0,2835.7466003674576,0.4041313393401797,1.310699420060586,0.9712853302330404,0.28659868560379664,0.6921743315497946
0.0465,1.7502534957401352,1.0,2840.7190065052337,0.4074736927059861,1.3102783358685948,0.9717085493439652,0.2865636468210857,0.6930081450593607
0.047,1.7494192390089214,1.0,2845.6686231086805,0.4107973040123638,1.3098574933269045,0.9721196250698391,0.2865286080383747,0.6938403502205591
0.0475,1.7485849822777075,1.0,2850.5949117384303,0.4141022753855232,1.3094368965944423,0.9725190266530116,0.2864935692556637,0.6946709407716851
0.048,1.7477507255464937,1.0,2855.4973327356215,0.4173887089516746,1.3090165498301352,0.9729072006991449,0.2864585304729527,0.6954999104945141
0.0485,1.7469164688152796,1.0,2860.375345244789,0.42065670683702855,1.308596457192911,0.9732845724797663,0.2864234916902417,0.6963272532142344
0.049,1.7460822120840658,1.0,2865.2284072371726,0.4239063711677954,1.3081766228416967,0.9736515471482831,0.2863884529075308,0.6971529627993834
0.0495,1.745247955352852,1.0,2870.0559755341737,0.4271378040701855,1.3077570509354197,0.9740085108759452,0.2863534141248198,0.6979770331617776
0.05,1.744413698621638,1.0,2874.857505831633,0.4303511076704093,1.3073377456330078,0.9743558319137132,0.2863183753421088,0.6987994582564434
0.0505,1.743579441890424,1.0,2879.632452724154,0.4335463840946772,1.3069187110933878,0.9746938615854884,0.2862833365593978,0.6996202320815484
0.051000000000000004,1.7427451851592102,1.0,2884.3802697296096,0.4367237354691996,1.3064999514754871,0.9750229352177193,0.2862482977766868,0.7004393486783291
0.051500000000000004,1.7419109284279963,1.0,2889.1004093147403,0.43988326392018695,1.3060814709382333,0.9753433730099956,0.28621325899397587,0.7012568021310186
0.052000000000000005,1.7410766716967823,1.0,2893.7923229200505,0.4430250715738496,1.3056632736405538,0.9756554808508562,0.2861782202112648,0.7020725865667727
0.0525,1.7402424149655684,1.0,2898.4562986097844,0.4461492374597313,1.305245356352938,0.9759595482000952,0.2861431814285539,0.7028867105388006
0.053,1.7394081582343546,1.0,2903.092404120445,0.44925587249909626,1.3048277178027876,0.9762558552921957,0.2861081426458429,0.7036991787600257
0.0535,1.7385739015031407,1.0,2907.7000881739395,0.45234509985240234,1.304410362177603,0.9765446717146046,0.2860731038631319,0.7045099853281267
0.054,1.7377396447719269,1.0,2912.279658041952,0.45541701250259614,1.3039932861012251,0.9768262519246617,0.28603806508042096,0.7053191390477638
0.0545,1.7369053880407128,1.0,2916.83142272714,0.45847170343262433,1.3035764861974937,0.977100839539926,0.2860030262977099,0.7061266486861701
0.055,1.736071131309499,1.0,2921.3556929428078,0.4615092656254336,1.3031599590902494,0.9773686678909193,0.28596798751499897,0.7069325229732089
0.0555,1.7352368745782851,1.0,2925.852781091619,0.4645297920639706,1.302743701403332,0.9776299605412319,0.285932948732288,0.7077367706014352
0.056,1.734402617847071,1.0,2930.323001245907,0.4675333757311819,1.3023277097605825,0.977884931777175,0.285897909949577,0.708539400226151
0.0565,1.7335683611158572,1.0,2934.766669127504,0.4705201096100143,1.3019119807858406,0.978133787069,0.285862871166866,0.7093404204654663
0.057,1.7327341043846434,1.0,2939.184102087677,0.47349008668341436,1.301496511102947,0.978376723505551,0.285827832384155,0.7101398399003525
0.0575,1.7318998476534295,1.0,2943.575619088138,0.4764433999343288,1.3010812973357417,0.9786139302040902,0.28579279360144405,0.7109376670747024
0.058,1.7310655909222155,1.0,2947.9415406809107,0.47938014234570425,1.3006663361080653,0.9788455886968976,0.28575775481873306,0.7117339104953824
0.0585,1.7302313341910016,1.0,2952.282188990289,0.4823004069004874,1.3002516240437578,0.97907187329614,0.28572271603602206,0.7125285786322892
0.059000000000000004,1.7293970774597878,1.0,2956.5978876932704,0.48520428658162484,1.2998371577666599,0.9792929514383927,0.28568767725331107,0.7133216799184028
0.059500000000000004,1.728562820728574,1.0,2960.88896200155,0.48809187437206336,1.2994229339006114,0.9795089840101013,0.2856526384706001,0.714113222749841
0.06,1.7277285639973599,1.0,2965.155738643041,0.4909632632547494,1.2990089490694527,0.9797201256551781,0.28561759968788913,0.7149032154859102
0.0605,1.726894307266146,1.0,2969.3985458435113,0.4938185462126299,1.2985951998970244,0.9799265250658452,0.28558256090517814,0.7156916664491583
0.061,1.7260600505349322,1.0,2973.6177133096066,0.4966578162286513,1.2981816830071666,0.9801283252577608,0.28554752212246715,0.716478583925426
0.0615,1.7252257938037183,1.0,2977.813287958845,0.4994811398142619,1.2977683974973904,0.9803256619224153,0.28551248333975615,0.7172639714663143
0.062,1.7243915370725043,1.0,2981.9855555498366,0.5022885856591667,1.2973553403938194,0.9805186657589374,0.28547744455704516,0.7180478365410581
0.0625,1.7235572803412904,1.0,2986.1357490171563,0.5050803134739636,1.2969425005027369,0.9807074690088211,0.2854424057743342,0.7188302021530042
0.063,1.7227230236100766,1.0,2990.2641750196926,0.5078564058054619,1.2965298747083625,0.9808921936439314,0.2854073669916232,0.7196110759102132
0.0635,1.7218887668788625,1.0,2994.371141515439,0.5106169452004704,1.2961174598949168,0.9810729571781626,0.28537232820891223,0.7203904653870611
0.064,1.7210545101476487,1.0,2998.456957746607,0.5133620142057986,1.2957052529466193,0.981249872863312,0.28533728942620123,0.7211683781242855
0.0645,1.7202202534164348,1.0,3002.5219342251235,0.5160916953682556,1.2952932507476906,0.9814230498749644,0.28530225064349024,0.7219448216290226
0.065,1.719385996685221,1.0,3006.5663827183803,0.5188060712346505,1.2948814501823507,0.9815925934889627,0.2852672118607793,0.7227198033748528
0.0655,1.718551739954007,1.0,3010.590616235126,0.5215052243517925,1.2944698481348191,0.9817586052490057,0.28523217307806825,0.7234933308018385
0.066,1.717717483222793,1.0,3014.5949490121657,0.5241892372664906,1.2940584414893164,0.9819211831258856,0.2851971342953573,0.7242654113165634
0.0665,1.7168832264915792,1.0,3018.5796964998162,0.5268581925255542,1.2936472271300623,0.9820804216688305,0.2851620955126463,0.7250360522921735
0.067,1.7160489697603654,1.0,3022.5451753493176,0.5295121726757924,1.2932362019412773,0.982236412149403,0.2851270567299353,0.7258052610684134
0.0675,1.7152147130291513,1.0,3026.491703399408,0.5321512602640144,1.292825362807181,0.9823892426983692,0.2850920179472244,0.726573044951667
0.068,1.7143804562979374,1.0,3030.4195996631265,0.5347755378370292,1.2924147066119935,0.9825389984359254,0.28505697916451334,0.7273394112149929
0.0685,1.7135461995667236,1.0,3034.3291843155134,0.5373850879416463,1.2920042302399353,0.9826857615956532,0.2850219403818024,0.7281043670981597
0.069,1.7127119428355098,1.0,3038.220778680704,0.5399799931246745,1.2915939305752258,0.9828296116425451,0.2849869015990914,0.7288679198076863
0.0695,1.7118776861042957,1.0,3042.0947052197116,0.5425603359329231,1.2911838045020856,0.9829706253854191,0.2849518628163804,0.7296300765168724
0.07,1.7110434293730818,1.0,3045.951287518508,0.5451261989132012,1.2907738489047345,0.9831088770840323,0.28491682403366947,0.7303908443658376
0.07050000000000001,1.710209172641868,1.0,3049.7908502757864,0.5476776646123183,1.2903640606673923,0.9832444385511715,0.2848817852509584,0.7311502304615527
0.07100000000000001,1.709374915910654,1.0,3053.613719291851,0.5502148155770831,1.2899544366742797,0.9833773792499922,0.2848467464682475,0.7319082418778735
