Time [s],Phi [rad],STIM [ ],Fsee [N],Gamma [ ],Lcerel [ ],q [ ],Lmtc [m],fisomrel [ ]
0.0,1.8,1.0,17.969943446620558,5.104138360315033e-05,1.379339434187413,0.005000685462938987,0.288653,0.5411402859386907
0.0005,1.79999375,1.0,18.292917661500848,0.005659964390613457,1.3793005916240397,0.013054844692965282,0.2886527375,0.5412342512552726
0.001,1.799975,1.0,21.665042708402158,0.011237425774275101,1.3789335389327868,0.03582275544754807,0.28865195,0.5421217253567416
0.0015,1.79994375,1.0,31.180889960632044,0.01678360201031725,1.3780366997263023,0.07089468537436593,0.2886506375,0.5442865231506555
0.002,1.7999,1.0,53.82368940924378,0.022298668582753353,1.3763524948693904,0.11506469660449797,0.2886488,0.5483380089463824
0.0025,1.79984375,1.0,97.5250300658997,0.02778279999172868,1.3739156190484618,0.16495195974991414,0.28864643749999996,0.5541680798201709
0.003,1.7997750000000001,1.0,161.48699721783055,0.03323616976085712,1.371194565363449,0.21766941834642098,0.28864354999999997,0.5606332737392864
0.0035,1.79969375,1.0,238.28107592151676,0.03865895043711491,1.3685663336865925,0.2709997350606196,0.2886401375,0.5668330920689519
0.004,1.7996,1.0,322.1028494794351,0.04405131360154121,1.3661392534413306,0.3232903606959362,0.2886362,0.5725192828106669
0.0045000000000000005,1.7994937500000001,1.0,409.9265235738863,0.04941342987444637,1.3639073564761264,0.3733900530919454,0.2886317375,0.5777150379545839
0.005,1.799375,1.0,500.08575134349064,0.05474546890669577,1.361844061954149,0.42058009417716885,0.28862675,0.5824900345297257
0.0055,1.79924375,1.0,591.4686794738763,0.06004759942500331,1.3599255872379998,0.4644816614922335,0.2886212375,0.5869055218475159
0.006,1.7991000000000001,1.0,683.1972791316504,0.06531998918037589,1.358134072299685,0.5049629750999909,0.2886152,0.5910076092412115
0.006500000000000001,1.79894375,1.0,774.558865893285,0.07056280499875066,1.3564556889345238,0.5420595019577183,0.2886086375,0.594832084905019
0.007,1.798775,1.0,864.9580541760896,0.0757762127699721,1.3548795382289767,0.575912547178189,0.28860155,0.5984072491912893
0.0075,1.79859375,1.0,953.900717875374,0.08096037736182335,1.353396667867021,0.6067243785247936,0.2885939375,0.6017563620551225
0.008,1.7984,1.0,1041.009268540561,0.08611546309835169,1.3519990659184775,0.634726863113075,0.2885858,0.6049000560985949
0.0085,1.79819375,1.0,1125.9525760788715,0.09124163270896853,1.3506802061109926,0.6601613764071798,0.2885771375,0.607855207404183
0.009000000000000001,1.797975,1.0,1208.4931529355747,0.09633904841740855,1.3494339337823662,0.683265203956196,0.28856795,0.6106375188819544
0.0095,1.79774375,1.0,1288.4724985926134,0.10140787206257043,1.3482544458416692,0.70426387986925,0.2885582375,0.613261610177015
0.01,1.7975,1.0,1365.7417911497525,0.10644826344653321,1.3471369990697186,0.7233674399752726,0.288548,0.615739489403285
0.0105,1.79724375,1.0,1440.2121158809916,0.11146038200677236,1.3460770306290892,0.7407681289106216,0.2885372375,0.61808255379768
0.011,1.796975,1.0,1511.8480803319999,0.11644438657036062,1.3450701305193589,0.7566400811909543,0.28852595000000003,0.6203016741816092
0.0115,1.79669375,1.0,1580.636530603505,0.12140043525368292,1.344112324901948,0.7711400349330251,0.2885141375,0.6224065939112762
0.012,1.7964,1.0,1646.5617954328497,0.12632868412703793,1.3432002569941277,0.7844084623401039,0.28850180000000003,0.6244055599463161
0.0125,1.79609375,1.0,1709.648482199859,0.13122928917317603,1.3423305846595173,0.7965706073889509,0.2884889375,0.6263066671131157
0.013000000000000001,1.7957750000000001,1.0,1769.945154147261,0.13610240550115799,1.3415001216405735,0.807737968760844,0.28847555,0.6281175603299538
0.0135,1.79544375,1.0,1827.519992894096,0.14094818849673502,1.340705835191404,0.8180097040305491,0.2884616375,0.6298454523805096
0.014,1.7951000000000001,1.0,1882.413150556629,0.1457667902793694,1.3399453228584564,0.8274741332696759,0.2884472,0.6314961016156246
0.0145,1.79474375,1.0,1934.688443682977,0.15055836296852323,1.3392161821881778,0.8362097207196413,0.2884322375,0.6330751968803474
0.015,1.794375,1.0,1984.428180943125,0.155323058424475,1.338516044163979,0.8442862228036239,0.28841675,0.6345882903175097
0.0155,1.79399375,1.0,2031.7182719172374,0.16006102765198646,1.3378427080354558,0.8517657507209311,0.2884007375,0.6360405122043041
0.016,1.7936,1.0,2076.6532639679253,0.16477242188422284,1.3371940613560636,0.8587036458283992,0.2883842,0.6374367505937604
0.0165,1.7931937500000001,1.0,2119.2977230387737,0.16945738880574684,1.336568458110682,0.8651493903161179,0.2883671375,0.638780845041448
0.017,1.792775,1.0,2159.7283590884003,0.17411607610112112,1.335964252284191,0.8711471604745036,0.28834955,0.6400765981732285
0.0175,1.7923437500000001,1.0,2198.0330091455503,0.17874863145490835,1.3353797978614705,0.8767364538949722,0.2883314375,0.6413277780178546
0.018000000000000002,1.7919,1.0,2234.296213135495,0.18335520118089083,1.3348135841271167,0.8819526750122152,0.2883128,0.6425378312626089
0.0185,1.79144375,1.0,2268.6165001904624,0.18793593309092588,1.334264049236649,0.8868275651293797,0.2882936375,0.6437102850380071
0.019,1.790975,1.0,2301.067630290403,0.1924909714011817,1.3337299580524054,0.8913897179289694,0.28827395,0.6448479435533794
0.0195,1.79049375,1.0,2331.7191790773422,0.1970204591033825,1.3332101815788238,0.8956648845761618,0.2882537375,0.6459533638144366
0.02,1.79,1.0,2360.646503052565,0.20152453918925256,1.332703590820343,0.8996762711744496,0.288233,0.6470290837220973
0.0205,1.78949375,1.0,2387.930254080629,0.20600335465051614,1.3322090567814013,0.9034448245601583,0.2882117375,0.6480776230625372
0.021,1.788975,1.0,2413.6417047485043,0.21045704648116528,1.3317255878930003,0.9069895118783322,0.28818995000000003,0.6491011936767963
0.021500000000000002,1.78844375,1.0,2437.8685586540164,0.21488575851370625,1.331252074221173,0.9103274851571965,0.2881676375,0.6501022427428904
0.022,1.7879,1.0,2460.67271334919,0.21928962991533962,1.3307876911503915,0.9134743571879496,0.2881448,0.6510826000745957
0.0225,1.78734375,1.0,2482.111880014194,0.22366879870735618,1.3303316835935115,0.9164443226821087,0.28812143749999997,0.6520439375455236
0.023,1.786775,1.0,2502.246497019805,0.2280234029110465,1.3298832964633882,0.9192502945513049,0.28809755,0.6529879168190317
0.0235,1.78619375,1.0,2521.139501521676,0.23235358054770136,1.3294417746728773,0.9219040373931934,0.28807313749999996,0.6539161897333711
0.024,1.7856,1.0,2538.8517830479814,0.2366594688366592,1.3290064039499894,0.9244162925104809,0.2880482,0.6548303130098738
0.0245,1.78499375,1.0,2555.4405918856373,0.24094120412640893,1.328576523217625,0.9267968835580578,0.2880227375,0.6557317231830917
0.025,1.784375,1.0,2570.9773485128153,0.24519892486367711,1.3281513552950717,0.9290547802129042,0.28799675,0.656622091894157
0.025500000000000002,1.78374375,1.0,2585.504973416421,0.24943276377525064,1.3277304055625458,0.9311982463296391,0.2879702375,0.6575024912940346
0.026000000000000002,1.7831000000000001,1.0,2599.0676523518273,0.25364285358791644,1.3273131794002642,0.9332348635678959,0.2879432,0.6583739878536049
0.0265,1.78244375,1.0,2611.7107308886234,0.25782932702846134,1.3268991821884435,0.9351715969162087,0.2879156375,0.6592376424889248
0.027,1.781775,1.0,2623.4806143811943,0.26199231682367224,1.3264879193073003,0.9370148531239243,0.28788755,0.6600945106708859
0.0275,1.7810937500000001,1.0,2634.424673362994,0.26613195570033615,1.3260788961370513,0.9387705328847745,0.2878589375,0.6609456425192669
0.028,1.7804,1.0,2644.585681254162,0.2702483724321679,1.3256716685987684,0.9404440833381169,0.2878298,0.6617919779084629
0.0285,1.77969375,1.0,2654.0115273978504,0.2743417026393776,1.3252657523984088,0.9420405304791882,0.2878001375,0.6626345354486511
0.029,1.778975,1.0,2662.7353372934217,0.2784120738216685,1.3248608056534035,0.9435645368186528,0.28776995,0.6634740336422884
0.029500000000000002,1.7782437500000001,1.0,2670.7903958410457,0.2824596132181396,1.3244564900238205,0.9450204171278559,0.2877392375,0.6643111801065769
0.03,1.7775,1.0,2678.210481888358,0.2864844480678902,1.3240524671697274,0.946412168467668,0.287708,0.665146678957949
0.0305,1.77674375,1.0,2685.0298224180865,0.29048670561001944,1.3236483987511924,0.9477434976163195,0.2876762375,0.6659812308220316
0.031,1.775975,1.0,2691.283049273737,0.2944665130836265,1.3232439464282832,0.9490178458051491,0.28764395,0.6668155328363174
0.0315,1.7751937500000001,1.0,2697.004462774849,0.2984239974576298,1.3228387782222228,0.950238411764875,0.2876111375,0.6676502655484133
0.032,1.7744,1.0,2702.222807362848,0.3023592841183539,1.3224326158621298,0.9514081772330817,0.2875778,0.6684859956259702
0.0325,1.77359375,1.0,2706.9632267799234,0.3062724972401577,1.3220252163836268,0.9525299225271517,0.2875439375,0.6693232143274181
0.033,1.772775,1.0,2711.249181890287,0.3101637600365558,1.321616354244338,0.9536062407603425,0.28750955,0.6701623746255756
0.0335,1.7719437500000002,1.0,2715.1043324276434,0.3140331957210628,1.321205803901888,0.9546395510593203,0.2874746375,0.6710039271037689
0.034,1.771103146469892,1.0,2718.716472745927,0.31788092249052624,1.320793267526141,0.9556321028722069,0.28743933215173545,0.6718484678249419
0.0345,1.7702620156156967,1.0,2722.4963127194796,0.321707070886573,1.3203789885491124,0.9565860613822471,0.28740400465585925,0.6726954837252797
0.035,1.7694208847615012,1.0,2726.451852640009,0.3255117603387625,1.3199631354887789,0.9575034402042691,0.28736867715998304,0.6735446171179507
0.035500000000000004,1.7685797539073058,1.0,2730.5673541898914,0.32929510914819704,1.319545854796505,0.9583861213796632,0.28733334966410684,0.6743955570228664
0.036000000000000004,1.7677386230531102,1.0,2734.827044987085,0.33305723561597894,1.3191272929236568,0.9592358679374728,0.28729802216823064,0.6752479939770999
0.0365,1.766897492198915,1.0,2739.215114187602,0.3367982580432105,1.3187075963215984,0.9600543327794032,0.28726269467235443,0.6761016200475417
0.037,1.7660563613447193,1.0,2743.715708562989,0.34051829473099426,1.318286911441695,0.9608430668062294,0.28722736717647823,0.6769561288421766
0.0375,1.765215230490524,1.0,2748.312929053643,0.3442174639804324,1.3178653847353121,0.9616035263580572,0.28719203968060203,0.67781121552
0.038,1.7643740996363286,1.0,2752.990827797594,0.3478958840926273,1.3174431626538143,0.9623370800332681,0.2871567121847258,0.6786665767995663
0.0385,1.763532968782133,1.0,2757.7357166025054,0.35155367229906226,1.3170203707505523,0.9630450127565292,0.28712138468884957,0.679521953218056
0.039,1.7626918379279377,1.0,2762.5391926297066,0.355190943684018,1.3165970864159722,0.9637285289872117,0.28708605719297337,0.6803771839059868
0.0395,1.7618507070737421,1.0,2767.3926236939487,0.3588078127399927,1.3161733888580642,0.9643887632791747,0.28705072969709716,0.6812321051594621
0.04,1.7610095762195468,1.0,2772.287470717562,0.36240439381032413,1.3157493561790354,0.9650267849180648,0.28701540220122096,0.6820865563537137
0.0405,1.7601684453653512,1.0,2777.2218619483633,0.36598079152692403,1.3153250061327502,0.9656435954244746,0.28698007470534476,0.6829404990669039
0.041,1.7593273145111559,1.0,2782.1783848298287,0.36953713387435955,1.3149004963324042,0.9662401564634238,0.28694474720946855,0.683793614188793
0.0415,1.7584861836569603,1.0,2787.150571463859,0.3730735341611742,1.314475885384227,0.9668173651891186,0.2869094197135923,0.6846457828820359
0.042,1.757645052802765,1.0,2792.1350192599125,0.3765901012863614,1.31405120413815,0.9673760664711173,0.2868740922177161,0.685496942536282
0.0425,1.7568039219485694,1.0,2797.128313410259,0.3800869441489143,1.3136264834441047,0.967917059386155,0.2868387647218399,0.6863470308752702
0.043000000000000003,1.755962791094374,1.0,2802.127026853045,0.38356417164782636,1.3132017541520222,0.9684411001673833,0.2868034372259637,0.6871959859569395
0.043500000000000004,1.7551216602401785,1.0,2807.1277202555284,0.3870218926820908,1.3127770471118343,0.968948904935045,0.2867681097300875,0.6880437461734739
0.044,1.7542805293859831,1.0,2812.1269420191156,0.390460216150701,1.312352393173472,0.9694411522268089,0.2867327822342113,0.6888902502512908
0.0445,1.7534393985317878,1.0,2817.1212283046984,0.39387925095265025,1.311927823186867,0.9699184853443152,0.2866974547383351,0.6897354372509652
0.045,1.7525982676775922,1.0,2822.1071030797916,0.3972791059869319,1.3115033680019503,0.9703815145309665,0.2866621272424589,0.6905792465670967
0.0455,1.7517571368233968,1.0,2827.0810781864416,0.4006598901525392,1.3110790584686536,0.9708308189946371,0.28662679974658267,0.6914216179281123
0.046,1.7509160059692013,1.0,2832.0396534302295,0.40402171234846557,1.3106549254369082,0.9712669487877431,0.28659147225070647,0.6922624913960109
0.0465,1.750074875115006,1.0,2836.984719276717,0.40736465848298853,1.3102309515884052,0.9716904199345037,0.28655614475483027,0.6931019026675784
0.047,1.7492337442608104,1.0,2841.9092700270326,0.4106888649496671,1.3098071989141464,0.9721017355196616,0.28652081725895406,0.6939397305515642
0.0475,1.748392613406615,1.0,2846.8123139828513,0.41399443530165503,1.3093836756659711,0.9725013658494815,0.28648548976307786,0.6947759605593533
0.048,1.7475514825524194,1.0,2851.693388164353,0.4172814704144392,1.308960385368585,0.9728897578579776,0.2864501622672016,0.6956105876048964
0.0485,1.746710351698224,1.0,2856.552028591898,0.4205500711635067,1.3085373315466933,0.9732673371299536,0.2864148347713254,0.6964436066391769
0.049,1.7458692208440285,1.0,2861.387770303897,0.4238003384243446,1.3081145177250015,0.9736345091177758,0.2863795072754492,0.6972750126501586
0.0495,1.7450280899898332,1.0,2866.200147375668,0.4270323730724399,1.3076919474282152,0.9739916602780545,0.286344179779573,0.6981048006627312
0.05,1.7441869591356376,1.0,2870.988692938292,0.4302462759832797,1.3072696241810398,0.9743391591341868,0.2863088522836968,0.6989329657386563
0.0505,1.7433458282814422,1.0,2875.7529391978164,0.433442148032351,1.3068475515081805,0.9746773572702271,0.2862735247878206,0.6997595029765131
0.051000000000000004,1.742504697427247,1.0,2880.4924174547027,0.4366200900951408,1.3064257329343432,0.9750065902610983,0.2862381972919444,0.700584407511641
0.051500000000000004,1.7416635665730513,1.0,2885.2066581233044,0.4397802030471362,1.306004171984233,0.9753271785437525,0.2862028697960681,0.701407674516084
0.052000000000000005,1.740822435718856,1.0,2889.895190752405,0.44292258776382426,1.3055828721825558,0.9756394282335213,0.2861675423001919,0.7022292991985326
0.0525,1.7399813048646604,1.0,2894.5575440448824,0.4460473451206919,1.3051618370540166,0.9759436318895524,0.2861322148043157,0.7030492768042661
0.053,1.739140174010465,1.0,2899.193245878657,0.4491545759932263,1.3047410701233209,0.9762400692329256,0.2860968873084395,0.7038676026150932
0.0535,1.7382990431562695,1.0,2903.8019936220935,0.4522443750886675,1.3043205734144347,0.9765290071061019,0.2860615598125633,0.7046842748619568
0.054,1.7374579123020741,1.0,2908.3847691695623,0.45531681092808035,1.3039003376380696,0.9768106975904185,0.2860262323166871,0.7054993137227912
0.0545,1.7366167814478786,1.0,2912.940547995383,0.4583720335047437,1.3034803711922904,0.9770853910833437,0.2859909048208109,0.7063127050414211
0.055,1.7357756505936832,1.0,2917.469620492599,0.46141013446118234,1.3030606708923842,0.9773533209747546,0.2859555773249347,0.7071244571373023
0.0555,1.7349345197394876,1.0,2921.9722786542716,0.46443120543992117,1.302641233553638,0.977614710887328,0.2859202498290585,0.7079345782944273
0.056,1.7340933888852923,1.0,2926.4488160549013,0.46743533808348503,1.3022220559913382,0.9778697751660631,0.2858849223331823,0.7087430767613789
0.0565,1.7332522580310967,1.0,2930.899527831603,0.4704226240343988,1.3018031350207724,0.9781187193393892,0.28584959483730604,0.7095499607513822
0.057,1.7324111271769014,1.0,2935.324710666482,0.4733931549351872,1.3013844674572272,0.9783617405537227,0.28581426734142984,0.7103552384423583
0.0575,1.731569996322706,1.0,2939.7246627681216,0.47634702242837523,1.3009660501159894,0.9785990279832062,0.28577893984555364,0.7111589179769762
0.058,1.7307288654685105,1.0,2944.099683854007,0.47928431815648764,1.300547879812346,0.9788307632162363,0.28574361234967743,0.711961007462703
0.0585,1.729887734614315,1.0,2948.4500751327955,0.4822051337620494,1.3001299533615842,0.97905712062027,0.28570828485380123,0.7127615149718536
0.059000000000000004,1.7290466037601195,1.0,2952.7761392874354,0.48510956088758517,1.2997122675789903,0.9792782676862939,0.28567295735792503,0.7135604485416447
0.059500000000000004,1.7282054729059242,1.0,2957.0781804573708,0.48799769117562,1.2992948192798517,0.9794943653542402,0.2856376298620488,0.7143578161742377
0.06,1.7273643420517286,1.0,2961.3565042222453,0.49086961626867853,1.2988776052794553,0.9797055683205462,0.28560230236617257,0.7151536258367925
0.0605,1.7265232111975333,1.0,2965.6114175851403,0.49372542780928574,1.298460622393088,0.979912025328967,0.28556697487029636,0.7159478854615133
0.061,1.7256820803433377,1.0,2969.8432289559073,0.4965652174399665,1.2980438674360362,0.9801138794456767,0.28553164737442016,0.7167406029456967
0.0615,1.7248409494891423,1.0,2974.052248135029,0.4993890768032457,1.2976273372235874,0.9803112683196212,0.28549631987854396,0.7175317861517763
0.062,1.7239998186349468,1.0,2978.2387862978057,0.502197097541648,1.2972110285710283,0.9805043244290174,0.28546099238266776,0.7183214429073705
0.0625,1.7231586877807514,1.0,2982.403155978536,0.5049893712976984,1.2967949382936461,0.9806931753148393,0.28542566488679155,0.7191095810053278
0.063,1.7223175569265559,1.0,2986.5452221033283,0.507765944526338,1.2963790671079636,0.9808779406738727,0.28539033739091535,0.7198962008297616
0.0635,1.7214764260723605,1.0,2990.665704096183,0.5105269259024293,1.295963408311104,0.9810587400245796,0.28535500989503915,0.7206813167757485
0.064,1.7206352952181652,1.0,2994.765463143786,0.5132724485175367,1.2955479539911352,0.98123569019038,0.28531968239916294,0.7214649454453248
0.0645,1.7197941643639696,1.0,2998.844779753897,0.5160025936176226,1.2951327012958,0.9814089003072649,0.28528435490328674,0.722247093832411
0.065,1.7189530335097742,1.0,3002.903935602345,0.5187174424486495,1.2947176473728417,0.9815784756146619,0.28524902740741054,0.7230277688999278
0.0655,1.7181119026555787,1.0,3006.943213520368,0.52141707625658,1.2943027893700032,0.9817445176228072,0.28521369991153434,0.7238069775798327
0.066,1.7172707718013833,1.0,3010.962897482131,0.5241015762873763,1.293888124435028,0.981907124271766,0.2851783724156581,0.7245847267731553
0.0665,1.7164296409471878,1.0,3014.9632725926363,0.5267710237870012,1.293473649715659,0.9820663900825803,0.2851430449197819,0.7253610233500343
0.067,1.7155885100929924,1.0,3018.9446250753244,0.5294255000014171,1.293059362359639,0.9822224063009817,0.28510771742390567,0.7261358741497508
0.0675,1.7147473792387968,1.0,3022.9072422601757,0.5320650861765863,1.2926452595147113,0.982375261034089,0.28507238992802947,0.726909285980763
0.068,1.7139062483846015,1.0,3026.851412572082,0.5346898635584715,1.2922313383286193,0.9825250393804776,0.28503706243215327,0.7276812656207401
0.0685,1.713065117530406,1.0,3030.777425519209,0.5372999133930351,1.2918175959491058,0.982671823553984,0.28500173493627706,0.7284518198165957
0.069,1.7122239866762106,1.0,3034.685571681588,0.5398953169262395,1.291404029523914,0.9828156930015945,0.28496640744040086,0.7292209552845212
0.0695,1.711382855822015,1.0,3038.576142699804,0.5424761554040474,1.290990636200787,0.9829567245157317,0.2849310799445246,0.7299886787100167
0.07,1.7105417249678196,1.0,3042.449431264334,0.5450425100724209,1.2905774131274677,0.9830949923412475,0.2848957524486484,0.7307549967479241
0.07050000000000001,1.709700594113624,1.0,3046.3057311041393,0.5475944621773229,1.2901643574516994,0.9832305682774031,0.2848604249527722,0.7315199160224566
0.07100000000000001,1.7088594632594287,1.0,3050.145336976333,0.5501320929647157,1.2897514663212255,0.9833635217751047,0.284825097456896,0.7322834431272314
