Time [s],Phi [rad],STIM [ ],Fsee [N],Gamma [ ],Lcerel [ ],q [ ],Lmtc [m],fisomrel [ ]
0.0,1.8,1.0,17.967082992870345,1.0793788475081426e-05,1.3793397546418114,0.00500003103216892,0.288653,0.5411395106769463
0.0005,1.79999375,1.0,18.276689231026364,0.005619942552652587,1.3793023938895008,0.012942718532374328,0.2886527375,0.541229891548769
0.001,1.799975,1.0,21.61890405310836,0.011197628427181312,1.3789382487488155,0.03561271526739516,0.28865195,0.5421103432244285
0.0015,1.79994375,1.0,31.07092292395443,0.016744027894857304,1.3780460600111617,0.07060737132684701,0.2886506375,0.5442639557080267
0.002,1.7999,1.0,53.58631224620308,0.022259316446824245,1.3763678770963368,0.11472454763749103,0.2886488,0.5483010876594283
0.0025,1.79984375,1.0,97.12568689150189,0.027743668590142264,1.3739348420352027,0.16458197496335794,0.28864643749999996,0.5541222382401404
0.003,1.7997750000000001,1.0,160.96717636488106,0.033197257855498374,1.3712140065251839,0.21728775934881872,0.28864354999999997,0.5605872492331656
0.0035,1.79969375,1.0,237.69363591850498,0.038620256796803,1.3685844168345696,0.2706201536222627,0.2886401375,0.5667905856719397
0.004,1.7996,1.0,321.4778330760233,0.04401283700197093,1.3661557994155202,0.32292283575285974,0.2886362,0.5724806459004506
0.0045000000000000005,1.7994937500000001,1.0,409.27929731365407,0.04937516909810614,1.3639225431275515,0.3730411846496398,0.2886317375,0.577679791465483
0.005,1.799375,1.0,499.4253489547105,0.05470742274259406,1.3618580906475668,0.4202537079230618,0.28862675,0.5824576601814329
0.0055,1.79924375,1.0,590.802423969745,0.060009766670534016,1.3599386004548115,0.4641794826267467,0.2886212375,0.586875650199718
0.006,1.7991000000000001,1.0,682.5301766570001,0.06528236863797847,1.3581461953782703,0.5046852785424509,0.2886152,0.5909799194389982
0.006500000000000001,1.79894375,1.0,773.8933747755005,0.07052539547832147,1.3564670467744058,0.5418056213448995,0.2886086375,0.5948062645533598
0.007,1.798775,1.0,864.297846163834,0.07573901308058482,1.354890200593875,0.5756812116482037,0.28860155,0.5983831170996148
0.0075,1.79859375,1.0,953.2545672738127,0.08092338640956087,1.3534066045882776,0.6065139515468163,0.2885939375,0.6017339663054364
0.008,1.7984,1.0,1040.370620861712,0.08607867950867863,1.352008467221305,0.6345357178727816,0.2885858,0.6048789509072303
0.0085,1.79819375,1.0,1125.3326912252098,0.09120505549399639,1.3506889801212998,0.659987708661341,0.2885771375,0.6078355842521768
0.009000000000000001,1.797975,1.0,1207.891688864306,0.09630267633580494,1.34944215108,0.6831073698911402,0.28856795,0.6106192061498164
0.0095,1.79774375,1.0,1287.8747776707153,0.10137170343390041,1.348262354423906,0.7041204314574736,0.2885582375,0.6132440449334109
0.01,1.7975,1.0,1365.1790500056954,0.10641229827591332,1.3471442310376462,0.7232367265851694,0.288548,0.6157234784989838
0.0105,1.79724375,1.0,1439.6837779371128,0.1114246191158018,1.3460836425216076,0.7406488614081127,0.2885372375,0.6180679603921433
0.011,1.796975,1.0,1511.330659814617,0.11640882420752394,1.3450764504761776,0.7565312256863068,0.28852595000000003,0.6202877657103385
0.0115,1.79669375,1.0,1580.116666855962,0.1213650717168951,1.3441185349736922,0.7710405957386427,0.2885141375,0.622392965202678
0.012,1.7964,1.0,1646.0612395933044,0.12629351887501658,1.3432061154599864,0.7843173658370732,0.28850180000000003,0.6243927369606713
0.0125,1.79609375,1.0,1709.1823549583396,0.13119432167846223,1.342335938532399,0.7964869359165496,0.2884889375,0.6262949782817014
0.013000000000000001,1.7957750000000001,1.0,1769.5050490830968,0.13606763455311535,1.3415050897464127,0.8076610156235875,0.28847555,0.6281067400423936
0.0135,1.79544375,1.0,1827.081255096329,0.14091361157851723,1.3407107092127692,0.8179389055783651,0.2884616375,0.6298348616955733
0.014,1.7951000000000001,1.0,1881.9860073818968,0.14573240669178467,1.339949998357947,0.8274088441500597,0.2884472,0.6314859649758668
0.0145,1.79474375,1.0,1934.2964861026776,0.15052417310147498,1.3392204141615394,0.8361493192460295,0.2884322375,0.6330660415053371
0.015,1.794375,1.0,1984.0681248701435,0.1552890612285521,1.33851988264614,0.8442302554913815,0.28841675,0.6345800033585576
0.0155,1.79399375,1.0,2031.3745158874233,0.16002722149398002,1.3378463298343433,0.8517138549571033,0.2884007375,0.6360327086016077
0.016,1.7936,1.0,2076.305452609587,0.164738804279797,1.3371976860165193,0.858655510648097,0.2883842,0.6374289558198496
0.0165,1.7931937500000001,1.0,2118.945758167752,0.16942395831439155,1.3365720889643355,0.8651046734795885,0.2883671375,0.6387730514355339
0.017,1.792775,1.0,2159.3993790344507,0.17408283386945897,1.3359676141000334,0.8711054775866179,0.28834955,0.6400693950125352
0.0175,1.7923437500000001,1.0,2197.7323656543736,0.17871557684635428,1.3353828432094876,0.8766975234082511,0.2883314375,0.6413212642880111
0.018000000000000002,1.7919,1.0,2234.020111845432,0.1833223331464326,1.334816358078573,0.8819162694658431,0.2883128,0.6425319080452832
0.0185,1.79144375,1.0,2268.3465800192625,0.18790324867104896,1.3342667404931643,0.8867935161258265,0.2882936375,0.6437045478318737
0.019,1.790975,1.0,2300.7946199048524,0.19245846821964188,1.3337326608575513,0.891357850693031,0.28827395,0.6448421909341157
0.0195,1.79049375,1.0,2331.4560577691796,0.19698813755874944,1.3332127693002855,0.8956349901965315,0.2882537375,0.6459478647169474
0.02,1.79,1.0,2360.4087987504527,0.20149240022966178,1.3327059141983504,0.8996481563095554,0.288233,0.6470241538821426
0.0205,1.78949375,1.0,2387.717021072543,0.20597139734589165,1.3322111290244345,0.9034183501410031,0.2882117375,0.6480732326285412
0.021,1.788975,1.0,2413.4493497664407,0.21042527002095193,1.3317274472512268,0.9069645577476352,0.28818995000000003,0.6490972600133436
0.021500000000000002,1.78844375,1.0,2437.6784874029827,0.21485415936835536,1.3312539023514167,0.9103039711117461,0.2881676375,0.6500983806663204
0.022,1.7879,1.0,2460.4760514013383,0.21925820555138376,1.3307895738865585,0.913452191314392,0.2881448,0.6510786282141232
0.0225,1.78734375,1.0,2481.912920626465,0.22363754879342432,1.3303335800803822,0.9164233974480646,0.28812143749999997,0.6520399421915745
0.023,1.786775,1.0,2502.060198300829,0.2279923294027155,1.32988506510682,0.9192304938276272,0.28809755,0.6529841958528992
0.0235,1.78619375,1.0,2520.9705323141,0.23232268339308793,1.3294433727722599,0.9218852726780706,0.28807313749999996,0.6539128320677227
0.024,1.7856,1.0,2538.69868454487,0.2366287467783723,1.3290078468830897,0.924398492940543,0.2880482,0.6548272853614585
0.0245,1.78499375,1.0,2555.3013542419076,0.24091065557239932,1.3285778312456973,0.9267799850426214,0.2880227375,0.6557289821870984
0.025,1.784375,1.0,2570.8370109530315,0.24516854578899966,1.3281526696664707,0.9290387437763679,0.28799675,0.6566193411695413
0.025500000000000002,1.78374375,1.0,2585.3564095829206,0.24940255119726207,1.3277317930658483,0.9311830243010883,0.2879702375,0.657499591243125
0.026000000000000002,1.7831000000000001,1.0,2598.9177182750786,0.25361280849751305,1.3273145760425897,0.9332203927046736,0.2879432,0.6583710724172824
0.0265,1.78244375,1.0,2611.572904277189,0.2577994520434818,1.3269004629363363,0.935157810019187,0.2879156375,0.6592349723597226
0.027,1.781775,1.0,2623.360736999706,0.2619626123209655,1.326489030759162,0.937001698367389,0.28788755,0.6600921964092572
0.0275,1.7810937500000001,1.0,2634.3208734242585,0.2661024198157612,1.32607985652314,0.9387579723631899,0.2878589375,0.6609436453120168
0.028,1.7804,1.0,2644.4937820026216,0.2702190050136659,1.325672517240344,0.940432085928217,0.2878298,0.661790215288067
0.0285,1.77969375,1.0,2653.9206705226916,0.2743124984004767,1.325266589922848,0.9420290742229295,0.2878001375,0.6626327980866131
0.029,1.778975,1.0,2662.6434179415455,0.27838303046199064,1.3248616515827252,0.9435535912552026,0.28776995,0.6634722810297962
0.029500000000000002,1.7782437500000001,1.0,2670.6958926376346,0.2824307277371209,1.324457358419886,0.9450099530693503,0.2877392375,0.6643093831861915
0.03,1.7775,1.0,2678.1233823623884,0.28645572350110354,1.3240532664228613,0.9464021468697698,0.287708,0.6651450271705169
0.0305,1.77674375,1.0,2684.9576062772267,0.2904581447177611,1.323649060586631,0.9477338851141429,0.2876762375,0.6659798647365796
0.031,1.775975,1.0,2691.225848910741,0.29443811601873926,1.3232444700393082,0.9490086191019846,0.28764395,0.6668144534088226
0.0315,1.7751937500000001,1.0,2696.9557232548354,0.29839576203568363,1.322839223909006,0.9502295560852256,0.2876111375,0.6676493479140007
0.032,1.7744,1.0,2702.175139985677,0.30233120740024,1.3224330513238383,0.9513996795417236,0.2875778,0.668485100172191
0.0325,1.77359375,1.0,2706.9122783117673,0.306244576744054,1.3220256814119173,0.9525217675296612,0.2875439375,0.6693222592831325
0.033,1.772775,1.0,2711.195558448216,0.31013599469877123,1.3216168433013569,0.9535984093250993,0.28750955,0.6701613715078778
0.0335,1.7719437500000002,1.0,2715.045966642265,0.31400558242900073,1.3212063358322554,0.9546320275522078,0.2874746375,0.6710028374401031
0.034,1.7711000000000001,1.0,2718.4884418716906,0.3178534625626385,1.3207939234043096,0.9556248808661062,0.2874392,0.6718471259785395
0.0345,1.7702437500000001,1.0,2721.5655625037175,0.32167976571739304,1.3203792113282606,0.956579064789906,0.2874032375,0.6726950285353371
0.035,1.7693750000000001,1.0,2724.2917879531365,0.32548460983804234,1.3199620623750905,0.9574965642320903,0.28736675,0.6735468068899193
0.035500000000000004,1.76849375,1.0,2726.6816782876986,0.32926811286936464,1.319542339315781,0.9583792374231118,0.2873297375,0.6744027212519077
0.036000000000000004,1.7676,1.0,2728.7498846751737,0.33303039275613805,1.3191199049213138,0.9592288254534863,0.2872922,0.6752630302391953
0.0365,1.76669375,1.0,2730.5111402484645,0.3367715674431407,1.3186946219626707,0.9600469609898077,0.2872541375,0.6761279908548163
0.037,1.765775,1.0,2731.9802513877576,0.3404917548751509,1.3182663532108339,0.9608351762479688,0.28721555,0.6769978584626172
0.0375,1.76484375,1.0,2733.1720894205964,0.34419107299694673,1.3178349614367846,0.9615949102944662,0.2871764375,0.6778728867617272
0.038,1.7639,1.0,2734.101582739157,0.3478696397533063,1.3174003094115052,0.9623275157392198,0.28713679999999997,0.6787533277598239
0.0385,1.7629481752019402,1.0,2735.0037902018717,0.3515275730890079,1.3169622599059774,0.9630342648767374,0.28709682335848147,0.679639431745203
0.039,1.7619961932839185,1.0,2736.292859411399,0.35516498481572256,1.316520628610541,0.9637163497573825,0.2870568401179246,0.6805315422958799
0.0395,1.7610442113658968,1.0,2737.90896417146,0.3587819955697239,1.316076031921887,0.9643749680438083,0.28701685687736767,0.681428386621538
0.04,1.7600922294478751,1.0,2739.8097402169333,0.36237872312214703,1.3156288568135293,0.9650112268642501,0.28697687363681074,0.6823291605439562
0.0405,1.7591402475298537,1.0,2741.9763691867997,0.3659552785067538,1.315179276629979,0.9656261500663833,0.28693689039625386,0.6832334935682499
0.041,1.758188265611832,1.0,2744.390042896879,0.36951177275730585,1.3147274647157468,0.9662207039084368,0.28689690715569693,0.6841410170714235
0.0415,1.7572362836938102,1.0,2747.0319544299805,0.3730483169075649,1.3142735944153432,0.9667958009031646,0.28685692391514006,0.6850513643279987
0.042,1.7562843017757885,1.0,2749.883289891257,0.3765650219912927,1.3138178390732793,0.9673523033672987,0.28681694067458313,0.6859641705337289
0.0425,1.755332319857767,1.0,2752.9252208307585,0.380061999042251,1.3133603720340659,0.9678910267018148,0.2867769574340262,0.6868790728273975
0.043000000000000003,1.7543803379397453,1.0,2756.138897331609,0.3835393590942015,1.3129013666422131,0.968412742425955,0.28673697419346933,0.6877957103106993
0.043500000000000004,1.7534283560217236,1.0,2759.505441764139,0.38699721318090585,1.3124409962422323,0.968918180985775,0.2866969909529124,0.6887137240662033
0.044,1.752476374103702,1.0,2763.005943207254,0.39043567233612586,1.3119794341786337,0.9694080343560509,0.28665700771235547,0.6896327571734042
0.0445,1.7515243921856805,1.0,2766.6305667483975,0.393854841526084,1.3115167715089076,0.9698829511597559,0.2866170244717986,0.6905526182036579
0.045,1.7505724102676588,1.0,2770.3609552979856,0.3972548357654323,1.3110531760188224,0.9703435539819865,0.28657704123124167,0.6914729645682509
0.0455,1.749620428349637,1.0,2774.1872756029975,0.40063576174468096,1.3105887382494945,0.970790426610493,0.28653705799068474,0.692393608649831
0.046,1.7486684464316153,1.0,2778.1017596463275,0.4039977243894913,1.3101235299308094,0.9712241217694774,0.28649707475012787,0.6933144010945611
0.0465,1.7477164645135939,1.0,2782.0966211725854,0.4073408286255247,1.309657622792653,0.9716451646300542,0.28645709150957094,0.6942351933877646
0.047,1.7467644825955722,1.0,2786.1640545201453,0.41066517937844244,1.3091910885649114,0.9720540544478476,0.286417108269014,0.6951558378572867
0.0475,1.7458125006775504,1.0,2790.296233566678,0.41397088157390594,1.3087239989774702,0.9724512660883884,0.28637712502845714,0.6960761876765275
0.048,1.7448605187595287,1.0,2794.4853107885597,0.41725804013757645,1.3082564257602154,0.9728372514489827,0.2863371417879002,0.6969960968671455
0.0485,1.7439085368415073,1.0,2798.723416435219,0.42052675999511535,1.3077884406430327,0.9732124407849739,0.2862971585473433,0.6979154203014362
0.049,1.7429565549234856,1.0,2803.004610023416,0.42377714223928076,1.3073200978451944,0.9735772422821124,0.2862571753067864,0.6988340480242989
0.0495,1.7420045730054639,1.0,2807.325391019803,0.42700928569317903,1.3068514295602165,0.9739320432161834,0.2862171920662295,0.6997519138292458
0.05,1.7410525910874421,1.0,2811.673370980955,0.43022330842089157,1.3063825474876887,0.9742772204379366,0.28617720882567255,0.7006687965400324
0.0505,1.7401006091694207,1.0,2816.045843068602,0.4334193087418684,1.3059134763464195,0.9746131253806973,0.2861372255851157,0.7015846460129103
0.051000000000000004,1.739148627251399,1.0,2820.4400921230285,0.4365973849755594,1.3054442408552183,0.9749400934778412,0.28609724234455874,0.702499412399169
0.051500000000000004,1.7381966453333773,1.0,2824.853394566627,0.4397576354414145,1.3049748657328932,0.9752584450336339,0.2860572591040018,0.7034130461454202
0.052000000000000005,1.7372446634153556,1.0,2829.2830183202323,0.44290015845888364,1.3045053756982536,0.9755684860392876,0.28601727586344494,0.704325497993831
0.0525,1.736292681497334,1.0,2833.7262227333376,0.4460250523474168,1.3040357954701078,0.9758705089381309,0.285977292622888,0.7052367189823303
0.053,1.7353406995793124,1.0,2838.1802585280884,0.449132415426464,1.303566149767265,0.9761647933434797,0.2859373093823311,0.7061466604447654
0.0535,1.7343887176612907,1.0,2842.642367756828,0.452222346015475,1.3030964633085338,0.9764516067125157,0.2858973261417742,0.7070552740110287
0.054,1.733436735743269,1.0,2847.1097837722496,0.4552949424338999,1.3026267608127229,0.9767312049792232,0.2858573429012173,0.7079625116071397
0.0545,1.7324847538252475,1.0,2851.579731212704,0.4583503030011886,1.302157066998641,0.9770038331491978,0.2858173596606604,0.7088683254552893
0.055,1.7315327719072258,1.0,2856.0494259994825,0.4613885260367911,1.3016874065850974,0.9772697258589272,0.2857773764201035,0.7097726680738461
0.0555,1.730580789989204,1.0,2860.517829318589,0.46440969856793873,1.3012177887173655,0.9775291059214835,0.28573739317954655,0.7106755221945809
0.056,1.7296288080711824,1.0,2864.9840958384,0.46741391390895576,1.300748220795656,0.9777821873957911,0.2856974099389896,0.7115768740058908
0.0565,1.7286768261531609,1.0,2869.4433811826116,0.4704012925132729,1.3002787456495708,0.9780291800396922,0.28565742669843275,0.7124766419359706
0.057,1.7277248442351392,1.0,2873.895137962766,0.47337192473003203,1.2998093679118725,0.9782702801115685,0.2856174434578759,0.7133748179600876
0.0575,1.7267728623171175,1.0,2878.338817230698,0.476325900908375,1.299340092215324,0.9785056759376747,0.28557746021731895,0.7142713941088052
0.058,1.7258208803990958,1.0,2882.773868488846,0.4792633113974436,1.2988709231926885,0.9787355482966756,0.285537476976762,0.7151663624679532
0.0585,1.7248688984810743,1.0,2887.199739701004,0.48218424654637976,1.2984018654767286,0.9789600707825781,0.28549749373620514,0.7160597151785981
0.059000000000000004,1.7239169165630526,1.0,2891.6158773031807,0.4850887967043253,1.2979329237002073,0.979179410147437,0.2854575104956482,0.7169514444370104
0.059500000000000004,1.7229649346450309,1.0,2896.0217262156407,0.4879770522204221,1.2974641024958877,0.9793937266251102,0.2854175272550913,0.7178415424946301
0.06,1.7220129527270092,1.0,2900.416729855018,0.49084910344381194,1.2969954064965328,0.9796031742372511,0.2853775440145344,0.7187300016580334
0.0605,1.7210609708089877,1.0,2904.8003301465646,0.4937050407236368,1.296526840334905,0.9798079010826457,0.2853375607739775,0.7196168142888959
0.061,1.720108988890966,1.0,2909.171967537759,0.4965449544090384,1.2960584086437679,0.9800080496109204,0.28529757753342055,0.7205019728039533
0.0615,1.7191570069729443,1.0,2913.5310810116102,0.49936893484915873,1.2955901160558838,0.9802037568815795,0.2852575942928637,0.7213854696749653
0.062,1.7182050250549226,1.0,2917.877108100568,0.5021770723931396,1.2951219672040162,0.9803951548092633,0.28521761105230675,0.7222672974286722
0.0625,1.717253043136901,1.0,2922.209484901391,0.5049694573901227,1.2946539667209276,0.9805823703960619,0.2851776278117498,0.7231474486467555
0.063,1.7163010612188794,1.0,2926.5276460901173,0.5077461801892501,1.2941861192393809,0.9807655259516522,0.28513764457119295,0.7240259159657934
0.0635,1.7153490793008577,1.0,2930.83102493689,0.5105073311396635,1.2937184293921393,0.9809447393019941,0.285097661330636,0.7249026920772158
0.064,1.714397097382836,1.0,2935.120504164965,0.513252955843453,1.2932508890946754,0.9811201201359634,0.2850576780900791,0.7257777935114234
0.0645,1.7134451154648145,1.0,2939.394942328538,0.5159831922853685,1.292783508017285,0.981291781673907,0.2850176948495222,0.7266512035494019
0.065,1.7124931335467928,1.0,2943.6541160280385,0.5186981325487451,1.2923162877681458,0.9814598294083219,0.2849777116089653,0.7275229206168705
0.0655,1.711541151628771,1.0,2947.898078547517,0.5213978580040578,1.2918492275322844,0.9816243642235587,0.28493772836840836,0.7283929476683957
0.066,1.7105891697107494,1.0,2952.126883610296,0.5240824500217814,1.2913823264947268,0.9817854834571094,0.2848977451278515,0.7292612876483432
0.0665,1.7096371877927279,1.0,2956.3405853759805,0.5267519899723909,1.290915583840499,0.9819432810497822,0.28485776188729456,0.7301279434908851
0.067,1.7086852058747062,1.0,2960.539238437864,0.5294065592263615,1.2904489987546273,0.9820978476884936,0.28481777864673763,0.7309929181200081
0.0675,1.7077332239566845,1.0,2964.722897819799,0.5320462391541678,1.2899825704221377,0.982249270942085,0.28477779540618076,0.7318562144495215
0.068,1.7067812420386628,1.0,2968.8916189733586,0.5346711111262848,1.2895162980280563,0.9823976353905558,0.2847378121656238,0.7327178353830666
0.0685,1.7058292601206413,1.0,2973.0454577753185,0.5372812565131878,1.289050180757409,0.9825430227480719,0.2846978289250669,0.7335777838141235
0.069,1.7048772782026196,1.0,2977.184470524574,0.5398767566853514,1.2885842177952225,0.9826855119800941,0.28465784568451,0.7344360626260191
0.0695,1.7039252962845979,1.0,2981.3087139392383,0.5424576930132506,1.2881184083265225,0.9828251794149415,0.2846178624439531,0.7352926746919365
0.07,1.7029733143665762,1.0,2985.418245154313,0.5450241468673606,1.287652751536335,0.9829620988500941,0.28457787920339617,0.736147622874922
0.07050000000000001,1.7020213324485547,1.0,2989.5131217185044,0.5475761996181561,1.2871872466096863,0.983096341653517,0.2845378959628393,0.7370009100278929
0.07100000000000001,1.701069350530533,1.0,2993.5934015915454,0.5501139326361121,1.2867218927316024,0.9832279768602663,0.28449791272228236,0.7378525389936463
0.07150000000000001,1.7001173686125113,1.0,2997.6591431417296,0.5526374272917036,1.2862566890871094,0.9833570712646341,0.2844579294817255,0.738702512604866
