Time [s],Phi [rad],STIM [ ],Fsee [N],Gamma [ ],Lcerel [ ],q [ ],Lmtc [m],fisomrel [ ]
0.0,1.8,1.0,18.337756884627954,0.0006194930910531657,1.3792984386892406,0.00509898488457629,0.288653,0.5412394592088787
0.0005,1.79999375,1.0,18.835644274139536,0.006225227533561547,1.379240772364915,0.01471885460817813,0.2886527375,0.5413789431634655
0.001,1.799975,1.0,22.62969358042187,0.011799518237976344,1.3788361920097687,0.038855055875965605,0.28865195,0.5423569503301584
0.0015,1.79994375,1.0,33.08432177156565,0.01734254157967138,1.377877222245609,0.07499935861593833,0.2886506375,0.5446709340176741
0.002,1.7999,1.0,57.58285222468049,0.022854472942874526,1.3761132734837866,0.11989624170533535,0.2886488,0.5489120073638722
0.0025,1.79984375,1.0,103.56269952518495,0.02833548672851779,1.373629644172599,0.17018930446787978,0.28864643749999996,0.5548497735824522
0.003,1.7997750000000001,1.0,169.15549109898078,0.03378575636229986,1.3709113203141392,0.22306030088493417,0.28864354999999997,0.561303547394203
0.0035,1.79969375,1.0,246.84321471815792,0.03920545429262729,1.3683052528224016,0.2763529629520348,0.2886401375,0.5674465584930704
0.004,1.7996,1.0,331.15408158470996,0.04459475200277042,1.3659014169512036,0.32846760053899415,0.2886362,0.5730744677075941
0.0045000000000000005,1.7994937500000001,1.0,419.26277547919915,0.049953820014490224,1.3636896080747867,0.37830030867719233,0.2886317375,0.5782202454668626
0.005,1.799375,1.0,509.57630617310355,0.05528282785777043,1.3616434712711554,0.4251712112663423,0.28862675,0.5829528051241997
0.0055,1.79924375,1.0,601.03308095013,0.06058194426183598,1.3597395781550987,0.4687302888863326,0.2886212375,0.5873323849132386
0.006,1.7991000000000001,1.0,692.7512295660059,0.06585133675640192,1.3579610958869872,0.5088662839051751,0.2886152,0.5914025951255968
0.006500000000000001,1.79894375,1.0,784.0377345504484,0.07109117211616349,1.356294441049483,0.545627770633076,0.2886086375,0.5951985691238407
0.007,1.798775,1.0,874.3137058339413,0.07630161618576689,1.3547288795111365,0.5791639432802814,0.28860155,0.598748157017773
0.0075,1.79859375,1.0,963.0858755188502,0.08148283364625623,1.3532557776951717,0.6096813956230623,0.2885939375,0.6020738377709804
0.008,1.7984,1.0,1049.9932588839115,0.08663498882039035,1.351867120177735,0.6374136426386265,0.2885858,0.6051962045211332
0.0085,1.79819375,1.0,1134.7153265955715,0.09175824435458034,1.3505564332999132,0.6626021439608146,0.2885771375,0.6081319740817714
0.009000000000000001,1.797975,1.0,1217.0128661496967,0.09685276229549604,1.3493177549938704,0.6854833697805734,0.28856795,0.61089638407539
0.0095,1.79774375,1.0,1296.7282016882748,0.10191870431312983,1.3481453998106974,0.7062814348017098,0.2885582375,0.6135037646385513
0.01,1.7975,1.0,1373.7273445976923,0.1069562303670771,1.3470345342802472,0.7252045718570583,0.288548,0.6159663010742727
0.0105,1.79724375,1.0,1447.9224992724155,0.11196549970070138,1.3459806765687585,0.7424432292610645,0.2885372375,0.618295189544082
0.011,1.796975,1.0,1519.2773394123976,0.11694667086426722,1.3449795058881107,0.7581697702027228,0.28852595000000003,0.6205010858328923
0.0115,1.79669375,1.0,1587.7867088740552,0.12189990215192477,1.3440270152977047,0.7725391924449881,0.2885141375,0.622593790642069
0.012,1.7964,1.0,1653.4357682005264,0.12682534945987564,1.3431198944626086,0.7856903906593407,0.28850180000000003,0.6245814350254093
0.0125,1.79609375,1.0,1716.2501025979316,0.13172316866503944,1.3422548375832424,0.7977471661731892,0.2884889375,0.6264720221647588
0.013000000000000001,1.7957750000000001,1.0,1776.271392405653,0.13659351455416363,1.3414287763243895,0.8088197493010287,0.28847555,0.6282729295205038
0.0135,1.79544375,1.0,1833.582442776527,0.14143654277908282,1.340638546087325,0.8190060657933,0.2884616375,0.6299916483402852
0.014,1.7951000000000001,1.0,1888.223232750422,0.1462524053903597,1.3398817784334593,0.8283934030285919,0.2884472,0.631633854237592
0.0145,1.79474375,1.0,1940.2533876540044,0.1510412542548632,1.3391561435697106,0.8370593235969364,0.2884322375,0.6332050710424805
0.015,1.794375,1.0,1989.75359049923,0.15580324123946226,1.3384593117029961,0.845072775294646,0.28841675,0.6347107599538715
0.0155,1.79399375,1.0,2036.8036845627116,0.16053851687875306,1.3377891640952138,0.8524951685110622,0.2884007375,0.6361558693235229
0.016,1.7936,1.0,2081.508195260732,0.1652472325905306,1.337143498119708,0.8593811723560996,0.2883842,0.6375454772819086
0.0165,1.7931937500000001,1.0,2123.9335662598123,0.16992953614366074,1.3365206630707867,0.865779702678963,0.2883671375,0.6388834289744838
0.017,1.792775,1.0,2164.1551973485944,0.1745855750951475,1.3359190397247511,0.8717344454864204,0.28834955,0.6401734654030646
0.0175,1.7923437500000001,1.0,2202.25940835272,0.17921549700199493,1.3353370088579029,0.8772844657080388,0.2883314375,0.6414192936550854
0.018000000000000002,1.7919,1.0,2238.329295604497,0.18381944811552453,1.3347730838257874,0.8824647848328568,0.2883128,0.6426243059495291
0.0185,1.79144375,1.0,2272.4632275167673,0.18839757606794216,1.3342257125783423,0.8873068017519378,0.2882936375,0.6437920059040156
0.019,1.790975,1.0,2304.73344873009,0.19295002480162668,1.3336936819371419,0.891838809835424,0.28827395,0.6449251487092909
0.0195,1.79049375,1.0,2335.210714503012,0.19747693738670224,1.333175857157783,0.8960862875746444,0.2882537375,0.6460263016810479
0.02,1.79,1.0,2363.971527898678,0.201978456893293,1.3326711034958625,0.9000721991894852,0.288233,0.647098013070297
0.0205,1.78949375,1.0,2391.097312788639,0.2064547263382482,1.3321782895267624,0.9038172773495156,0.2882117375,0.6481428060174567
0.021,1.788975,1.0,2416.6564895746087,0.2109058863844334,1.3316964557960507,0.9073403058959967,0.28818995000000003,0.6491628227434267
0.021500000000000002,1.78844375,1.0,2440.7402097490803,0.21533208122844782,1.3312244629710084,0.9106582608610609,0.2881676375,0.6501605712039767
0.022,1.7879,1.0,2463.4050295163147,0.21973344906618933,1.3307615411985183,0.9137866143238277,0.2881448,0.651137764234633
0.0225,1.78734375,1.0,2484.7104811286235,0.2241101280935559,1.3303069206254639,0.9167394218874958,0.28812143749999997,0.6520961039123837
0.023,1.786775,1.0,2504.7188282682628,0.22846225650644536,1.329859831398728,0.9195294719590063,0.28809755,0.6530372819821517
0.0235,1.78619375,1.0,2523.494834569893,0.23278997250075556,1.3294195036651937,0.9221684175327313,0.28807313749999996,0.6539629802454638
0.024,1.7856,1.0,2541.0973960330093,0.2370934122429819,1.3289852443421901,0.9246669055698885,0.2880482,0.6548747098377214
0.0245,1.78499375,1.0,2557.5909441768626,0.24137271464451168,1.3285563268733231,0.9270346614450681,0.2880227375,0.6557740435953764
0.025,1.784375,1.0,2573.029125488928,0.24562801534740925,1.328132142887845,0.9292806040589797,0.28799675,0.6566622984816036
0.025500000000000002,1.78374375,1.0,2587.4575189982447,0.24985944727357778,1.327712173579846,0.9314129201672924,0.2879702375,0.6575405972180257
0.026000000000000002,1.7831000000000001,1.0,2600.922994278036,0.2540671433449206,1.3272959001434161,0.9334391218105211,0.2879432,0.6584100565985682
0.0265,1.78244375,1.0,2613.473601014744,0.2582512364833408,1.3268828037726457,0.9353661110254795,0.2879156375,0.6592717876203253
0.027,1.781775,1.0,2625.1584645446424,0.2624118596107417,1.3264723656616246,0.9372002375611748,0.28788755,0.6601268955972655
0.0275,1.7810937500000001,1.0,2636.0197754387586,0.2665491435690235,1.3260641401848083,0.9389473605950523,0.2878589375,0.6609763280788956
0.028,1.7804,1.0,2646.1009884652944,0.2706632207348659,1.3256576776537696,0.9406128837392489,0.2878298,0.6618210363046986
0.0285,1.77969375,1.0,2655.4547910856186,0.27475422475664313,1.3252524502242409,0.9422017856506073,0.2878001375,0.6626621289002796
0.029,1.778975,1.0,2664.112602720638,0.2788222827281275,1.3248481324946424,0.9437186947915647,0.28776995,0.6635002895878293
0.029500000000000002,1.7782437500000001,1.0,2672.106368335099,0.28286752174309115,1.3244443990633945,0.9451678944844596,0.2877392375,0.6643361987129873
0.03,1.7775,1.0,2679.468512320622,0.2868900688953063,1.3240409245289175,0.9465533530625552,0.287708,0.6651705332603456
0.0305,1.77674375,1.0,2686.231894726129,0.2908900512785452,1.3236373834896318,0.9478787510291934,0.2876762375,0.6660039668621971
0.031,1.775975,1.0,2692.4297698360624,0.29486759598658013,1.3232334505439578,0.9491475055544618,0.28764395,0.6668371698005319
0.0315,1.7751937500000001,1.0,2698.0957470959943,0.29882283011318317,1.322828800290316,0.9503627925992512,0.2876111375,0.667670809002281
0.032,1.7744,1.0,2703.257036353596,0.302755876042302,1.3224231686871546,0.9515275729699821,0.2875778,0.6685054218550213
0.0325,1.77359375,1.0,2707.948397032002,0.3066668642523067,1.3220162251769494,0.95264459837733,0.2875439375,0.6693416796007278
0.033,1.772775,1.0,2712.192704269407,0.3105559170872223,1.3216077499137602,0.9537164444231234,0.28750955,0.6701800229445418
0.0335,1.7719437500000002,1.0,2716.0114714327533,0.3144231557188273,1.3211975372112206,0.9547455154243409,0.2874746375,0.6710208612546129
0.034,1.7711000000000001,1.0,2719.426380614208,0.3182687013189004,1.3207853813829635,0.9557340566432588,0.2874392,0.6718646016931973
0.0345,1.7702437500000001,1.0,2722.4592652794818,0.3220926750592204,1.320371076742623,0.9566841666848341,0.2874032375,0.6727116491925138
0.035,1.7693750000000001,1.0,2725.132093854248,0.32589519811156586,1.3199544176038325,0.957597808789349,0.28736675,0.6735624064279093
0.035500000000000004,1.76849375,1.0,2727.4669542485485,0.3296763916477156,1.3195351982802253,0.9584768211303125,0.2873297375,0.67441727378832
0.036000000000000004,1.7676,1.0,2729.479636218732,0.33343637074189614,1.3191132712873779,0.9593229308079464,0.2872922,0.675276530893713
0.0365,1.76669375,1.0,2731.1915113038326,0.33717525696987066,1.318688439177168,0.9601377539695145,0.2872541375,0.6761405571901162
0.037,1.765775,1.0,2732.630601684467,0.3408931794146499,1.3182604448079802,0.9609228031963991,0.28721555,0.6770098509905185
0.0375,1.76484375,1.0,2733.809366099565,0.34459025220382034,1.3178291730625447,0.9616795099278295,0.2871764375,0.677884619739729
0.038,1.7639,1.0,2734.7403127480475,0.3482665894649684,1.3173945088235917,0.9624092197309122,0.28713679999999997,0.6787650694152775
0.0385,1.76294375,1.0,2735.435993392709,0.3519223053256806,1.316956336973852,0.963113198391001,0.28709663750000003,0.6796514045029274
0.039,1.761975,1.0,2735.9089977569965,0.3555575139135433,1.316514542396056,0.9637926375063962,0.28705595,0.6805438279713496
0.0395,1.7609937500000001,1.0,2736.171948217054,0.35917232935614307,1.3160690099729342,0.9644486596326257,0.2870147375,0.6814425412459478
0.04,1.76,1.0,2736.237494785935,0.3627668657810664,1.315619624587217,0.965082323017003,0.286973,0.6823477441818375
0.0405,1.7589937500000001,1.0,2736.1183103928856,0.36634123731589974,1.3151662711216348,0.9656946259601025,0.2869307375,0.6832596350359829
0.041,1.757975,1.0,2735.8270864559836,0.36989555808822955,1.314708834458918,0.9662865108371734,0.28688795,0.6841784104384866
0.0415,1.75694375,1.0,2735.376528748093,0.3734299422256423,1.3142471994817972,0.9668588678092858,0.2868446375,0.6851042653630341
0.042,1.7559,1.0,2734.776940847102,0.37694449973102595,1.3137812729824585,0.9674125393994029,0.28680079999999997,0.6860373492522572
0.0425,1.75484375,1.0,2734.0368205183854,0.380439339224124,1.3133109782286851,0.9679483236009435,0.2867564375,0.6869777771727819
0.043000000000000003,1.753775,1.0,2733.1720149903795,0.38391458368768183,1.3128361717902917,0.9684669724760948,0.28671155,0.6879257959808518
0.043500000000000004,1.75269375,1.0,2732.188919365363,0.3873703397329073,1.3123567961048157,0.968969202460076,0.28666613750000003,0.6888814793594853
0.044,1.7516,1.0,2731.093932167711,0.3908067139710083,1.3118727936097947,0.9694556923761355,0.2866202,0.6898448998916531
0.0445,1.75049375,1.0,2729.8934540082214,0.39422381301319287,1.3113841067427658,0.9699270857784359,0.2865737375,0.6908161290433986
0.045,1.7493750000000001,1.0,2728.593886320717,0.39762174347066875,1.310890677941267,0.9703839931267726,0.28652675,0.6917952371467455
0.0455,1.74824375,1.0,2727.2016301726735,0.4010006119546439,1.3103924496428352,0.9708269938067299,0.2864792375,0.692782293382398
0.046,1.7471,1.0,2725.723085149274,0.40436052507632625,1.309889364285008,0.9712566380076451,0.2864312,0.6937773657622246
0.0465,1.7459437500000001,1.0,2724.1646483108357,0.40770158944692364,1.3093813643053231,0.9716734484696655,0.28638263750000004,0.6947805211115335
0.047,1.744775,1.0,2722.532713223661,0.41102391167764396,1.3088683921413176,0.9720779221101845,0.28633355,0.6957918250511393
0.0475,1.74359375,1.0,2720.8336690647498,0.41432759837969513,1.308350390230529,0.9724705315390486,0.28628393750000003,0.696811341979211
0.048,1.7424,1.0,2719.073087430727,0.4176127516599279,1.3078273084087586,0.9728517264249718,0.2862338,0.6978391205287596
0.0485,1.74119375,1.0,2717.2543444349535,0.42087946058897513,1.3072991164684222,0.9732219346601095,0.2861831375,0.6988751690616297
0.049,1.739975,1.0,2715.387753258886,0.424127860421714,1.3067657209605024,0.9735815651061015,0.28613195,0.699919618761426
0.0495,1.73874375,1.0,2713.476316269679,0.4273580496121284,1.3062270949695667,0.9739310074186306,0.2860802375,0.7009724690896046
0.05,1.7375,1.0,2711.5230328707557,0.4305701266142024,1.3056832115801824,0.9742706331077696,0.286028,0.7020337186161525
0.0505,1.73624375,1.0,2709.5308992620485,0.4337641898819198,1.3051340438769172,0.9746007965428377,0.2859752375,0.7031033650105853
0.051000000000000004,1.734975,1.0,2707.502908216923,0.43694033786926456,1.3045795649443384,0.9749218358929488,0.28592195,0.7041814050329005
0.051500000000000004,1.73369375,1.0,2705.4420488747433,0.44009866903022066,1.304019747867013,0.9752340740078963,0.2858681375,0.7052678345244829
0.052000000000000005,1.7324,1.0,2703.3513065493967,0.4432392818187719,1.3034545657295091,0.9755378192436555,0.2858138,0.7063626483989638
0.0525,1.73109375,1.0,2701.233662554569,0.4463622746889024,1.3028839916163941,0.9758333662364342,0.28575893750000003,0.7074658406330361
0.053,1.729775,1.0,2699.092094044394,0.44946774609459594,1.302307998612235,0.9761209966288988,0.28570355000000003,0.7085774042572224
0.0535,1.72844375,1.0,2696.9295738702,0.45255579448983657,1.3017265598015995,0.9764009797519163,0.2856476375,0.7096973313465939
0.054,1.7271,1.0,2694.7490704539346,0.4556265183286081,1.301139648269055,0.9766735732648926,0.2855912,0.7108256130114474
0.0545,1.7257437500000001,1.0,2692.5535476769387,0.45868001606489456,1.3005472370991689,0.976939023757551,0.2855342375,0.7119622393879337
0.055,1.724375,1.0,2690.345964785007,0.4617163861526798,1.299949299376509,0.9771975673157774,0.28547675,0.7131071996286398
0.0555,1.72299375,1.0,2688.1292763099,0.46473572704594784,1.2993458081856422,0.9774494300539619,0.2854187375,0.7142604818931273
0.056,1.7216,1.0,2685.901874734718,0.46773810644165287,1.2987367783698416,0.9776948282036827,0.2853602,0.7154219937793628
0.0565,1.72019375,1.0,2683.667474773451,0.47072364392554134,1.2981221760091946,0.9779339710038326,0.28530113749999997,0.716591735240889
0.057,1.718775,1.0,2681.4301046342734,0.47369245351859635,1.2975019642527679,0.9781670583552335,0.28524155,0.7177697106688292
0.0575,1.71734375,1.0,2679.19061002149,0.4766446244031675,1.296876135386363,0.978394281416411,0.2851814375,0.718955868106052
0.058,1.7159,1.0,2676.94983524033,0.47958024576160446,1.2962446816957809,0.9786158236210128,0.2851208,0.7201501548691501
0.0585,1.71444375,1.0,2674.7086231930316,0.4824994067762569,1.2956075954668234,0.9788318610494142,0.2850596375,0.7213525175456725
0.059000000000000004,1.7129750000000001,1.0,2672.4678153756695,0.4854021966294745,1.2949648689852915,0.979042562779598,0.28499795,0.7225629019913579
0.059500000000000004,1.71149375,1.0,2670.228251876947,0.48828870450360673,1.2943164945369865,0.9792480912186213,0.2849357375,0.7237812533273598
0.06,1.71,1.0,2667.990771377658,0.4911590195810034,1.29366246440771,0.9794486024158865,0.284873,0.7250075159374697
0.0605,1.7084937500000001,1.0,2665.7562111524126,0.4940132310440141,1.293002770883263,0.9796442463593429,0.2848097375,0.7262416334653383
0.061,1.7069750000000001,1.0,2663.525407071446,0.49685142807498855,1.2923374062494468,0.9798351672556805,0.28474595,0.7274835488116898
0.0615,1.7054437500000001,1.0,2661.299193604688,0.4996736998562763,1.291666362792063,0.9800215037954905,0.2846816375,0.7287332041315328
0.062,1.7039,1.0,2659.0784038271217,0.5024801355702271,1.2909896327969128,0.9802033894043076,0.2846168,0.7299905408313707
0.0625,1.70234375,1.0,2656.8638694246165,0.5052708243991904,1.2903072085497975,0.98038095248039,0.2845514375,0.7312554995664042
0.063,1.7007750000000001,1.0,2654.6564207022157,0.5080458555255161,1.2896190823365183,0.9805543166200271,0.28448555,0.7325280202377329
0.0635,1.69919375,1.0,2652.456886592965,0.5108053181315535,1.2889252464428766,0.9807236008311172,0.28441913750000003,0.7338080419895504
0.064,1.6976,1.0,2650.266094668062,0.5135493013996526,1.2882256931546738,0.9808889197357114,0.2843522,0.7350955032063387
0.0645,1.69599375,1.0,2648.084871149004,0.5162778945121629,1.2875204147577113,0.9810503837621645,0.2842847375,0.7363903415100563
0.065,1.694375,1.0,2645.9140409203424,0.5189911866514341,1.2868094035377902,0.9812080993275042,0.28421675,0.7376924937573248
0.0655,1.69274375,1.0,2643.752469226285,0.5216892310526612,1.2860926698674413,0.9813621673953047,0.2841482375,0.7390018630360946
0.066,1.6911,1.0,2641.6015442341377,0.5243721404445161,1.2853702008257277,0.981512688315807,0.2840792,0.7403183943899356
0.0665,1.6894437500000001,1.0,2639.4625281235813,0.5270400206007211,1.2846419846356718,0.9816597584244066,0.2840096375,0.7416420299192155
0.067,1.687775,1.0,2637.3353936357234,0.529692951286321,1.2839080214253367,0.9818034694641503,0.28393955,0.74297268931872
0.0675,1.68609375,1.0,2635.2201136034646,0.532331012266361,1.2831683113227852,0.9819439099723167,0.2838689375,0.7443102916537061
0.068,1.6844000000000001,1.0,2633.1166609506568,0.534954283305886,1.2824228544560807,0.982081165413318,0.2837978,0.7456547553599472
0.0685,1.68269375,1.0,2631.0250086918813,0.537562844169941,1.2816716509532864,0.98221531830519,0.2837261375,0.7470059982437819
0.069,1.680975,1.0,2628.945129932387,0.5401567746235713,1.280914700942465,0.9823464483400252,0.28365395,0.7483639374821601
0.0695,1.67924375,1.0,2626.8769978676073,0.5427361544318214,1.28015200455168,0.9824746324986706,0.28358123749999997,0.7497284896226895
0.07,1.6775,1.0,2624.8205857830344,0.5453010633597368,1.2793835619089944,0.98259994516001,0.283508,0.7510995705836834
0.07050000000000001,1.67574375,1.0,2622.7758670537396,0.5478515811723622,1.278609373142471,0.9827224582051127,0.2834342375,0.7524770956542071
0.07100000000000001,1.673975,1.0,2620.7428151441486,0.5503877876347428,1.2778294383801734,0.9828422411165266,0.28335995,0.7538609794941246
0.07150000000000001,1.67219375,1.0,2618.7214036078544,0.5529097625119236,1.2770437577501643,0.9829593610729722,0.2832851375,0.7552511361341463
0.07200000000000001,1.6704,1.0,2616.711606087265,0.5554175855689495,1.2762523313805072,0.9830738830396787,0.2832098,0.7566474789758751
0.0725,1.66859375,1.0,2614.7133963132865,0.5579113365708654,1.275455159399265,0.9831858698545912,0.2831339375,0.7580499207918545
0.073,1.6667750000000001,1.0,2612.7267481051963,0.5603910952827168,1.2746522419345006,0.9832953823106615,0.28305755,0.7594583737256141
0.0735,1.66494375,1.0,2610.7516353700726,0.5628569414695482,1.2738435791142775,0.9834024792344259,0.2829806375,0.760872749291717
0.074,1.6631,1.0,2608.7880321026983,0.565308954896405,1.2730291710666584,0.9835072175610603,0.2829032,0.7622929583758081
0.0745,1.6612437500000001,1.0,2606.835912385248,0.5677472153283319,1.2722090179197068,0.9836096524060912,0.2828252375,0.7637189112346581
0.075,1.659375,1.0,2604.8952503870664,0.5701718025303741,1.2713831198014856,0.9837098371339337,0.28274675,0.7651505174962134
0.0755,1.65749375,1.0,2602.9660741782404,0.5725827827585138,1.2705514763391617,0.9838078226529519,0.2826677375,0.766587687023916
