Time [s],Phi [rad],STIM [ ],Fsee [N],Gamma [ ],Lcerel [ ],q [ ],Lmtc [m],fisomrel [ ]
0.0,1.8,1.0,18.8864078178751,0.0009791115653330143,1.3792380441305891,0.00524629781438323,0.288653,0.5413855417219557
0.0005,1.79999375,1.0,19.482347237228254,0.006582828832553958,1.3791706072367083,0.015848325322983813,0.2886527375,0.5415486307644959
0.001,1.799975,1.0,23.544428918136006,0.012155113677235822,1.378745781313077,0.04083566991341399,0.28865195,0.5425753607702387
0.0015,1.79994375,1.0,34.63541902594922,0.017696142408843703,1.3777506285007748,0.07763988323373613,0.2886506375,0.5449759651379773
0.002,1.7999,1.0,60.355984900439275,0.02320609035082703,1.3759417693377156,0.12297818752504999,0.2886488,0.549323297408252
0.0025,1.79984375,1.0,107.74403523829221,0.028685131842144003,1.3734364553462655,0.1735135240368687,0.28864643749999996,0.5553099930434205
0.003,1.7997750000000001,1.0,174.30957907157278,0.03413344024251589,1.3707245425637968,0.22647071919326206,0.28864354999999997,0.561745260015509
0.0035,1.79969375,1.0,252.514783717218,0.03955118793959627,1.3681347990592037,0.2797315247380802,0.2886401375,0.5678468422246166
0.004,1.7996,1.0,337.0952950614579,0.044938546352757174,1.3657470648508763,0.3317294622518221,0.2886362,0.5734345808449264
0.0045000000000000005,1.7994937500000001,1.0,425.3529732565571,0.05029568595638167,1.3635488714901662,0.38139007435549177,0.2886317375,0.5785466136423043
0.005,1.799375,1.0,515.7481615668074,0.055622776219334695,1.3615140250358595,0.4280574224599105,0.28862675,0.5832513064488902
0.0055,1.79924375,1.0,607.2234978268541,0.06091998576605869,1.359619974593328,0.4713995732729396,0.2886212375,0.5876067406680299
0.006,1.7991000000000001,1.0,698.9115399749305,0.0661874820831606,1.3578501939755774,0.5113176108969624,0.2886152,0.5916557355600818
0.006500000000000001,1.79894375,1.0,790.138684668788,0.07142543199112676,1.3561911711000714,0.5478680217399803,0.2886086375,0.5954331939743613
0.007,1.798775,1.0,880.3138895690576,0.07663400103443394,1.3546326795088337,0.5812050140091899,0.28860155,0.5989657609195946
0.0075,1.79859375,1.0,968.9827963311216,0.0818133542574322,1.3531656793326259,0.6115373818976048,0.2885939375,0.6022767950941482
0.008,1.7984,1.0,1055.7518916331694,0.08696365534726756,1.3517828411998334,0.639100005094025,0.2885858,0.6053853081548879
0.0085,1.79819375,1.0,1140.3130245381597,0.09208506714934485,1.350477616507273,0.6641342571463321,0.2885771375,0.6083081643092504
0.009000000000000001,1.797975,1.0,1222.4580040769597,0.09717775220617147,1.349243715453651,0.6868757971123735,0.28856795,0.6110613112759224
0.0095,1.79774375,1.0,1302.0018990022297,0.10224187122387086,1.348075923426083,0.7075480484114285,0.2885582375,0.6136580087087997
0.01,1.7975,1.0,1378.8174218013291,0.10727758432775605,1.346969377481949,0.726358104513598,0.288548,0.6161104945465206
0.0105,1.79724375,1.0,1452.8397453607306,0.11228505115377437,1.3459193613321727,0.743495129645096,0.2885372375,0.6184304702026204
0.011,1.796975,1.0,1524.0255151402132,0.11726443035302492,1.3449217020461492,0.759130424248159,0.28852595000000003,0.6206282508213885
0.0115,1.79669375,1.0,1592.3438933200612,0.12221587888432758,1.3439727431990383,0.7734180605449471,0.2885141375,0.6227128569391853
0.012,1.7964,1.0,1657.8033044121557,0.1271395532590927,1.3430689210493332,0.786495804677007,0.28850180000000003,0.624692970057546
0.0125,1.79609375,1.0,1720.448852679329,0.1320356102077065,1.3422067368455706,0.7984864645975208,0.2884889375,0.6265770065609262
0.013000000000000001,1.7957750000000001,1.0,1780.3207691898324,0.13690420474227355,1.341383175404731,0.8094994785532105,0.28847555,0.6283722179546642
0.0135,1.79544375,1.0,1837.455045353178,0.14174548992941735,1.3405956210228018,0.819632249052416,0.2884616375,0.6300848945793749
0.014,1.7951000000000001,1.0,1891.914509632352,0.14655961883576146,1.3398414579957705,0.8289713006000496,0.2884472,0.6317212481738169
0.0145,1.79474375,1.0,1943.7779569385793,0.15134674388674174,1.3391181625072093,0.8375935418807829,0.2884322375,0.6332872189341008
0.015,1.794375,1.0,1993.132374140801,0.15610701766896673,1.3384233563247565,0.8455673956464632,0.28841675,0.6347883670085679
0.0155,1.79399375,1.0,2040.0519589675346,0.16084059074524468,1.3377549982276213,0.8529538497283415,0.2884007375,0.6362294680237868
0.016,1.7936,1.0,2084.6053499385066,0.1655476118390156,1.3371112726133472,0.8598072936258907,0.2883842,0.6376147636384233
0.0165,1.7931937500000001,1.0,2126.8750361743646,0.17022822967371948,1.3364903638794776,0.8661762305036913,0.2883671375,0.6389484534957166
0.017,1.792775,1.0,2166.9524693507783,0.17488259259012687,1.335890494227866,0.8721039853585674,0.28834955,0.6402346169877549
0.0175,1.7923437500000001,1.0,2204.9258042472784,0.17951084814067303,1.3353100347943347,0.877629346774571,0.2883314375,0.6414769788463712
0.018000000000000002,1.7919,1.0,2240.890358775475,0.18411314437356743,1.3347473845133422,0.882787065911186,0.2883128,0.6426791727087904
0.0185,1.79144375,1.0,2274.912561461503,0.18868962536998857,1.3342013193112905,0.8876084133831634,0.2882936375,0.6438439992684721
0.019,1.790975,1.0,2307.0659430183055,0.19324043521111495,1.3336706151145818,0.8921214854560381,0.28827395,0.6449742366360223
0.0195,1.79049375,1.0,2337.430549637431,0.19776571797812503,1.3331540478496187,0.8963515676463755,0.2882537375,0.6460726415861416
0.02,1.79,1.0,2366.087655989499,0.2022656170111845,1.332650439654851,0.900321463521816,0.288233,0.64714185267039
0.0205,1.78949375,1.0,2393.1178619595726,0.20674027543081952,1.332158670997026,0.9040517755726158,0.2882117375,0.6481843663312803
0.021,1.788975,1.0,2418.601280568722,0.21118983627601506,1.3316776727724737,0.9075611467007375,0.28818995000000003,0.6492025554344256
0.021500000000000002,1.78844375,1.0,2442.5976060950406,0.21561443869568436,1.331206612544956,0.9108665109179438,0.2881676375,0.6501982774441819
0.022,1.7879,1.0,2465.1699134874284,0.22001422183874064,1.330744657878235,0.9139832298418,0.2881448,0.6511733778220961
0.0225,1.78734375,1.0,2486.3843784388478,0.22438932485409718,1.330290976336072,0.91692526044426,0.28812143749999997,0.6521296905324119
0.023,1.786775,1.0,2506.310012823638,0.22873988689066718,1.3298447354822291,0.9197053029479739,0.28809755,0.6530690385033746
0.0235,1.78619375,1.0,2525.0051583610525,0.2330660440611193,1.3294052281672974,0.9223349531367684,0.28807313749999996,0.6539929708419985
0.024,1.7856,1.0,2542.5437766407513,0.23736793763001168,1.3289716205651845,0.9248247734981746,0.2880482,0.6549032935673351
0.0245,1.78499375,1.0,2558.9748998290574,0.24164570217233222,1.3285433331004879,0.927184459390208,0.2880227375,0.6558012700102738
0.025,1.784375,1.0,2574.3464130386233,0.2458994715454186,1.3281198121223239,0.929422887941968,0.28799675,0.6566881023367694
0.025500000000000002,1.78374375,1.0,2588.7076561321064,0.2501293796066085,1.3277005039798073,0.9315481944987906,0.2879702375,0.657564986260779
0.026000000000000002,1.7831000000000001,1.0,2602.109299314528,0.2543355602132396,1.3272848550220537,0.9335678446739025,0.2879432,0.6584331112027847
0.0265,1.78244375,1.0,2614.6032255212776,0.2585181472226495,1.326872311598179,0.9354886985222209,0.2879156375,0.659293660428772
0.027,1.781775,1.0,2626.231525853742,0.26267727099434346,1.3264624210053202,0.9373170818496062,0.28788755,0.6601476009928096
0.0275,1.7810937500000001,1.0,2637.0492525336113,0.2668130677787104,1.3260546190801734,0.9390588076326594,0.2878589375,0.6609961268382749
0.028,1.7804,1.0,2647.0980588923308,0.27092566867235834,1.3256484738129208,0.9407192547948823,0.2878298,0.6618401514774088
0.0285,1.77969375,1.0,2656.411784881344,0.27501520171887717,1.3252436318622816,0.942303400351717,0.2878001375,0.6626804207048236
0.029,1.778975,1.0,2665.0248719067304,0.27908179496185653,1.3248397398869747,0.9438158453364661,0.28776995,0.6635176766267941
0.029500000000000002,1.7782437500000001,1.0,2672.972309778162,0.28312557644488634,1.3244364445457193,0.9452608480510082,0.2877392375,0.6643526576866468
0.03,1.7775,1.0,2680.2895864257107,0.28714667421155626,1.3240333924972343,0.9466423539790465,0.287708,0.6651860986821854
0.0305,1.77674375,1.0,2687.012640385322,0.2911452163054562,1.3236302304002385,0.9479640227332021,0.2876762375,0.6660187307751548
0.031,1.775975,1.0,2693.1727518871835,0.2951213290405276,1.3232266512541853,0.9492292576967111,0.28764395,0.6668511859662158
0.0315,1.7751937500000001,1.0,2698.799243759028,0.2990751389157299,1.322822369084112,0.9504412248701641,0.2876111375,0.6676840498052338
0.032,1.7744,1.0,2703.9308201434665,0.3030067744058306,1.322417014974601,0.9516028603625157,0.2875778,0.6685180754300635
0.0325,1.77359375,1.0,2708.5902039581447,0.30691635768680414,1.3220103685730145,0.9527169145584812,0.2875439375,0.6693537070518858
0.033,1.772775,1.0,2712.8003316296513,0.31080401093462506,1.321602209526715,0.953785951303036,0.28750955,0.6701913865673945
0.0335,1.7719437500000002,1.0,2716.5843323655927,0.31466985632526795,1.3211923174830653,0.9548123627923726,0.2874746375,0.6710315535390874
0.034,1.7711000000000001,1.0,2719.965508503185,0.3185140160347072,1.3207804720894278,0.9557983831074914,0.2874392,0.6718746451724611
0.0345,1.7702437500000001,1.0,2722.967316934611,0.32233661223891735,1.3203664529931654,0.9567461005285133,0.2874032375,0.6727210962901083
0.035,1.7693750000000001,1.0,2725.6133516085365,0.32613776711387293,1.3199500398416404,0.9576574687523698,0.28736675,0.6735713393027192
0.035500000000000004,1.76849375,1.0,2727.9246691139488,0.329917598054295,1.3195310364493529,0.9585343185184089,0.2873297375,0.6744257549285788
0.036000000000000004,1.7676,1.0,2729.924286247256,0.3336762308590875,1.3191092297361589,0.9593783657092024,0.2872922,0.6752847560497302
0.0365,1.76669375,1.0,2731.6275635830425,0.3374137824504221,1.3186844770124306,0.9601912246965499,0.2872541375,0.6761486100488316
0.037,1.765775,1.0,2733.0497162696834,0.3411303694055424,1.3182566375435847,0.9609744108703897,0.28721555,0.6770175786334547
0.0375,1.76484375,1.0,2734.206020758852,0.344826108301692,1.3178255705950381,0.961729347701686,0.2871764375,0.6778919217982731
0.038,1.7639,1.0,2735.1118070423004,0.34850111571611436,1.3173911354322072,0.9624573733320082,0.28713679999999997,0.6787718977967293
0.0385,1.76294375,1.0,2735.782451327404,0.352155508226053,1.3169531913205093,0.9631597466211334,0.28709663750000003,0.6796577631114307
0.039,1.761975,1.0,2736.2333691517133,0.3557894024087514,1.3165115975253605,0.9638376527026685,0.28705595,0.6805497724232915
0.0395,1.7609937500000001,1.0,2736.4686896239787,0.3594028979319586,1.3160663160692636,0.9644922142202881,0.2870147375,0.6814479714489936
0.04,1.76,1.0,2736.513049160458,0.3629961271703609,1.315617123050627,0.9651244790486965,0.286973,0.6823527794555018
0.0405,1.7589937500000001,1.0,2736.3841507675647,0.36656921333042386,1.3151638577159377,0.9657354395707629,0.2869307375,0.6832644859362507
0.041,1.757975,1.0,2736.090176020662,0.37012226527876735,1.3147064458984659,0.966326037545025,0.28688795,0.6841832044322576
0.0415,1.75694375,1.0,2735.6393201839014,0.37365539188201113,1.314244813431483,0.9668971626003491,0.2868446375,0.6851090472940448
0.042,1.7559,1.0,2735.039789807321,0.3771687020067751,1.31377888614826,0.9674496556552588,0.28680079999999997,0.6860421256618536
0.0425,1.75484375,1.0,2734.299800445211,0.38066230451967903,1.3133085898820673,0.9679843120792319,0.2867564375,0.6869825494455055
0.043000000000000003,1.753775,1.0,2733.427574495972,0.38413630828734285,1.3128338504661765,0.9685018846178645,0.28671155,0.6879304273039092
0.043500000000000004,1.75269375,1.0,2732.4313391657834,0.3875908221763863,1.312354593733858,0.9690030861017465,0.28666613750000003,0.6888858666242235
0.044,1.7516,1.0,2731.319324551724,0.3910259550534292,1.3118707455183831,0.9694885919570503,0.2866202,0.689848973500663
0.0445,1.75049375,1.0,2730.099761849059,0.39444181578509147,1.3113822316530224,0.9699590425341701,0.2865737375,0.6908198527129576
0.045,1.7493750000000001,1.0,2728.780881679233,0.39783851323799285,1.310888977971047,0.9704150452692664,0.28652675,0.6917986077044573
0.0455,1.74824375,1.0,2727.3709125399228,0.4012161562787533,1.310390910305728,0.9708571766922208,0.2864792375,0.6927853405598899
0.046,1.7471,1.0,2725.8780793777714,0.4045748537739925,1.3098879544903363,0.9712859842933,0.2864312,0.6937801519827654
0.0465,1.7459437500000001,1.0,2724.310602282196,0.4079147145903304,1.3093800363581425,0.9717019882597342,0.28638263750000004,0.6947831412724312
0.047,1.744775,1.0,2722.669883195672,0.41123582536419045,1.3088671437394652,0.9721056846545275,0.28633355,0.6957942841780119
0.0475,1.74359375,1.0,2720.9671964937793,0.41453831704876265,1.308349174600162,0.9724975446585353,0.28628393750000003,0.6968137325363482
0.048,1.7424,1.0,2719.207188560769,0.4178222945304114,1.3078260871603233,0.9728780174995776,0.2862338,0.6978415180598374
0.0485,1.74119375,1.0,2717.3932594889548,0.42108785800321374,1.3072978509572206,0.9732475310776139,0.2861831375,0.698877649225363
0.049,1.739975,1.0,2715.5288066148855,0.4243351076612463,1.306764435528126,0.9736064929911401,0.28613195,0.6999221335941015
0.0495,1.73874375,1.0,2713.6172241949125,0.427564143698586,1.306225810410311,0.9739552916822971,0.2860802375,0.7009749778014931
0.05,1.7375,1.0,2711.6619031003934,0.43077506630930956,1.305681945141048,0.9742942975073651,0.286028,0.7020361875471473
0.0505,1.73624375,1.0,2709.666230533923,0.4339679756874939,1.3051328092576087,0.9746238637381341,0.2859752375,0.7031057675846932
0.051000000000000004,1.734975,1.0,2707.6335897663703,0.43714297202721575,1.3045783722972648,0.9749443274991922,0.28592195,0.7041837217115713
0.051500000000000004,1.73369375,1.0,2705.567359893769,0.440300155522552,1.3040186037972885,0.9752560106457601,0.2858681375,0.7052700527587605
0.052000000000000005,1.7324,1.0,2703.4709156154067,0.4434396263675794,1.3034534732949514,0.9755592205863399,0.2858138,0.7063647625804534
0.0525,1.73109375,1.0,2701.347627032385,0.44656148475637475,1.3028829503275259,0.9758542510540934,0.28575893750000003,0.7074678520436655
0.053,1.729775,1.0,2699.2008594665012,0.449665830883015,1.3023070044322833,0.9761413828305628,0.28570355000000003,0.7085793210177915
0.0535,1.72844375,1.0,2697.033973299926,0.45275276494157685,1.3017256051464956,0.9764208844250672,0.2856476375,0.7096991683640976
0.054,1.7271,1.0,2694.8500703178374,0.4558223829391184,1.301138724326582,0.9766930124377957,0.2855912,0.7108273874711699
0.0545,1.7257437500000001,1.0,2692.651032002393,0.4588747554239345,1.3005463449528998,0.9769580106414796,0.2855342375,0.7119639494115197
0.055,1.724375,1.0,2690.441918498338,0.4619100247817707,1.2999484208776007,0.9772161176631741,0.28547675,0.7131088801436025
0.0555,1.72299375,1.0,2688.2239415447375,0.4649282823499961,1.299344941125953,0.9774675592024074,0.2854187375,0.7142621371884558
0.056,1.7216,1.0,2685.9983109615705,0.4679296194659802,1.2987358947232257,0.977712551530537,0.2853602,0.7154236773083986
0.0565,1.72019375,1.0,2683.766234629587,0.47091412746709227,1.2981212706946872,0.977951301959573,0.28530113749999997,0.7165934565031411
0.057,1.718775,1.0,2681.5289184724043,0.4738818976907016,1.2975010580656063,0.9781840092839933,0.28524155,0.7177714300058824
0.0575,1.71734375,1.0,2679.2875664411868,0.47683302147417744,1.2968752458612516,0.9784108641973148,0.2851814375,0.7189575522794052
0.058,1.7159,1.0,2677.043380502539,0.4797675901548892,1.2962438231068913,0.9786320496850522,0.2851208,0.7201517770121584
0.0585,1.71444375,1.0,2674.797560628655,0.4826856950702061,1.2956067788277945,0.978847741395581,0.2850596375,0.7213540571143348
0.059000000000000004,1.7129750000000001,1.0,2672.5513047900663,0.48558742755749745,1.2949641020492295,0.979058107990308,0.28499795,0.7225643447139405
0.059500000000000004,1.71149375,1.0,2670.3058089514875,0.48847287895413266,1.294315781796465,0.979263311474465,0.2849357375,0.7237825911528559
0.06,1.71,1.0,2668.062267069874,0.4913421405974809,1.2936618070947696,0.979463507509731,0.284873,0.7250087469828901
0.0605,1.7084937500000001,1.0,2665.8218710954125,0.4941953038249115,1.293002166969412,0.9796588457098206,0.2848097375,0.7262427619618265
0.061,1.7069750000000001,1.0,2663.585810975182,0.4970324599737939,1.292336850445661,0.9798494699200879,0.28474595,0.727484585049462
0.0615,1.7054437500000001,1.0,2661.3552746591586,0.4998537003814973,1.2916658465487847,0.9800355184821236,0.2846816375,0.7287341644036377
0.062,1.7039,1.0,2659.1314481097347,0.502659116385391,1.2909891443040518,0.9802171244842639,0.2846168,0.7299914473762619
0.0625,1.70234375,1.0,2656.915515312485,0.5054487993228444,1.2903067327367312,0.9803944159988551,0.2845514375,0.7312563805093244
0.063,1.7007750000000001,1.0,2654.704362028959,0.5082228068750125,1.2896186404697856,0.9805675158305626,0.28448555,0.7325288363916871
0.0635,1.69919375,1.0,2652.4992627562583,0.5109812409985914,1.2889248557071613,0.9807365434779396,0.28441913750000003,0.7338087619725638
0.064,1.6976,1.0,2650.3052163575085,0.5137242258387916,1.2882253322781454,0.9809016138904082,0.2843522,0.7350961665597981
0.0645,1.69599375,1.0,2648.1222568099,0.5164518430732419,1.287520069753054,0.9810628370130086,0.2842847375,0.7363909741364763
0.065,1.694375,1.0,2645.950418072324,0.5191641743795713,1.2868090677022035,0.9812203188109635,0.28421675,0.7376931080478089
0.0655,1.69274375,1.0,2643.7897340860686,0.5218613014354088,1.28609232569591,0.9813741614408699,0.2841482375,0.7390024910009737
0.066,1.6911,1.0,2641.640238776277,0.524543305918383,1.2853698433044902,0.9815244634133322,0.2840792,0.7403190450649576
0.0665,1.6894437500000001,1.0,2639.5019660524886,0.5272102695061234,1.2846416200982602,0.9816713197475214,0.2840096375,0.7416426916704009
0.067,1.687775,1.0,2637.3749498094267,0.5298622738762584,1.2839076556475366,0.981814822118117,0.28393955,0.7429733516094381
0.0675,1.68609375,1.0,2635.259223928423,0.5324994007064171,1.2831679495226354,0.9819550589950541,0.2838689375,0.7443109450355428
0.068,1.6844000000000001,1.0,2633.154822277758,0.5351217316742284,1.2824225012938728,0.9820921157764818,0.2837978,0.7456553914633687
0.0685,1.68269375,1.0,2631.061778713902,0.5377293484573213,1.2816713105315658,0.9822260749152987,0.2837261375,0.7470066097685912
0.069,1.680975,1.0,2628.980127082443,0.5403223327333248,1.28091437680603,0.9823570160396257,0.28365395,0.7483645181877544
0.0695,1.67924375,1.0,2626.909901218885,0.5429007661798676,1.2801516996875821,0.9824850160675414,0.28358123749999997,0.7497290343181084
0.07,1.6775,1.0,2624.851134949681,0.5454647304745788,1.2793832787465385,0.9826101493163893,0.283508,0.7511000751174554
0.07050000000000001,1.67574375,1.0,2622.8038620931698,0.5480143072950873,1.2786091135532154,0.9827324876069543,0.2834342375,0.7524775569039909
0.07100000000000001,1.673975,1.0,2620.768116460357,0.5505495783190218,1.277829203677929,0.9828521003627739,0.28335995,0.7538613953561474
0.07150000000000001,1.67219375,1.0,2618.7439318561183,0.5530706252240115,1.277043548690996,0.9829690547048499,0.2832851375,0.7552515055124356
0.07200000000000001,1.6704,1.0,2616.731342079956,0.5555775296876854,1.2762521481627322,0.9830834155419953,0.2832098,0.7566478017712878
0.0725,1.66859375,1.0,2614.730380927052,0.558070373387672,1.2754550016634545,0.9831952456570515,0.2831339375,0.7580501978909002
0.073,1.6667750000000001,1.0,2612.7410821891913,0.5605492380016006,1.2746521087634788,0.9833046057891853,0.28305755,0.759458606989076
0.0735,1.66494375,1.0,2610.763455035344,0.5630142015263698,1.2738434692619443,0.9834115545102148,0.2829806375,0.7608729411434394
0.074,1.6631,1.0,2608.797893771169,0.5654652979018135,1.2730290793775034,0.9835161458361246,0.2829032,0.762293118030207
0.0745,1.6612437500000001,1.0,2606.845223495749,0.5679026672162479,1.2722089313169687,0.98361843790341,0.2828252375,0.7637190615793171
0.075,1.659375,1.0,2604.905121116505,0.5703263819860743,1.2713830279595386,0.9837184836533948,0.28274675,0.7651506764525264
0.0755,1.65749375,1.0,2602.977264083786,0.5727365147276945,1.2705513721844124,0.9838163343610054,0.2826677375,0.7665878667383021
