Time [s],Phi [rad],STIM [ ],Fsee [N],Gamma [ ],Lcerel [ ],q [ ],Lmtc [m],fisomrel [ ]
0.0,1.8,1.0,17.968311746846048,4.484905161444875e-05,1.3793396169823386,0.005000529772172195,0.288653,0.5411398437107545
0.0005,1.79999375,1.0,18.28932923719365,0.0056538067927087605,1.3793009900714222,0.013037546202620164,0.2886527375,0.5412332874070119
0.001,1.799975,1.0,21.656907681427946,0.011231302715625634,1.3789343689887514,0.035790405604108635,0.28865195,0.542119719384875
0.0015,1.79994375,1.0,31.162917897418527,0.016777513297183362,1.378038228360797,0.0708504626927729,0.2886506375,0.5442828376844066
0.002,1.7999,1.0,53.78606438967032,0.02229261402249065,1.3763549307348555,0.1150123594574079,0.2886488,0.5483321623455425
0.0025,1.79984375,1.0,97.46250751050259,0.027776779392758185,1.373918626064013,0.16489504178316713,0.28864643749999996,0.554160909063778
0.003,1.7997750000000001,1.0,161.40604204217044,0.03323018293268726,1.3711975910062657,0.21761070983127,0.28864354999999997,0.5606261110687025
0.0035,1.79969375,1.0,238.18983464312458,0.03865299719032082,1.3685691409007397,0.2709413496048356,0.2886401375,0.5668264935449321
0.004,1.7996,1.0,322.0059299698513,0.04404539374775642,1.3661418181259992,0.32323383212930096,0.2886362,0.5725132940669252
0.0045000000000000005,1.7994937500000001,1.0,409.8262735243541,0.04940754322635054,1.3639097079790279,0.37333639569522226,0.2886317375,0.5777095804802892
0.005,1.799375,1.0,499.98354950866485,0.05473961527797014,1.361846232385336,0.42052989564740206,0.28862675,0.5824850258563057
0.0055,1.79924375,1.0,591.3656484507235,0.06004177863061234,1.3599275991474422,0.4644351865856791,0.2886212375,0.5869009036095605
0.006,1.7991000000000001,1.0,683.094190263696,0.0653142010360677,1.3581359453199164,0.5049202656496512,0.2886152,0.5910033312175058
0.006500000000000001,1.79894375,1.0,774.4556841087569,0.07055704931347137,1.3564574496032993,0.5420204596476823,0.2886086375,0.594828082341554
0.007,1.798775,1.0,864.8573349566143,0.07577048938965747,1.354881164582105,0.5758769557539503,0.28860155,0.5984035683190334
0.0075,1.79859375,1.0,953.7979175740038,0.08095468606752287,1.3533982485394547,0.6066920438855213,0.2885939375,0.6017527995192788
0.008,1.7984,1.0,1040.9063036841326,0.08610980371179061,1.3520005814320755,0.6346975037877945,0.2885858,0.6048966539269158
0.0085,1.79819375,1.0,1125.8556362569227,0.09123600510036749,1.3506815780629207,0.6601346768793477,0.2885771375,0.6078521390538894
0.009000000000000001,1.797975,1.0,1208.3992682137987,0.09633345240889679,1.3494352163156356,0.6832409374308387,0.28856795,0.6106346607093271
0.0095,1.79774375,1.0,1288.3775156291192,0.10140230737805364,1.348255702460377,0.7042418373293193,0.2885582375,0.6132588192086397
0.01,1.7975,1.0,1365.649592169634,0.10644272995751851,1.3471381838464753,0.7233473716757088,0.288548,0.6157368664405953
0.0105,1.79724375,1.0,1440.1248787210334,0.11145487952243048,1.3460781222761335,0.7407498203353697,0.2885372375,0.6180801443935764
0.011,1.796975,1.0,1511.767666062743,0.11643891511417305,1.3450711126566393,0.7566233422470328,0.28852595000000003,0.6202995127866996
0.0115,1.79669375,1.0,1580.5547539152474,0.1213949944026115,1.3441133017038729,0.7711247494449015,0.2885141375,0.622404450224679
0.012,1.7964,1.0,1646.4795983106242,0.12632327370649601,1.3432012189616147,0.7843944766879275,0.28850180000000003,0.6244034544109114
0.0125,1.79609375,1.0,1709.5672570462048,0.13122390879793197,1.3423315175478585,0.7965577822342894,0.2884889375,0.6263046303998094
0.013000000000000001,1.7957750000000001,1.0,1769.8774950697878,0.13609705587840276,1.341500885366785,0.8077261318534975,0.28847555,0.6281158969824683
0.0135,1.79544375,1.0,1827.4563236671534,0.14094286889043967,1.3407065424686218,0.8179987978168414,0.2884616375,0.629843915558282
0.014,1.7951000000000001,1.0,1882.3498210560908,0.14576150028970833,1.3399460160282348,0.8274640809499662,0.2884472,0.6314945988090916
0.0145,1.79474375,1.0,1934.6281436846295,0.15055310253187448,1.339216833220489,0.8362004294223595,0.2884322375,0.6330737884561957
0.015,1.794375,1.0,1984.3714172672778,0.15531782727687543,1.33851664928648,0.8442776179752611,0.28841675,0.6345869839153518
0.0155,1.79399375,1.0,2031.6734052977433,0.1600558266052476,1.3378431807308615,0.8517577404227682,0.2884007375,0.6360394937297655
0.016,1.7936,1.0,2076.608100535534,0.16476724994920172,1.337194532002403,0.8586962143693591,0.2883842,0.6374357384811238
0.0165,1.7931937500000001,1.0,2119.247093692093,0.16945224547558946,1.3365689803821605,0.8651425008769794,0.2883671375,0.6387797239939823
0.017,1.792775,1.0,2159.674450714392,0.1741109613512624,1.3359648031511897,0.8711407581699209,0.28834955,0.6400754178685661
0.0175,1.7923437500000001,1.0,2197.97869801921,0.17874354501334883,1.3353803479869566,0.8767304875015844,0.2883314375,0.6413266013525125
0.018000000000000002,1.7919,1.0,2234.253263003534,0.18335014417838802,1.334814015629892,0.8819470760860769,0.2883128,0.6425369098781456
0.0185,1.79144375,1.0,2268.582045878511,0.18793090502798998,1.3342643927566793,0.8868223095794355,0.2882936375,0.64370955272643
0.019,1.790975,1.0,2301.0336564133345,0.19248597119655234,1.3337302943853429,0.8913847962834226,0.28827395,0.6448472277087768
0.0195,1.79049375,1.0,2331.6831878031717,0.19701548631847257,1.333210535533907,0.8956602752124779,0.2882537375,0.6459526116365015
0.02,1.79,1.0,2360.611676048387,0.20151959402814826,1.3327039312203963,0.8996719418989128,0.288233,0.6470283614492787
0.0205,1.78949375,1.0,2387.8940085401646,0.20599843633816545,1.3322094090166283,0.9034407583974102,0.2882117375,0.6480768767883373
0.021,1.788975,1.0,2413.618661684894,0.21045215739241338,1.331725810629932,0.9069856590785604,0.28818995000000003,0.6491007224550847
0.021500000000000002,1.78844375,1.0,2437.8531934007665,0.2148808977306954,1.331252222003548,0.9103238400643765,0.2881676375,0.6501019305411737
0.022,1.7879,1.0,2460.6566049319563,0.21928479607735504,1.330787845360922,0.9134709199662401,0.2881448,0.6510822747496132
0.0225,1.78734375,1.0,2482.090967830759,0.22366399115673588,1.3303318829254984,0.9164410854079023,0.28812143749999997,0.6520435176112718
0.023,1.786775,1.0,2502.221168220908,0.2280186216931814,1.3298835369207223,0.9192472421398311,0.28809755,0.6529874109332732
0.0235,1.78619375,1.0,2521.1118041443697,0.232348825922127,1.3294420366291362,0.9219011532430788,0.28807313749999996,0.6539156393547414
0.024,1.7856,1.0,2538.8190612157227,0.23665474032645445,1.3290067123452656,0.9244135691970697,0.2880482,0.654829665917601
0.0245,1.78499375,1.0,2555.4213488140676,0.24093650462402336,1.3285767039890144,0.9267942806633347,0.2880227375,0.6557313443740932
0.025,1.784375,1.0,2570.9629922731574,0.24519425228328515,1.3281514897508773,0.9290523022667233,0.28799675,0.656621810504719
0.025500000000000002,1.78374375,1.0,2585.489741174825,0.24942811677269136,1.3277305478213484,0.9311958933510285,0.2879702375,0.6575021939563741
0.026000000000000002,1.7831000000000001,1.0,2599.0486515921484,0.25363823156069343,1.3273133563909227,0.9332326315137189,0.2879432,0.6583736183932041
0.0265,1.78244375,1.0,2611.6879743695176,0.25782473011574286,1.3268993936500948,0.935169478084892,0.2879156375,0.6592372016301032
0.027,1.781775,1.0,2623.4570494402874,0.26198774590629115,1.3264881377893587,0.9370128365186037,0.28788755,0.6600940557488416
0.0275,1.7810937500000001,1.0,2634.3995538337977,0.2661274085786126,1.3260791285482314,0.9387686122193208,0.2878589375,0.6609451592003379
0.028,1.7804,1.0,2644.568321290028,0.27024385423346275,1.3256718289078382,0.9404422421526271,0.2878298,0.6617916449484177
0.0285,1.77969375,1.0,2653.997525430341,0.27433721101335573,1.3252658814684992,0.9420387687570774,0.2878001375,0.6626342677057405
0.029,1.778975,1.0,2662.7217805409014,0.27840760697545064,1.3248609304146193,0.9435628528540977,0.28776995,0.6634737751599105
0.029500000000000002,1.7782437500000001,1.0,2670.776258628826,0.28245517017690674,1.3244566199306032,0.9450188072809949,0.2877392375,0.6643109112984953
0.03,1.7775,1.0,2678.1966384309626,0.2864800286748831,1.3240525942008554,0.9464106273284242,0.287708,0.6651464164276012
0.0305,1.77674375,1.0,2685.0190572295287,0.290482310526539,1.323648497409781,0.947742018153645,0.2876762375,0.6659810271823691
0.031,1.775975,1.0,2691.2679141888198,0.29446213819205136,1.3232440849740186,0.9490164318817749,0.28764395,0.6668152472235633
0.0315,1.7751937500000001,1.0,2696.9827948591756,0.29841964309769864,1.3228389763587534,0.9502370623892089,0.2876111375,0.6676498576008683
0.032,1.7744,1.0,2702.202813861289,0.30235495557346226,1.322432798510779,0.9514068814093478,0.2875778,0.6684856200398831
0.0325,1.77359375,1.0,2706.9494281566494,0.3062681970743378,1.3220253423290855,0.9525286731647523,0.2875439375,0.6693229556691176
0.033,1.772775,1.0,2711.2443060674686,0.3101594890553205,1.321616398712663,0.9536050326263938,0.28750955,0.6701622834154891
0.0335,1.7719437500000002,1.0,2715.1093075169283,0.3140289529714059,1.3212057585605017,0.9546383806524366,0.2874746375,0.6710040199858823
0.034,1.7711000000000001,1.0,2718.5664652376877,0.31787671027758935,1.3207932127715918,0.9556309777444705,0.2874392,0.6718485798459192
0.0345,1.7702437500000001,1.0,2721.6379669510843,0.3217028824288663,1.3203785522449234,0.9565849365620718,0.2874032375,0.6726963751959404
0.035,1.7693750000000001,1.0,2724.3461385144233,0.3255075908802322,1.3199615678794867,0.957502233320825,0.28736675,0.6735478159441984
0.035500000000000004,1.76849375,1.0,2726.713428039003,0.3292909570866823,1.3195420505742719,0.9583847181851102,0.2873297375,0.6744033096772624
0.036000000000000004,1.7676,1.0,2728.7623909763242,0.3330531025032123,1.319119791228269,0.9592341247547649,0.2872922,0.6752632616276338
0.0365,1.76669375,1.0,2730.5069020014967,0.33679414108273004,1.3186946604796155,0.9600520851321842,0.2872541375,0.6761279125694599
0.037,1.765775,1.0,2731.972934786287,0.34051419992461923,1.3182664196858256,0.9608401230517882,0.28721555,0.6769977235343302
0.0375,1.76484375,1.0,2733.1763268183086,0.34421339625461167,1.3178349229463382,0.9615996765986761,0.2871764375,0.6778729647821915
0.038,1.7639,1.0,2734.130140634231,0.3478918446342808,1.3174000500502407,0.9623320993990436,0.28713679999999997,0.6787538527681909
0.0385,1.76294375,1.0,2734.8474834926587,0.3515496596252002,1.3169616807866198,0.963038664724989,0.28709663750000003,0.6796406024008959
0.039,1.761975,1.0,2735.341501486023,0.3551869557889434,1.316519694944563,0.9637205711357739,0.28705595,0.6805334270159464
0.0395,1.7609937500000001,1.0,2735.6253739746808,0.35880384768708384,1.3160739723131571,0.9643789476643979,0.2870147375,0.6814325383487934
0.04,1.76,1.0,2735.7123083397205,0.3624004498811951,1.3156243926814895,0.9650148585906124,0.286973,0.6823381465065081
0.0405,1.7589937500000001,1.0,2735.6155350572517,0.36597687693285064,1.315170835838647,0.9656293078373992,0.2869307375,0.6832504599386757
0.041,1.757975,1.0,2735.348303092366,0.36953324340362403,1.3147131815737165,0.9662232430242783,0.28688795,0.6841696854073627
0.0415,1.75694375,1.0,2734.9173050347945,0.37306965249932444,1.3142513693406523,0.9667975623491102,0.2868446375,0.685095908378587
0.042,1.7559,1.0,2734.3381927290334,0.37658622784464607,1.313785257347398,0.96735311136799,0.28680079999999997,0.6860293758655204
0.0425,1.75484375,1.0,2733.623302835554,0.38008308658204376,1.3133147339703022,0.9678906911228554,0.2867564375,0.686970272567343
0.043000000000000003,1.753775,1.0,2732.779658415954,0.3835603358712868,1.3128397358946884,0.9684110619594047,0.28671155,0.6879186850935639
0.043500000000000004,1.75269375,1.0,2731.814287679078,0.38701808287214434,1.3123601998058805,0.9689149438414569,0.28666613750000003,0.6888746989069848
0.044,1.7516,1.0,2730.734222381729,0.3904564347443855,1.3118760623892018,0.9694030188949281,0.2866202,0.6898383983055061
0.0445,1.75049375,1.0,2729.5464963194067,0.3938754986477796,1.311387260329976,0.9698759337671883,0.2865737375,0.6908098664036726
0.045,1.7493750000000001,1.0,2728.2581439052674,0.3972753817420957,1.3108937303135266,0.970334301816894,0.28652675,0.6917891851139675
0.0455,1.74824375,1.0,2726.8761988378337,0.4006561911871031,1.3103954090251773,0.9707787051480097,0.2864792375,0.6927764351278474
0.046,1.7471,1.0,2725.4076928584414,0.40401803414257087,1.3098922331502516,0.971209696500517,0.2864312,0.6937716958965245
0.0465,1.7459437500000001,1.0,2723.85965459654,0.40736101776826833,1.3093841393740733,0.9716278010091856,0.28638263750000004,0.6947750456114924
0.047,1.744775,1.0,2722.239108504476,0.4106852492239646,1.3088710643819654,0.9720335178407895,0.28633355,0.6957865611847952
0.0475,1.74359375,1.0,2720.553073881242,0.41399083566942885,1.3083529448592521,0.9724273217192428,0.28628393750000003,0.6968063182290403
0.048,1.7424,1.0,2718.803849109073,0.41727786905754893,1.307829760431892,0.9728096654573662,0.2862338,0.6978343067361096
0.0485,1.74119375,1.0,2716.9983641374984,0.4205464664020639,1.3073014485245573,0.9731809803356438,0.2861831375,0.6988705986438419
0.049,1.739975,1.0,2715.1434404310767,0.42379674058872135,1.3067679474850629,0.9735416766362451,0.28613195,0.6999152627417147
0.0495,1.73874375,1.0,2713.2422550598994,0.42702879063787197,1.3062292288160504,0.9738921458890486,0.2860802375,0.7009683017178796
0.05,1.7375,1.0,2711.297981985889,0.43024271556986626,1.3056852640201617,0.9742327613713758,0.286028,0.7020297173498853
0.0505,1.73624375,1.0,2709.3137918017073,0.43343861440505477,1.3051360246000385,0.9745638791198349,0.2859752375,0.7030995104951681
0.051000000000000004,1.734975,1.0,2707.292851487571,0.43661658616378807,1.3045814820583224,0.9748858388773373,0.28592195,0.7041776810814919
0.051500000000000004,1.73369375,1.0,2705.2383241861708,0.4397767298664167,1.304021607897655,0.9751989649799777,0.2858681375,0.7052642280973359
0.052000000000000005,1.7324,1.0,2703.153368995595,0.4429191445332912,1.3034563736206777,0.9755035671880974,0.2858138,0.7063591495822311
0.0525,1.73109375,1.0,2701.0411407801316,0.4460439291847621,1.3028857507300327,0.9757999414654913,0.28575893750000003,0.7074624426170425
0.053,1.729775,1.0,2698.9047899992993,0.44915118284118,1.3023097107283612,0.9760883707104276,0.28570355000000003,0.7085741033142046
0.0535,1.72844375,1.0,2696.7474625545933,0.4522410045228955,1.301728225118305,0.976369125441839,0.2856476375,0.7096941268078999
0.054,1.7271,1.0,2694.572299654629,0.4553134932502591,1.3011412654025063,0.976642464443799,0.2855912,0.7108225072441878
0.0545,1.7257437500000001,1.0,2692.3824376978973,0.4583687480436214,1.3005488030836059,0.9769086353711527,0.2855342375,0.7119592377710839
0.055,1.724375,1.0,2690.1810081736553,0.46140686792333285,1.2999508096642458,0.9771678753189441,0.28547675,0.7131043105285821
0.0555,1.72299375,1.0,2687.963850282173,0.46442791894917124,1.299347323395635,0.9774204121901284,0.2854187375,0.7142575892087664
0.056,1.7216,1.0,2685.7398480914935,0.4674320357946017,1.2987382630581594,0.9776664638011857,0.2853602,0.7154191651307205
0.0565,1.72019375,1.0,2683.5114303390983,0.47041931640194234,1.2981236064754695,0.9779062388868006,0.28530113749999997,0.7165890155040159
0.057,1.718775,1.0,2681.2795045137696,0.473389851061967,1.2975033453859361,0.9781399376886837,0.28524155,0.7177670901918891
0.0575,1.71734375,1.0,2679.044976617328,0.4763437300654496,1.2968774715279296,0.9783677522805313,0.2851814375,0.7189533383264775
0.058,1.7159,1.0,2676.8087511581707,0.47928104370316404,1.296245976639821,0.9785898669646746,0.2851208,0.7201477083058627
0.0585,1.71444375,1.0,2674.5717311460985,0.482201882265884,1.2956088524599807,0.9788064586464027,0.2850596375,0.7213501477911141
0.059000000000000004,1.7129750000000001,1.0,2672.3348180885487,0.4851063360443835,1.2949660907267795,0.9790176971873836,0.28499795,0.7225606037033205
0.059500000000000004,1.71149375,1.0,2670.098911988449,0.4879944953294364,1.2943176831785879,0.9792237457395063,0.2849357375,0.7237790222206262
0.06,1.71,1.0,2667.864911343611,0.49086645041181637,1.2936636215537767,0.9794247610603724,0.284873,0.7250053487752559
0.0605,1.7084937500000001,1.0,2665.633713147674,0.49372229158229747,1.2930038975907168,0.9796208938115771,0.2848097375,0.7262395280505382
0.061,1.7069750000000001,1.0,2663.406212892362,0.4965621091316535,1.2923385030277785,0.9798122888408495,0.28474595,0.7274815039779259
0.0615,1.7054437500000001,1.0,2661.1833045714534,0.4993859933506583,1.2916674296033326,0.9799990854490348,0.2846816375,0.7287312197340083
0.062,1.7039,1.0,2658.9658806862935,0.5021940345300857,1.2909906690557498,0.9801814176428477,0.2846168,0.7299886177375228
0.0625,1.70234375,1.0,2656.754832252433,0.5049863229607097,1.290308213123401,0.9803594143742519,0.2845514375,0.7312536396463585
0.063,1.7007750000000001,1.0,2654.5510488084615,0.507762948933304,1.2896200535446565,0.9805331997672712,0.28448555,0.7325262263545609
0.0635,1.69919375,1.0,2652.3554184257323,0.5105240027386424,1.2889261820578872,0.9807028933329802,0.28441913750000003,0.7338063179893259
0.064,1.6976,1.0,2650.1684522726428,0.5132695595803003,1.288226593864837,0.980868609250258,0.2843522,0.735093847541691
0.0645,1.69599375,1.0,2647.9904505615523,0.5159996968693435,1.2875212861064314,0.9810304577924518,0.2842847375,0.7363887437362999
0.065,1.694375,1.0,2645.8226053481094,0.5187145390995698,1.2868102476855106,0.9811885481655761,0.28421675,0.737690949689337
0.0655,1.69274375,1.0,2643.665056568494,0.5214141676257125,1.2860934772045185,0.9813429830536616,0.2841482375,0.7390003899905219
0.066,1.6911,1.0,2641.5179439618387,0.5240986638025054,1.2853709732658989,0.9814938614720753,0.2840792,0.7403169885754899
0.0665,1.6894437500000001,1.0,2639.3814070726203,0.5267681089846821,1.284642734472096,0.9816412789231658,0.2840096375,0.74164066872528
0.067,1.687775,1.0,2637.2555852534524,0.5294225845269764,1.283908759425554,0.9817853275442325,0.28393955,0.7429713530658255
0.0675,1.68609375,1.0,2635.140617668173,0.5320621717841222,1.2831690467287167,0.9819260962482436,0.2838689375,0.7443089635674422
0.068,1.6844000000000001,1.0,2633.036643294433,0.5346869521108528,1.2824235949840281,0.9820636708577083,0.2837978,0.7456534215443165
0.0685,1.68269375,1.0,2630.9438009265823,0.5372970068619021,1.2816724027939324,0.9821981342320821,0.2837261375,0.7470046476539947
0.069,1.680975,1.0,2628.862229178667,0.5398924173920038,1.2809154687608735,0.9823295663890557,0.28365395,0.7483625618968709
0.0695,1.67924375,1.0,2626.7920664874655,0.5424732650558914,1.2801527914872952,0.9824580446200669,0.28358123749999997,0.7497270836156764
0.07,1.6775,1.0,2624.7334511155077,0.5450396312082989,1.279384369575642,0.9825836436003416,0.283508,0.7510981314949653
0.07050000000000001,1.67574375,1.0,2622.6865211539107,0.5475915972039598,1.2786102016283574,0.9827064354937632,0.2834342375,0.752475623560606
0.07100000000000001,1.673975,1.0,2620.6514145256738,0.5501292443976078,1.2778302862478859,0.9828264900528437,0.28335995,0.7538594771792659
0.07150000000000001,1.67219375,1.0,2618.6282689887958,0.5526526541439767,1.2770446220366714,0.9829438747140552,0.2832851375,0.7552496090579015
0.07200000000000001,1.6704,1.0,2616.617222139657,0.5551619077978001,1.2762532075971575,0.9830586546887702,0.2832098,0.7566459352432455
0.0725,1.66859375,1.0,2614.618411415804,0.5576570867138115,1.2754560415317888,0.9831708930500366,0.2831339375,0.7580483711212929
0.073,1.6667750000000001,1.0,2612.631974099613,0.560138272246745,1.274653122443009,0.9832806508154067,0.28305755,0.7594568314167903
0.0735,1.66494375,1.0,2610.658274467493,0.56260553869204,1.2738444468221206,0.9833879865236584,0.2829806375,0.760871233879741
0.074,1.6631,1.0,2608.6991434267297,0.5650589164169177,1.2730299975195776,0.9834929537137088,0.2829032,0.7622915193063121
0.0745,1.6612437500000001,1.0,2606.7520142117705,0.5674985575641608,1.2722097982644889,0.9835956129296031,0.2828252375,0.7637175565331833
0.075,1.659375,1.0,2604.81664361853,0.5699245343735925,1.2713838512023439,0.9836960173369015,0.28274675,0.7651492516153829
