Time [s],Phi [rad],STIM [ ],Fsee [N],Gamma [ ],Lcerel [ ],q [ ],Lmtc [m],fisomrel [ ]
0.0,1.8,1.0,18.074676903005372,0.0003353546506879781,1.3793277184927983,0.0050291521569449625,0.288653,0.5411686287724756
0.0005,1.79999375,1.0,18.4885680806128,0.005942682885146356,1.3792789260569787,0.013868409974566082,0.2886527375,0.5412866589574774
0.001,1.799975,1.0,22.071749724253287,0.0115185584416182,1.3788922374855759,0.03732413751320226,0.28865195,0.542221531802213
0.0015,1.79994375,1.0,32.048765078911266,0.017063157745762652,1.377963398804651,0.07293687687161175,0.2886506375,0.5444632307526671
0.002,1.7999,1.0,55.60626851332395,0.02257665623136822,1.3762380496969902,0.11747495300097172,0.2886488,0.5486126593118787
0.0025,1.79984375,1.0,100.44843483464557,0.02805922834959683,1.3737760787417193,0.16756881872419546,0.28864643749999996,0.5545007747463779
0.003,1.7997750000000001,1.0,165.2440110434289,0.03351104757414869,1.3710549744430032,0.22036568055540023,0.28864354999999997,0.5609636669040251
0.0035,1.79969375,1.0,242.50031489479963,0.038932286403088545,1.3684371026415771,0.27367907574721867,0.2886401375,0.5671368029243622
0.004,1.7996,1.0,326.57670870123303,0.044323116368801964,1.3660212832819454,0.32588299535669135,0.2886362,0.5727947072214219
0.0045000000000000005,1.7994937500000001,1.0,414.54932831990027,0.04968370804348763,1.3637992328348458,0.37584996177829955,0.2886317375,0.5779659381019695
0.005,1.799375,1.0,504.79460737071355,0.055014231030634415,1.3617443007227317,0.4228807319612848,0.28862675,0.5827202196894831
0.0055,1.79924375,1.0,596.2137685645971,0.06031485400329801,1.3598331179648027,0.4666111683989969,0.2886212375,0.5871177526011748
0.006,1.7991000000000001,1.0,687.9419709775949,0.06558574467202766,1.3580480184594492,0.5069196604301914,0.2886152,0.5912041341749423
0.006500000000000001,1.79894375,1.0,779.2673942281542,0.0708270697901174,1.3563754681630544,0.5438484181648952,0.2886086375,0.5950144314144253
0.007,1.798775,1.0,869.6057072409674,0.07603899527800075,1.354804593458676,0.5775427127665793,0.28860155,0.5985768509586211
0.0075,1.79859375,1.0,958.4662719761698,0.08122168586104894,1.3533265529281928,0.6082069842055922,0.2885939375,0.6019143717980899
0.008,1.7984,1.0,1045.475646700167,0.08637530581491108,1.3519333984171997,0.6360739904480158,0.2885858,0.6050474587963028
0.0085,1.79819375,1.0,1130.3137442886573,0.09150001798661717,1.35061854515751,0.6613851157709755,0.2885771375,0.6079930988253546
0.009000000000000001,1.797975,1.0,1212.736976036774,0.09659598435530597,1.3493760120182725,0.6843772934638608,0.28856795,0.6107665887315303
0.0095,1.79774375,1.0,1292.5834624033346,0.10166336667779911,1.3482001023603005,0.7052753775481153,0.2885582375,0.6133822982024115
0.01,1.7975,1.0,1369.7179955481738,0.10670232504446389,1.3470859419837062,0.7242884564011209,0.288548,0.6158525155525616
0.0105,1.79724375,1.0,1444.0516626801966,0.11171301857329892,1.3460290169539664,0.7416078809734281,0.2885372375,0.6181885185773969
0.011,1.796975,1.0,1515.5384651540442,0.11669560576926499,1.3450250861849777,0.7574069585298304,0.28852595000000003,0.6204007968847216
0.0115,1.79669375,1.0,1584.1843797131278,0.12165024534933283,1.344069971040127,0.7718414640432759,0.2885141375,0.6224995377182596
0.012,1.7964,1.0,1649.977057005576,0.1265770932861668,1.3431603087857586,0.7850510703433372,0.28850180000000003,0.6244929925831084
0.0125,1.79609375,1.0,1712.9313005641843,0.13147630505517396,1.3422928993150145,0.7971603545939789,0.2884889375,0.626388938388142
0.013000000000000001,1.7957750000000001,1.0,1773.0940390641279,0.13634803585063274,1.3414645936022072,0.8082801699872646,0.28847555,0.6281949340436209
0.0135,1.79544375,1.0,1830.530499260022,0.14119244046223253,1.3406724066740654,0.8185090986388501,0.2884616375,0.6299180846010849
0.014,1.7951000000000001,1.0,1885.3011265694818,0.1460096722756776,1.3399137250465816,0.827934855177479,0.2884472,0.6315646030770311
0.0145,1.79474375,1.0,1937.460971908499,0.1507998828710834,1.3391862593815316,0.8366354831101823,0.2884322375,0.6331399280827946
0.015,1.794375,1.0,1987.0860130011565,0.1555632238285653,1.3384877203406917,0.8446803546603712,0.28841675,0.6346494361561277
0.0155,1.79399375,1.0,2034.254556455887,0.16029984563837224,1.3378159953140243,0.8521312434123596,0.2884007375,0.6360980654017703
0.016,1.7936,1.0,2079.070634299709,0.16500989996528975,1.3371688774993853,0.8590431356824182,0.2883842,0.6374909057583052
0.0165,1.7931937500000001,1.0,2121.6061286020044,0.16969353494839823,1.3365446521730726,0.8654652091368555,0.2883671375,0.6388319422630918
0.017,1.792775,1.0,2161.934015427458,0.17435089791101113,1.335941719501988,0.8714414048159296,0.28834955,0.6401248759504069
0.0175,1.7923437500000001,1.0,2200.138165608667,0.17898213617644199,1.3353584796530344,0.8770110125038514,0.2883314375,0.6413733741224659
0.018000000000000002,1.7919,1.0,2236.3069690100156,0.1835873964410394,1.3347933875081714,0.8822092317234889,0.2883128,0.6425809556148067
0.0185,1.79144375,1.0,2270.5309899843337,0.1881668253238417,1.3342449652856052,0.8870676523193934,0.2882936375,0.6437509667768642
0.019,1.790975,1.0,2302.894502247678,0.19272056837627077,1.3337118761291205,0.8916146889017126,0.28827395,0.6448864277116791
0.0195,1.79049375,1.0,2333.4648042519366,0.1972487683450801,1.33319301755961,0.8958759642579983,0.2882537375,0.6459898375303617
0.02,1.79,1.0,2362.3148700319875,0.2017515679770232,1.3326872870979671,0.8998745705063761,0.288233,0.6470636766689886
0.0205,1.78949375,1.0,2389.522876844316,0.2062291100188536,1.3321935822650848,0.9036313531158743,0.2882117375,0.6481104078504157
0.021,1.788975,1.0,2415.1615643378223,0.2106815356186052,1.331710899100591,0.9071651806082768,0.28818995000000003,0.6491322685519054
0.021500000000000002,1.78844375,1.0,2439.315381130403,0.21510898803664055,1.3312381608279293,0.9104931263985243,0.2881676375,0.6501316352402131
0.022,1.7879,1.0,2462.0511986426313,0.21951160727717858,1.3307744963818111,0.9136307174469579,0.2881448,0.65111043540612
0.0225,1.78734375,1.0,2483.42577673149,0.22388953114355298,1.3303191613983703,0.9165920825948516,0.28812143749999997,0.6520703176437419
0.023,1.786775,1.0,2503.498569098452,0.22824289743909726,1.32987141151374,0.9193900757684174,0.28809755,0.6530129204908572
0.0235,1.78619375,1.0,2522.3314987993626,0.23257184396714498,1.3294305023640538,0.9220364086598297,0.28807313749999996,0.6539398728066554
0.024,1.7856,1.0,2539.988746039052,0.23687650853102968,1.3289956895854456,0.9245417680149353,0.2880482,0.6548527941141491
0.0245,1.78499375,1.0,2556.5246501117726,0.24115702554807933,1.3285663405623451,0.9269159374840986,0.2880227375,0.6557530607444804
0.025,1.784375,1.0,2572.0090876241666,0.24541353522579082,1.3281416933495864,0.9291678504433292,0.28799675,0.6566423121354146
0.025500000000000002,1.78374375,1.0,2586.4865415305517,0.24964617039668674,1.3277212392656894,0.9313057320462879,0.2879702375,0.6575216496625025
0.026000000000000002,1.7831000000000001,1.0,2600.0014691774286,0.2538550635061532,1.3273044817632935,0.9333371308146882,0.2879432,0.6583921435512177
0.0265,1.78244375,1.0,2612.5994844903826,0.2580403469995763,1.3268909242950369,0.9352689817736548,0.2879156375,0.6592548584615322
0.027,1.781775,1.0,2624.327257862421,0.2622021533223421,1.3264800703135584,0.9371076645410552,0.28788755,0.6601108535971109
0.0275,1.7810937500000001,1.0,2635.2324215085414,0.26634061491983674,1.326071423271497,0.9388590552091162,0.2878589375,0.6609611827987891
0.028,1.7804,1.0,2645.353476974761,0.27045586055751303,1.325664578982558,0.9405285848514234,0.2878298,0.6618067027937283
0.0285,1.77969375,1.0,2654.739599362167,0.2745480251417009,1.325259041502511,0.942121257107128,0.2878001375,0.6626484563803184
0.029,1.778975,1.0,2663.4304091992417,0.2786172390403579,1.3248544094130756,0.9436417087797524,0.28776995,0.6634872853471998
0.029500000000000002,1.7782437500000001,1.0,2671.456915732647,0.2826636287696302,1.3244503657655524,0.9450942409555461,0.2877392375,0.6643238525337987
0.03,1.7775,1.0,2678.8506031023403,0.286687320845664,1.324046593611241,0.9464828381979868,0.287708,0.665158817503033
0.0305,1.77674375,1.0,2685.6433876501796,0.2906884417846055,1.323642776001442,0.9478111958568923,0.2876762375,0.6659928365500014
0.031,1.775975,1.0,2691.867577455925,0.2946671181026008,1.3232385959874555,0.9490827446988456,0.28764395,0.6668265627042682
0.0315,1.7751937500000001,1.0,2697.555834100448,0.2986234763157962,1.3228337366205813,0.9503006731507225,0.2876111375,0.6676606457257435
0.032,1.7744,1.0,2702.741136656053,0.30255764294033777,1.32242788095212,0.9514679474134528,0.2875778,0.6684957320941505
0.0325,1.77359375,1.0,2707.449548918642,0.3064697391419243,1.3220207777353163,0.9525873359442063,0.2875439375,0.669332330059764
0.033,1.772775,1.0,2711.7134410117255,0.31035989561675276,1.321612120306125,0.953661415467636,0.28750955,0.6701710589036943
0.0335,1.7719437500000002,1.0,2715.5539377881514,0.31422823361706614,1.3212017065089066,0.9546925993121853,0.2874746375,0.6710123205859894
0.034,1.7711000000000001,1.0,2718.99147680356,0.3180748736290714,1.3207893419676375,0.9556831417128323,0.2874392,0.6718564989794966
0.0345,1.7702437500000001,1.0,2722.0466436499564,0.3218999361389756,1.320374832306294,0.9566351495590567,0.2874032375,0.6727039758441135
0.035,1.7693750000000001,1.0,2724.7401564524307,0.3257035416329858,1.3199579831488526,0.9575505937477468,0.28736675,0.6735551308013985
0.035500000000000004,1.76849375,1.0,2727.0928512047144,0.329485810597309,1.3195386001192897,0.9584313195355298,0.2873297375,0.6744103413067751
0.036000000000000004,1.7676,1.0,2729.125667941436,0.3332468635181523,1.3191164888415818,0.9592790559891142,0.2872922,0.6752699826193258
0.0365,1.76669375,1.0,2730.8559912648716,0.3369868164892119,1.3186914880766274,0.9600954269893842,0.2872541375,0.6761343604193395
0.037,1.765775,1.0,2732.2991807963867,0.34070578435890186,1.3182634556638049,0.9608819582577867,0.28721555,0.6770037397606292
0.0375,1.76484375,1.0,2733.484939195638,0.3444039016498359,1.3178321197427914,0.9616400743843645,0.2871764375,0.6778786468743748
0.038,1.7639,1.0,2734.425167495263,0.3480812815891673,1.3173973707114597,0.9623711255547923,0.28713679999999997,0.6787592763566717
0.0385,1.76294375,1.0,2735.1318092776796,0.3517380374040492,1.3169590989676834,0.9630763818573574,0.28709663750000003,0.6796458213698798
0.039,1.761975,1.0,2735.6168453840746,0.35537428232163476,1.316517194909335,0.9637570389025268,0.28705595,0.6805384736183865
0.0395,1.7609937500000001,1.0,2735.8922888902557,0.35899012956907717,1.3160715489342882,0.9644142229899112,0.2870147375,0.6814374233235965
0.04,1.76,1.0,2735.9701803480534,0.36258569237352967,1.315622051440416,0.9650489958635348,0.286973,0.6823428591981614
0.0405,1.7589937500000001,1.0,2735.862583294114,0.36616108396214536,1.3151685928255912,0.9656623590922392,0.2869307375,0.6832549684194411
0.041,1.757975,1.0,2735.581580023909,0.3697164175620775,1.314711063487687,0.966255258108413,0.28688795,0.684173936602197
0.0415,1.75694375,1.0,2735.1392676327764,0.37325180640047917,1.3142493538245765,0.96682858593499,0.2868446375,0.6850999477705233
0.042,1.7559,1.0,2734.5477543232028,0.37676736370450364,1.313783354234133,0.9673831866277677,0.28680079999999997,0.686033184329007
0.0425,1.75484375,1.0,2733.8191559785373,0.3802632027013041,1.3133129551142293,0.9679198584574896,0.2867564375,0.686973827033128
0.043000000000000003,1.753775,1.0,2732.958811823336,0.38373942647254244,1.3128381084620375,0.9684393602503987,0.28671155,0.6879219320596124
0.043500000000000004,1.75269375,1.0,2731.9784558069177,0.3871961536591486,1.3123587082342554,0.9689424083338759,0.28666613750000003,0.6888776702494493
0.044,1.7516,1.0,2730.889258041619,0.3906334992600257,1.311874653512136,0.9694296812078379,0.2866202,0.6898412005634094
0.0445,1.75049375,1.0,2729.696931208826,0.3940515687268315,1.3113858929641642,0.9699018245144363,0.2865737375,0.6908125818332592
0.045,1.7493750000000001,1.0,2728.407189145389,0.39745046751122354,1.310892375258824,0.9703594506816177,0.28652675,0.691791871830123
0.0455,1.74824375,1.0,2727.0257458036167,0.4008303010648594,1.3103940490646002,0.9708031409513991,0.2864792375,0.6927791272489877
0.046,1.7471,1.0,2725.5583142703076,0.4041911748393968,1.3098908630499773,0.9712334472653488,0.2864312,0.6937744036930493
0.0465,1.7459437500000001,1.0,2724.010605843353,0.40753319428649337,1.3093827658834394,0.9716508940185958,0.28638263750000004,0.6947777556578857
0.047,1.744775,1.0,2722.388329167121,0.4108564648578067,1.3088697062334713,0.9720559796927083,0.28633355,0.6957892365154628
0.0475,1.74359375,1.0,2720.697189426817,0.4141610920049944,1.3083516327685574,0.9724491783768694,0.28628393750000003,0.6968088984979743
0.048,1.7424,1.0,2718.94288760005,0.4174471811797142,1.307828494157182,0.9728309411859744,0.2862338,0.6978367926815107
0.0485,1.74119375,1.0,2717.1311197681025,0.4207148378336236,1.3073002390678297,0.9732016975835249,0.2861831375,0.6988729689695623
0.049,1.739975,1.0,2715.267576484564,0.4239641674183804,1.3067668161689847,0.9735618566165368,0.28613195,0.6999174760763531
0.0495,1.73874375,1.0,2713.3540725941525,0.42719525436554856,1.3062282094068969,0.9739118079726015,0.2860802375,0.7009702926130285
0.05,1.7375,1.0,2711.401627347439,0.43040822831306363,1.3056843187749783,0.9742519228580441,0.286028,0.7020315601246093
0.0505,1.73624375,1.0,2709.4131125395093,0.43360318904783873,1.3051351184634206,0.9745825567490753,0.2859752375,0.7031012738530431
0.051000000000000004,1.734975,1.0,2707.390916736732,0.4367802341980115,1.3045805870419842,0.9749040489042236,0.28592195,0.7041794196338019
0.051500000000000004,1.73369375,1.0,2705.3374256854568,0.4399394613917197,1.3040207030804294,0.9752167232088418,0.2858681375,0.7052659824568923
0.052000000000000005,1.7324,1.0,2703.255022167587,0.44308096825710097,1.3034554451485165,0.9755208890038793,0.2858138,0.7063609464595526
0.0525,1.73109375,1.0,2701.1460858670607,0.44620485242229296,1.3028847918160056,0.9758168418629861,0.28575893750000003,0.7074642949189253
0.053,1.729775,1.0,2699.0129932456002,0.4493112115154335,1.3023087216526572,0.9761048643215934,0.28570355000000003,0.7085760102446946
0.0535,1.72844375,1.0,2696.8581174295546,0.4524001431646602,1.3017272132282316,0.9763852265613203,0.2856476375,0.7096960739717004
0.054,1.7271,1.0,2694.683828106402,0.4554717449981108,1.3011402451124892,0.9766581870528067,0.2855912,0.710824466752519
0.0545,1.7257437500000001,1.0,2692.49249143144,0.4585261146439229,1.3005477958751896,0.976923993159825,0.2855342375,0.7119611683500171
0.055,1.724375,1.0,2690.286469944555,0.4615633497302343,1.299949844086094,0.9771828817073118,0.28547675,0.7131061576298723
0.0555,1.72299375,1.0,2688.068122497924,0.4645835478851826,1.299346368314962,0.9774350795157537,0.2854187375,0.7142594125530712
0.056,1.7216,1.0,2685.839804192763,0.4675868067369055,1.2987373471315542,0.9776808039041863,0.2853602,0.7154209101683715
0.0565,1.7201975918774328,1.0,2683.7924845331536,0.4705732226834186,1.2981227651105887,0.9779202633995743,0.2853012988588522,0.7165906151875536
0.057,1.718794892231295,1.0,2682.2993366747464,0.4735428883927968,1.297502976990438,0.9781536788514609,0.2852423854737144,0.7177677891639889
0.0575,1.717392192585157,1.0,2681.3298228482913,0.4764958970210758,1.2968783902478178,0.9783812651737503,0.2851834720885766,0.7189515988643636
0.058,1.715989492939019,1.0,2680.8454886610166,0.47943234133971147,1.2962493549723468,0.9786032253696897,0.2851245587034388,0.7201413255053203
0.0585,1.714586793292881,1.0,2680.8080323179925,0.4823523141201594,1.2956162212536437,0.9788197543491379,0.28506564531830103,0.721336255522056
0.059000000000000004,1.713184093646743,1.0,2681.179514966839,0.4852559080716674,1.2949793369480025,0.9790310391968773,0.28500673193316317,0.7225356848651685
0.059500000000000004,1.711781394000605,1.0,2681.9265945873435,0.48814321500054786,1.2943390085763882,0.9792372573437245,0.2849478185480254,0.7237389924434594
0.06,1.7103786943544672,1.0,2683.0153337777506,0.491014327261675,1.2936955487156432,0.9794385797165325,0.2848889051628876,0.724945550588703
0.0605,1.7089759947083292,1.0,2684.4210309715722,0.4938693348236975,1.2930491856763038,0.979635165958514,0.2848299917777498,0.7261548940511966
0.061,1.7075732950621914,1.0,2686.1190176272708,0.49670832765526396,1.2924001477689069,0.9798271696321139,0.28477107839261206,0.7273665611757698
0.0615,1.7061705954160533,1.0,2688.0846441103504,0.49953139572502303,1.2917486633039887,0.9800147385032741,0.2847121650074742,0.7285800939423974
0.062,1.7047678957699153,1.0,2690.295110778005,0.5023386283744762,1.2910949437087058,0.980198013878249,0.28465325162233646,0.7297950693470198
0.0625,1.7033651961237775,1.0,2692.727827263439,0.5051301153419733,1.2904391984718586,0.9803771317524184,0.28459433823719865,0.73101107139995
0.063,1.7019624964776394,1.0,2695.3651885426484,0.5079059445687147,1.289781591370633,0.9805522206341126,0.28453542485206085,0.7322277720111718
0.0635,1.7005597968315014,1.0,2698.191375427829,0.5106662033052204,1.2891222697590154,0.980723403453995,0.28447651146692304,0.733444876050367
0.064,1.6991570971853636,1.0,2701.1905556778597,0.5134109788020103,1.2884613809909924,0.980890798694363,0.28441759808178524,0.7346620908060253
0.0645,1.6977543975392255,1.0,2704.3487735998638,0.5161403569803089,1.2877990551161453,0.9810545196218684,0.2843586846966475,0.7358791577622894
0.065,1.6963516978930875,1.0,2707.6556679898144,0.5188544215310978,1.2871353892095865,0.9812146736706344,0.2842997713115097,0.7370958809421533
0.0655,1.6949489982469497,1.0,2711.0860873248776,0.5215532674981298,1.2864706151177852,0.9813713719370036,0.2842408579263719,0.738311819751396
0.066,1.6935462986008116,1.0,2714.6322015960236,0.5242369779621965,1.2858048063097662,0.9815247130425517,0.2841819445412341,0.7395268261806027
0.0665,1.6921435989546736,1.0,2718.286167198423,0.52690563600409,1.285138036254555,0.981674792177793,0.2841230311560963,0.740740753446735
0.067,1.6907408993085358,1.0,2722.040125305781,0.529559324704602,1.2844703784211762,0.9818217012477582,0.2840641177709585,0.7419534559978087
0.0675,1.6893381996623977,1.0,2725.8862003641834,0.5321981271445245,1.2838019062786554,0.981965529010427,0.2840052043858207,0.7431647895172235
0.068,1.68793550001626,1.0,2729.8164987063064,0.5348221264046493,1.2831326932960174,0.9821063612084138,0.2839462910006829,0.7443746109277529
0.0685,1.6865328003701219,1.0,2733.823107284322,0.5374314055657683,1.2824628129422873,0.9822442806942826,0.2838873776155451,0.7455827783951864
0.069,1.6851301007239838,1.0,2737.8980925232913,0.5400260477086734,1.2817923386864902,0.9823793675498378,0.2838284642304073,0.7467891513316275
0.0695,1.6837274010778458,1.0,2742.033499293615,0.5426061359141563,1.2811213439976514,0.9825116991997185,0.2837695508452695,0.7479935903984507
0.07,1.682324701431708,1.0,2746.2235803377916,0.5451717494780005,1.2804498821337205,0.9826413493474403,0.2837106374601317,0.7491959936581069
0.07050000000000001,1.68092200178557,1.0,2750.4646673864445,0.5477229670080666,1.2797779873793298,0.9827683883717768,0.28365172407499395,0.7503962939348584
0.07100000000000001,1.6795193021394321,1.0,2754.745242635662,0.5502598817048138,1.2791057649468864,0.9828928884937262,0.28359281068985615,0.751594298384609
0.07150000000000001,1.678116602493294,1.0,2759.0624519055636,0.5527825711054578,1.2784332414039008,0.9830149150976544,0.28353389730471834,0.7527899556164449
0.07200000000000001,1.676713902847156,1.0,2763.4134324566803,0.5552911127472142,1.277760443317882,0.9831345314732659,0.28347498391958054,0.753983214693411
0.0725,1.6753112032010182,1.0,2767.7953128198924,0.5577855841672984,1.2770873972563401,0.9832517988973308,0.28341607053444273,0.7551740251329948
0.073,1.6739085035548802,1.0,2772.205212643029,0.5602660629029264,1.2764141297867848,0.9833667767117121,0.283357157149305,0.7563623369075717
0.0735,1.6725058039087424,1.0,2776.6402425521624,0.5627326264913134,1.2757406674767258,0.9834795223978883,0.2832982437641672,0.7575481004448015
