Time [s],Phi [rad],STIM [ ],Fsee [N],Gamma [ ],Lcerel [ ],q [ ],Lmtc [m],fisomrel [ ]
0.0,1.8,1.0,18.326114254397037,0.0006102066110537529,1.3792997300105774,0.005096051518045468,0.288653,0.5412363355035176
0.0005,1.79999375,1.0,18.821407199989004,0.006215993143371427,1.379242330481587,0.014690473483297755,0.2886527375,0.5413751746520877
0.001,1.799975,1.0,22.608581836472176,0.011790335645412608,1.378838300023704,0.038804548415212824,0.28865195,0.5423518572549425
0.0015,1.79994375,1.0,33.047245314964826,0.017333410494195574,1.3778802841823066,0.07493162294811026,0.2886506375,0.5446635549308012
0.002,1.7999,1.0,57.51463943916068,0.02284539307556535,1.3761175435562987,0.11981692182275964,0.2886488,0.5489017647614023
0.0025,1.79984375,1.0,103.45787604990525,0.028326457792062255,1.3736345369356944,0.17010357972251444,0.28864643749999996,0.5548381148241367
0.003,1.7997750000000001,1.0,169.02489237834376,0.03377677807105518,1.3709160897509622,0.2229722395061679,0.28864354999999997,0.5612922651908677
0.0035,1.79969375,1.0,246.6988298179223,0.039196526362509046,1.3683096175995983,0.2762656412762042,0.2886401375,0.5674363060702732
0.004,1.7996,1.0,331.00230445570736,0.044585874151285676,1.3659053781663073,0.3283832381394881,0.2886362,0.5730652239444249
0.0045000000000000005,1.7994937500000001,1.0,419.10681355594727,0.04994499196062412,1.3636932255303225,0.37822035803349785,0.2886317375,0.5782118549213967
0.005,1.799375,1.0,509.41849638839255,0.055274049323629726,1.3616467913646992,0.42509649450279563,0.28862675,0.582945147626332
0.0055,1.79924375,1.0,600.8742924474051,0.060573214966739494,1.3597426541522626,0.46866117400146995,0.2886212375,0.5873253277534618
0.006,1.7991000000000001,1.0,692.5928831241138,0.06584265642570752,1.3579639530291754,0.5088028035195121,0.2886152,0.5913960724863723
0.006500000000000001,1.79894375,1.0,783.8809628590053,0.07108254047605844,1.356297099987729,0.5455697479441686,0.2886086375,0.5951925272332086
0.007,1.798775,1.0,874.1592089701314,0.0762930329618062,1.354731360887207,0.5791110779850653,0.28860155,0.5987425433772646
0.0075,1.79859375,1.0,962.9343435415478,0.08147429856721677,1.3532580965643362,0.6096333189964129,0.2885939375,0.6020686135578512
0.008,1.7984,1.0,1049.845301087188,0.08662650161739723,1.3518692886170784,0.6373699588313703,0.2885858,0.6051913384187217
0.0085,1.79819375,1.0,1134.571163311222,0.09174980475727265,1.3505584657148602,0.6625624587064057,0.2885771375,0.6081274302156991
0.009000000000000001,1.797975,1.0,1216.8727829005757,0.09684437003674072,1.3493196619403198,0.6854473022697243,0.28856795,0.610892135784122
0.0095,1.79774375,1.0,1296.59247307889,0.10191035912950205,1.3481471897803352,0.7062486276113078,0.2885582375,0.6134997903318089
0.01,1.7975,1.0,1373.596110033759,0.10694793199381801,1.3470362157757558,0.7251746963482307,0.288548,0.6159625795281986
0.0105,1.79724375,1.0,1447.7958630402604,0.11195724787415234,1.3459822570239826,0.7424159863184809,0.2885372375,0.6182917022467822
0.011,1.796975,1.0,1519.1552892066143,0.11693846532365143,1.3449809929056342,0.7581448903914143,0.28852595000000003,0.6204978142023048
0.0115,1.79669375,1.0,1587.669253393931,0.12189174263751165,1.3440284151190558,0.772516433737611,0.2885141375,0.6225907193580058
0.012,1.7964,1.0,1653.3229069356057,0.12681723571448755,1.343121212555563,0.7856695367188218,0.28850180000000003,0.6245785506836741
0.0125,1.79609375,1.0,1716.1417824197954,0.13171510043146525,1.342256079273599,0.7977280243335336,0.2884889375,0.6264693118630866
0.013000000000000001,1.7957750000000001,1.0,1776.1675447641574,0.13658549157927022,1.34142994645867,0.8088021480931813,0.28847555,0.6282703815727988
0.0135,1.79544375,1.0,1833.4829119168392,0.1414285648051756,1.3406396499137998,0.8189898530168006,0.2884616375,0.629989250339936
0.014,1.7951000000000001,1.0,1888.127896631763,0.1462444721645182,1.3398828203277506,0.8283784431668364,0.2884472,0.6316315958101211
0.0145,1.79474375,1.0,1940.1621267373919,0.151033365527206,1.339157127463199,0.8370454960695651,0.2884322375,0.6332029428919368
0.015,1.794375,1.0,1989.666293212099,0.15579539676314708,1.3384602410828215,0.8450599727216263,0.28841675,0.6347087538461683
0.0155,1.79399375,1.0,2036.7203640267478,0.16053071640595573,1.33779004083212,0.8524832947751015,0.2884007375,0.6361539805951364
0.016,1.7936,1.0,2081.4286917732666,0.1652394758741031,1.3371443256590356,0.8593701422967644,0.2883842,0.6375436979461548
0.0165,1.7931937500000001,1.0,2123.8576339732444,0.16992182293338895,1.3365214455039929,0.8657694405003132,0.2883671375,0.6388817497318341
0.017,1.792775,1.0,2164.082652889707,0.17457790514662883,1.3359197802690832,0.8717248832092234,0.28834955,0.6401718789029683
0.0175,1.7923437500000001,1.0,2202.190135905605,0.1792078700766383,1.3353377098563988,0.8772755422541202,0.2883314375,0.6414177944778882
0.018000000000000002,1.7919,1.0,2238.263051374359,0.18381186396455892,1.3347737487569074,0.882456445752599,0.2883128,0.6426228862986195
0.0185,1.79144375,1.0,2272.4000496235653,0.18839003446552882,1.3342263419498874,0.8872989974056981,0.2882936375,0.6437906643711637
0.019,1.790975,1.0,2304.673224790229,0.19294252550599914,1.3336942776665321,0.8918314959293344,0.28827395,0.6449238809075617
0.0195,1.79049375,1.0,2335.1533084633097,0.1974694801576406,1.333176421294799,0.8960794242507486,0.2882537375,0.6460251029757355
0.02,1.79,1.0,2363.916780540735,0.20197104149212391,1.3326716382226451,0.9000657505244853,0.288233,0.6470968785786402
0.0205,1.78949375,1.0,2391.0450988765724,0.20644735254109547,1.332178796607784,0.9038112108008726,0.2882117375,0.6481417317736111
0.021,1.788975,1.0,2416.6055184924844,0.21089855394006396,1.3316969481824639,0.9073345944596576,0.28818995000000003,0.6491617811429844
0.021500000000000002,1.78844375,1.0,2440.692359694324,0.21532478990809573,1.3312249229215851,0.9106528735121725,0.2881676375,0.6501595996032845
0.022,1.7879,1.0,2463.36091357106,0.21972619864178755,1.3307619633001198,0.913781525454811,0.2881448,0.6511368738324306
0.0225,1.78734375,1.0,2484.6694218255875,0.2241029183377363,1.3303073117930404,0.9167346106930394,0.28812143749999997,0.6520952798981352
0.023,1.786775,1.0,2504.67883606149,0.2284550871925387,1.329860210875319,0.9195249218936974,0.28809755,0.653036483677583
0.0235,1.78619375,1.0,2523.4525897924245,0.23278284340279157,1.329419903021928,0.9221641158325266,0.28807313749999996,0.6539621412405088
0.024,1.7856048492805463,1.0,2541.283528877052,0.23708632328031465,1.32898568089633,0.9246628380448864,0.28804840366978296,0.6548737938940628
0.0245,1.7850158598215708,1.0,2558.557164424916,0.24136566554220956,1.3285572398722234,0.9270308900819516,0.28802366611250596,0.6557721305087572
0.025,1.7844268703625956,1.0,2575.29128805153,0.24562100571058929,1.3281343946758397,0.9292772587089615,0.287998928555229,0.6566575861948988
0.025500000000000002,1.7838378809036204,1.0,2591.500797303806,0.2498524767933813,1.3277169518751477,0.9314101746051942,0.2879741909979521,0.6575306105027492
0.026000000000000002,1.783248891444645,1.0,2607.201048377952,0.254060211798513,1.327304718038116,0.9334371887525047,0.2879494534406751,0.6583916503507317
0.0265,1.7826599019856697,1.0,2622.4078333653356,0.2582443437339118,1.3268974997327125,0.9353652377163459,0.28792471588339813,0.6592411500908839
0.027,1.7820709125266943,1.0,2637.1373583271757,0.2624050056075051,1.3264951035269066,0.9372007018657567,0.28789997832612113,0.6600795515719214
0.0275,1.781481923067719,1.0,2651.3915300549147,0.26654230930857925,1.3260974714873432,0.9389494687953297,0.2878752407688442,0.660907012402938
0.028,1.7808929336087436,1.0,2665.199484367028,0.2706564032496562,1.3257042972328295,0.9406169462272442,0.28785050321156724,0.661724205242566
0.0285,1.7803039441497683,1.0,2678.5909193736843,0.2747474377376792,1.3253152736638787,0.9422081271502181,0.2878257656542903,0.6625318007684813
0.029,1.779714954690793,1.0,2691.5770689703827,0.2788155368545755,1.3249302668612706,0.9437276407157007,0.2878010280970133,0.6633301073898709
0.029500000000000002,1.7791259652318177,1.0,2704.1694181424336,0.28286082468227225,1.3245491429057838,0.9451797706667605,0.28777629053973636,0.6641194318849525
0.03,1.7785369757728424,1.0,2716.379691236737,0.2868834253026967,1.3241717678781983,0.9465684855336356,0.28775155298245936,0.6649000794347051
0.0305,1.777947986313867,1.0,2728.2198406322373,0.29088346279777616,1.323798007859293,0.947897465832255,0.2877268154251824,0.6656723536554631
0.031,1.7773589968548917,1.0,2739.702035806903,0.2948610612494378,1.3234277289298473,0.949170128595698,0.28770207786790547,0.6664365566303612
0.0315,1.7767700073959163,1.0,2750.8386528032133,0.29881634473960883,1.3230607971706405,0.950389649529014,0.28767734031062847,0.6671929889396373
0.032,1.776181017936941,1.0,2761.64226409099,0.30274943735021653,1.322697078662452,0.9515589830433282,0.2876526027533515,0.6679419496897938
0.0325,1.7755920284779656,1.0,2772.125628827627,0.30666046316318807,1.3223364394860606,0.9526808803950945,0.28762786519607453,0.668683736541611
0.033,1.7750030390189904,1.0,2782.3016835163157,0.3105495462604507,1.3219787457222463,0.9537579061300504,0.2876031276387976,0.6694186457370188
0.0335,1.7744140495600151,1.0,2792.183533061666,0.3144168107239317,1.321623863451788,0.9547924530084547,0.28757839008152064,0.6701469721248265
0.034,1.7738250601010397,1.0,2801.7844422229355,0.31826238063555823,1.3212716587554652,0.9557867555680458,0.2875536525242437,0.670869009185306
0.0345,1.7732360706420645,1.0,2811.1178274651106,0.32208638007725754,1.3209219977140567,0.9567429024635,0.2875289149669667,0.6715850490536319
0.035,1.772647081183089,1.0,2820.197249207565,0.32588893313095685,1.3205747464083426,0.9576628477056619,0.28750417740968975,0.6722953825421775
0.035500000000000004,1.7720580917241138,1.0,2829.031192902717,0.32967015545138656,1.3202298174494884,0.9585484237789121,0.28747943985241275,0.6730002041335055
0.036000000000000004,1.7714691022651383,1.0,2837.630329520508,0.3334301708018756,1.3198871048386378,0.9594013479641422,0.2874547022951358,0.6736997454016401
0.0365,1.770880112806163,1.0,2846.0059480920127,0.33716910191829375,1.319546498017498,0.9602232301505698,0.28742996473785887,0.6743942461886261
0.037,1.7702911233471879,1.0,2854.165435484843,0.34088706399403534,1.319207922035564,0.9610155833116911,0.28740522718058187,0.6750838727989074
0.0375,1.7697021338882124,1.0,2862.116254931705,0.34458417222249454,1.3188713019423293,0.9617798287285405,0.2873804896233049,0.6757687908086858
0.038,1.7691131444292372,1.0,2869.865942717462,0.34826054179706556,1.3185365627872885,0.9625173025661602,0.2873557520660279,0.6764491650754458
0.0385,1.7685241549702617,1.0,2877.4221049916464,0.35191628791114266,1.3182036296199362,0.9632292619089619,0.287331014508751,0.6771251597471253
0.039,1.7679351655112865,1.0,2884.7924147047233,0.35555152575812,1.3178724274897664,0.9639168903049193,0.28730627695147404,0.6777969382709286
0.0395,1.767346176052311,1.0,2891.9846086695043,0.3591663705313919,1.3175428814462735,0.9645813028634536,0.2872815393941971,0.678464663401779
0.04,1.7667571865933358,1.0,2899.00648474644,0.3627609374243525,1.317214916538952,0.9652235509473407,0.2872568018369201,0.6791284972104137
0.0405,1.7661681971343604,1.0,2905.8658991545767,0.366335341630396,1.3168884578172957,0.9658446264949672,0.28723206427964315,0.6797886010911225
0.041,1.7655792076753851,1.0,2912.5687840847363,0.3698896926191695,1.3165634477518795,0.9664454665045972,0.28720732672236615,0.6804451005977139
0.0415,1.76499021821641,1.0,2919.1189346145206,0.3734240954706335,1.3162398479879678,0.9670269570938436,0.2871825891650892,0.681098082093581
0.042,1.7644012287574344,1.0,2925.530248296758,0.37693868582522194,1.3159175317632619,0.9675899336969221,0.28715785160781226,0.6817478097085727
0.0425,1.7638122392984592,1.0,2931.806926341758,0.3804335706859607,1.3155964580143085,0.9681351888472186,0.28713311405053527,0.6823943740077258
0.043000000000000003,1.7632232498394838,1.0,2937.9532005165092,0.3839088570558754,1.3152765856776543,0.968663472722018,0.2871083764932583,0.6830378651895432
0.043500000000000004,1.7626342603805085,1.0,2943.973332031463,0.3873646519379919,1.314957873689846,0.9691754958330101,0.2870836389359813,0.6836783730891934
0.044,1.762045270921533,1.0,2949.871610466126,0.3908010623353359,1.3146402809874302,0.9696719315199459,0.2870589013787044,0.6843159871816038
0.0445,1.7614562814625578,1.0,2955.6523527308527,0.3942181952509332,1.314323766506954,0.970153418263667,0.28703416382142743,0.6849507965844447
0.045,1.7608672920035826,1.0,2961.319902066731,0.3976161576878096,1.314008289184964,0.9706205618332499,0.2870094262641505,0.6855828900610077
0.0455,1.7602783025446072,1.0,2966.878627082525,0.4009950566489909,1.3136938079580065,0.9710739372806706,0.2869846887068735,0.6862123560229763
0.046,1.759689313085632,1.0,2972.3329208291584,0.4043549991375027,1.3133802817626288,0.9715140907952023,0.28695995114959655,0.6868392825330849
0.0465,1.7591003236266565,1.0,2977.6871999114646,0.407696092156371,1.3130676695353771,0.9719415414286633,0.28693521359231955,0.6874637573076783
0.047,1.7585113341676812,1.0,2982.945903637476,0.41101844270862137,1.3127559302127985,0.9723567827016646,0.2869104760350426,0.6880858677191555
0.0475,1.7579223447087058,1.0,2988.1134932049094,0.4143221577972797,1.3124450227314395,0.97276028410012,0.28688573847776566,0.6887057007983108
0.048,1.7573333552497306,1.0,2993.1944509249897,0.4176073444253717,1.3121349060278469,0.9731524924704766,0.28686100092048866,0.6893233432365664
0.0485,1.756744365790755,1.0,2998.1871598472662,0.42087407813029676,1.3118255921127668,0.9735338331230884,0.2868362633632117,0.6899387758403137
0.049,1.7561553763317799,1.0,3003.1015093972774,0.4241225015391954,1.3115169932831316,0.9739047126387887,0.2868115258059347,0.6905521776015221
0.0495,1.7555663868728046,1.0,3007.940409996511,0.4273527170468908,1.311209082583884,0.9742655177666465,0.2867867882486578,0.6911636062413815
0.05,1.7549773974138292,1.0,3012.7059912034506,0.43056482265682955,1.3109018399305417,0.9746166172781227,0.28676205069138083,0.6917731056371297
0.0505,1.754388407954854,1.0,3017.4003929525966,0.4337589163724581,1.310595245238622,0.9749583630266508,0.2867373131341039,0.6923807194998732
0.051000000000000004,1.7537994184958785,1.0,3022.0257652612154,0.436935096197223,1.3102892784236424,0.9752910908742642,0.2867125755768269,0.6929864913754316
0.051500000000000004,1.7532104290369033,1.0,3026.5842679455477,0.44009346013457074,1.3099839194011207,0.9756151215595426,0.28668783801954995,0.6935904646451516
0.052000000000000005,1.7526214395779278,1.0,3031.0780703453397,0.44323410618794784,1.3096791480865737,0.975930761511081,0.28666310046227295,0.6941926825267026
0.0525,1.7520324501189526,1.0,3035.5093510580073,0.4463571323608007,1.3093749443955196,0.9762383036103497,0.286638362904996,0.6947931880748379
0.053,1.7514434606599774,1.0,3039.880297681089,0.44946263665657604,1.3090712882434756,0.9765380279075008,0.28661362534771906,0.6953920241821379
0.0535,1.750854471201002,1.0,3044.1931065640224,0.45255071707872024,1.308768159545959,0.9768302022934108,0.28658888779044206,0.6959892335797232
0.054,1.7502654817420267,1.0,3048.449982569143,0.45562147163067984,1.3084655382184875,0.9771150831309838,0.2865641502331651,0.6965848588379426
0.0545,1.7496764922830512,1.0,3052.6531388407193,0.45867499831590136,1.3081634041765786,0.977392915848509,0.2865394126758881,0.6971789423670365
0.055,1.749087502824076,1.0,3056.8047965839846,0.4617113951378312,1.3078617373357497,0.9776639354976584,0.2865146751186112,0.6977715264177737
0.0555,1.7484985133651005,1.0,3060.9071848521953,0.4647307600999161,1.3075605176115184,0.9779283672785067,0.28648993756133423,0.6983626530820628
0.056,1.7479095239061253,1.0,3064.9625403434766,0.46773319120560236,1.307259724919402,0.9781864270337812,0.2864652000040573,0.6989523642935377
0.0565,1.7473205344471499,1.0,3068.9712549066476,0.47071876541857666,1.3069593550531455,0.9784383207302844,0.2864404624467803,0.699540670744123
0.057,1.7467315449881746,1.0,3072.9347425576293,0.47368757829646924,1.3066593950711942,0.9786842471174519,0.28641572488950334,0.7001276001740091
0.0575,1.7461425555291994,1.0,3076.8573218844554,0.4766397584162024,1.3063598072085612,0.9789243983776275,0.28639098733222634,0.7007132287217259
0.058,1.745553566070224,1.0,3080.7399742990556,0.47957539430435936,1.306060582357116,0.9791589570700379,0.2863662497749494,0.7012975762985426
0.0585,1.7449645766112487,1.0,3084.5836847887094,0.4824945744875236,1.3057617114087285,0.9793880985036588,0.28634151221767246,0.7018806627436397
0.059000000000000004,1.7443755871522733,1.0,3088.3894418437603,0.4853973874922783,1.3054631852552683,0.9796119910823402,0.28631677466039546,0.7024625078243165
0.059500000000000004,1.743786597693298,1.0,3092.158237387421,0.4882839218452069,1.3051649947886046,0.9798307966308866,0.2862920371031185,0.7030431312361956
0.06,1.7431976082343226,1.0,3095.8910667064683,0.4911542660728927,1.3048671309006077,0.9800446707032805,0.2862672995458415,0.7036225526034176
0.0605,1.7426086187753473,1.0,3099.588928384968,0.4940085087019191,1.3045695844831469,0.9802537628741623,0.28624256198856457,0.704200791478837
0.061,1.742019629316372,1.0,3103.2528242387557,0.4968467382588693,1.3042723464280919,0.9804582170145955,0.2862178244312876,0.7047778673442069
0.0615,1.7414306398573967,1.0,3106.8837592524583,0.49966904327032685,1.3039754076273125,0.9806581715530772,0.2861930868740107,0.7053537996103612
0.062,1.7408416503984214,1.0,3110.4827415183145,0.5024755122628749,1.303678758972678,0.9808537597226927,0.2861683493167337,0.7059286076173923
0.0625,1.740252660939446,1.0,3114.050782176348,0.5052662337630969,1.3033823913560585,0.9810451097952462,0.28614361175945674,0.7065023106348194
0.063,1.7396636714804707,1.0,3117.5888953568383,0.5080412962975761,1.3030862956693234,0.9812323453031456,0.28611887420217974,0.7070749278617585
0.0635,1.7390746820214953,1.0,3121.0980981246566,0.510800788392896,1.3027904628043423,0.9814155852497721,0.2860941366449028,0.7076464784270797
0.064,1.73848569256252,1.0,3124.5794104248216,0.5135447985756397,1.302494883652985,0.9815949443090088,0.28606939908762585,0.7082169813895633
0.0645,1.7378967031035446,1.0,3128.033855030762,0.5162734153723908,1.3021995491071214,0.9817705330145657,0.28604466153034885,0.7087864557380501
0.065,1.7373077136445694,1.0,3131.462457494003,0.5189867273097324,1.3019044500586205,0.9819424579396895,0.2860199239730719,0.7093549203915877
0.0655,1.7367187241855941,1.0,3134.8662460953374,0.521684822914248,1.3016095773993526,0.9821108218678185,0.28599518641579497,0.7099223941995663
0.066,1.7361297347266187,1.0,3138.2457696726538,0.5243677789517214,1.3013149261081824,0.9822757233675243,0.28597044885851797,0.7104888880880758
0.0665,1.7355407452676435,1.0,3141.60091705745,0.5270356638605821,1.3010204967695014,0.9824372572866582,0.285945711301241,0.7110544021831716
0.067,1.734951755808668,1.0,3144.9338619981386,0.5296886026358908,1.3007262706205052,0.9825955179517661,0.2859209737439641,0.7116189737202891
0.0675,1.7343627663496928,1.0,3148.245060151827,0.5323266747627559,1.3004322434817903,0.9827505941608531,0.2858962361866871,0.7121826118510787
0.068,1.7337737768907173,1.0,3151.53496848215,0.5349499597262858,1.3001384111739531,0.9829025716808579,0.28587149862941014,0.7127453256950735
0.0685,1.733184787431742,1.0,3154.80404524014,0.5375585370115891,1.2998447695175903,0.9830515333722204,0.28584676107213314,0.7133071243397422
0.069,1.7325957979727669,1.0,3158.05274994746,0.540152486103774,1.2995513143332982,0.9831975593074991,0.2858220235148562,0.7138680168405408
0.0695,1.7320068085137914,1.0,3161.281543377873,0.542731886487949,1.2992580414416735,0.9833407268843652,0.28579728595757925,0.714428012220962
0.07,1.7314178190548162,1.0,3164.490887540966,0.5452968176492226,1.2989649466633124,0.9834811109332752,0.2857725484003023,0.7149871194725854
