Time [s],Phi [rad],STIM [ ],Fsee [N],Gamma [ ],Lcerel [ ],q [ ],Lmtc [m],fisomrel [ ]
0.0,1.8,1.0,17.96656627998819,1.0004804405790234e-05,1.379339812531472,0.0050000266772913474,0.288653,0.5411393706268741
0.0005,1.79999375,1.0,18.275954549341627,0.0056191579941598695,1.3793024754992782,0.012940529048750725,0.2886527375,0.5412296941330341
0.001,1.799975,1.0,21.617609560796307,0.011196848269441307,1.3789383809625333,0.03560860724272035,0.28865195,0.5421100237037436
0.0015,1.79994375,1.0,31.068383771269417,0.016743252113185194,1.3780462763367987,0.0706017490037691,0.2886506375,0.5442634341450283
0.002,1.7999,1.0,53.58127262097231,0.02225854501667443,1.3763682040369674,0.11471788907154896,0.2886488,0.5483003029017466
0.0025,1.79984375,1.0,97.11747879269491,0.02774290148710524,1.3739352375585074,0.16457473006818224,0.28864643749999996,0.5541212950001997
0.003,1.7997750000000001,1.0,160.95663183645036,0.0331964950553029,1.3712144012123362,0.21728028381147801,0.28864354999999997,0.5605863148359909
0.0035,1.79969375,1.0,237.68180070056255,0.03861949827531384,1.3685847813872258,0.27061271716163005,0.2886401375,0.5667897287300094
0.004,1.7996,1.0,321.46529576187186,0.04401208273518778,1.36615613147861,0.32291563430381887,0.2886362,0.5724798704739125
0.0045000000000000005,1.7994937500000001,1.0,409.26635524275616,0.049374419062162105,1.3639228469254023,0.373034347911739,0.2886317375,0.5776790863702495
0.005,1.799375,1.0,499.4121779840715,0.05470667691375533,1.3618583705281253,0.4202473111193099,0.28862675,0.5824570142816645
0.0055,1.79924375,1.0,590.7891579984437,0.06000902502521156,1.3599388596385413,0.4641735598639907,0.2886212375,0.5868750552363089
0.006,1.7991000000000001,1.0,682.5169164724209,0.06528163115270234,1.3581464364121705,0.5046798352963067,0.2886152,0.590979368894334
0.006500000000000001,1.79894375,1.0,773.8799798417139,0.07052466212925934,1.3564672754339135,0.5418006466992004,0.2886086375,0.5948057447216915
0.007,1.798775,1.0,864.2849291239287,0.07573828384639794,1.3548904092447867,0.575676675001043,0.28860155,0.5983826448535328
0.0075,1.79859375,1.0,953.2425164421918,0.08092266126700522,1.353406789942004,0.6065098193060194,0.2885939375,0.6017335485423735
0.008,1.7984,1.0,1040.3578576911057,0.08607795842121538,1.3520086551327555,0.6345319716594063,0.2885858,0.6048785290549389
0.0085,1.79819375,1.0,1125.3166242087211,0.09120433846212059,1.350689207570126,0.6599843352502391,0.2885771375,0.6078350755543274
0.009000000000000001,1.797975,1.0,1207.876529170829,0.0963019634270528,1.3494423582205688,0.6831043010685235,0.28856795,0.6106187445192848
0.0095,1.79774375,1.0,1287.8704973596948,0.10137099500487548,1.3482624110642976,0.7041175677700307,0.2885582375,0.6132439191316399
0.01,1.7975,1.0,1365.1591022539496,0.10641159322597218,1.347144487419989,0.7232342228019437,0.288548,0.6157229108862027
0.0105,1.79724375,1.0,1439.6511350528588,0.11142391744131729,1.3460840510712262,0.7406466596772409,0.2885372375,0.6180670586547479
0.011,1.796975,1.0,1511.3110458562337,0.1164081267029316,1.3450766900692686,0.7565291453214131,0.28852595000000003,0.6202872384274171
0.0115,1.79669375,1.0,1580.1160249649877,0.12136437870474316,1.3441185426420807,0.7710385940951192,0.2885141375,0.6223929483733752
0.012,1.7964,1.0,1646.0582974692604,0.1262928297446183,1.3432061498970058,0.7843155447037441,0.28850180000000003,0.6243926615844195
0.0125,1.79609375,1.0,1709.1633641335043,0.1311936356342755,1.3423361566738572,0.7964853415868297,0.2884889375,0.6262945020209576
0.013000000000000001,1.7957750000000001,1.0,1769.489292837554,0.13606695246645492,1.3415052676215224,0.8076595381870161,0.28847555,0.6281063526363276
0.0135,1.79544375,1.0,1827.0839385135746,0.14091293432692648,1.3407106794003998,0.8179374698230888,0.2884616375,0.629834926474866
0.014,1.7951000000000001,1.0,1881.9930918863924,0.1457317336501564,1.3399499208067946,0.8274075027999922,0.2884472,0.6314861331105039
0.0145,1.79474375,1.0,1934.2866250525458,0.15052350287061084,1.339220520637012,0.8361481432749154,0.2884322375,0.6330658111567427
0.015,1.794375,1.0,1984.0448513455744,0.1552883936308416,1.3385201307722803,0.8442292155179681,0.28841675,0.6345794676719333
0.0155,1.79399375,1.0,2031.3610411106736,0.16002655803362675,1.3378464718102583,0.8517128596177308,0.2884007375,0.6360324026956645
0.016,1.7936,1.0,2076.309526415949,0.1647381455759214,1.3371976435602404,0.8586545312409701,0.2883842,0.6374290471218784
0.0165,1.7931937500000001,1.0,2118.9616148244886,0.16942330439064116,1.3365719253812969,0.865103726957981,0.2883671375,0.6387734025673684
0.017,1.792775,1.0,2159.4010883051883,0.17408218261070177,1.3359675966324969,0.8711046362836234,0.28834955,0.6400694324393619
0.0175,1.7923437500000001,1.0,2197.71730279059,0.17871492774752842,1.3353829957932322,0.8766967850022828,0.2883314375,0.6413209379233318
0.018000000000000002,1.7919,1.0,2234.0020762960053,0.1833216872717549,1.3348165392852067,0.8819155884701657,0.2883128,0.6425315211131302
0.0185,1.79144375,1.0,2268.342455746863,0.18790260773939332,1.3342667816157305,0.8867928452204034,0.2882936375,0.6437044601666503
0.019,1.790975,1.0,2300.806168156289,0.1924578327090025,1.3337325465265153,0.8913571850452514,0.28827395,0.6448424342759161
0.0195,1.79049375,1.0,2331.4673990303195,0.1969875057391411,1.3332126577592727,0.895634365960763,0.2882537375,0.6459481017506437
0.02,1.79,1.0,2360.406255663642,0.20149177038836782,1.3327059390557143,0.8996476003184727,0.288233,0.6470241011385692
0.0205,1.78949375,1.0,2387.699013310964,0.20597076887361848,1.3322113040318702,0.9034178601266422,0.2882117375,0.6480728618413403
0.021,1.788975,1.0,2413.4311685839307,0.21042464484636111,1.3317276229995652,0.9069640975221329,0.28818995000000003,0.649096888198528
0.021500000000000002,1.78844375,1.0,2437.6740541434674,0.21485353946020816,1.3312539449919392,0.910303511178243,0.2881676375,0.6500982905844304
0.022,1.7879,1.0,2460.486021265747,0.2192575913474873,1.3307894784386054,0.9134517305265251,0.2881448,0.6510788295737099
0.0225,1.78734375,1.0,2481.9284795855165,0.2236369391405264,1.3303334317691766,0.9164229518490558,0.28812143749999997,0.6520402546415776
0.023,1.786775,1.0,2502.0656433039217,0.22799172147165322,1.3298850134132651,0.9192300895289456,0.28809755,0.6529843046088326
0.0235,1.78619375,1.0,2520.9642912885997,0.2323220769731955,1.3294434318004842,0.9218849095528729,0.28807313749999996,0.653912708046938
0.024,1.7856,1.0,2538.6797207741965,0.23662814092972345,1.3290080256171433,0.9243981694860405,0.2880482,0.6548269103300677
0.0245,1.78499375,1.0,2555.2890553396714,0.24091005421751435,1.3285779467859165,0.9267796683633933,0.2880227375,0.6557287400699983
0.025,1.784375,1.0,2570.837119161681,0.24516795025880664,1.3281526686529979,0.9290384247098039,0.28799675,0.6566193432905478
0.025500000000000002,1.78374375,1.0,2585.3699310863262,0.24940196242049983,1.3277316667809027,0.9311827017447206,0.2879702375,0.6574998551945515
0.026000000000000002,1.7831000000000001,1.0,2598.9348205485467,0.25361222406949346,1.3273144167321467,0.9332200805760857,0.2879432,0.6583714049722404
0.0265,1.78244375,1.0,2611.58031525893,0.2577988685726869,1.3269003940692454,0.9351575257185578,0.2879156375,0.6592351159354977
0.027,1.781775,1.0,2623.3560349888944,0.2619620292969798,1.3264890743547146,0.9370014435194046,0.28788755,0.6600921056345714
0.0275,1.7810937500000001,1.0,2634.3026754394073,0.26610183551169947,1.3260800248979394,0.9387577464732636,0.2878589375,0.660943295161222
0.028,1.7804,1.0,2644.4769518759867,0.27021842404151586,1.3256726726593682,0.9404318690203398,0.2878298,0.6617898924837502
0.0285,1.77969375,1.0,2653.914250247226,0.2743119237394577,1.3252666491058969,0.9420288549098901,0.2878001375,0.6626326753170324
0.029,1.778975,1.0,2662.6476755636686,0.2783824622866084,1.3248616123997135,0.9435533692667731,0.28776995,0.6634723622100076
0.029500000000000002,1.7782437500000001,1.0,2670.710879565831,0.2824301673640516,1.3244572207030056,0.9450097288487309,0.2877392375,0.6643096681558709
0.03,1.7775,1.0,2678.1380117552203,0.2864551666528707,1.3240531321779612,0.9464019325213715,0.287708,0.6651453046098623
0.0305,1.77674375,1.0,2684.963673016121,0.2904575878341493,1.323649004986768,0.947733688705034,0.2876762375,0.6659799794996015
0.031,1.775975,1.0,2691.222871828555,0.29443755858897097,1.3232444972916138,0.9490084401273361,0.28764395,0.6668143972279716
0.0315,1.7751937500000001,1.0,2696.9373195087023,0.29839519988536156,1.3228393921986707,0.9502293996627343,0.2876111375,0.6676490014183446
0.032,1.7744,1.0,2702.1511172715873,0.30233064574573804,1.3224332707829758,0.95139953527319,0.2875778,0.6684846488909191
0.0325,1.77359375,1.0,2706.8933648122224,0.3062440214912017,1.322025854044568,0.9525216248567436,0.2875439375,0.669321904741284
0.033,1.772775,1.0,2711.1855086450687,0.31013544824131706,1.3216169349582039,0.9535982647674279,0.28750955,0.6701611835079415
0.0335,1.7719437500000002,1.0,2715.049185241803,0.3140050471156485,1.3212063064986397,0.9546318771426179,0.2874746375,0.6710028975302995
0.034,1.7711000000000001,1.0,2718.5062024902536,0.3178529392337603,1.3207937616406324,0.9556247236681176,0.2874392,0.6718474569274653
0.0345,1.7702437500000001,1.0,2721.578522104536,0.32167924571521705,1.320379093358938,0.9565789181007432,0.2874032375,0.6726952695743139
0.035,1.7693750000000001,1.0,2724.2882429843803,0.32548408767958315,1.3199620946283137,0.9574964376736219,0.28736675,0.6735467410748152
0.035500000000000004,1.76849375,1.0,2726.6575855256547,0.32926758624642294,1.3195425584235156,0.9583791334955846,0.2873297375,0.6744022747326343
0.036000000000000004,1.7676,1.0,2728.708876880597,0.333029862535301,1.3191202777193003,0.9592287400438324,0.2872922,0.6752622715189944
0.0365,1.76669375,1.0,2730.456658522872,0.3367710326199556,1.3186951170917378,0.9600468899676476,0.2872541375,0.6761269845085571
0.037,1.765775,1.0,2731.9214107068815,0.3404912189099428,1.3182668878104322,0.9608351115676287,0.28721555,0.6769967733528756
0.0375,1.76484375,1.0,2733.1256424336198,0.34419054313607145,1.3178353833404333,0.9615948383529533,0.2871764375,0.6778720315588005
0.038,1.7639,1.0,2734.081821849407,0.3478691195869509,1.3174004888796338,0.9623274250168581,0.28713679999999997,0.6787529644737547
0.0385,1.76294375,1.0,2734.8024609483396,0.35152706255119054,1.3169620896259273,0.9630341458261029,0.28709663750000003,0.6796397759565231
0.039,1.761975,1.0,2735.300109977343,0.3551644863173999,1.3165200707772073,0.9637162002679339,0.28705595,0.6805326683520143
0.0395,1.7609937500000001,1.0,2735.5873521355,0.3587815051741883,1.316074317531367,0.9643747182418816,0.2870147375,0.6814318424651806
0.04,1.76,1.0,2735.676798563331,0.36237823341016523,1.3156247150862996,0.9650107648375573,0.286973,0.682337497534095
0.0405,1.7589937500000001,1.0,2735.5810836260766,0.3659547853139401,1.3151711486398987,0.9656253447355161,0.2869307375,0.6832498312021904
0.041,1.757975,1.0,2735.3128604881545,0.3695112751741223,1.3147135033900577,0.9662194062645864,0.28688795,0.6841690394896562
0.0415,1.75694375,1.0,2734.8845627255537,0.37304781636319956,1.3142516666618573,0.9667938451701746,0.2868446375,0.685095312500781
0.042,1.7559,1.0,2734.3074335817414,0.37656451602683666,1.3137855366897444,0.9673495079273793,0.28680079999999997,0.6860288168505391
0.0425,1.75484375,1.0,2733.593771297466,0.3800614959020661,1.3133150021990263,0.9678871966989819,0.2867564375,0.6869697365976535
0.043000000000000003,1.753775,1.0,2732.7508296981982,0.3835388637884431,1.3128399977802416,0.9684076720257299,0.28671155,0.687918162592023
0.043500000000000004,1.75269375,1.0,2731.7858677053223,0.3869967274855226,1.3123604580239285,0.9689116540497508,0.28666613750000003,0.6888741845123776
0.044,1.7516,1.0,2730.7061476784547,0.39043519479285976,1.3118763175206256,0.9693998250599805,0.2866202,0.6898378908474934
0.0445,1.75049375,1.0,2729.518933853835,0.3938543735100098,1.3113875108608715,0.9698728318528371,0.2865737375,0.6908093688771386
0.045,1.7493750000000001,1.0,2728.2314908770886,0.39725437143652775,1.310893972635204,0.9703312879232378,0.28652675,0.6917887046527456
0.0455,1.74824375,1.0,2726.851082430646,0.40063529637196865,1.3103956374341619,0.9707757754996967,0.2864792375,0.6927759829778072
0.046,1.7471,1.0,2725.384969956382,0.40399725611588777,1.3098924398482834,0.9712068474360058,0.2864312,0.693771287388004
0.0465,1.7459437500000001,1.0,2723.840411473051,0.40734035846784006,1.3093843144681072,0.971625028970887,0.28638263750000004,0.6947747001310566
0.047,1.744775,1.0,2722.2129155972407,0.4106646772435947,1.3088713027834706,0.9720308226326491,0.28633355,0.6957860915715612
0.0475,1.74359375,1.0,2720.520065782374,0.41397035436134144,1.308353245384252,0.9724247008913258,0.28628393750000003,0.6968057272353295
0.048,1.7424,1.0,2718.771377219005,0.4172575077424405,1.30783005617001,0.9728071153076627,0.2862338,0.6978337261427566
0.0485,1.74119375,1.0,2716.969983750239,0.4205262363995886,1.3073017070850346,0.9731784974167131,0.2861831375,0.6988700919088764
0.049,1.739975,1.0,2715.119016764701,0.4237766393454823,1.306768170073615,0.9735392582517302,0.28613195,0.6999148272630283
0.0495,1.73874375,1.0,2713.221604903754,0.4270088155928184,1.3062294170800401,0.9738897895021178,0.2860802375,0.7009679340396009
0.05,1.7375,1.0,2711.280873785674,0.43022286415429345,1.3056854200486,0.9742304645958422,0.286028,0.702029413168721
0.0505,1.73624375,1.0,2709.2999457475144,0.4334188840426042,1.3051361509235837,0.9745616397118602,0.2859752375,0.7030992646669003
0.051000000000000004,1.734975,1.0,2707.2819396042137,0.43659697427044725,1.3045815816492807,0.9748836547276802,0.28592195,0.704177487627623
0.051500000000000004,1.73369375,1.0,2705.229970425327,0.43975723385051935,1.30402168416998,0.9751968341067497,0.2858681375,0.7052640802118906
0.052000000000000005,1.7324,1.0,2703.14714932898,0.44289976179551716,1.3034564304299716,0.9755014877299826,0.2858138,0.7063590396387112
0.0525,1.73109375,1.0,2701.0365832937264,0.4460246571181373,1.3028857923735444,0.9757979116754064,0.28575893750000003,0.7074623621755426
0.053,1.729775,1.0,2698.9013749872765,0.44913201883107656,1.3023097419449878,0.9760863889495828,0.28570355000000003,0.7085740431286827
0.0535,1.72844375,1.0,2696.744622613129,0.45222194594703147,1.3017282510885915,0.976367190174178,0.2856476375,0.7096940768336094
0.054,1.7271,1.0,2694.569419774592,0.4552945374786988,1.3011412917486445,0.9766405742307879,0.2855912,0.7108224566452737
0.0545,1.7257437500000001,1.0,2692.3788553559266,0.4583498924387752,1.3005488358694361,0.9769067888668953,0.2855342375,0.7119591749283378
0.055,1.724375,1.0,2690.176013421208,0.46138810983995737,1.2999508553952561,0.9771660712656017,0.28547675,0.7131042230473665
0.0555,1.72299375,1.0,2687.9639731307334,0.4644092886949419,1.2993473222703935,0.9774186485815911,0.2854187375,0.714257591356968
0.056,1.7216,1.0,2685.743230002718,0.46741351395275493,1.2987382320684524,0.9776647385216322,0.2853602,0.715419224172881
0.0565,1.72019375,1.0,2683.513797375492,0.4704008788237625,1.298123584776431,0.9779045507873725,0.28530113749999997,0.7165890567603641
0.057,1.718775,1.0,2681.2810710207727,0.4733715021706534,1.2975033310195143,0.9781382859208686,0.28524155,0.7177671174499148
0.0575,1.71734375,1.0,2679.0459349593193,0.47632547371828055,1.2968774627353188,0.9783661359857463,0.2851814375,0.7189533549739777
0.058,1.7159,1.0,2676.8092717535164,0.47926288319149696,1.2962459718614596,0.9785882852759099,0.2851208,0.720147717333735
0.0585,1.71444375,1.0,2674.571962502621,0.4821838203151557,1.2956088503355527,0.9788049106897104,0.2850596375,0.7213501517962142
0.059000000000000004,1.7129750000000001,1.0,2672.3348868391204,0.48508837481410977,1.294966090095214,0.9790161820832265,0.28499795,0.722560604891397
0.059500000000000004,1.71149375,1.0,2670.098922927122,0.4879766364132121,1.2943176830780594,0.9792222626039757,0.2849357375,0.7237790224093208
0.06,1.71,1.0,2667.864947461889,0.49084869483731564,1.2936636212217045,0.9794233090062868,0.284873,0.7250053493971788
0.0605,1.7084937500000001,1.0,2665.6338356708143,0.4937046398112735,1.2930038964637651,0.9796194719494743,0.2848097375,0.7262395301564133
0.061,1.7069750000000001,1.0,2663.4064613158735,0.49654456105993866,1.292338500741857,0.9798108962798755,0.28474595,0.7274815082398063
0.0615,1.7054437500000001,1.0,2661.1836966973215,0.4993685483081641,1.2916674259935963,0.9799977212977449,0.2846816375,0.7287312264485651
0.062,1.7039,1.0,2658.966412659675,0.5021766912808028,1.2909906641565982,0.9801800810099202,0.2846168,0.7299886268294065
0.0625,1.70234375,1.0,2656.755478597544,0.5049690797027078,1.290308207168479,0.9803581043691273,0.2845514375,0.731253650671631
0.063,1.7007750000000001,1.0,2654.5517624645954,0.5077458032987319,1.2896200469668544,0.980531915500721,0.28448555,0.7325262385041997
0.0635,1.69919375,1.0,2652.3561307829805,0.5105069517937284,1.28892617548934,0.980701633917609,0.28441913750000003,0.7338063300928034
0.064,1.6976,1.0,2650.1694486541105,0.5132526149125501,1.2882265846735519,0.9808673747240594,0.2843522,0.7350938644369255
0.0645,1.69599375,1.0,2647.9913248576763,0.515982860231974,1.287521278038026,0.9810292478004676,0.2842847375,0.7363887585311866
0.065,1.694375,1.0,2645.822145093184,0.5186977776469117,1.286810251934694,0.9811873602867469,0.28421675,0.737690941916956
0.0655,1.69274375,1.0,2643.6639713344284,0.521397485814872,1.2860934872277467,0.9813418166997631,0.2841482375,0.7390003717023823
0.066,1.6911,1.0,2641.5168677241363,0.5240820655586412,1.2853709832100757,0.9814927160670659,0.2840792,0.7403169704774066
0.0665,1.6894437500000001,1.0,2639.380898339187,0.5267515977010054,1.2846427391745725,0.9816401539035453,0.2840096375,0.7416406601887637
0.067,1.687775,1.0,2637.2561271919944,0.529406163064751,1.2839087544141286,0.9817842223593567,0.28393955,0.7429713621397259
0.0675,1.68609375,1.0,2635.1426182326168,0.5320458424726638,1.2831690282216353,0.9819250103605998,0.2838689375,0.7443089969898429
0.068,1.6844000000000001,1.0,2633.0404353496106,0.5346707167475304,1.2824235598899842,0.9820626037431563,0.2837978,0.7456534847546827
0.0685,1.68269375,1.0,2630.949642371807,0.5372808667121367,1.281672348712067,0.9821970853800627,0.2837261375,0.7470047448055732
0.069,1.680975,1.0,2628.870303070061,0.5398763731892691,1.2809153939807747,0.9823285353027708,0.28365395,0.7483626958693436
0.0695,1.67924375,1.0,2626.8024811582427,0.5424573170017136,1.2801526949889992,0.9824570308166326,0.28358123749999997,0.7497272560280637
0.07,1.6775,1.0,2624.746240295364,0.5450237789722564,1.2793842510296318,0.9825826466109187,0.283508,0.7510983427187872
0.07050000000000001,1.67574375,1.0,2622.701644086783,0.5475758399236839,1.2786100613955642,0.9827054548636666,0.2834342375,0.7524758727332906
0.07100000000000001,1.673975,1.0,2620.668756085809,0.550113580678782,1.2778301253796878,0.9828255253416316,0.28335995,0.7538597622178156
0.07150000000000001,1.67219375,1.0,2618.6476397954093,0.552637082060337,1.2770444422748939,0.982942925495602,0.2832851375,0.7552499266728093
0.07200000000000001,1.6704,1.0,2616.638358669804,0.5551464248911352,1.276253011374074,0.9830577205513255,0.2832098,0.7566462809526651
0.0725,1.66859375,1.0,2614.640976115843,0.5576416899939626,1.27545583197012,0.9831699735962685,0.2831339375,0.7580487392654626
0.073,1.6667750000000001,1.0,2612.65555549504,0.5601229581916054,1.2746529033559229,0.983279745662435,0.28305755,0.7594572151727108
0.0735,1.66494375,1.0,2610.6821601246825,0.56259031030685,1.2738442248243742,0.983387095805439,0.2829806375,0.7608716215890867
0.074,1.6631,1.0,2608.720853279823,0.5650438271624825,1.2730297956683656,0.9834920811800314,0.2829032,0.7622918707821764
0.0745,1.6612437500000001,1.0,2606.7705560678096,0.5674835413150834,1.2722096258038653,0.9835947548464736,0.2828252375,0.7637178559302285
0.075,1.659375,1.0,2604.831975294266,0.5699095754780451,1.2713837085470852,0.9836951725339089,0.28274675,0.7651494985179552
0.0755,1.65749375,1.0,2602.905302593325,0.5723220226851352,1.2705520420001422,0.9837933867462884,0.2826677375,0.7665867109998512
