Time [s],Phi [rad],STIM [ ],Fsee [N],Gamma [ ],Lcerel [ ],q [ ],Lmtc [m],fisomrel [ ]
0.0,1.8,1.0,18.141588946188143,0.00042479980028711984,1.3793202513403504,0.005046687913334632,0.288653,0.5411866929945581
0.0005,1.79999375,1.0,18.582540346752474,0.0060316263181926615,1.379268560691043,0.014132107093465122,0.2886527375,0.5413117310948488
0.001,1.799975,1.0,22.231992353814427,0.011607002972336591,1.3788760693127025,0.03780279205851869,0.28865195,0.5422605998155494
0.0015,1.79994375,1.0,32.356339888796555,0.017151106172527873,1.3779376596528004,0.07358383770619704,0.2886506375,0.5445252723729721
0.002,1.7999,1.0,56.20767149642082,0.022664111336951842,1.3761998533747268,0.11823582692439165,0.2886488,0.5487043058700065
0.0025,1.79984375,1.0,101.40679868457974,0.028146192901570187,1.3737307770921607,0.1683932029693218,0.28864643749999996,0.5546087571877859
0.003,1.7997750000000001,1.0,166.46074270734374,0.03359752432321501,1.3710101079557273,0.22121390426327084,0.28864354999999997,0.5610698335289528
0.0035,1.79969375,1.0,243.85346738192692,0.039018278086628326,1.3683958954148303,0.2745212240462522,0.2886401375,0.5672336232190862
0.004,1.7996,1.0,328.005927183404,0.04440862570712551,1.3659837670667692,0.3266973170924346,0.2886362,0.5728822775625537
0.0045000000000000005,1.7994937500000001,1.0,416.0227384091772,0.049768737738238485,1.3637648977973842,0.37662219156417986,0.2886317375,0.5780455967170237
0.005,1.799375,1.0,506.2927940017034,0.05509878377131248,1.3617126579841736,0.42360269123152633,0.28862675,0.582793217646761
0.0055,1.79924375,1.0,597.7265992063554,0.06039893248866538,1.3598037143003974,0.46727918391443435,0.2886212375,0.5871852269631315
0.006,1.7991000000000001,1.0,689.4504383208051,0.06566935153352016,1.358020721799411,0.507533379695165,0.2886152,0.5912664628897604
0.006500000000000001,1.79894375,1.0,780.767402818611,0.07091020770086985,1.3563499629456628,0.5444094020690873,0.2886086375,0.5950723976678085
0.007,1.798775,1.0,871.0890456217884,0.07612166683322157,1.354780716371816,0.5780538387967684,0.28860155,0.5986308778402458
0.0075,1.79859375,1.0,959.9197065095647,0.08130389365209664,1.3533042670431454,0.6086718536662155,0.2885939375,0.6019645882943425
0.008,1.7984,1.0,1046.8982467674823,0.08645705255094076,1.3519125119215654,0.6364963652790434,0.2885858,0.605094336584994
0.0085,1.79819375,1.0,1131.6998283979558,0.09158130617801272,1.3505989727442236,0.6617688283907613,0.2885771375,0.6080368632356352
0.009000000000000001,1.797975,1.0,1214.0836851592062,0.09667681660096195,1.349357652666096,0.6847260196822815,0.28856795,0.6108074952922049
0.0095,1.79774375,1.0,1293.8887703806952,0.10174374550590898,1.3481828653686312,0.7055925651487664,0.2885582375,0.6134205748204389
0.01,1.7975,1.0,1370.9806826760996,0.10678225296532583,1.3470697437561607,0.7245772812284285,0.288548,0.6158883704369673
0.0105,1.79724375,1.0,1445.2712972257145,0.11179249817159344,1.3460137787403208,0.7418712324295819,0.2885372375,0.6182221457966974
0.011,1.796975,1.0,1516.7193655143838,0.11677463962768292,1.3450106838609983,0.7576474193249593,0.28852595000000003,0.6204324873143057
0.0115,1.79669375,1.0,1585.3228339185412,0.12172883592885808,1.344056390342608,0.7720613991359494,0.2885141375,0.622529337577854
0.012,1.7964,1.0,1651.0670299037556,0.12665524291422334,1.3431475681113008,0.7852526045078938,0.28850180000000003,0.624520875316646
0.0125,1.79609375,1.0,1713.9749791568113,0.13155401626404545,1.342280925899812,0.7973453414379565,0.2884889375,0.6264150757817837
0.013000000000000001,1.7957750000000001,1.0,1774.0917625333916,0.13642531095681604,1.3414533431339242,0.8084502685010643,0.28847555,0.6282194338732993
0.0135,1.79544375,1.0,1831.4897411759605,0.14126928239747244,1.3406617610737368,0.8186657554772511,0.2884616375,0.6299412134634574
0.014,1.7951000000000001,1.0,1886.2210687860154,0.14608608330835007,1.3399036648933798,0.8280793909479103,0.2884472,0.6315864113266869
0.0145,1.79474375,1.0,1938.341359838864,0.1508758652990102,1.33917676218011,0.8367690703023093,0.2884322375,0.6331604719292636
0.015,1.794375,1.0,1987.9271488991294,0.15563877997901412,1.3384787605211852,0.8448040349185485,0.28841675,0.6346687776659508
0.0155,1.79399375,1.0,2035.0610764219102,0.16037497808732182,1.3378075043536766,0.8522459301532069,0.2884007375,0.6361163584258316
0.016,1.7936,1.0,2079.8406955295886,0.1650846108606748,1.3371608581745462,0.8591496649039202,0.2883842,0.6375081496014143
0.0165,1.7931937500000001,1.0,2122.3410419548622,0.1697678266892979,1.3365370759364312,0.8655643175612414,0.2883671375,0.6388482031892753
0.017,1.792775,1.0,2162.635539487556,0.17442477289853628,1.3359345552062556,0.8715337499537218,0.28834955,0.6401402251861454
0.0175,1.7923437500000001,1.0,2200.8084993257385,0.1790555968137351,1.3353516935509433,0.8770971820177054,0.2883314375,0.6413878878587826
0.018000000000000002,1.7919,1.0,2236.946671042321,0.18366044492579192,1.3347869640582082,0.8822897570526578,0.2883128,0.6425946705889287
0.0185,1.79144375,1.0,2271.1430582968687,0.1882394642647587,1.3342388657848137,0.8871430049090319,0.2882936375,0.6437639687464328
0.019,1.790975,1.0,2303.4783646214405,0.19279279991489978,1.3337060987173661,0.8916853015044589,0.28827395,0.6448987234656745
0.0195,1.79049375,1.0,2334.02063470929,0.19732059467944477,1.3331875536534552,0.8959422250019938,0.2882537375,0.6460014479924296
0.02,1.79,1.0,2362.843602045704,0.20182299136162338,1.3326821213906697,0.8999368279555607,0.288233,0.6470746368208028
0.0205,1.78949375,1.0,2390.0262139594583,0.2063001327646653,1.332188692726599,0.9036899207089837,0.2882117375,0.648120766660055
0.021,1.788975,1.0,2415.623126413731,0.21075215993177296,1.33170643921566,0.9072203806821132,0.28818995000000003,0.6491417033892466
0.021500000000000002,1.78844375,1.0,2439.757435253671,0.21517921637041662,1.331233910629834,0.9105451713492051,0.2881676375,0.6501406136762343
0.022,1.7879010777333444,1.0,2462.5308565359073,0.21958144170584207,1.3307703927132866,0.9136798323284895,0.28814484526480044,0.6511190921693182
0.0225,1.7873562684301771,1.0,2484.403355389474,0.22395897379325655,1.3303155001423728,0.9166385441665875,0.2881219632740674,0.6520780305028513
0.023,1.7868114591270101,1.0,2505.5039496316804,0.2283119504878672,1.3298688475934488,0.9194342059011018,0.2880990812833344,0.6530183143729913
0.0235,1.7862666498238429,1.0,2525.8624236772994,0.23264050964488114,1.32943004974287,0.9220785685323439,0.2880761992926014,0.6539408237449307
0.024,1.7857218405206756,1.0,2545.5096198557817,0.23694478910188366,1.3289987215013899,0.9245823530433285,0.28805331730186834,0.6548464325588359
0.0245,1.7851770312175084,1.0,2564.471440678557,0.24122492515925956,1.32857453363987,0.9269553639032415,0.28803043531113537,0.6557358923575956
0.025,1.7846322219143411,1.0,2582.771155820855,0.24548105379328955,1.3281571896599451,0.9292065771006924,0.28800755332040234,0.6566098816150727
0.025500000000000002,1.784087412611174,1.0,2600.4317177294797,0.24971330871188993,1.3277464031990078,0.931344216916804,0.2879846713296693,0.6574690535399024
0.026000000000000002,1.7835426033080068,1.0,2617.4767917679806,0.25392182362297705,1.3273418878944518,0.9333758286464984,0.2879617893389363,0.6583140574926535
0.0265,1.7829977940048396,1.0,2633.9235564485434,0.2581067265664765,1.3269434236267446,0.9353083517286194,0.28793890734820327,0.6591454009796653
0.027,1.7824529847016723,1.0,2649.800352164824,0.26226815373440626,1.3265506923517048,0.9371481577836192,0.28791602535747024,0.6599637924892292
0.0275,1.781908175398505,1.0,2665.1416756088347,0.26640624655390355,1.3261633252884661,0.9389011097031684,0.2878931433667372,0.6607700422090887
0.028,1.7813633660953379,1.0,2679.964337442773,0.2705211323609582,1.3257811219730216,0.9405726329192867,0.2878702613760042,0.6615646063966814
0.0285,1.7808185567921708,1.0,2694.285572435258,0.2746129384915602,1.3254038819413632,0.9421677364055899,0.28784737938527116,0.6623479388312863
0.029,1.7802737474890036,1.0,2708.123016955987,0.2786817922816993,1.325031404729484,0.9436910500711202,0.28782449739453814,0.6631204908787576
0.029500000000000002,1.7797289381858363,1.0,2721.4946873614304,0.2827278210673654,1.3246634898733767,0.9451468583487239,0.2878016154038051,0.6638827115536985
0.03,1.779184128882669,1.0,2734.4189592717403,0.2867511521845483,1.3242999369090336,0.9465391304066737,0.2877787334130721,0.6646350475790717
0.0305,1.7786393195795018,1.0,2746.9145477382463,0.29075191296923786,1.3239405453724475,0.9478715473597801,0.28775585142233906,0.6653779434432439
0.031,1.7780945102763348,1.0,2759.0004883021934,0.294730230757424,1.3235851147996112,0.9491475268106387,0.2877329694316061,0.6661118414544722
0.0315,1.7775497009731676,1.0,2770.6961189442613,0.29868623288509655,1.3232334447265168,0.9503702450119592,0.287710087440873,0.6668371817928246
0.032,1.7770048916700003,1.0,2782.021062925656,0.3026200466882454,1.3228853346891576,0.9515426569063613,0.28768720545014004,0.6675544025595367
0.0325,1.776460082366833,1.0,2792.982145976979,0.306531786328874,1.3225407016357886,0.9526675243963312,0.28766432345940696,0.6682636983045064
0.033,1.7759152730636658,1.0,2803.6088319628516,0.31042159261274344,1.3221992608641118,0.9537474060235727,0.287641441468674,0.6689656769726405
0.0335,1.7753704637604988,1.0,2813.912634602571,0.31428958552173986,1.3218608911665324,0.9547847018434303,0.28761855947794096,0.6696606082190231
0.034,1.7748256544573315,1.0,2823.904737027677,0.31813588449136504,1.321525475752273,0.9557816535623368,0.28759567748720793,0.6703487514103141
0.0345,1.7742808451541643,1.0,2833.59647455177,0.3219606089571209,1.3211928978305554,0.9567403565419073,0.2875727954964749,0.6710303647423802
0.035,1.773736035850997,1.0,2842.9993271719522,0.32576387835450915,1.320863040610602,0.9576627710719678,0.2875499135057419,0.6717057052618598
0.035500000000000004,1.7731912265478298,1.0,2852.1249123724892,0.32954581211903167,1.3205357873016343,0.9585507326503347,0.28752703151500886,0.6723750288868668
0.036000000000000004,1.7726464172446625,1.0,2860.9849782310594,0.33330652968619023,1.320211021112875,0.9594059613672006,0.28750414952427583,0.6730385904268174
0.0365,1.7721016079414955,1.0,2869.59139682709,0.3370461504914866,1.3198886252535462,0.9602300704813946,0.2874812675335428,0.6736966436013911
0.037,1.7715567986383283,1.0,2877.9561579531564,0.34076479397042275,1.3195684829328695,0.9610245742664242,0.2874583855428098,0.6743494410586233
0.0375,1.771011989335161,1.0,2886.0913631280205,0.34446257955850035,1.3192504773600673,0.9617908951959461,0.28743550355207675,0.6749972343921211
0.038,1.7704671800319938,1.0,2894.002991639652,0.34813961584739755,1.318934546724432,0.9625303735445645,0.28741262156134373,0.6756401623267893
0.0385,1.7699223707288265,1.0,2901.7055565715737,0.3517960296080261,1.318620554578428,0.9632442669385957,0.2873897395706107,0.6762785146687978
0.039,1.7693775614256595,1.0,2909.2107710011455,0.3554319420755574,1.3183083900815842,0.9639337606376497,0.2873668575798777,0.6769125280729275
0.0395,1.7688327521224922,1.0,2916.5251810953273,0.3590474648075221,1.3179979886029305,0.9645999736684762,0.28734397558914465,0.6775423445296254
0.04,1.768287942819325,1.0,2923.6553910992657,0.36264270936145065,1.3176892855114968,0.9652439610922606,0.2873210935984116,0.6781681054566158
0.0405,1.7677431335161577,1.0,2930.608060856494,0.36621778729487375,1.3173822161763131,0.9658667183408773,0.28729821160767866,0.6787899517060334
0.041,1.7671983242129905,1.0,2937.389903420962,0.369772810165322,1.3170767159664094,0.9664691852152368,0.2872753296169456,0.6794080235712914
0.0415,1.7666535149098235,1.0,2944.0076827630805,0.3733078895303259,1.316772720250816,0.9670522495753254,0.2872524476262126,0.6800224607936809
0.042,1.7661087056066562,1.0,2950.4682115667706,0.3768231369474161,1.3164701643985621,0.9676167507486652,0.2872295656354796,0.6806334025687087
0.0425,1.765563896303489,1.0,2956.7783491200885,0.3803186639741232,1.3161689837786785,0.9681634826813681,0.28720668364474655,0.6812409875521611
0.043000000000000003,1.7650190870003217,1.0,2962.9449992985296,0.38379458216797774,1.315869113760195,0.9686931968536585,0.2871838016540135,0.6818453538659088
0.043500000000000004,1.7644742776971545,1.0,2968.975108640334,0.38725100308651034,1.3155704897121414,0.9692066049796787,0.2871609196632805,0.6824466391034415
0.044,1.7639294683939872,1.0,2974.8756645149488,0.3906880382872515,1.3152730470035479,0.9697043815095558,0.2871380376725475,0.6830449803351362
0.0445,1.7633846590908202,1.0,2980.645986723855,0.3941057757614451,1.314976788037901,0.9701871676532656,0.28711515568181445,0.6836403794557626
0.045,1.762839849787653,1.0,2986.300130720759,0.3975043548628371,1.3146815872370372,0.9706555694972547,0.2870922736910814,0.684233095197637
0.0455,1.7622950404844857,1.0,2991.842056728601,0.4008838804003876,1.3143874072145547,0.9711101639949288,0.2870693917003484,0.684823208497799
0.046,1.7617502311813185,1.0,2997.2752677802237,0.4042444555951787,1.3140942147498178,0.9715514992332009,0.28704650970961537,0.6854107916476255
0.0465,1.7612054218781512,1.0,3002.6032874345574,0.4075861836682926,1.3138019766221907,0.9719800960753511,0.28702362771888235,0.6859959166709378
0.047,1.7606606125749842,1.0,3007.829659061637,0.41090916784081116,1.313510659611037,0.9723964497716935,0.2870007457281493,0.6865786553260601
0.0475,1.760115803271817,1.0,3012.9579451516092,0.4142135113338166,1.313220230495721,0.9728010314602706,0.2869778637374163,0.6871590791078043
0.048,1.7595709939686497,1.0,3017.991726648757,0.417499317368391,1.3129306560556069,0.9731942895660446,0.28695498174668327,0.6877372592493861
0.0485,1.7590261846654824,1.0,3022.9346023097555,0.4207666891656164,1.3126419030700582,0.9735766511063363,0.28693209975595024,0.688313266724274
0.049,1.7584813753623152,1.0,3027.7901880861823,0.4240157299465748,1.3123539383184393,0.9739485229096062,0.2869092177652172,0.6888871722479613
0.0495,1.7579365660591482,1.0,3032.5621165319894,0.4272465429323484,1.3120667285801142,0.9743102927540723,0.2868863357744842,0.6894590462796727
0.05,1.757391756755981,1.0,3037.2540362349864,0.4304592313440192,1.3117802406344468,0.9746623304321217,0.2868634537837512,0.6900289590240003
0.0505,1.7568469474528137,1.0,3041.869611272831,0.4336538984026693,1.311494441260801,0.9750049887459802,0.28684057179301814,0.6905969804324663
0.051000000000000004,1.7563021381496464,1.0,3046.4125206941467,0.4368306473293808,1.3112092972385412,0.9753386044396594,0.28681768980228517,0.691163180205017
0.051500000000000004,1.7557573288464792,1.0,3050.8842312517227,0.439989566816969,1.3109247944917943,0.9756634987203744,0.2867948078115521,0.691727589828557
0.052000000000000005,1.755212519543312,1.0,3055.2870001910624,0.44313075575418975,1.310640912218389,0.975979979144866,0.2867719258208191,0.6922902540055074
0.0525,1.754667710240145,1.0,3059.627367868777,0.4462543416317351,1.3103575929269584,0.9762883403563342,0.2867490438300861,0.6928512898998227
0.053,1.7541229009369776,1.0,3063.9070276562907,0.4493604187236625,1.3100748208920838,0.9765888631713361,0.28672616183935307,0.6934107316605298
0.0535,1.7535780916338104,1.0,3068.1276800779756,0.45244908130402917,1.3097925803883463,0.9768818162216544,0.28670327984862004,0.6939686133173788
0.054,1.7530332823306432,1.0,3072.2910326231577,0.4555204236468924,1.3095108556903279,0.9771674565864227,0.286680397857887,0.6945249687813808
0.0545,1.752488473027476,1.0,3076.398799563781,0.45857454002630943,1.3092296310726095,0.9774460303862885,0.286657515867154,0.6950798318453375
0.055,1.7519436637243089,1.0,3080.4527017769587,0.46161152471633765,1.3089488908097728,0.9777177733422074,0.28663463387642096,0.6956332361843465
0.0555,1.7513988544211416,1.0,3084.4544665736075,0.4646314719910343,1.3086686191763992,0.9779829113012369,0.28661175188568794,0.696185215356298
0.056,1.7508540451179744,1.0,3088.405827532241,0.46763447612445663,1.30838880044707,0.9782416607315476,0.2865888698949549,0.6967358028023507
0.0565,1.7503092358148071,1.0,3092.308524338393,0.470620631390662,1.3081094188963667,0.9784942291886879,0.2865659879042219,0.6972850318473955
0.057,1.7497644265116399,1.0,3096.1643026292413,0.4735900320637077,1.3078304587988707,0.9787408157549923,0.28654310591348886,0.6978329357004999
0.0575,1.7492196172084729,1.0,3099.974913844203,0.476542772417651,1.3075519044291635,0.9789816114538911,0.2865202239227559,0.6983795474553403
0.058,1.7486748079053056,1.0,3103.7421150803825,0.4794789467265491,1.3072737400618262,0.979216799640737,0.2864973419320228,0.6989249000906164
0.0585,1.7481299986021384,1.0,3107.4676689544176,0.4823986492644595,1.3069959499714405,0.9794465563716662,0.28647445994128984,0.699469026470449
0.059000000000000004,1.747585189298971,1.0,3111.153343468433,0.48530197430543937,1.3067185184325876,0.9796710507518872,0.28645157795055676,0.7000119593447655
0.059500000000000004,1.7470403799958039,1.0,3114.800911883239,0.488189016123546,1.3064414297198492,0.9798904452646999,0.2864286959598238,0.7005537313496643
0.06,1.7464955706926366,1.0,3118.4111973749073,0.4910598545838339,1.3061646762309502,0.9801048953658008,0.2864058139690907,0.7010943591466754
0.0605,1.7459507613894696,1.0,3121.9833569255798,0.49391455069906876,1.3058882645487873,0.9803145498139686,0.28638293197835774,0.7016338316687856
0.061,1.7454059520863023,1.0,3125.522636566145,0.49675325963976147,1.305612149525661,0.9805195563166581,0.2863600499876247,0.702172238719085
0.0615,1.744861142783135,1.0,3129.0297712321417,0.49957606582776853,1.3053363244185736,0.9807200534718983,0.2863371679968917,0.7027095949953941
0.062,1.7443163334799678,1.0,3132.505498208013,0.5023830536849463,1.3050607824845273,0.9809161746824908,0.28631428600615866,0.7032459151464538
0.0625,1.7437715241768006,1.0,3135.950557084061,0.5051743076331511,1.3047855169805236,0.9811080483897692,0.28629140401542563,0.7037812137720503
0.063,1.7432267148736336,1.0,3139.365689714896,0.5079499120942392,1.3045105211635646,0.9812957982951583,0.2862685220246926,0.7043155054231323
0.0635,1.7426819055704663,1.0,3142.751640178329,0.5107099514900673,1.3042357882906526,0.9814795435702489,0.2862456400339596,0.70484880460193
0.064,1.742137096267299,1.0,3146.109154735845,0.5134545102424916,1.3039613116187894,0.981659399056067,0.28622275804322656,0.7053811257620703
0.0645,1.7415922869641318,1.0,3149.4389817935075,0.5161836727733685,1.3036870844049768,0.9818354754521689,0.28619987605249353,0.7059124833086878
0.065,1.7410474776609646,1.0,3152.7418718643758,0.5188975235045543,1.303413099906217,0.9820078794961487,0.2861769940617605,0.7064428915985331
0.0655,1.7405026683577975,1.0,3156.0185775317127,0.5215961468579056,1.303139351379512,0.9821767141341148,0.2861541120710275,0.706972364940079
0.066,1.7399578590546303,1.0,3159.269853412991,0.5242796272552785,1.3028658320818636,0.9823420786826464,0.28613123008029445,0.7075009175936238
0.0665,1.739413049751463,1.0,3162.4964561253296,0.5269480491185297,1.3025925352702739,0.9825040689827177,0.2861083480895614,0.7080285637713906
0.067,1.7388682404482958,1.0,3165.699144251731,0.5296014968695153,1.3023194542017449,0.9826627775460385,0.2860854660988284,0.7085553176376247
0.0675,1.7383234311451286,1.0,3168.87867830807,0.5322400549300919,1.3020465821332785,0.9828182936942397,0.2860625841080954,0.7090811933086882
0.068,1.7377786218419613,1.0,3172.0358207117733,0.5348638077221157,1.3017739123218768,0.9829707036912976,0.2860397021173624,0.7096062048531513
0.0685,1.7372338125387943,1.0,3175.1713357504727,0.5374728396674432,1.3015014380245415,0.9831200908695719,0.2860168201266293,0.7101303662918799
0.069,1.736689003235627,1.0,3178.2859895530514,0.5400672351879308,1.301229152498275,0.9832665357498072,0.28599393813589635,0.7106536915981216
0.0695,1.7361441939324598,1.0,3181.3805500601034,0.5426470787054348,1.300957049000079,0.9834101161554266,0.2859710561451633,0.7111761946975894
0.07,1.7355993846292925,1.0,3184.4557869969244,0.5452124546418117,1.3006851207869556,0.9835509073214249,0.2859481741544303,0.7116978894685393
