Time [s],Phi [rad],STIM [ ],Fsee [N],Gamma [ ],Lcerel [ ],q [ ],Lmtc [m],fisomrel [ ]
0.0,1.8,1.0,17.966939118239306,1.4489143993736917e-05,1.3793397707606478,0.005000055787994404,0.288653,0.541139471681311
0.0005,1.79999375,1.0,18.277804094253952,0.005623617180150579,1.3793022700515998,0.012952982473543526,0.2886527375,0.5412301911151254
0.001,1.799975,1.0,21.62278132594974,0.011201282442924216,1.3789378527650027,0.03563197612095507,0.28865195,0.5421113001972231
0.0015,1.79994375,1.0,31.08064789305353,0.016747661414462753,1.3780452315644995,0.07063373583553964,0.2886506375,0.5442659530973977
0.002,1.7999,1.0,53.60770911644427,0.022262929585254415,1.3763664891670206,0.1147557715580793,0.2886488,0.5483044191074329
0.0025,1.79984375,1.0,97.16196302499581,0.027747261461725004,1.3739330941988346,0.16461594442185212,0.28864643749999996,0.5541264064505278
0.003,1.7997750000000001,1.0,161.0145575471988,0.0332008305739119,1.3712122331825582,0.21732280478839394,0.28864354999999997,0.5605914474987819
0.0035,1.79969375,1.0,237.74727145466838,0.03862380947508869,1.368582764847172,0.270655011123671,0.2886401375,0.5667944689337191
0.004,1.7996,1.0,321.5349568676348,0.04401636975253912,1.3661542865177014,0.32295658809114997,0.2886362,0.5724841787777839
0.0045000000000000005,1.7994937500000001,1.0,409.3384914841281,0.049378682032743766,1.36392115368458,0.3730732250150674,0.2886317375,0.5776830162655753
0.005,1.799375,1.0,499.48577682045,0.054710915972480456,1.361856806614504,0.42028368445073583,0.28862675,0.5824606234271474
0.0055,1.79924375,1.0,590.8634206920586,0.06001324030610401,1.3599374087696456,0.46420723632344324,0.2886212375,0.5868783857404114
0.006,1.7991000000000001,1.0,682.5912756573297,0.06528582278917594,1.358145084795747,0.504710783935233,0.2886152,0.5909824561117576
0.006500000000000001,1.79894375,1.0,773.956511126933,0.07052883025460445,1.3564659690258807,0.5418289158773979,0.2886086375,0.5948087146889027
0.007,1.798775,1.0,864.3609552402518,0.07574242859040811,1.3548891812057748,0.5757024326397044,0.28860155,0.5983854243083377
0.0075,1.79859375,1.0,953.3160927654195,0.08092678276770413,1.3534056582835368,0.6065332569389511,0.2885939375,0.6017360991491711
0.008,1.7984,1.0,1040.4284451285687,0.08608205680575504,1.352007615892283,0.6345532802926057,0.2885858,0.6048808620976754
0.0085,1.79819375,1.0,1125.3895881265028,0.09120841384426653,1.350688174687157,0.6600036588880164,0.2885771375,0.607837385633259
0.009000000000000001,1.797975,1.0,1207.9542972471177,0.09630601604590734,1.349441295618951,0.6831218100559399,0.28856795,0.6106211126152707
0.0095,1.79774375,1.0,1287.9433624561682,0.10137502481743621,1.3482614468697254,0.7041335103736182,0.2885582375,0.6132460606639205
0.01,1.7975,1.0,1365.2177887223086,0.10641560008759186,1.3471437331461389,0.723248816534344,0.288548,0.6157245807951605
0.0105,1.79724375,1.0,1439.7055406530553,0.11142790165917721,1.346083370147842,0.7406599784882795,0.2885372375,0.6180685615660451
0.011,1.796975,1.0,1511.379078085635,0.11641208922893584,1.3450758590324499,0.7565412172717063,0.28852595000000003,0.6202890673246709
0.0115,1.79669375,1.0,1580.1859290138552,0.1213683192165382,1.3441177075383632,0.7710496118721226,0.2885141375,0.6223947811177982
0.012,1.7964,1.0,1646.120365900632,0.12629674804165467,1.3432054234039832,0.7843256654917474,0.28850180000000003,0.6243942517413668
0.0125,1.79609375,1.0,1709.2192819288357,0.13119753212395566,1.34233551436771,0.7964946484530293,0.2884889375,0.6262959043450109
0.013000000000000001,1.7957750000000001,1.0,1769.5366266737972,0.13607082677909887,1.341504733263655,0.8076681226297092,0.28847555,0.6281075164493619
0.0135,1.79544375,1.0,1827.126240013816,0.14091678668012364,1.3407102094398702,0.8179453881658385,0.2884616375,0.6298359476512749
0.014,1.7951000000000001,1.0,1882.0333909932854,0.14573556432033635,1.3399494796718499,0.8274148081971228,0.2884472,0.6314870895116025
0.0145,1.79474375,1.0,1934.3269664821078,0.15052731216554127,1.3392200850489353,0.8361548874578589,0.2884322375,0.6330667535057178
0.015,1.794375,1.0,1984.0757141988145,0.15529218137599587,1.338519801734308,0.8442354863968472,0.28841675,0.6345801780413418
0.0155,1.79399375,1.0,2031.3921999150791,0.16003032489366786,1.3378461435087046,0.8517186683088986,0.2884007375,0.6360331100647187
0.016,1.7936,1.0,2076.3406466787605,0.16474189139464554,1.33719731923335,0.8586599211403215,0.2883842,0.6374297445849564
0.0165,1.7931937500000001,1.0,2118.992426306841,0.1694270291333502,1.3365716075205882,0.8651087367717867,0.2883671375,0.6387740848565278
0.017,1.792775,1.0,2159.431388925067,0.1740858863642031,1.335967286982764,0.8711093005588905,0.28834955,0.6400700959102078
0.0175,1.7923437500000001,1.0,2197.747519506884,0.1787186107612478,1.335382689704573,0.8767011330481743,0.2883314375,0.641321592622851
0.018000000000000002,1.7919,1.0,2234.032674621143,0.1833253497763816,1.3348162318583818,0.8819196464647674,0.2883128,0.6425321775642676
0.0185,1.79144375,1.0,2268.3706083919933,0.1879062496081302,1.3342665009102284,0.886796644954227,0.2882936375,0.6437050585753581
0.019,1.790975,1.0,2300.8305619693465,0.192461453964943,1.3337323050216405,0.8913607512915739,0.28827395,0.6448429482938224
0.0195,1.79049375,1.0,2331.48828427397,0.19699110655526925,1.3332124523541462,0.8956377173407101,0.2882537375,0.6459485382529843
0.02,1.79,1.0,2360.4254880604417,0.20149535108755828,1.3327057510692735,0.8996507500613599,0.288233,0.6470245000173172
0.0205,1.78949375,1.0,2387.71459150526,0.20597432925729423,1.3322111526360116,0.9034208284042914,0.2882117375,0.6480731826028463
0.021,1.788975,1.0,2413.448765664233,0.21042818586351672,1.3317274528974385,0.9069668870152853,0.28818995000000003,0.6490972480681687
0.021500000000000002,1.78844375,1.0,2437.6909888367604,0.2148570607203068,1.331253782108796,0.910306140696518,0.2881676375,0.6500986346894717
0.022,1.7879,1.0,2460.5011396831733,0.21926109267464725,1.330789333700597,0.9134542142040422,0.2881448,0.6510791349168212
0.0225,1.78734375,1.0,2481.9421874518694,0.22364042057352096,1.3303333011033536,0.9164252996727462,0.28812143749999997,0.6520405299176057
0.023,1.786775,1.0,2502.0799333164255,0.2279951832639108,1.3298848777475787,0.9192323078064737,0.28809755,0.652984590030182
0.0235,1.78619375,1.0,2520.9775377967703,0.23232551858484496,1.3294433065138125,0.9218870100672101,0.28807313749999996,0.6539129712794841
0.024,1.7856,1.0,2538.6976220347583,0.2366315642499032,1.3290078568972588,0.9244001517306459,0.2880482,0.6548272643490844
0.0245,1.78499375,1.0,2555.308540228555,0.2409134587355372,1.3285777637381364,0.92678154528129,0.2880227375,0.655729123650655
0.025,1.784375,1.0,2570.855850487304,0.24517133562646082,1.3281524932173603,0.9290402070222676,0.28799675,0.6566197104439742
0.025500000000000002,1.78374375,1.0,2585.3865555788684,0.24940532850738792,1.3277315115158446,0.9311843978270754,0.2879702375,0.6575001797179204
0.026000000000000002,1.7831000000000001,1.0,2598.948982196407,0.25361557096303233,1.3273142848145036,0.9332216966916107,0.2879432,0.6583716803455676
0.0265,1.78244375,1.0,2611.59266654284,0.257802196578108,1.3269002792942524,0.935159066227951,0.2879156375,0.6592353552211091
0.027,1.781775,1.0,2623.3658506181205,0.26196533818478723,1.3264889833473585,0.9370029141848992,0.28788755,0.6600922951301283
0.0275,1.7810937500000001,1.0,2634.3108298676943,0.2661051268716404,1.326079949449941,0.9387591511476548,0.2878589375,0.6609434520622577
0.028,1.7804,1.0,2644.482823606072,0.27022169781698685,1.325672618436395,0.9404332125966325,0.2878298,0.6617900051045355
0.0285,1.77969375,1.0,2653.9156249885045,0.2743151790879341,1.3252666364333223,0.94203014371141,0.2878001375,0.6626327016050795
0.029,1.778975,1.0,2662.6436369345697,0.2783856987515898,1.3248616495673258,0.9435546076182241,0.28776995,0.6634722852053445
0.029500000000000002,1.7782437500000001,1.0,2670.7018186407804,0.28243338487506153,1.3244573039650072,0.9450109192540899,0.2877392375,0.6643094958665783
0.03,1.7775,1.0,2678.125634869745,0.2864583655254569,1.3240532457529688,0.946403075824802,0.287708,0.6651450698882846
0.0305,1.77674375,1.0,2684.951008015658,0.2904607687698835,1.3236491210578127,0.9477347842364676,0.2876762375,0.6659797399187031
0.031,1.775975,1.0,2691.2061901112534,0.2944407193762032,1.3232446499968662,0.9490094942081944,0.28764395,0.6668140824247559
0.0315,1.7751937500000001,1.0,2696.924812029624,0.29839834579961116,1.3228395065713354,0.9502304069474148,0.2876111375,0.6676487659335991
0.032,1.7744,1.0,2702.146099055324,0.3023337777128649,1.3224333166269373,0.9514004948408353,0.2875778,0.6684845546203866
0.0325,1.77359375,1.0,2706.892224022716,0.30624713698069045,1.3220258644571243,0.9525225423794796,0.2875439375,0.6693218833566383
0.033,1.772775,1.0,2711.1855747456552,0.310138545467814,1.3216169343553485,0.9535991447765896,0.28750955,0.6701611847444753
0.0335,1.7719437500000002,1.0,2715.048733571639,0.3140081250389616,1.3212063106150622,0.9546327231093996,0.2874746375,0.6710028890977684
0.034,1.7711000000000001,1.0,2718.504457967651,0.3178559975588592,1.3207937775297174,0.955625538077953,0.2874392,0.6718474244203259
0.0345,1.7702437500000001,1.0,2721.57566213782,0.32168228489223305,1.3203791193927665,0.9565797025218935,0.2874032375,0.672695216381108
0.035,1.7693750000000001,1.0,2724.2853996723816,0.32548710890380905,1.3199621204976617,0.9574971928204163,0.28736675,0.673546688286479
0.035500000000000004,1.76849375,1.0,2726.6568472285226,0.3292705914583135,1.3195425651378552,0.9583798592867246,0.2873297375,0.6744022610494885
0.036000000000000004,1.7676,1.0,2728.70504963041,0.3330328474104645,1.3191203125126127,0.9592294417731311,0.2872922,0.6752622007074374
0.0365,1.76669375,1.0,2730.4589544634387,0.3367740047903829,1.318695096226166,0.9600475620635739,0.2872541375,0.6761270269177129
0.037,1.765775,1.0,2731.9340142376705,0.340494180750845,1.3182667733000135,0.9608357521106146,0.28721555,0.6769970057818808
0.0375,1.76484375,1.0,2733.1436779137352,0.34419349067603017,1.3178352195137755,0.9615954522075332,0.2871764375,0.6778723636372135
0.038,1.7639,1.0,2734.101446693023,0.347872049950118,1.317400310647072,0.9623280161302827,0.28713679999999997,0.6787533252587443
0.0385,1.76294375,1.0,2734.820867539683,0.35152997395728797,1.3169619224795235,0.9630347172816109,0.28709663750000003,0.6796401138331778
0.039,1.761975,1.0,2735.315527043931,0.35516737808171955,1.31651993079075,0.9637167543344641,0.28705595,0.6805329509318203
0.0395,1.7609937500000001,1.0,2735.599045628716,0.3587843777075922,1.3160742113603716,0.9643752564204467,0.2870147375,0.6814320564825227
0.04,1.76,1.0,2735.6850720970365,0.3623810882190855,1.315624639968009,0.9650112879044949,0.286973,0.6823376487406401
0.0405,1.7589937500000001,1.0,2735.5871942214535,0.3659576248794196,1.315171093158696,0.9656258528284138,0.2869307375,0.6832499427205121
0.041,1.757975,1.0,2735.308889964999,0.3695140871220726,1.3147135394422569,0.9662199041039544,0.28688795,0.6841689671292316
0.0415,1.75694375,1.0,2734.878237892453,0.3730506108624832,1.3142517240956109,0.9667943290569232,0.2868446375,0.6850951973945666
0.042,1.7559,1.0,2734.3026516144987,0.37656730422107804,1.3137855801178109,0.9673499773636403,0.28680079999999997,0.686028729943013
0.0425,1.75484375,1.0,2733.58955356598,0.38006427531828374,1.313315040507909,0.9678876525933805,0.2867564375,0.6869696600495132
0.043000000000000003,1.753775,1.0,2732.7463730991635,0.38354163227452687,1.3128400382649577,0.9684081151746651,0.28671155,0.6879180818188133
0.043500000000000004,1.75269375,1.0,2731.7805446782927,0.38699948321023403,1.3123605063880093,0.9689120851418688,0.28666613750000003,0.6888740881665384
0.044,1.7516,1.0,2730.699506171581,0.3904379362458319,1.3118763778761162,0.9694002446804548,0.2866202,0.6898377707999808
0.0445,1.75049375,1.0,2729.510697244896,0.3938570995017471,1.311387585728331,0.969873240487455,0.2865737375,0.6908092201986011
0.045,1.7493750000000001,1.0,2728.221557853371,0.3972570810984062,1.3108940629437058,0.9703316859623013,0.28652675,0.6917885255942446
0.0455,1.74824375,1.0,2726.8395268329996,0.4006379891562358,1.3103957425212935,0.9707761632417383,0.2864792375,0.6927757749510678
0.046,1.7471,1.0,2725.372040592361,0.4039999317956626,1.3098925574601459,0.9712072250913254,0.2864312,0.6937710549451855
0.0465,1.7459437500000001,1.0,2723.8265319028833,0.4073430171371132,1.3093844407593158,0.9716253966649169,0.28638263750000004,0.6947744509440223
0.047,1.744775,1.0,2722.207182649322,0.4106673468268979,1.308871354963529,0.9720311784302128,0.28633355,0.6957859887850566
0.0475,1.74359375,1.0,2720.5171201535013,0.4139730231465875,1.3083532722030653,0.972425047133477,0.28628393750000003,0.6968056744950967
0.048,1.7424,1.0,2718.769821798916,0.41726016795936904,1.307830070336061,0.972807452232858,0.2862338,0.697833698331938
0.0485,1.74119375,1.0,2716.968695864367,0.4205288815374576,1.3073017188183944,0.9731788252581465,0.2861831375,0.6988700689134582
0.049,1.739975,1.0,2715.1171478864762,0.42377926415306855,1.3067681871059433,0.9735395772317518,0.28613195,0.699914793940475
0.0495,1.73874375,1.0,2713.218580334696,0.42701141607841697,1.306229444654586,0.973890099827297,0.2860802375,0.7009678801866834
0.05,1.7375,1.0,2711.2763923069683,0.43022543758571824,1.3056854609202002,0.9742307664526022,0.286028,0.7020293334885356
0.0505,1.73624375,1.0,2709.293979245444,0.4334214289471875,1.3051362053586641,0.9745619332626299,0.2859752375,0.703099158735061
0.051000000000000004,1.734975,1.0,2707.274732673711,0.4365994904350399,1.304581647425856,0.9748839401075019,0.28592195,0.7041773598576261
0.051500000000000004,1.73369375,1.0,2705.2220399541434,0.43975972232149085,1.3040217565776535,0.9751971114202963,0.2858681375,0.7052639398196365
0.052000000000000005,1.7324,1.0,2703.139284065914,0.4429022248787554,1.303456502269935,0.9755017570489424,0.2858138,0.7063589006061766
0.0525,1.73109375,1.0,2701.029843404333,0.4460270983790489,1.3028858539585784,0.9757981730361903,0.28575893750000003,0.7074622432135929
0.053,1.729775,1.0,2698.8970915999616,0.4491344430945865,1.3023097810994615,0.9760866423513246,0.28570355000000003,0.7085739676390168
0.0535,1.72844375,1.0,2696.7443973590684,0.4522243592975835,1.3017282531484629,0.9763674355769905,0.2856476375,0.709694072869825
0.054,1.7271,1.0,2694.569187973713,0.45529693486001804,1.3011412938692397,0.9766408136364173,0.2855912,0.7108224525725773
0.0545,1.7257437500000001,1.0,2692.3746515779294,0.45835227168539927,1.300548874342718,0.9769070244522364,0.2855342375,0.7119591011840724
0.055,1.724375,1.0,2690.171036396396,0.4613904826794431,1.2999509009639976,0.9771663025571454,0.28547675,0.7131041358765502
0.0555,1.72299375,1.0,2687.9593844892543,0.4644116601140689,1.2993473643004494,0.9774188755603772,0.2854187375,0.7142575111172642
0.056,1.7216,1.0,2685.740736270421,0.46741589626119606,1.2987382549194446,0.9776649615464678,0.2853602,0.7154191806367505
0.0565,1.72019375,1.0,2683.5161304916496,0.4704032833927439,1.2981235633883546,0.9779047695497982,0.28530113749999997,0.7165890974254775
0.057,1.718775,1.0,2681.286604228428,0.4733739137806317,1.29750328027455,0.9781385000017494,0.28524155,0.7177672137304927
0.0575,1.71734375,1.0,2679.0531928674322,0.47632787969677887,1.2968773961454025,0.9783663451522616,0.2851814375,0.718953481052059
0.058,1.7159,1.0,2676.8169300965983,0.4792652734131047,1.2962459015682828,0.9785884894674537,0.2851208,0.7201478501402911
0.0585,1.71444375,1.0,2674.5788478970067,0.48218618720152856,1.2956087871105622,0.9788051100048479,0.2850596375,0.7213502709917805
0.059000000000000004,1.7129750000000001,1.0,2672.3399765360887,0.4850907133339698,1.2949660433396115,0.9790163767676221,0.28499795,0.7225606928462194
0.059500000000000004,1.71149375,1.0,2670.1013445639437,0.48797894408234777,1.2943176608228024,0.97922245303922,0.2849357375,0.7237790641830161
0.06,1.71,1.0,2667.863978810522,0.4908509717185817,1.2936636301275057,0.9794234956995548,0.284873,0.7250053327179067
0.0605,1.7084937500000001,1.0,2665.628904385565,0.4937068885145911,1.2930039418210926,0.9796196555239503,0.2848097375,0.7262394453995593
0.061,1.7069750000000001,1.0,2663.397144680122,0.4965467867422952,1.2923385864709342,0.9798110774658884,0.28474595,0.7274813484061738
0.0615,1.7054437500000001,1.0,2661.169747578759,0.49937075836889644,1.2916675544031349,0.9799979008879834,0.2846816375,0.7287309875908622
0.062,1.7039,1.0,2658.951681797414,0.5021788686424332,1.290990799819069,0.9801802559017647,0.2846168,0.7299883750658753
0.0625,1.70234375,1.0,2656.7418421200277,0.5049712415578984,1.2903083328045493,0.9803582751063892,0.2845514375,0.7312534180619996
0.063,1.7007750000000001,1.0,2654.540443177395,0.5077479615515118,1.2896201512973622,0.9805320825021976,0.28448555,0.7325260457987661
0.0635,1.69919375,1.0,2652.3476992605783,0.5105091130594928,1.2889262532352952,0.9807017974912583,0.28441913750000003,0.7338061868348663
0.064,1.6976,1.0,2650.163824324063,0.5132547805180607,1.2882266365561346,0.9808675350801572,0.2843522,0.7350937690674041
0.0645,1.69599375,1.0,2647.98903198936,0.5159850483634353,1.2875212991976677,0.9810294060724004,0.2842847375,0.7363887197311393
0.065,1.694375,1.0,2645.8235355483093,0.518700001031836,1.286810239097681,0.9811875172510304,0.28421675,0.7376909653977394
0.0655,1.69274375,1.0,2643.6675479662645,0.5213997229594822,1.2860934541939617,0.9813419715520236,0.2841482375,0.7390004319750241
0.066,1.6911,1.0,2641.521281886068,0.5240842985825936,1.2853709424242965,0.9814928682289941,0.2840792,0.7403170447062144
0.0665,1.6894437500000001,1.0,2639.384949631809,0.5267538123373896,1.2846427017264723,0.9816403030097013,0.2840096375,0.741640728169179
0.067,1.687775,1.0,2637.258763211958,0.5294083486600898,1.283908730038276,0.9817843682448213,0.28393955,0.74297140627568
0.0675,1.68609375,1.0,2635.142934324214,0.5320479919869135,1.2831690252974945,0.9819251530494184,0.2838689375,0.7443090022706216
0.068,1.6844000000000001,1.0,2633.037674358634,0.5346728267540805,1.2824235854419146,0.9820627434375204,0.2837978,0.7456534387312933
0.0685,1.68269375,1.0,2630.9431944020575,0.53728293739781,1.281672408409323,0.9821972224501834,0.2837261375,0.7470046375666186
0.069,1.680975,1.0,2628.8597052423283,0.5398784083543217,1.2809154921375068,0.9823286702773988,0.28365395,0.7483625200163979
0.0695,1.67924375,1.0,2626.787417372388,0.542459324059835,1.2801528345642528,0.9824571643741827,0.28358123749999997,0.7497270066505561
0.07,1.6775,1.0,2624.7311655593603,0.5450256963878267,1.2793843907610465,0.9825827730388652,0.283508,0.7510980937470628
0.07050000000000001,1.67574375,1.0,2622.6876065932834,0.5475777003116683,1.2786101915632198,0.982705575896461,0.2834342375,0.7524756414448532
0.07100000000000001,1.673975,1.0,2620.6565181596666,0.5501154123040036,1.2778302389042004,0.9828256425027302,0.28335995,0.7538595610664378
0.07150000000000001,1.67219375,1.0,2618.637729377648,0.5526389077511866,1.277044534243842,0.9829430400223713,0.2832851375,0.7552497641760609
0.07200000000000001,1.6704,1.0,2616.6310696853643,0.5551482620395709,1.2762530790419977,0.9830578334099301,0.2832098,0.7566461617341065
0.0725,1.66859375,1.0,2614.6363688368046,0.5576435505555103,1.2754558747585207,0.9831700854956846,0.2831339375,0.7580486640976344
0.073,1.6667750000000001,1.0,2612.653456898136,0.5601248486853587,1.2746529228532648,0.9832798570676381,0.28305755,0.7594571810209139
0.0735,1.66494375,1.0,2610.682164244617,0.5625922318154699,1.2738442247860828,0.9833872069498173,0.2829806375,0.7608716216559609
0.074,1.6631,1.0,2608.7223215569875,0.5650457753321975,1.2730297820168284,0.9834921920770704,0.2829032,0.7622918945530714
0.0745,1.6612437500000001,1.0,2606.7737598185404,0.5674855546218953,1.2722095960053548,0.9835948675665381,0.2828252375,0.7637179076613569
0.075,1.659375,1.0,2604.8363103118,0.5699116450709172,1.2713836682115152,0.983695286785967,0.28274675,0.7651495683292802
0.0755,1.65749375,1.0,2602.9098046154304,0.5723241220656169,1.2705520000951631,0.983793501419025,0.2826677375,0.7665867833051877
