Time [s],Phi [rad],STIM [ ],Fsee [N],Gamma [ ],Lcerel [ ],q [ ],Lmtc [m],fisomrel [ ]
0.0,1.8,1.0,17.967645572448863,1.3678977783841599e-05,1.3793396916144458,0.0050000497461745634,0.288653,0.5411396631564322
0.0005,1.79999375,1.0,18.278172099908634,0.00562281155833187,1.379302229174726,0.012950730301519706,0.2886527375,0.5412302899970782
0.001,1.799975,1.0,21.62250684597502,0.01120048134000717,1.3789378807963286,0.03562774848603821,0.28865195,0.5421112324540416
0.0015,1.79994375,1.0,31.07908684693927,0.016746864805099047,1.3780453645375195,0.07062794776438039,0.2886506375,0.5442656324990243
0.002,1.7999,1.0,53.60359983335377,0.02226213744424031,1.3763667556982717,0.11474891643392814,0.2886488,0.5483037793531808
0.0025,1.79984375,1.0,97.1545812816622,0.027746473763995017,1.3739334498354163,0.16460848744739678,0.28864643749999996,0.5541255583360465
0.003,1.7997750000000001,1.0,161.00469823808464,0.03320004729454352,1.3712126021669009,0.21731511297215397,0.28864354999999997,0.5605905739556065
0.0035,1.79969375,1.0,237.73598569033,0.038623030589298966,1.3685831124359438,0.2706473617518835,0.2886401375,0.5667936518719148
0.004,1.7996,1.0,321.5228536389456,0.04401559523568321,1.366154607055025,0.3229491821465133,0.2886362,0.5724834302690697
0.0045000000000000005,1.7994937500000001,1.0,409.3258883371159,0.049377911860313144,1.363921449505192,0.37306619537318875,0.2886317375,0.5776823296876278
0.005,1.799375,1.0,499.4728606115156,0.05471015012009562,1.3618570810647879,0.4202771081451273,0.28862675,0.5824599900614527
0.0055,1.79924375,1.0,590.8503471696337,0.060012478749566237,1.3599376641802026,0.46420114802058043,0.2886212375,0.5868777994403691
0.006,1.7991000000000001,1.0,682.5781456361713,0.06528506550437652,1.3581453234529388,0.5047051891800549,0.2886152,0.5909819109974166
0.006500000000000001,1.79894375,1.0,773.9434427856982,0.07052807721811173,1.3564661921011358,0.5418238004911874,0.2886086375,0.5948082075539417
0.007,1.798775,1.0,864.347263482309,0.07574167977601648,1.3548894023628004,0.5756977788014507,0.28860155,0.5983849237582091
0.0075,1.79859375,1.0,953.3026406429783,0.08092603815347847,1.3534058651839032,0.6065290241944132,0.2885939375,0.6017356328240334
0.008,1.7984,1.0,1040.417922438253,0.08608131637388736,1.3520077708128782,0.6345494110301214,0.2885858,0.6048805143091462
0.0085,1.79819375,1.0,1125.373806853686,0.09120767741567498,1.3506883980852604,0.6600001885097161,0.2885771375,0.607836885996154
0.009000000000000001,1.797975,1.0,1207.9408576409066,0.09630528378865177,1.3494414792515912,0.6831186418076857,0.28856795,0.6106207033751906
0.0095,1.79774375,1.0,1287.9401921637436,0.10137429688713559,1.348261488820365,0.7041305592542704,0.2885582375,0.6132459674892308
0.01,1.7975,1.0,1365.2227554132141,0.10641487649840582,1.3471436693119792,0.7232460772864573,0.288548,0.615724722119309
0.0105,1.79724375,1.0,1439.7090842022913,0.11142718220288368,1.3460833257983404,0.740657490046305,0.2885372375,0.6180686594526779
0.011,1.796975,1.0,1511.367126484589,0.1164113731761399,1.345076005023967,0.7565390338558381,0.28852595000000003,0.6202887460353927
0.0115,1.79669375,1.0,1580.1718917446756,0.12136760702251302,1.3441178752321128,0.7710476283080838,0.2885141375,0.6223944130922706
0.012,1.7964,1.0,1646.1126782408862,0.12629603997284736,1.3432055133850718,0.7843238184474239,0.28850180000000003,0.6243940547898257
0.0125,1.79609375,1.0,1709.2164977314828,0.13119682797543936,1.3423355463484627,0.7964929311214403,0.2884889375,0.6262958345226388
0.013000000000000001,1.7957750000000001,1.0,1769.5371582090777,0.13607012671481702,1.3415047272631244,0.8076665299973068,0.28847555,0.6281075295183005
0.0135,1.79544375,1.0,1827.128172649735,0.1409160907274564,1.3407101879688326,0.8179439163969363,0.2884616375,0.6298359943056211
0.014,1.7951000000000001,1.0,1882.0347412789051,0.14573487237723015,1.3399494648910044,0.8274134534424589,0.2884472,0.631487121557142
0.0145,1.79474375,1.0,1934.3260953418041,0.15052662402801106,1.339220094455057,0.8361536443925743,0.2884322375,0.633066733156576
0.015,1.794375,1.0,1984.082187145381,0.15529149721762384,1.338519732724642,0.8442343096341656,0.28841675,0.6345803270281789
0.0155,1.79399375,1.0,2031.3962540611128,0.1600296441513192,1.337846100792795,0.8517175849140287,0.2884007375,0.6360332021017365
0.016,1.7936,1.0,2076.3433181859214,0.16474121446877318,1.3371972913917445,0.8586589196941606,0.2883842,0.6374298044581346
0.0165,1.7931937500000001,1.0,2118.9934171408777,0.16942635618732124,1.3365715972988783,0.865107811023272,0.2883671375,0.6387741067974544
0.017,1.792775,1.0,2159.4290101898087,0.1740852173242987,1.335967311291585,0.8711084487377073,0.28834955,0.6400700438249464
0.0175,1.7923437500000001,1.0,2197.7424917200283,0.1787179457380381,1.3353827406347971,0.8767003467321225,0.2883314375,0.641321483687157
0.018000000000000002,1.7919,1.0,2234.01792968223,0.1833246877476473,1.3348163800031476,0.8819189382124609,0.2883128,0.6425318612295532
0.0185,1.79144375,1.0,2268.354616404351,0.18790559129008796,1.3342666603635547,0.8867959867085186,0.2882936375,0.6437047186524107
0.019,1.790975,1.0,2300.8178598869013,0.19246079969998797,1.3337324307752867,0.8913601278222147,0.28827395,0.6448426806403651
0.0195,1.79049375,1.0,2331.47934232065,0.19699045631197512,1.3332125402976116,0.8956371246160523,0.2882537375,0.6459483513661115
0.02,1.79,1.0,2360.4165954411633,0.20149470446067727,1.3327058379897978,0.8996501938147127,0.288233,0.6470243155851608
0.0205,1.78949375,1.0,2387.709747567855,0.20597368699707727,1.3322111997115087,0.903420297489598,0.2882117375,0.648073082864286
0.021,1.788975,1.0,2413.433900795912,0.2104275457080673,1.3317275965886053,0.906966407746182,0.28818995000000003,0.6490969440738124
0.021500000000000002,1.78844375,1.0,2437.671139382283,0.21485642381601766,1.3312539730270752,0.9103056997089797,0.2881676375,0.6500982313577097
0.022,1.7879,1.0,2460.479610935194,0.21926045969361632,1.3307895398088192,0.9134538025702493,0.2881448,0.6510787001054517
0.0225,1.78734375,1.0,2481.920512214919,0.2236397917135513,1.3303335077157379,0.9164249124158373,0.28812143749999997,0.6520400946435476
0.023,1.786775,1.0,2502.057836444823,0.22799455824851061,1.3298850875297321,0.9192319434673534,0.28809755,0.6529841486782557
0.0235,1.78619375,1.0,2520.958134432,0.23232489767118217,1.3294434900327026,0.921886661577978,0.28807313749999996,0.6539125856985734
0.024,1.7856,1.0,2538.6790612447617,0.23663094574715537,1.329008031833238,0.9243998201470559,0.2880482,0.6548268972870506
0.0245,1.78499375,1.0,2555.288065970167,0.24091284243000013,1.3285779560804143,0.9267812339368973,0.2880227375,0.6557287205931676
0.025,1.784375,1.0,2570.836762303891,0.2451707228439247,1.3281526719952967,0.9290399099181278,0.28799675,0.65661933629575
0.025500000000000002,1.78374375,1.0,2585.370532833895,0.2494047199714718,1.3277316611608505,0.9311841117135745,0.2879702375,0.6574998669411654
0.026000000000000002,1.7831000000000001,1.0,2598.9360628379727,0.25361496679518425,1.3273144051600403,0.9332214208011345,0.2879432,0.6583714291286001
0.0265,1.78244375,1.0,2611.5812292599285,0.25780159629760485,1.3269003855758312,0.9351588020339995,0.2879156375,0.6592351336427706
0.027,1.781775,1.0,2623.3549956448564,0.26196474146127635,1.3264890839911883,0.9370026620686364,0.28788755,0.6600920855694988
0.0275,1.7810937500000001,1.0,2634.3030761943537,0.2661045339239092,1.3260800211899932,0.938758906904825,0.2878589375,0.6609433028722371
0.028,1.7804,1.0,2644.4659569147047,0.27022110444473935,1.325672774193402,0.9404329906255506,0.2878298,0.6617896815981295
0.0285,1.77969375,1.0,2653.8979572964627,0.27431458810196135,1.3252667992970482,0.9420299328614864,0.2878001375,0.6626323637597379
0.029,1.778975,1.0,2662.630494281604,0.27838511200088273,1.3248617705197092,0.9435544010528297,0.28776995,0.6634720346135198
0.029500000000000002,1.7782437500000001,1.0,2670.695516076375,0.2824328032468109,1.3244573618801625,0.9450107140712222,0.2877392375,0.6643093760260372
0.03,1.7775,1.0,2678.125455690729,0.2864577889450533,1.3240532473971856,0.946402872713224,0.287708,0.6651450664902374
0.0305,1.77674375,1.0,2684.9531868341755,0.29046019620091734,1.3236491010895555,0.9477345871639878,0.2876762375,0.6659797811349577
0.031,1.775975,1.0,2691.2119821672104,0.2944401521197106,1.3232445969760502,0.9490093017650715,0.28764395,0.6668141917276494
0.0315,1.7751937500000001,1.0,2696.9354739092214,0.29839778380674037,1.3228394090754467,0.9502302173802711,0.2876111375,0.6676489666703329
0.032,1.7744,1.0,2702.1508774054982,0.30233321409180686,1.3224332729742736,0.9514003178368858,0.2875778,0.6684846443848775
0.0325,1.77359375,1.0,2706.892953188179,0.306246572881231,1.3220258578016664,0.9525223756820553,0.2875439375,0.6693218970251944
0.033,1.772775,1.0,2711.1855980714777,0.310137983112733,1.3216169341426107,0.9535989849598417,0.28750955,0.6701611851808278
0.0335,1.7719437500000002,1.0,2715.050402258458,0.3140075660017245,1.3212062954070192,0.9546325678039338,0.2874746375,0.6710029202515904
0.034,1.7711000000000001,1.0,2718.509126939668,0.31785544276361727,1.320793735004804,0.9556253858955577,0.2874392,0.671847511421134
0.0345,1.7702437500000001,1.0,2721.583686765125,0.32168173461382293,1.3203790463458778,0.9565795529862118,0.2874032375,0.6726953656329908
0.035,1.7693750000000001,1.0,2724.2961332621367,0.3254865627677531,1.3199620228401527,0.957497046303103,0.28736675,0.6735468875638954
0.035500000000000004,1.76849375,1.0,2726.6686391996855,0.3292700484408196,1.3195424578975417,0.9583797169486583,0.2873297375,0.6744024795943808
0.036000000000000004,1.7676,1.0,2728.7225558552923,0.33303231246403603,1.3191201533647223,0.9592293001770235,0.2872922,0.67526252460611
0.0365,1.76669375,1.0,2730.477149882263,0.3367734738861845,1.3186949308660059,0.9600474248343115,0.2872541375,0.6761273630111981
0.037,1.765775,1.0,2731.9491943456096,0.34049365062548675,1.3182666353802412,0.9608356216709607,0.28721555,0.6769972857262136
0.0375,1.76484375,1.0,2733.152912010927,0.344192959814025,1.3178351356353593,0.9615953305548286,0.2871764375,0.6778725336596072
0.038,1.7639,1.0,2734.1025794629695,0.3478715185838817,1.3174003003592905,0.9623279048494727,0.28713679999999997,0.6787533460836486
0.0385,1.76294792945908,1.0,2735.0261525551427,0.35152944063078295,1.3169619458650288,0.9630346119176387,0.28709681303728135,0.6796400665607607
0.039,1.7619956513217772,1.0,2736.2899052283947,0.3551668476988832,1.316520410672508,0.963716694839145,0.28705681735551464,0.6805319822312084
0.0395,1.7610433731844743,1.0,2737.87685035993,0.3587838537468049,1.3160759448430015,0.9643753145008271,0.2870168216737479,0.6814285621543491
0.04,1.7600910950471715,1.0,2739.763412650056,0.36238057150338554,1.315628764812354,0.9650115616410493,0.2869768259919812,0.6823293457366957
0.0405,1.7591388169098687,1.0,2741.9260356487616,0.3659571136974625,1.31517908701641,0.965626464887988,0.2869368303102145,0.6832338747050456
0.041,1.758186538772566,1.0,2744.3411692505592,0.3695135930578733,1.314727127891014,0.9662209949548579,0.2868968346284478,0.6841416931424533
0.0415,1.7572342606352631,1.0,2746.9852582274425,0.3730501223134553,1.3142731038720108,0.9667960685100704,0.286856838946681,0.6850523475212128
0.042,1.7562819824979603,1.0,2749.83473180142,0.37656681419304605,1.3138172313952445,0.9673525517505889,0.2868168432649143,0.6859653867328557
0.0425,1.7553297043606573,1.0,2752.8670708580844,0.38006378104109895,1.313359717152256,0.967891262836509,0.2867768475831476,0.6868803815888334
0.043000000000000003,1.7543774262233545,1.0,2756.0663224485234,0.3835411331686813,1.312900708160371,0.9684129706920006,0.2867368519013809,0.6877970243390892
0.043500000000000004,1.7534251480860517,1.0,2759.4178245938024,0.386998980062802,1.3124403395686524,0.9689184022520244,0.28669685621961416,0.6887150325581162
0.044,1.7524728699487488,1.0,2762.9070271697997,0.39043743101035255,1.3119787453062315,0.9694082460729004,0.28665686053784745,0.689634127797033
0.0445,1.751520591811446,1.0,2766.5281407951425,0.39385658771140936,1.311515979964032,0.969883147575083,0.28661686485608073,0.6905541907750283
0.045,1.7505683136741432,1.0,2770.253779407005,0.39725657115721935,1.3110522929310346,0.970343736722224,0.286576869174314,0.6914747163977865
0.0455,1.7496160355368404,1.0,2774.074433584969,0.4006374877178023,1.3105877718056242,0.9707905969559903,0.2865368734925473,0.6923955229745455
0.046,1.7486637573995376,1.0,2777.9827533775524,0.40399944190550885,1.3101224845330222,0.971224280600434,0.2864968778107806,0.6933164687087545
0.0465,1.7477114792622348,1.0,2781.9713717521217,0.4073425382326899,1.3096564990584498,0.9716453124509489,0.2864568821290139,0.6942374125984192
0.047,1.7467592011249318,1.0,2786.032903491911,0.41066688121169614,1.309189883327129,0.972054191410065,0.28641688644724717,0.6951582144392743
0.0475,1.745806922987629,1.0,2790.1599441951303,0.41397257535487836,1.308722705284281,0.9724513920111889,0.2863768907654804,0.6960787348276627
0.048,1.7448546448503262,1.0,2794.3450693771247,0.41725972517458737,1.3082550328751272,0.9728373658389431,0.2863368950837137,0.6969988351631193
0.0485,1.7439023667130233,1.0,2798.5808336740943,0.42052843518317384,1.3077869340448895,0.9732125428540221,0.28629689940194697,0.6979183776506594
0.049,1.7429500885757205,1.0,2802.859770149634,0.42377880989298855,1.3073184767387893,0.9735773326298068,0.28625690372018026,0.6988372253027749
0.0495,1.7419978104384177,1.0,2807.174389703698,0.4270109538163823,1.306849728902048,0.973932125507372,0.28621690803841354,0.6997552419411341
0.05,1.741045532301115,1.0,2811.525767768048,0.43022495514110476,1.3063806815726038,0.9742772866341801,0.28617691235664683,0.7006724424716415
0.0505,1.740093254163812,1.0,2815.8998119805174,0.4334209385096853,1.3059114615590985,0.9746131775396751,0.2861369166748801,0.701588576807322
0.051000000000000004,1.7391409760265093,1.0,2820.294088937186,0.4365990016017419,1.3054420910235,0.9749401333292994,0.2860969209931134,0.7025036002270151
0.051500000000000004,1.7381886978892065,1.0,2824.706204130485,0.439759241994573,1.304972591712686,0.9752584739600567,0.2860569253113467,0.7034174690817836
0.052000000000000005,1.7372364197519035,1.0,2829.1337555702476,0.4429017572654769,1.3045029853735342,0.9755685050953846,0.2860169296295799,0.7043301399827974
0.0525,1.7362841416146007,1.0,2833.5743337274034,0.44602664499175215,1.3040332937529222,0.9758705188689929,0.2859769339478132,0.7052415698014967
0.053,1.7353318634772978,1.0,2838.0255214868066,0.4491340027506972,1.3035635385977282,0.9761647946015041,0.2859369382660465,0.7061517156697243
0.0535,1.734379585339995,1.0,2842.4848941119653,0.45222392811961054,1.3030937416548296,0.976451599473189,0.2858969425842798,0.7070605349798322
0.054,1.7334273072026922,1.0,2846.9500192193473,0.4552965186757906,1.3026239246711044,0.9767311891558467,0.28585694690251306,0.7079679853847504
0.0545,1.7324750290653894,1.0,2851.4184567636107,0.4583518719965358,1.3021541093934306,0.9770038084066294,0.28581695122074635,0.7088740247980319
0.055,1.7315227509280866,1.0,2855.887759033181,0.4613900856591446,1.3016843175686856,0.9772696916264126,0.28577695553897964,0.7097786113938662
0.0555,1.7305704727907838,1.0,2860.355470656285,0.4644112572409155,1.3012145709437473,0.977529063385102,0.2857369598572129,0.7106817036070607
0.056,1.729618194653481,1.0,2864.8191286174674,0.46741548431914687,1.3007448912654935,0.977782138916096,0.2856969641754462,0.7115832601329926
0.0565,1.728665916516178,1.0,2869.280145197909,0.4704028399207982,1.3002752658570076,0.9780291203649369,0.2856569684936795,0.7124833058498197
0.057,1.7277136383788751,1.0,2873.733601890494,0.47337344963909067,1.2998057381627466,0.9782702095806165,0.2856169728119128,0.7133817581782227
0.0575,1.7267613602415723,1.0,2878.178465784399,0.47632740741544005,1.2993363170987087,0.9785055954335625,0.285576977130146,0.7142786009750681
0.058,1.7258090821042695,1.0,2882.6142571643477,0.4792648030750981,1.2988670066610255,0.9787354585857252,0.2855369814483793,0.7151738275812454
0.0585,1.7248568039669667,1.0,2887.0404950034394,0.48218572644331675,1.298397810845829,0.9789599725206145,0.2854969857666126,0.716067431385258
0.059000000000000004,1.723904525829664,1.0,2891.4566969732623,0.4850902673453479,1.2979287336492507,0.9791793038856103,0.2854569900848459,0.7169594058231947
0.059500000000000004,1.722952247692361,1.0,2895.8623794541886,0.4879785156064434,1.2974597790674225,0.9793936128153499,0.28541699440307916,0.7178497443786996
0.06,1.7219999695550583,1.0,2900.2570575460336,0.49085056105185515,1.296990951096476,0.979603053237379,0.28537699872131245,0.7187384405829418
0.0605,1.7210476914177555,1.0,2904.640245079126,0.49370649350683504,1.2965222537325434,0.9798077731611691,0.28533700303954573,0.7196254880145828
0.061,1.7200954132804527,1.0,2909.0114546257705,0.4965464027966349,1.2960536909717562,0.9800079149515267,0.285297007357779,0.7205108802997446
0.0615,1.7191431351431496,1.0,2913.370197511796,0.4993703787465067,1.2955852668102459,0.9802036155873534,0.28525701167601225,0.7213946111119762
0.062,1.7181908570058468,1.0,2917.715983829027,0.5021785111817023,1.2951169852441446,0.9803950069066443,0.28521701599424554,0.7222766741722173
0.0625,1.717238578868544,1.0,2922.0483224473064,0.5049708899274735,1.294648850269584,0.9805822158385566,0.2851770203124788,0.7231570632487634
0.063,1.7162863007312412,1.0,2926.3667210275366,0.5077476048090723,1.2941808658826959,0.9807653646233253,0.2851370246307121,0.7240357721572299
0.0635,1.7153340225939384,1.0,2930.670686034849,0.5105087456517505,1.2937130360796119,0.9809445710207407,0.2850970289489454,0.7249127947605123
0.064,1.7143817444566356,1.0,2934.959852634373,0.5132543966087426,1.2932453637179555,0.9811199480433159,0.2850570332671787,0.7257881270979719
0.0645,1.7134294663193328,1.0,2939.2352909714027,0.5159845945297181,1.2927778390789815,0.9812916006589883,0.28501703758541197,0.7266617887252615
0.065,1.71247718818203,1.0,2943.4953359545516,0.5186995041652844,1.2923104764149889,0.9814596402641607,0.28497704190364526,0.7275337543942674
0.0655,1.7115249100447272,1.0,2947.740054540025,0.5213992060908397,1.2918432747888273,0.9816241676515983,0.28493704622187854,0.7284040272976181
0.066,1.7105726319074241,1.0,2951.9695141657735,0.524083780881782,1.2913762332633456,0.9817852800718759,0.28489705054011183,0.7292726106162768
0.0665,1.7096203537701213,1.0,2956.183782748328,0.5267533091135096,1.2909093509013936,0.9819430713832783,0.2848570548583451,0.7301395075195467
0.067,1.7086680756328185,1.0,2960.382928679344,0.5294078713614205,1.2904426267658204,0.9820976321943359,0.2848170591765784,0.731004721165084
0.0675,1.7077157974955157,1.0,2964.567020822511,0.532047548200913,1.2899760599194754,0.982249049999399,0.2847770634948117,0.7318682546989057
0.068,1.706763519358213,1.0,2968.7361285098987,0.5346724202073851,1.2895096494252078,0.9823974093076467,0.2847370678130449,0.7327301112553994
0.0685,1.70581124122091,1.0,2972.890321539212,0.5372825679562352,1.2890433943458672,0.9825427917658824,0.2846970721312782,0.7335902939573326
0.069,1.7048589630836073,1.0,2977.02967017007,0.5398780720228612,1.2885772937443027,0.9826852762754629,0.2846570764495115,0.7344488059158623
0.0695,1.7039066849463045,1.0,2981.154245121133,0.5424590129826613,1.2881113466833638,0.9828249391036756,0.2846170807677448,0.735305650230544
0.07,1.7029544068090017,1.0,2985.2641175666945,0.5450254714110337,1.2876455522258998,0.9829618539898657,0.28457708508597807,0.7361608299893403
0.07050000000000001,1.7020021286716989,1.0,2989.3593591335,0.5475775278833767,1.28717990943476,0.9830960922465943,0.28453708940421135,0.7370143482686322
0.07100000000000001,1.7010498505343958,1.0,2993.4400418978294,0.5501152629750882,1.2867144173727938,0.9832277228560908,0.28449709372244464,0.7378662081332252
0.07150000000000001,1.700097572397093,1.0,2997.5062383819736,0.5526387572615664,1.2862490751028504,0.9833568125622506,0.28445709804067787,0.7387164126363608
