Time [s],Phi [rad],STIM [ ],Fsee [N],Gamma [ ],Lcerel [ ],q [ ],Lmtc [m],fisomrel [ ]
0.0,1.8,1.0,17.9679912785989,1.009535111927237e-05,1.3793396528845072,0.005000027160410532,0.288653,0.5411397568541505
0.0005,1.79999375,1.0,18.27727827134581,0.0056192480329774076,1.379302328459016,0.012940777549190197,0.2886527375,0.541230049826431
0.001,1.799975,1.0,21.61892310275332,0.011196937803212684,1.3789382468031985,0.0356090697032992,0.28865195,0.5421103479263973
0.0015,1.79994375,1.0,31.069831492247207,0.01674334114474244,1.3780461529956878,0.07060237886848732,0.2886506375,0.5442637315215595
0.002,1.7999,1.0,53.583029643518934,0.02225863354883544,1.3763680900501467,0.11471863420647106,0.2886488,0.548300576505117
0.0025,1.79984375,1.0,97.11957849509172,0.02774298952267061,1.3739351363786472,0.16457554243784167,0.28864643749999996,0.5541215362929928
0.003,1.7997750000000001,1.0,160.958912301614,0.033196582597058474,1.3712143158522503,0.21728112462268043,0.28864354999999997,0.5605865169207455
0.0035,1.79969375,1.0,237.6841170669733,0.038619585326029736,1.368584710036957,0.270613555877391,0.2886401375,0.5667898964508046
0.004,1.7996,1.0,321.4675858376114,0.04401216929761816,1.3661560708232197,0.3229164482546268,0.2886362,0.5724800121151192
0.0045000000000000005,1.7994937500000001,1.0,409.26859853753274,0.04937450513904505,1.3639227942667058,0.37303512191916466,0.2886317375,0.5776792085877325
0.005,1.799375,1.0,499.4143613491771,0.05470676250780532,1.3618583241317872,0.42024803635383906,0.28862675,0.582457121353745
0.0055,1.79924375,1.0,590.7912859924577,0.06000911013916185,1.359938818062692,0.4641742320467555,0.2886212375,0.5868751506748482
0.006,1.7991000000000001,1.0,682.518974568356,0.06528171578923672,1.35814639900146,0.5046804537301783,0.2886152,0.5909794543440277
0.006500000000000001,1.79894375,1.0,773.8821966056523,0.07052474629067357,1.3564672375922944,0.5418012102015513,0.2886086375,0.5948058307503787
0.007,1.798775,1.0,864.2866884304387,0.07573836753621571,1.354890380826349,0.5756771928329898,0.28860155,0.5983827091738805
0.0075,1.79859375,1.0,953.244165432145,0.08092274448844718,1.3534067645788361,0.6065102910291499,0.2885939375,0.6017336057076502
0.008,1.7984,1.0,1040.3449782468713,0.0860780407477632,1.3520088447572647,0.6345325258153988,0.2885858,0.6048781033566835
0.0085,1.79819375,1.0,1125.3148219534132,0.091204420474228,1.3506892330834177,0.6599847510002641,0.2885771375,0.6078350184928709
0.009000000000000001,1.797975,1.0,1207.90151324419,0.09630204562987886,1.3494420168413284,0.6831044769722231,0.28856795,0.6106195053120689
0.0095,1.79774375,1.0,1287.8944524717062,0.10137107668497716,1.3482620940729069,0.7041177303080457,0.2885582375,0.6132446231886282
0.01,1.7975,1.0,1365.1687966958395,0.10641167410978436,1.347144362820063,0.72323446060969,0.288548,0.6157231867418764
0.0105,1.79724375,1.0,1439.6592075713588,0.11142399790499997,1.3460839500373103,0.7406468851341945,0.2885372375,0.6180672816536114
0.011,1.796975,1.0,1511.3215031902341,0.11640820686978391,1.3450765623281606,0.7565293364635679,0.28852595000000003,0.620287519552867
0.0115,1.79669375,1.0,1580.1209876333342,0.12136445818359395,1.3441184833553095,0.7710387968410561,0.2885141375,0.622393078486102
0.012,1.7964,1.0,1646.0584210967702,0.12629290852499075,1.343206148449968,0.7843157539902387,0.28850180000000003,0.6243926647517173
0.0125,1.79609375,1.0,1709.1747173711574,0.13119371455068285,1.3423360262627453,0.7964854805247312,0.2884889375,0.6262947867430899
0.013000000000000001,1.7957750000000001,1.0,1769.5068083071058,0.13606703123083733,1.341505069886263,0.8076596370611552,0.28847555,0.6281067832971259
0.0135,1.79544375,1.0,1827.0910055053837,0.14091301208081855,1.3407106008872691,0.8179376028431274,0.2884616375,0.6298350970760077
0.014,1.7951000000000001,1.0,1881.9912624825583,0.14573181061599105,1.339949940832511,0.8274076603482899,0.2884472,0.631486089693789
0.0145,1.79474375,1.0,1934.2817787196861,0.15052357915439996,1.3392205729657756,0.8361483001715445,0.2884322375,0.6330656979488869
0.015,1.794375,1.0,1984.056590191034,0.1552884707432648,1.3385200056206883,0.8442293024995122,0.28841675,0.6345797378653354
0.0155,1.79399375,1.0,2031.3749536433731,0.16002663492316574,1.3378463252219703,0.8517129320188789,0.2884007375,0.6360327185395749
0.016,1.7936,1.0,2076.311490801775,0.1647382212004577,1.3371976230878755,0.8586546356423888,0.2883842,0.637429091147599
0.0165,1.7931937500000001,1.0,2118.954684527222,0.16942337901994098,1.3365719968766892,0.8651038511060649,0.2883671375,0.6387732491021618
0.017,1.792775,1.0,2159.3891437655698,0.1740822562212608,1.3359677186973786,0.871104766660953,0.28834955,0.6400691708969358
0.0175,1.7923437500000001,1.0,2197.7207546481427,0.17871500244098995,1.3353829608265715,0.8766968650461804,0.2883314375,0.6413210127142934
0.018000000000000002,1.7919,1.0,2234.015550892084,0.18332176269662456,1.3348164039032795,0.881915636842602,0.2883128,0.6425318101953954
0.0185,1.79144375,1.0,2268.3477761698773,0.18790268200566068,1.334266728566514,0.8867929102594457,0.2882936375,0.6437045732571445
0.019,1.790975,1.0,2300.7992058545206,0.1924579053855945,1.3337326154552862,0.8913572753460625,0.28827395,0.6448422875681571
0.0195,1.79049375,1.0,2331.4523303227925,0.1969875770249685,1.3332128059596842,0.8956344696305444,0.2882537375,0.6459477868127356
0.02,1.79,1.0,2360.392714318435,0.20149184126860592,1.3327060714156147,0.8996476948955795,0.288233,0.6470238202907778
0.0205,1.78949375,1.0,2387.7020155087994,0.20597084168676522,1.3322112748551307,0.903417914860719,0.2882117375,0.6480729236579363
0.021,1.788975,1.0,2413.44150602653,0.21042471844079483,1.3317275230726304,0.9069641341487037,0.28818995000000003,0.6490970996049026
0.021500000000000002,1.78844375,1.0,2437.676354900312,0.2148536116920432,1.3312539228625118,0.9103035610906853,0.2881676375,0.6500983373348123
0.022,1.7879,1.0,2460.4753063762673,0.21925766160185878,1.3307895810191726,0.913451802267427,0.2881448,0.6510786131669652
0.0225,1.78734375,1.0,2481.9099092535375,0.22363700824652133,1.3303336087854638,0.9164230345997303,0.28812143749999997,0.6520398817180235
0.023,1.786775,1.0,2502.039216801539,0.2279917888809569,1.3298852643006716,0.9192301821995223,0.28809755,0.6529837767770283
0.0235,1.78619375,1.0,2520.947785043831,0.2323221453406632,1.3294435879185003,0.9218849813098505,0.28807313749999996,0.6539123800363055
0.024,1.7856,1.0,2538.683662074682,0.23662821262776637,1.3290079884702244,0.9243982048249513,0.2880482,0.6548269882741604
0.0245,1.78499375,1.0,2555.296719387541,0.24091012574439258,1.3285778747871189,0.9267796956303761,0.2880227375,0.6557288909450907
0.025,1.784375,1.0,2570.8385021065565,0.24516801969266794,1.328152655700459,0.9290384596428376,0.28799675,0.6566193703977551
0.025500000000000002,1.78374375,1.0,2585.362086966666,0.2494020294747186,1.3277317400415196,0.9311827484115722,0.2879702375,0.6574997020706563
0.026000000000000002,1.7831000000000001,1.0,2598.9204799619397,0.25361228964394733,1.3273145503169945,0.9332201345850069,0.2879432,0.6583711261185703
0.0265,1.78244375,1.0,2611.559732719919,0.2577989322719898,1.326900585334238,0.9351575861024952,0.2879156375,0.6592347171815454
0.027,1.781775,1.0,2623.3408141795408,0.2619620943094664,1.3264892154774992,0.9370014946403534,0.28788755,0.660091811788543
0.0275,1.7810937500000001,1.0,2634.300514172978,0.26610190531047784,1.3260800448948513,0.9387577795343152,0.2878589375,0.6609432535758029
0.028,1.7804,1.0,2644.4764023116686,0.2702184948291249,1.3256726777343681,0.9404318989950153,0.2878298,0.661789881943005
0.0285,1.77969375,1.0,2653.9067608755668,0.27431199241950843,1.3252667181441231,0.942028892080622,0.2878001375,0.6626325321037997
0.029,1.778975,1.0,2662.6305211769986,0.2783825276357292,1.3248617702721897,0.9435534163429636,0.28776995,0.6634720351263363
0.029500000000000002,1.7782437500000001,1.0,2670.687203398252,0.28243023003188794,1.3244574382666414,0.9450097816402064,0.2877392375,0.6643092179638028
0.03,1.7775,1.0,2678.104089553201,0.2864552250967899,1.324053443461613,0.9464019948012947,0.287708,0.6651446612904057
0.0305,1.77674375,1.0,2684.925009225249,0.2904576447098267,1.323649359330021,0.947733754354605,0.2876762375,0.66597924810353
0.031,1.775975,1.0,2691.1904762481013,0.294437618076777,1.3232447938427678,0.9490084974901187,0.28764395,0.6668137858850336
0.0315,1.7751937500000001,1.0,2696.9247527985885,0.29839526858083254,1.322839507112965,0.95022943570037,0.2876111375,0.6676487648184242
0.032,1.7744,1.0,2702.152379298434,0.3023307196051853,1.3224332592537247,0.9513995563620327,0.2875778,0.6684846725989171
0.0325,1.77359375,1.0,2706.8981488640593,0.3062440945330272,1.322025810378158,0.9525216411204027,0.2875439375,0.6693219944205697
0.033,1.772775,1.0,2711.187083031252,0.31013551674755013,1.3216169205993766,0.9535982825543408,0.28750955,0.6701612129597394
0.0335,1.7719437500000002,1.0,2715.0444087566602,0.31400510963194606,1.3212063500304922,0.9546318993008781,0.2874746375,0.6710028083548754
0.034,1.7711000000000001,1.0,2718.495536694342,0.3178529965694068,1.3207938587846164,0.9556247497982311,0.2874392,0.671847258182639
0.0345,1.7702437500000001,1.0,2721.5654822502474,0.32167930018907415,1.3203792120587972,0.9565789451527823,0.2874032375,0.6726950270426795
0.035,1.7693750000000001,1.0,2724.276123040248,0.3254841385883708,1.3199622048994755,0.9574964622270988,0.28736675,0.6735465160582464
0.035500000000000004,1.76849375,1.0,2726.653018403369,0.3292676397138691,1.319542599958581,0.9583791507816348,0.2873297375,0.6744021900883618
0.036000000000000004,1.7676,1.0,2728.7121028097276,0.3330299206611176,1.319120248392582,0.9592287506020895,0.2872922,0.6752623312049006
0.0365,1.76669375,1.0,2730.4693932884206,0.3367710985256645,1.318695001357946,0.9600468931607115,0.2872541375,0.6761272197367948
0.037,1.765775,1.0,2731.9409801075412,0.3404912904030583,1.3182667100111414,0.9608351095789966,0.28721555,0.6769971342432528
0.0375,1.76484375,1.0,2733.143017945621,0.3441906133888474,1.3178352255086363,0.9615948379195,0.2871764375,0.6778723514855687
0.038,1.7639,1.0,2734.0917175541394,0.34786918457858007,1.3174003990068985,0.9623274298700882,0.28713679999999997,0.6787531463975179
0.0385,1.76294375,1.0,2734.8033379113886,0.35152712106780476,1.3169620816623964,0.9630341568773677,0.28709663750000003,0.679639792054338
0.039,1.761975,1.0,2735.2941788671474,0.35516453995206976,1.3165201246315978,0.96371621578019,0.28705595,0.680532559640299
0.0395,1.7609937500000001,1.0,2735.568096392316,0.35878153857059925,1.3160744923642558,0.9643747405479949,0.2870147375,0.6814314900404274
0.04,1.76,1.0,2735.654842881766,0.3623782588038293,1.315624914430121,0.9650107874137572,0.286973,0.6823370962722537
0.0405,1.7589937500000001,1.0,2735.5653125835593,0.3659548139504267,1.3151712918335,0.9656253625271971,0.2869307375,0.6832495433801111
0.041,1.757975,1.0,2735.307968490711,0.36951131339292564,1.3147135478092122,0.9662194168387434,0.28688795,0.6841689503359014
0.0415,1.75694375,1.0,2734.8912879803456,0.37304786651386024,1.3142516055920774,0.9667938485582481,0.2868446375,0.6850954348941372
0.042,1.7559,1.0,2734.323760285665,0.37656458269576465,1.3137853884169148,0.9673495066209394,0.28680079999999997,0.6860291135715749
0.0425,1.75484375,1.0,2733.6138840985323,0.3800615713211731,1.3133148195185442,0.967887193891334,0.2867564375,0.6869701016264734
0.043000000000000003,1.753775,1.0,2732.770165302288,0.3835389417726197,1.3128398221317852,0.9684076701273895,0.28671155,0.6879185130374776
0.043500000000000004,1.75269375,1.0,2731.801114836534,0.3869968034326387,1.3123603194914573,0.9689116547250861,0.28666613750000003,0.6888744604821262
0.044,1.7516,1.0,2730.7152466906277,0.39043526568376413,1.3118762348323798,0.9693998292617441,0.2866202,0.6898380553149819
0.0445,1.75049375,1.0,2729.5210760298446,0.3938544379085303,1.3113874913893724,0.9698728398546844,0.2865737375,0.6908094075453877
0.045,1.7493750000000001,1.0,2728.2271174505768,0.3972544294894713,1.3108940123972548,0.9703312993503432,0.28652675,0.6917886258148457
0.0455,1.74824375,1.0,2726.8418833671744,0.40063534980912135,1.3103957210908463,0.9707757893575572,0.2864792375,0.6927758173740228
0.046,1.7471,1.0,2725.373882528951,0.4039973082500146,1.3098925407049666,0.9712068621375303,0.2864312,0.6937710880593769
0.0465,1.7459437500000001,1.0,2723.825397449506,0.40734039528515587,1.3093844510818027,0.9716250439718048,0.28638263750000004,0.6947744305765677
0.047,1.744775,1.0,2722.2077437575977,0.4106647380379996,1.3088713498564397,0.9720308340609243,0.28633355,0.6957859988452195
0.0475,1.74359375,1.0,2720.5264235856425,0.41397044338800393,1.308353187498958,0.9724247082381556,0.28628393750000003,0.696805841068981
0.048,1.7424,1.0,2718.785212413287,0.4172576123307714,1.3078299301656007,0.9728071196226652,0.2862338,0.6978339735148005
0.0485,1.74119375,1.0,2716.987883059967,0.4205263458619043,1.307301544012611,0.9731784995905763,0.2861831375,0.698870411503397
0.049,1.739975,1.0,2715.138205284376,0.4237767449770051,1.3067679951962317,0.9735392590151163,0.28613195,0.6999151693982295
0.0495,1.73874375,1.0,2713.239945409647,0.4270089106716761,1.3062292498727064,0.9738897894250675,0.2860802375,0.7009682605943863
0.05,1.7375,1.0,2711.296865974559,0.4302229439415198,1.305685274198278,0.9742304640876065,0.286028,0.7020296975074094
0.0505,1.73624375,1.0,2709.3127254088895,0.4334189457821384,1.30513603432919,0.974561639021096,0.2859752375,0.7030994915620389
0.051000000000000004,1.734975,1.0,2707.2912777355104,0.43659701718913446,1.3045814964216853,0.9748836539429534,0.28592195,0.7041776531808894
0.051500000000000004,1.73369375,1.0,2705.2362722965936,0.4397572591581103,1.304021626632007,0.9751968331572938,0.2858681375,0.7052641917730501
0.052000000000000005,1.7324,1.0,2703.1514535063357,0.4428997726846683,1.3034563911163983,0.9755014863866714,0.2858138,0.7063591157226132
0.0525,1.73109375,1.0,2701.040560628249,0.4460246587644107,1.3028857560311025,0.9757979095519019,0.28575893750000003,0.7074624323771285
0.053,1.729775,1.0,2698.9073275783135,0.4491320183929402,1.3023096875323628,0.976086385503622,0.28570355000000003,0.708574148035986
0.0535,1.72844375,1.0,2696.7536895355347,0.4522219513163864,1.301728168174757,0.9763671855954675,0.2856476375,0.7096942363836274
0.054,1.7271,1.0,2694.582266599176,0.45529455320924317,1.301141174221559,0.9766405686164126,0.2855912,0.7108226823611627
0.0545,1.7257437500000001,1.0,2692.396223530249,0.4583499204198927,1.3005486769149603,0.9769067819976814,0.2855342375,0.7119594796067181
0.055,1.724375,1.0,2690.1972875740635,0.4613881491361424,1.2999506606134237,0.9771660633963839,0.28547675,0.7131045956555189
0.0555,1.72299375,1.0,2687.9871832991153,0.46440933554579955,1.299347109675411,0.9774186404289399,0.2854187375,0.7142579972225047
0.056,1.7216,1.0,2685.7647574780235,0.4674135753180502,1.298738034804667,0.9776647326717409,0.2853602,0.7154196000033339
0.0565,1.72019375,1.0,2683.5359382001343,0.4704009642634055,1.2981233818080637,0.9779045468301312,0.28530113749999997,0.716589442663659
0.057,1.718775,1.0,2681.303442922983,0.4733715964258893,1.2975031258474572,0.9781382826179439,0.28524155,0.7177675067314797
0.0575,1.71734375,1.0,2679.067571267585,0.47632556537994564,1.296877264226602,0.9783661328090643,0.2851814375,0.7189537308205624
0.058,1.7159,1.0,2676.828622375701,0.4792629647000188,1.296245794249252,0.9785882823701103,0.2851208,0.7201480529006055
0.0585,1.71444375,1.0,2674.574072554231,0.4821838873765764,1.2956088309600393,0.9788049153559542,0.2850596375,0.7213501883241037
0.059000000000000004,1.7129750981341196,1.0,2672.3404625632215,0.4850884265886566,1.2949660831934464,0.9790161860693011,0.28499795412163303,0.7225606178747349
0.059500000000000004,1.7115016644524106,1.0,2670.471889792947,0.4879766736709589,1.2943178298364348,0.9792222737349646,0.28493606990700127,0.7237787469399598
0.06,1.7100282307707015,1.0,2669.1612436059013,0.4908487196555676,1.2936644538763653,0.9794233562205494,0.28487418569236944,0.7250037899537504
0.0605,1.7085547970889927,1.0,2668.3664533580754,0.49370465557456694,1.2930063383005987,0.9796196045462476,0.2848123014777377,0.7262349672055965
0.061,1.7070813634072837,1.0,2668.0475878851767,0.4965445718076515,1.2923438481055884,0.979811182201653,0.2847504172631059,0.7274715385038796
0.0615,1.7056079297255748,1.0,2668.1616440825637,0.49936855896236854,1.2916773778549882,0.9799982480828949,0.28468853304847413,0.7287127144376226
0.062,1.7041344960438658,1.0,2668.6763930398524,0.50217670576117,1.2910072240712867,0.9801809498660878,0.28462664883384237,0.7299578939359821
0.0625,1.7026610623621568,1.0,2669.560532179603,0.5049691007628548,1.290333675524379,0.9803594293333294,0.2845647646192106,0.7312064950781396
0.063,1.7011876286804477,1.0,2670.7828192975767,0.5077458325262215,1.2896570209841602,0.980533823054546,0.28450288040457883,0.7324579406714979
0.0635,1.6997141949987389,1.0,2672.324282456641,0.5105069856030122,1.288977436864913,0.9807042565875402,0.284440996189947,0.7337118653794172
0.064,1.6982407613170298,1.0,2674.139147363634,0.5132526543390384,1.2882953460548843,0.9808708641521208,0.28437911197531524,0.7349674535812963
0.0645,1.696767327635321,1.0,2676.209315288567,0.5159829239511284,1.2876109172455354,0.9810337617478335,0.28431722776068347,0.7362243631415235
0.065,1.695293893953612,1.0,2678.5176373458376,0.5186978793384018,1.2869243105021444,0.9811930607930276,0.2842553435460517,0.737482270544863
0.0655,1.693820460271903,1.0,2681.046967729516,0.5213976053999778,1.2862356858899888,0.9813488687734883,0.28419345933141993,0.7387408549843356
0.066,1.6923470265901939,1.0,2683.780156268219,0.524082187034976,1.285545203474347,0.9815012894136657,0.28413157511678816,0.7399997983826331
0.0665,1.690873592908485,1.0,2686.700041547951,0.5267517091425159,1.2848530233204967,0.9816504228393117,0.2840696909021564,0.7412587854119024
0.067,1.689400159226776,1.0,2689.789444602759,0.5294062566217168,1.284159305493716,0.981796365732016,0.28400780668752457,0.742517503511891
0.0675,1.6879267255450672,1.0,2693.0311631743325,0.5320459143716983,1.2834642100592826,0.9819392114760932,0.2839459224728928,0.7437756429064635
0.068,1.6864532918633581,1.0,2696.4151981727296,0.5346707627912287,1.2827678309475645,0.9820790468467795,0.28388403825826103,0.7450330158839591
0.0685,1.684979858181649,1.0,2699.9226176437037,0.5372808904316825,1.2820703435983118,0.9822159600888364,0.28382215404362926,0.7462892897395736
0.069,1.68350642449994,1.0,2703.542023015153,0.5398763803079872,1.281371854275124,0.9823500329039356,0.2837602698289975,0.7475442589980179
0.0695,1.6820329908182312,1.0,2707.2657561480137,0.5424573127738311,1.2806724348841987,0.9824813425148775,0.2836983856143657,0.7487977815566813
0.07,1.6805595571365222,1.0,2711.0861432843462,0.5450237681829022,1.2799721573317335,0.9826099636017355,0.28363650139973395,0.7500497165784918
0.07050000000000001,1.6790861234548133,1.0,2714.9954936217755,0.5475758268888887,1.2792710935239262,0.9827359684046585,0.28357461718510213,0.7512999244960155
0.07100000000000001,1.6776126897731043,1.0,2718.986098002966,0.5501135692454787,1.2785693153669742,0.9828594268218669,0.28351273297047036,0.7525482670152274
0.07150000000000001,1.6761392560913952,1.0,2723.050227718916,0.5526370756063602,1.2778668947670753,0.9829804065031033,0.2834508487558386,0.7537946071189513
0.07200000000000001,1.6746658224096862,1.0,2727.180133427834,0.5551464263252214,1.277163903630427,0.9830989729387715,0.2833889645412068,0.7550388090699726
0.0725,1.6731923887279774,1.0,2731.3680441881006,0.5576417017557503,1.2764604138632272,0.9832151895449965,0.28332708032657505,0.7562807384138175
0.073,1.6717189550462683,1.0,2735.6110922282237,0.5601229743951072,1.2757564526496443,0.9833291152897116,0.2832651961119433,0.7575203406316469
0.0735,1.6702455213645595,1.0,2739.900081649625,0.5625903302170847,1.2750521045144756,0.9834408106162591,0.2832033118973115,0.7587574611038201
