Time [s],Phi [rad],STIM [ ],Fsee [N],Gamma [ ],Lcerel [ ],q [ ],Lmtc [m],fisomrel [ ]
0.0,1.8,1.0,18.04839740122679,0.0002921432420718604,1.3793306549736941,0.005022147910828178,0.288653,0.5411615248636104
0.0005,1.79999375,1.0,18.44893553149791,0.005899713858358329,1.3792833055180929,0.013742341570540287,0.2886527375,0.5412760655461385
0.001,1.799975,1.0,22.00008087550253,0.011475830437092148,1.3788994877259049,0.03709397413649936,0.28865195,0.5422040121206853
0.0015,1.79994375,1.0,31.905821189329636,0.017020669411549477,1.377975402981792,0.07262509484205792,0.2886506375,0.5444342944539281
0.002,1.7999,1.0,55.322648827866246,0.022534406223138542,1.3762561346220987,0.11710781428419237,0.2886488,0.5485692639006285
0.0025,1.79984375,1.0,99.99186914141427,0.0280172153304872,1.3737977364952125,0.1671707464543028,0.28864643749999996,0.5544491460173969
0.003,1.7997750000000001,1.0,164.6628003346608,0.03346927021486593,1.3710764646456512,0.21995588295500426,0.28864354999999997,0.5609128105423621
0.0035,1.79969375,1.0,241.85067028688817,0.03889074338177017,1.3684569269578613,0.2732721004754545,0.2886401375,0.5670902199514327
0.004,1.7996,1.0,325.88963903850106,0.044281806370991286,1.3660393477072856,0.3254893693024804,0.2886362,0.5727525380421712
0.0045000000000000005,1.7994937500000001,1.0,413.84055029070834,0.04964262976205337,1.3638157713025838,0.375476611774664,0.2886317375,0.5779275655341392
0.005,1.799375,1.0,504.07367406938357,0.05497338316592719,1.3617595440669383,0.42253163724645637,0.28862675,0.5826850519020437
0.0055,1.79924375,1.0,595.4877211319917,0.0602742352628123,1.3598472428084436,0.4662880989207241,0.2886212375,0.58708533751008
0.006,1.7991000000000001,1.0,687.2166094888305,0.0655453537705822,1.3580611549843562,0.5066228436374646,0.2886152,0.5911741367706278
0.006500000000000001,1.79894375,1.0,778.5473609317615,0.07078690544846476,1.3563877198829974,0.543577078407029,0.2886086375,0.5949865851932339
0.007,1.798775,1.0,868.8951177838834,0.07599905622884427,1.3548160389303276,0.5772954655342627,0.28860155,0.5985509519062252
0.0075,1.79859375,1.0,957.7681367028644,0.08118197083863259,1.3533372636230656,0.607982125984014,0.2885939375,0.6018902364010339
0.008,1.7984,1.0,1044.792574374836,0.08633581355735614,1.3519434322777972,0.6358696832399103,0.2885858,0.6050249377440164
0.0085,1.79819375,1.0,1129.6478886243685,0.09146074725653917,1.3506279517416826,0.6611995125863069,0.2885771375,0.6079720645964041
0.009000000000000001,1.797975,1.0,1212.0894337627344,0.09655693390407695,1.3493848434309499,0.6842086191169967,0.28856795,0.61074691065284
0.0095,1.79774375,1.0,1291.9560123583042,0.1016245352467941,1.3482083911276326,0.7051219583514073,0.2885582375,0.613363891416791
0.01,1.7975,1.0,1369.11328290836,0.10666371144997217,1.3470937021099305,0.7241487430247904,0.288548,0.6158353378686952
0.0105,1.79724375,1.0,1443.4691601798004,0.11167462157740837,1.346036297058405,0.7414804823530313,0.2885372375,0.618172452544985
0.011,1.796975,1.0,1514.9779250746794,0.11665742413627024,1.3450319245256053,0.757290615721272,0.28852595000000003,0.6203857495476945
0.0115,1.79669375,1.0,1583.6454055905408,0.1216122778405343,1.344076402200989,0.7717350470462867,0.2885141375,0.622485425537064
0.012,1.7964,1.0,1649.4613807508265,0.12653933878366028,1.343166337983065,0.784953557865654,0.28850180000000003,0.6244797974339695
0.0125,1.79609375,1.0,1712.437722134019,0.13143876236253457,1.3422985630753337,0.7970708503742849,0.2884889375,0.6263765743512812
0.013000000000000001,1.7957750000000001,1.0,1772.6204891617758,0.13631070380140034,1.3414699345243222,0.8081978796560393,0.28847555,0.6281833029845508
0.0135,1.79544375,1.0,1830.074177342238,0.1411553176772868,1.340677471882142,0.8184333176444751,0.2884616375,0.6299070795663023
0.014,1.7951000000000001,1.0,1884.8628913430512,0.1459727577313312,1.339918518290598,0.8278649421259444,0.2884472,0.6315542121273101
0.0145,1.79474375,1.0,1937.0409348067824,0.15076317544880158,1.3391907913000225,0.8365708703079613,0.2884322375,0.6331301246723999
0.015,1.794375,1.0,1986.683512989807,0.15552672231496614,1.3384920084607477,0.8446205394738748,0.28841675,0.6346401792353608
0.0155,1.79399375,1.0,2033.8710525314784,0.1602635487757992,1.3378200333948913,0.852075770544971,0.2884007375,0.6360893655518958
0.016,1.7936,1.0,2078.7037253600283,0.16497380652647634,1.3371726989672457,0.8589916120479459,0.2883842,0.6374826883646145
0.0165,1.7931937500000001,1.0,2121.2568000574456,0.16965764409757728,1.3365482538682134,0.8654172733721689,0.2883671375,0.63882421179291
0.017,1.792775,1.0,2161.601175665138,0.17431520859992566,1.3359451190257432,0.8713967398425813,0.28834955,0.6401175924833522
0.0175,1.7923437500000001,1.0,2199.818576437317,0.17894664714434527,1.3353617153677833,0.8769693401750359,0.2883314375,0.6413664536529908
0.018000000000000002,1.7919,1.0,2236.0006357627185,0.1835521068416597,1.334796463822282,0.8821702939455414,0.2883128,0.6425743871559165
0.0185,1.79144375,1.0,2270.225676498631,0.1881317328198239,1.3342480081615649,0.8870312477086398,0.2882936375,0.6437444803572273
0.019,1.790975,1.0,2302.596636084866,0.1926856725268869,1.3337148238446632,0.8915805906933538,0.28827395,0.6448801541655784
0.0195,1.79049375,1.0,2333.1790736785442,0.19721406853306833,1.3331958265920765,0.8958439724918786,0.2882537375,0.6459838684362975
0.02,1.79,1.0,2362.042164908734,0.20171706320065505,1.3326899516506872,0.8998445133822176,0.288233,0.6470580231845136
0.0205,1.78949375,1.0,2389.2601905933875,0.20619479889193387,1.3321961342673776,0.9036030837178252,0.2882117375,0.6481050012047527
0.021,1.788975,1.0,2414.912106260519,0.21064741796919162,1.33171330968903,0.9071385535193599,0.28818995000000003,0.6491271689258602
0.021500000000000002,1.78844375,1.0,2439.064406684508,0.2150750603243735,1.3312405740321505,0.9104680442485242,0.2881676375,0.6501265373560314
0.022,1.7879,1.0,2461.804755125017,0.21947786932714705,1.3307768550513888,0.9136070526112844,0.2881448,0.6511054597012518
0.0225,1.78734375,1.0,2483.1888005418436,0.2238559825477382,1.3303214196735367,0.9165697211134436,0.28812143749999997,0.6520655602833523
0.023,1.786775,1.0,2503.274087481021,0.22820953743151215,1.329873542125025,0.9193689172491464,0.28809755,0.6530084381565351
0.0235,1.78619375,1.0,2522.120593158376,0.23253867142383422,1.3294324966322841,0.9220163648507572,0.28807313749999996,0.6539356829165182
0.024,1.7856,1.0,2539.790520843188,0.2368435219700697,1.3289975574217443,0.9245227615381952,0.2880482,0.6548488750335653
0.0245,1.78499375,1.0,2556.339611327818,0.24112422443540577,1.328568078495267,0.9268978957473686,0.2880227375,0.6557494189857402
0.025,1.784375,1.0,2571.831283648756,0.2453809170755662,1.3281433582953914,0.9291507163774195,0.28799675,0.6566388278272397
0.025500000000000002,1.78374375,1.0,2586.3181685140203,0.24961373496090217,1.327722811480298,0.931289441598806,0.2879702375,0.6575183636334474
0.026000000000000002,1.7831000000000001,1.0,2599.8434831892505,0.25382281025122105,1.327305953146347,0.9333216269213348,0.2879432,0.6583890721778105
0.0265,1.78244375,1.0,2612.4515874068843,0.25800827510633007,1.3268922983898994,0.9352542136844255,0.2879156375,0.6592519937926307
0.027,1.781775,1.0,2624.1878856266394,0.26217026168603663,1.3264813623073166,0.9370935872177479,0.28788755,0.6601081634756335
0.0275,1.7810937500000001,1.0,2635.098734508999,0.26630890215014813,1.3260726599949588,0.9388456287860586,0.2878589375,0.6609586109815433
0.028,1.7804,1.0,2645.2275711763386,0.270424327380207,1.3256657414918194,0.9405157666762197,0.2878298,0.6618042883245647
0.0285,1.77969375,1.0,2654.61315672457,0.2745166672805156,1.3252602069028285,0.9421090195695974,0.2878001375,0.6626460389206925
0.029,1.778975,1.0,2663.3074494034568,0.2785860562030351,1.324855540861721,0.9436300119452691,0.28776995,0.663484941235455
0.029500000000000002,1.7782437500000001,1.0,2671.3404588197936,0.28263262050851506,1.3244514357643689,0.9450830490417501,0.2877392375,0.6643216384899223
0.03,1.7775,1.0,2678.7426609410836,0.2866564865577049,1.3240475840066432,0.9464721192113831,0.287708,0.665156770725311
0.0305,1.77674375,1.0,2685.544956818507,0.29065778071135423,1.323643677984416,0.9478009212647891,0.2876762375,0.6659909748109681
0.031,1.775975,1.0,2691.7786334079665,0.2946366293302124,1.3232394100935587,0.949072889132926,0.28764395,0.6668248844463271
0.0315,1.7751937500000001,1.0,2697.475326488614,0.298593158775029,1.3228344727299433,0.9502912141389551,0.2876111375,0.6676591301568224
0.032,1.7744,1.0,2702.666985679578,0.30252749540655344,1.3224285582894408,0.9514588651374177,0.2875778,0.6684943392837777
0.0325,1.77359375,1.0,2707.3796401976583,0.30643976130215345,1.3220214157656869,0.9525786122466691,0.2875439375,0.6693310197329803
0.033,1.772775,1.0,2711.6462644692388,0.3103300856691934,1.3216127329185745,0.9536530323423903,0.28750955,0.670169802374508
0.0335,1.7719437500000002,1.0,2715.4893729481955,0.3141985906183849,1.3212022948874427,0.9546845387468305,0.2874746375,0.6710111153030622
0.034,1.7711000000000001,1.0,2718.929506418232,0.3180453966696606,1.3207899063457025,0.9556753867799099,0.2874392,0.6718553443453936
0.0345,1.7702437500000001,1.0,2721.9873540327653,0.32187062434295316,1.3203753719667648,0.9566276843319275,0.2874032375,0.6727028732052204
0.035,1.7693750000000001,1.0,2724.683737737439,0.3256743941581952,1.31995849642404,0.9575434032239335,0.28736675,0.6735540834377154
0.035500000000000004,1.76849375,1.0,2727.0395975387664,0.3294568266353195,1.3195390843909396,0.9584243895667834,0.2873297375,0.6744093544215561
0.036000000000000004,1.7676,1.0,2729.07597761818,0.33321804229425855,1.319116940540874,0.9592723732175304,0.2872922,0.6752690633285467
0.0365,1.76669375,1.0,2730.8078788820008,0.3369581554983814,1.3186919252933438,0.9600889806842693,0.2872541375,0.6761334717883348
0.037,1.765775,1.0,2732.2559423289217,0.3406772875795894,1.3182638484853166,0.9608757350059772,0.28721555,0.6770029424340416
0.0375,1.76484375,1.0,2733.4462986483522,0.34437556651925255,1.317832470715897,0.961634063311849,0.2871764375,0.6778779354548101
0.038,1.7639,1.0,2734.3908664495866,0.3480531058659469,1.3173976822150655,0.9623653164969895,0.28713679999999997,0.6787586458051795
0.0385,1.76294375,1.0,2735.1016070165074,0.3517100191682486,1.3169593732128018,0.9630707653056444,0.28709663750000003,0.6796452670042981
0.039,1.761975,1.0,2735.5905190025965,0.3553464199747339,1.3165174339390857,0.9637516059553392,0.28705595,0.6805379911116598
0.0395,1.7609937500000001,1.0,2735.8696333942357,0.35896242183397875,1.316071754623898,0.9644089653079845,0.2870147375,0.681437008702074
0.04,1.76,1.0,2735.951008740024,0.3625581382945595,1.315622225497218,0.9650439056288944,0.286973,0.68234250883987
0.0405,1.7589937500000001,1.0,2735.846726647998,0.3661336829050522,1.3151687367890266,0.9656574289705924,0.2869307375,0.6832546790523255
0.041,1.757975,1.0,2735.56888754958,0.369689169214033,1.314711178729303,0.966250481214626,0.28688795,0.6841737053023362
0.0415,1.75694375,1.0,2735.129606730884,0.37322471077007807,1.3142494415480281,0.9668239558013724,0.2868446375,0.6850997719603076
0.042,1.7559,1.0,2734.541010631202,0.37674042112176354,1.3137834154751815,0.9673786971749058,0.28680079999999997,0.6860330617752858
0.0425,1.75484375,1.0,2733.812493643052,0.38023640889944427,1.3133130156245212,0.9679155052214117,0.2867564375,0.6869737061233053
0.043000000000000003,1.753775,1.0,2732.952867457296,0.3837127841071101,1.312838162459906,0.9684351375665889,0.28671155,0.6879218243262422
0.043500000000000004,1.75269375,1.0,2731.9761708433593,0.38716966754073573,1.3123587289942917,0.9689383094778042,0.28666613750000003,0.6888776288937201
0.044,1.7516,1.0,2730.8885541440554,0.3906071652974551,1.3118746599086715,0.9694257020222442,0.2866202,0.6898411878407222
0.0445,1.75049375,1.0,2729.6961698876803,0.3940253834744024,1.3113858998840366,0.9698979608626933,0.2865737375,0.6908125680912267
0.045,1.7493750000000001,1.0,2728.405171583001,0.3974244281687118,1.3108923936013794,0.9703556984417349,0.28652675,0.6917918354617506
0.0455,1.74824375,1.0,2727.0217125830245,0.40080440547751733,1.3103940857416922,0.9707994960106423,0.2864792375,0.6927790546447035
0.046,1.7471,1.0,2725.551945016734,0.40416542149795304,1.309890920985967,0.9712299055154003,0.2864312,0.693774289191547
0.0465,1.7459437500000001,1.0,2724.0020187879622,0.40750758232715306,1.3093828440151958,0.9716474513511953,0.28638263750000004,0.6947776014957558
0.047,1.744775,1.0,2722.3780806424375,0.41083099406225154,1.3088697995103706,0.9720526319957172,0.28633355,0.695789052775585
0.0475,1.74359375,1.0,2720.6862733033036,0.41413576280038256,1.3083517321524838,0.9724459215307115,0.28628393750000003,0.6968087030566419
0.048,1.7424,1.0,2718.9327346732407,0.4174219946386801,1.3078285866225272,0.9728277710604057,0.2862338,0.6978366111542642
0.0485,1.74119375,1.0,2717.121733404383,0.42068978765783405,1.307300324580375,0.973198610226563,0.2861831375,0.69887280138009
0.049,1.739975,1.0,2715.2562904536867,0.42393923749074497,1.3067669190233544,0.9735588487564099,0.28613195,0.6999172748498684
0.0495,1.73874375,1.0,2713.3468577377967,0.42717047501249744,1.3062282751820884,0.9739088766925452,0.2860802375,0.7009701641549846
0.05,1.7375,1.0,2711.396290842552,0.4303835981361701,1.3056843674434353,0.9742490665922249,0.286028,0.7020314652446009
0.0505,1.73624375,1.0,2709.4074423251877,0.4335787047748415,1.3051351701942528,0.974579773816742,0.2859752375,0.7031011731840701
0.051000000000000004,1.734975,1.0,2707.383161505296,0.43675589284159017,1.304580657821399,0.9749013374753833,0.28592195,0.7041792821463134
0.051500000000000004,1.73369375,1.0,2705.3262942701613,0.4399152602494948,1.3040208047117317,0.9752140813094905,0.2858681375,0.7052657854031605
0.052000000000000005,1.7324,1.0,2703.239682894253,0.4430569049116339,1.3034555852521088,0.975518314520915,0.2858138,0.7063606753166458
0.0525,1.73109375,1.0,2701.126165874139,0.44618092474108606,1.3028849738293886,0.9758143325488217,0.28575893750000003,0.7074639433302634
0.053,1.729775,1.0,2698.988577777042,0.44928741765092994,1.3023089448304284,0.9761024177984816,0.28570355000000003,0.7085755799601818
0.0535,1.72844375,1.0,2696.8297491043827,0.45237648155424404,1.3017274726420867,0.9763828403254057,0.2856476375,0.7096955747864122
0.054,1.7271,1.0,2694.6525061700777,0.455448214364107,1.3011405316512212,0.9766558584779177,0.2855912,0.7108239164439408
0.0545,1.7257437500000001,1.0,2692.4596709928205,0.4585027139935974,1.3005480962446898,0.9769217195010182,0.2855342375,0.711960592613816
0.055,1.724375,1.0,2690.2540612032353,0.46154007835579375,1.2999501408093506,0.9771806601041799,0.28547675,0.7131055900141925
0.0555,1.72299375,1.0,2688.038489965706,0.4645604053637747,1.2993466397320614,0.9774329069955089,0.2854187375,0.7142588943913375
0.056,1.7216,1.0,2685.815765914429,0.4675637929306188,1.2987375673996802,0.9776786773845301,0.2853602,0.7154204905105918
0.0565,1.72019375,1.0,2683.5854304744503,0.4705503171681497,1.2981229281077504,0.9779181791968221,0.28530113749999997,0.7165903052820826
0.057,1.718775,1.0,2681.3488656429163,0.47352008197409234,1.2975027092796612,0.9781516133713923,0.28524155,0.7177682971022367
0.0575,1.71734375,1.0,2679.1106248049846,0.47647320628776657,1.2968768692215595,0.9783791722963308,0.2851814375,0.7189544787028221
0.058,1.7159,1.0,2676.871484069395,0.47940977896327014,1.296245400839896,0.9786010398431365,0.2851208,0.7201487961773256
0.0585,1.71444375,1.0,2674.632218254626,0.48232988885470096,1.2956082970411218,0.9788173925100191,0.2850596375,0.7213511948993875
0.059000000000000004,1.7129750000000001,1.0,2672.3936008870023,0.48523362481615695,1.2949655507316875,0.9790283997738585,0.28499795,0.722561619520256
0.059500000000000004,1.71149375,1.0,2670.1564041997854,0.48812107570173585,1.2943171548180437,0.9792342244226865,0.2849357375,0.7237800139662364
0.06,1.71,1.0,2667.921399132987,0.4909923303655355,1.293663102206641,0.9794350228699101,0.284873,0.7250063214361351
0.0605,1.7084937500000001,1.0,2665.6893553348878,0.49384747766165393,1.2930033858039305,0.9796309454514119,0.2848097375,0.7262404843987025
0.061,1.7069750000000001,1.0,2663.4610411644085,0.4966866064441889,1.292337998516363,0.9798221367065839,0.28474595,0.7274824445900732
0.0615,1.7054437500000001,1.0,2661.2372236943384,0.49950980556723823,1.2916669332503887,0.9800087356442818,0.2846816375,0.728732143011203
0.062,1.7039,1.0,2659.018668716458,0.5023171638848998,1.290990182912459,0.9801908759946156,0.2846168,0.7299895199252986
0.0625,1.70234375,1.0,2656.8061407466416,0.5051087702512714,1.2903077404090242,0.9803686864474304,0.2845514375,0.7312545148552507
0.063,1.7007750000000001,1.0,2654.6004030320496,0.5078847135204511,1.2896195986465353,0.9805422908782766,0.28448555,0.732527066581058
0.0635,1.69919375,1.0,2652.402217559271,0.5106450825465365,1.2889257505314429,0.9807118085626146,0.28441913750000003,0.7338071131372528
0.064,1.6976,1.0,2650.212345062616,0.5133899661836256,1.2882261889701978,0.9808773543789444,0.2843522,0.7350945918103183
0.0645,1.69599375,1.0,2648.031545035297,0.5161194532858163,1.2875209068692508,0.9810390390015157,0.2842847375,0.7363894391361085
0.065,1.694375,1.0,2645.86057574005,0.5188336327072063,1.2868098971350526,0.9811969690832179,0.28421675,0.7376915908972594
0.0655,1.69274375,1.0,2643.700878485612,0.5215325930320931,1.286093146354231,0.9813512470974002,0.2841482375,0.7390009936515832
0.066,1.6911,1.0,2641.5536186055147,0.5242164168092475,1.2853706436419383,0.981501971552844,0.2840792,0.7403175884801845
0.0665,1.6894437500000001,1.0,2639.4156512092513,0.5268851867743862,1.284642417937551,0.9816492394154595,0.2840096375,0.7416412433375781
0.067,1.687775,1.0,2637.288167641395,0.52953898686696,1.2839084581299212,0.9817931423838808,0.28393955,0.7429718986042437
0.0675,1.68609375,1.0,2635.172357357364,0.5321779010264192,1.2831687531079001,0.9819337689429163,0.2838689375,0.7443094938243531
0.068,1.6844000000000001,1.0,2633.0581931193888,0.5348020128429906,1.282423395548841,0.982071209430706,0.2837978,0.7456537807610422
0.0685,1.68269375,1.0,2630.9692868600782,0.5374114058849445,1.281672166837899,0.9822055363308694,0.2837261375,0.7470050715205447
0.069,1.680980543090845,1.0,2629.151904422525,0.5400061623469377,1.2809152892021238,0.9823368402458997,0.28365418280981547,0.748362883585737
0.0695,1.6792673149756192,1.0,2627.9021631517485,0.5425863640306442,1.2801531490858997,0.9824652164285783,0.28358222722897597,0.7497264446978751
0.07,1.6775540868603929,1.0,2627.1790479622764,0.5451520927265896,1.2793861323197286,0.9825907570195249,0.28351027164813647,0.7510949906486706
0.07050000000000001,1.675840858745167,1.0,2626.940951578672,0.5477034296560965,1.278614622395064,0.9827135510657492,0.283438316067297,0.7524677684555353
0.07100000000000001,1.6741276306299406,1.0,2627.143756492167,0.5502404560314066,1.2778390274481173,0.9828336859240824,0.28336636048645747,0.7538439886054985
0.07150000000000001,1.6724144025147147,1.0,2627.7539987601112,0.5527632515708626,1.2770596579583267,0.9829512416769012,0.283294404905618,0.755223041875048
0.07200000000000001,1.6707011743994884,1.0,2628.7382990471588,0.5552718959928069,1.27627682440513,0.9830662959047037,0.2832224493247785,0.7566043249254369
0.0725,1.6689879462842625,1.0,2630.0700764376497,0.5577664671463872,1.2754907748683613,0.9831789208671734,0.283150493743939,0.7579873500077484
0.073,1.6672747181690364,1.0,2631.7122063561674,0.5602470461767509,1.274701855449581,0.9832891911780934,0.2830785381630995,0.7593714624124921
0.0735,1.6655614900538103,1.0,2633.6320139022214,0.5627137135244099,1.2739103711932267,0.9833971773322194,0.28300658258226,0.7607560859463928
0.074,1.6638482619385841,1.0,2635.811030433746,0.5651665457239651,1.2731164957332493,0.983502941668411,0.2829346270014205,0.7621408793316009
0.0745,1.662135033823358,1.0,2638.2307962052064,0.5676056193100174,1.2723204027035995,0.9836065446371398,0.282862671420581,0.763525504691803
