Time [s],Phi [rad],STIM [ ],Fsee [N],Gamma [ ],Lcerel [ ],q [ ],Lmtc [m],fisomrel [ ]
0.0,1.8,1.0,17.96487995928324,1.0041203867168047e-05,1.3793400014633317,0.00500002687100184,0.288653,0.5411389135516567
0.0005,1.79999375,1.0,18.274436412804743,0.005619194189449685,1.3793026441418417,0.01294063350683278,0.2886527375,0.5412292861830594
0.001,1.799975,1.0,21.616210431796315,0.011196884261703672,1.3789385238678311,0.035608808003432156,0.28865195,0.5421096783446084
0.0015,1.79994375,1.0,31.067052867010286,0.016743287903560035,1.378046389728041,0.07060202762412049,0.2886506375,0.5442631607576343
0.002,1.7999,1.0,53.580029090870894,0.022258580606292967,1.3763682847121,0.11471822007844684,0.2886488,0.5483001092566062
0.0025,1.79984375,1.0,97.11640769544746,0.027742936877094494,1.3739352891726573,0.16457508819776037,0.28864643749999996,0.5541211719112282
0.003,1.7997750000000001,1.0,160.95577794626084,0.03319653024678215,1.3712144331744536,0.2172806501157639,0.28864354999999997,0.5605862391676313
0.0035,1.79969375,1.0,237.68114687440325,0.03861953326939623,1.3685848015268798,0.27061307867440765,0.2886401375,0.566789681388363
0.004,1.7996,1.0,321.4648081507368,0.04401211753298078,1.366156144393601,0.3229159822141289,0.2886362,0.5724798403150906
0.0045000000000000005,1.7994937500000001,1.0,409.26600307336787,0.04937445366476803,1.3639228551921763,0.3730346766026582,0.2886317375,0.5776790671835915
0.005,1.799375,1.0,499.4119442958466,0.05470671132228068,1.361858375493988,0.42024761736668287,0.28862675,0.5824570028215945
0.0055,1.79924375,1.0,590.7890116834475,0.0600090592407122,1.3599388624971847,0.46417384255022254,0.2886212375,0.5868750486742118
0.006,1.7991000000000001,1.0,682.5168564693317,0.0652816651762731,1.3581464375028678,0.5046800942559404,0.2886152,0.5909793664030754
0.006500000000000001,1.79894375,1.0,773.8646140131793,0.07052469574207149,1.3564675377402071,0.5418010488854967,0.2886086375,0.5948051483974299
0.007,1.798775,1.0,864.2927988132755,0.07573831756261327,1.3548902821243114,0.575676810831108,0.28860155,0.5983829325692815
0.0075,1.79859375,1.0,953.2565514530202,0.08092269487848579,1.3534065740697483,0.6065098832202911,0.2885939375,0.6017340350901899
0.008,1.7984,1.0,1040.3591881828265,0.08607799170027756,1.3520086355439462,0.6345321380131588,0.2885858,0.6048785730308968
0.0085,1.79819375,1.0,1125.3191238885229,0.09120437153710252,1.3506891721839076,0.6599844764101271,0.2885771375,0.6078351546969567
0.009000000000000001,1.797975,1.0,1207.885333692091,0.09630199643428661,1.3494422379162934,0.6831043810999488,0.28856795,0.6106190126277189
0.0095,1.79774375,1.0,1287.8710469410876,0.10137102749989252,1.3482624037918056,0.7041176966015843,0.2885582375,0.61324393528429
0.01,1.7975,1.0,1365.159910382719,0.10641162552014174,1.3471444770333212,0.7232343381906485,0.288548,0.6157229338815751
0.0105,1.79724375,1.0,1439.6680205062762,0.11142395008738964,1.346083839736824,0.7406466661890513,0.2885372375,0.6180675251052816
0.011,1.796975,1.0,1511.3253118917135,0.11640815912260255,1.3450765158032436,0.756529163932812,0.28852595000000003,0.6202876219422633
0.0115,1.79669375,1.0,1580.1157003558633,0.12136441046107695,1.3441185465200436,0.7710386877599938,0.2885141375,0.6223929398626677
0.012,1.7964,1.0,1646.0579439149521,0.12629286123521782,1.3432061540352958,0.7843156304377159,0.28850180000000003,0.6243926525264696
0.0125,1.79609375,1.0,1709.180681625831,0.13119366782349764,1.3423359577533795,0.7964853367388719,0.2884889375,0.6262949363172077
0.013000000000000001,1.7957750000000001,1.0,1769.5050062008484,0.13606698445916654,1.341505090230517,0.8076595390489163,0.28847555,0.6281067389880308
0.0135,1.79544375,1.0,1827.0835224385594,0.14091296537547454,1.3407106840229304,0.8179375369097942,0.2884616375,0.6298349164305705
0.014,1.7951000000000001,1.0,1881.9754117016823,0.14573176367320034,1.3399501143447654,0.8274076334576178,0.2884472,0.631485713510781
0.0145,1.79474375,1.0,1934.2814973404645,0.15052353353969627,1.3392205760039981,0.8361482186315887,0.2884322375,0.6330656913760069
0.015,1.794375,1.0,1984.057606683441,0.15528842542879356,1.3385199947835547,0.8442292224015601,0.28841675,0.6345797612619328
0.0155,1.79399375,1.0,2031.371442709746,0.16002658946206288,1.3378463622145944,0.85171287281531,0.2884007375,0.6360326388340724
0.016,1.7936,1.0,2076.307005919189,0.164738175761075,1.3371976698282766,0.8586545838405144,0.2883842,0.6374289906325912
0.0165,1.7931937500000001,1.0,2118.9488608267316,0.16942333341172464,1.3365720569561288,0.8651038069124176,0.2883671375,0.6387731201413278
0.017,1.792775,1.0,2159.397848294277,0.17408221214624175,1.33596762974312,0.8711046839342036,0.28834955,0.6400693614948656
0.0175,1.7923437500000001,1.0,2197.728999495219,0.17871495856328118,1.3353828773079495,0.8766967885759803,0.2883314375,0.6413211913540846
0.018000000000000002,1.7919,1.0,2234.016535827621,0.18332171842473607,1.3348163940074538,0.8819155840761571,0.2883128,0.6425318313260379
0.0185,1.79144375,1.0,2268.343199640076,0.1879026374924996,1.3342667741984686,0.8867928749161741,0.2882936375,0.6437044759787947
0.019,1.790975,1.0,2300.792563103468,0.1924578606553539,1.333732681220511,0.8913572472303455,0.28827395,0.6448421475936504
0.0195,1.79049375,1.0,2331.453970631001,0.19698753339679315,1.3332127898272654,0.895634424459635,0.2882537375,0.6459478210954421
0.02,1.79,1.0,2360.4056255739433,0.20149179933650005,1.332705945214519,0.8996476276015394,0.288233,0.6470240880705151
0.0205,1.78949375,1.0,2387.7125638820967,0.20597079967332277,1.3322111723413321,0.9034178559533653,0.2882117375,0.6480731408533091
0.021,1.788975,1.0,2413.444289442395,0.21042467560610953,1.3317274961667656,0.9069640939891,0.28818995000000003,0.6490971565271957
0.021500000000000002,1.78844375,1.0,2437.674401611332,0.2148535683337086,1.3312539416498796,0.9103035323099489,0.2881676375,0.6500982976448282
0.022,1.7879,1.0,2460.4726088933558,0.21925761747855377,1.3307896068439564,0.9134517759517401,0.2881448,0.6510785586862906
0.0225,1.78734375,1.0,2481.9142456082536,0.22363696461555801,1.3303335674503647,0.9164229965270511,0.28812143749999997,0.652039968799475
0.023,1.786775,1.0,2502.062997471864,0.22799174868948605,1.329885038532154,0.9192301120801207,0.28809755,0.6529842517622428
0.0235,1.78619375,1.0,2520.972618718445,0.2323221058627414,1.3294433530388619,0.921884912472255,0.28807313749999996,0.6539128735284179
0.024,1.7856,1.0,2538.698998927892,0.23662817229772773,1.3290078439200266,0.9243981545384691,0.2880482,0.6548272915787483
0.0245,1.78499375,1.0,2555.299983258343,0.2409100841568486,1.328577844125186,0.9267796668297178,0.2880227375,0.6557289551978474
0.025,1.784375,1.0,2570.8352025436325,0.24516797760250758,1.3281526866038784,0.9290384424659031,0.28799675,0.6566193057227576
0.025500000000000002,1.78374375,1.0,2585.3536764877285,0.2494019856424786,1.3277318185918057,0.931182739234172,0.2879702375,0.6574995378906499
0.026000000000000002,1.7831000000000001,1.0,2598.918187788041,0.2536122466410907,1.3273145716689936,0.9332201170454251,0.2879432,0.658371081547013
0.0265,1.78244375,1.0,2611.5751711030794,0.2577988936290736,1.3269004418716803,0.935157545089644,0.2879156375,0.6592350162758296
0.027,1.781775,1.0,2623.3637059355656,0.26196205714843385,1.3264890032321504,0.9370014449568098,0.28788755,0.6600922537260105
0.0275,1.7810937500000001,1.0,2634.323763543916,0.266101867741178,1.326079829782688,0.9387577307787716,0.2878589375,0.6609437009212158
0.028,1.7804,1.0,2644.4961302224197,0.27021845594931265,1.3256724955555774,0.9404318560408079,0.2878298,0.661790260327176
0.0285,1.77969375,1.0,2653.922334604982,0.27431195231484434,1.325266574583103,0.9420288555082356,0.2878001375,0.662632829907445
0.029,1.778975,1.0,2662.6445789914114,0.27838248737977966,1.3248616408975489,0.9435533828309293,0.28776995,0.6634723031675765
0.029500000000000002,1.7782437500000001,1.0,2670.69638786604,0.28243018736125164,1.32445735386916,0.9450097544333783,0.2877392375,0.664309392602751
0.03,1.7775,1.0,2678.123364680194,0.2864551860059836,1.32405326658512,0.9464019573384727,0.287708,0.6651450268351824
0.0305,1.77674375,1.0,2684.957171127481,0.2904576103293886,1.323649064574652,0.9477337041367565,0.2876762375,0.6659798565049515
0.031,1.775975,1.0,2691.2248908520946,0.2944375848671447,1.3232444788094062,0.9490084463671412,0.28764395,0.6668144353291944
0.0315,1.7751937500000001,1.0,2696.953935034404,0.29839523415492986,1.322839240261033,0.9502293915016384,0.2876111375,0.6676493142464255
0.032,1.7744,1.0,2702.1720118101866,0.302330682728422,1.322433079901182,0.951399523220576,0.2875778,0.6684850414076464
0.0325,1.77359375,1.0,2706.907097294778,0.30624405512329916,1.3220257287015034,0.9525216197685508,0.2875439375,0.6693221621628372
0.033,1.772775,1.0,2711.187408211287,0.3101354758752394,1.3216169176336474,0.9535982705933963,0.28750955,0.6701612190428305
0.0335,1.7719437500000002,1.0,2715.04087016497,0.31400506890751156,1.321206382280476,0.9546318918069372,0.2874746375,0.6710027422904614
0.034,1.7711000000000001,1.0,2718.4881538034288,0.31785294963578686,1.3207939260280392,0.9556247448690658,0.2874392,0.6718471206107044
0.0345,1.7702437500000001,1.0,2721.5629819818387,0.32167925434103506,1.3203792348184018,0.9565789358631884,0.2874032375,0.6726949805394622
0.035,1.7693750000000001,1.0,2724.282227777892,0.3254841007775304,1.3199621493565723,0.9574964468293901,0.28736675,0.6735466293977121
0.035500000000000004,1.76849375,1.0,2726.66287187747,0.3292676066995471,1.3195425103475595,0.9583791333543095,0.2873297375,0.6744023727065682
0.036000000000000004,1.7676,1.0,2728.721991374352,0.3330298898613593,1.3191201584963719,0.9592287340893649,0.2872922,0.6752625141621509
0.0365,1.76669375,1.0,2730.4767491324856,0.3367710680172411,1.3186949345080181,0.9600468794487427,0.2872541375,0.6761273556088331
0.037,1.765775,1.0,2731.944383710892,0.3404912589214669,1.318266679087507,0.9608350995662387,0.28721555,0.6769971970108731
0.0375,1.76484375,1.0,2733.142199851369,0.3441905803283108,1.317835232939847,0.9615948315816709,0.2871764375,0.6778723364224273
0.038,1.7639,1.0,2734.087559528231,0.347869149992047,1.317400436770047,0.9623274263201484,0.28713679999999997,0.6787530699559421
0.0385,1.76294375,1.0,2734.7978735613788,0.3515270856669496,1.3169621312831155,0.9630341544208957,0.28709663750000003,0.679639691748932
0.039,1.761975,1.0,2735.290406890101,0.35516450444577724,1.3165201588811226,0.9637162119941883,0.28705595,0.6805324905034085
0.0395,1.7609937500000001,1.0,2735.576385683222,0.3587815209627122,1.316074417101405,0.9643747303292822,0.2870147375,0.6814316417538492
0.04,1.76,1.0,2735.666120232536,0.3623782504690375,1.3156248120387475,0.9650107766914839,0.286973,0.6823373023772492
0.0405,1.7589937500000001,1.0,2735.57151310024,0.36595480534851016,1.315171235535694,0.9656253560122082,0.2869307375,0.6832496565398729
0.041,1.757975,1.0,2735.3044854861705,0.3695112979848872,1.314713579434788,0.9662194168691535,0.28688795,0.6841688868601512
0.0415,1.75694375,1.0,2734.8769733438544,0.37304784076192565,1.3142517355785734,0.9667938552295009,0.2868446375,0.6850951743809132
0.042,1.7559,1.0,2734.300923756072,0.3765645460633825,1.3137855958095945,0.9673495179070709,0.28680079999999997,0.686028698540873
0.0425,1.75484375,1.0,2733.566205270416,0.38006152476688687,1.313315252576736,0.96788722208619,0.2867564375,0.6869692362971178
0.043000000000000003,1.753775,1.0,2732.7258313109774,0.3835388895288694,1.3128402248714621,0.9684076945886789,0.28671155,0.6879177095101181
0.043500000000000004,1.75269375,1.0,2731.7855088693545,0.3869967499635033,1.3123604612842474,0.9689116577957326,0.28666613750000003,0.6888741780175133
0.044,1.7516,1.0,2730.7264368671363,0.3904352143441388,1.3118761331406434,0.9693998134666582,0.2866202,0.6898382575804836
0.0445,1.7504984076087167,1.0,2729.761252770642,0.39385439094412644,1.3113874117662019,0.9698728267227517,0.2865739331195661,0.6908095656681947
0.045,1.749396698355582,1.0,2729.2548685313172,0.39725438803681634,1.310894468486474,0.9703313283238331,0.28652766133093444,0.6917877215067372
0.0455,1.7482949891024475,1.0,2729.1941149623485,0.40063531389555895,1.3103974746270115,0.9707759167821914,0.2864813895423028,0.6927723461261919
0.046,1.7471932798493128,1.0,2729.551538632488,0.40399727458672846,1.3098966795909053,0.9712071658393968,0.28643511775367114,0.693762908094808
0.0465,1.7460915705961784,1.0,2730.2748628202903,0.4073403791971631,1.3093925592306324,0.9716256375319884,0.2863888459650395,0.6947584320558662
0.047,1.7449898613430437,1.0,2731.338570931522,0.41066473208549403,1.3088853467250525,0.9720318477171181,0.28634257417640785,0.6957584265897452
0.0475,1.7438881520899092,1.0,2732.7173965979614,0.41397043755271634,1.3083752734061829,0.9724262868078833,0.2862963023877762,0.696762406733616
0.048,1.7427864428367745,1.0,2734.3861052411717,0.4172575998998249,1.3078625706060403,0.9728094214045861,0.28625003059914456,0.6977698903693905
0.0485,1.74168473358364,1.0,2736.319479992593,0.4205263234278149,1.3073474696566418,0.973181695678181,0.28620375881051285,0.6987803982642208
0.049,1.7405830243305054,1.0,2738.4941457607056,0.4237767116258724,1.3068301852201685,0.9735435314167421,0.2861574870218812,0.6997934867275418
0.0495,1.739481315077371,1.0,2740.887904476313,0.42700886821835643,1.3063109212489366,0.9738953298418629,0.28611121523324956,0.7008087357258539
0.05,1.7383796058242362,1.0,2743.480710090584,0.43022289624943233,1.3057898620813342,0.9742374720692707,0.2860649434446179,0.7018257660978273
0.0505,1.7372778965711018,1.0,2746.2578927709533,0.43341889619347845,1.3052671431971705,0.9745703180916324,0.28601867165598627,0.7028442961869841
0.051000000000000004,1.736176187317967,1.0,2749.2047717995542,0.4365969685248731,1.3047429000762554,0.9748942114603538,0.2859723998673546,0.7038640460877341
0.051500000000000004,1.7350744780648326,1.0,2752.3066507913195,0.43975721371799453,1.3042172681983983,0.9752094801855576,0.285926128078723,0.704884737659132
0.052000000000000005,1.733972768811698,1.0,2755.5488133190306,0.44289973224722107,1.3036903830434092,0.9755164375792265,0.2858798562900913,0.7059060945374598
0.0525,1.7328710595585635,1.0,2758.924196485954,0.44602461785251646,1.303162310678239,0.9758153779522423,0.2858335845014597,0.7069279763527769
0.053,1.7317693503054288,1.0,2762.411155130067,0.44913197873040017,1.3026332488513312,0.9761065924181141,0.285787312712828,0.7079499894441589
0.0535,1.7306676410522943,1.0,2765.998111113362,0.45222191450635696,1.3021033039796812,0.976390352867932,0.2857410409241964,0.7089719187645419
0.054,1.7295659317991596,1.0,2769.678229743729,0.45529452051467756,1.3015725394528828,0.9766669164064387,0.2856947691355647,0.7099936334436846
0.0545,1.7284642225460252,1.0,2773.4446623625695,0.4583498920896526,1.3010410186605306,0.9769365291603122,0.28564849734693304,0.7110150034560909
0.055,1.7273625132928905,1.0,2777.2905452372,0.46138812456557277,1.3005088049922187,0.9771994268407094,0.2856022255583014,0.7120358996241987
0.0555,1.726260804039756,1.0,2781.208998542442,0.46440931327672874,1.2999759618375417,0.9774558352724758,0.28555595376966975,0.7130561936213065
0.056,1.7251590947866213,1.0,2785.1931254315673,0.4674135535574112,1.2994425525860933,0.9777059708922603,0.2855096819810381,0.7140757579742498
0.0565,1.7240573855334869,1.0,2789.236011195839,0.47040094074191074,1.2989086406274684,0.9779500412176004,0.28546341019240645,0.7150944660658132
0.057,1.7229556762803522,1.0,2793.3307225136714,0.47337157016451814,1.298374289351261,0.9781882452888936,0.2854171384037748,0.7161121921368939
0.0575,1.7218539670272177,1.0,2797.4703067886157,0.47632553715952397,1.2978395621470653,0.9784207740860279,0.28537086661514316,0.717128811288407
0.058,1.720752257774083,1.0,2801.652385827115,0.47926292715593505,1.2973044811856969,0.9786478077473365,0.2853245948265115,0.7181442776368101
0.0585,1.7196505485209486,1.0,2805.869447502669,0.48218384160255884,1.2967691146056328,0.9788695231845447,0.2852783230378798,0.7191584585975408
0.059000000000000004,1.718548839267814,1.0,2810.1145283504848,0.4850883802329364,1.2962335254312671,0.9790860898878267,0.2852320512492482,0.7201712321765397
0.059500000000000004,1.7174471300146794,1.0,2814.3852832531998,0.4879766318518938,1.295697735159099,0.9792976675367449,0.2851857794606165,0.7211825555541433
0.06,1.716345420761545,1.0,2818.679360092216,0.4908486852642575,1.2951617652856267,0.9795044096245366,0.28513950767198487,0.7221923862036755
0.0605,1.7152437115084103,1.0,2822.9943996560096,0.49370462927485376,1.2946256373073493,0.9797064637463921,0.2850932358833532,0.7232006818917038
0.061,1.7141420022552758,1.0,2827.328035560089,0.4965445526885088,1.2940893727207656,0.9799039718721612,0.2850469640947216,0.7242074006782736
0.0615,1.7130402930021411,1.0,2831.6778941767634,0.49936854431004896,1.2935529930223741,0.9800970706044417,0.28500069230608993,0.7252125009171109
0.062,1.7119385837490066,1.0,2836.041594575019,0.5021766929443005,1.2930165197086738,0.980285891422942,0.2849544205174583,0.726215941255792
0.0625,1.710836874495872,1.0,2840.4167484709183,0.5049690873960897,1.2924799742761635,0.9804705609159419,0.28490814872882664,0.727217680635889
0.063,1.7097351652427375,1.0,2844.8009601879326,0.5077458164702428,1.2919433782213416,0.9806512009996272,0.284861876940195,0.7282176782930825
0.0635,1.7086334559896028,1.0,2849.191826627862,0.5105069689715861,1.2914067530407076,0.9808279291260181,0.28481560515156334,0.729215893757245
0.064,1.7075317467364683,1.0,2853.586937251797,0.513252633704946,1.2908701202307595,0.981000858480164,0.28476933336293164,0.7302122868524984
0.0645,1.7064300374833337,1.0,2857.983874071291,0.5159828994751486,1.2903335012879966,0.9811700981672361,0.2847230615743,0.731206817697235
0.065,1.7053283282301992,1.0,2862.3849392151783,0.5186978230808481,1.2897968757464444,0.9813357490641355,0.28467678978566835,0.7321995242589281
0.0655,1.7042266189770645,1.0,2866.783933215579,0.521397532112921,1.2892602986062967,0.9814979171169944,0.2846305179970367,0.7331903050070029
0.066,1.70312490972393,1.0,2871.179958883766,0.524082110511568,1.2887237777075418,0.981656699211862,0.28458424620840506,0.7341791460021876
0.0665,1.7020232004707954,1.0,2875.5724731574546,0.5267516394687544,1.2881873177302852,0.9818121885150095,0.2845379744197734,0.7351660392201009
0.067,1.700921491217661,1.0,2879.960931382771,0.5294062001764457,1.2876509233546318,0.981964474968028,0.28449170263114176,0.7361509767003436
0.0675,1.6998197819645262,1.0,2884.34478732072,0.5320458738266073,1.2871145992606865,0.9821136454224659,0.2844454308425101,0.7371339505464777
0.068,1.6987180727113917,1.0,2888.723493154232,0.5346707416112048,1.2865783501285546,0.9822597837679375,0.28439915905387847,0.7381149529260063
0.0685,1.697616363458257,1.0,2893.0964994955634,0.5372808847222034,1.286042180638341,0.9824029710540613,0.28435288726524677,0.7390939760703529
0.069,1.6965146542051226,1.0,2897.4632553948263,0.5398763843515686,1.2855060954701507,0.9825432856065683,0.2843066154766152,0.740071012274838
0.0695,1.695412944951988,1.0,2901.823208347481,0.5424573216912658,1.2849700993040891,0.9826808031378954,0.2842603436879835,0.7410460538986531
0.07,1.6943112356988534,1.0,2906.1758043047125,0.5450237779332606,1.2844341968202606,0.9828155968525627,0.28421407189935183,0.7420190933648382
0.07050000000000001,1.6932095264457188,1.0,2910.520487681627,0.5475758342695183,1.2838983926987708,0.9829477375476136,0.2841678001107202,0.7429901231602504
0.07100000000000001,1.6921078171925843,1.0,2914.856701367991,0.5501135718920043,1.2833626916197247,0.9830772937083817,0.28412152832208853,0.7439591358355382
0.07150000000000001,1.6910061079394496,1.0,2919.183886738411,0.5526370719926841,1.282827098263227,0.9832043315998311,0.2840752565334569,0.7449261240051114
0.07200000000000001,1.6899043986863151,1.0,2923.5014836631663,0.555146415763523,1.2822916173093832,0.9833289153537043,0.28402898474482524,0.7458910803471068
