Time [s],Phi [rad],STIM [ ],Fsee [N],Gamma [ ],Lcerel [ ],q [ ],Lmtc [m],fisomrel [ ]
0.0,1.8,1.0,18.301545002548565,0.0005892381273780314,1.3793024564116865,0.005089589634641041,0.288653,0.541229740306316
0.0005,1.79999375,1.0,18.790860275542176,0.006195142276307562,1.3792456755510798,0.014626533027824917,0.2886527375,0.5413670841065215
0.001,1.799975,1.0,22.56245987051326,0.011769601735224568,1.3788429087422898,0.03869061467641533,0.28865195,0.5423407222438811
0.0015,1.79994375,1.0,32.96515182707194,0.017312792884858628,1.3778870699410632,0.07477874831526408,0.2886506375,0.5446472014392792
0.002,1.7999,1.0,57.362343803303176,0.022824891114707944,1.376127086303494,0.11963785295343045,0.2886488,0.5488788741991198
0.0025,1.79984375,1.0,103.222867684555,0.028306070830942356,1.3736455152525175,0.16991002109117107,0.28864643749999996,0.5548119545015329
0.003,1.7997750000000001,1.0,168.73145534042536,0.03375650546470573,1.3709268127332104,0.2227733864998061,0.28864354999999997,0.5612668992206056
0.0035,1.79969375,1.0,246.37418465326667,0.03917636746947884,1.3683194363387132,0.27606844363294736,0.2886401375,0.5674132423951932
0.004,1.7996,1.0,330.6608396688532,0.04456582833372918,1.3659142933406891,0.32819271362597624,0.2886362,0.5730444194164035
0.0045000000000000005,1.7994937500000001,1.0,418.7556564230677,0.049925058583867865,1.3637013729016634,0.3780397921971888,0.2886317375,0.5781929571092003
0.005,1.799375,1.0,509.06423172349884,0.05525422776726888,1.3616542464631884,0.42492772957481384,0.28862675,0.5829279528544111
0.0055,1.79924375,1.0,600.5160927255034,0.06055350458274525,1.3597495945690101,0.4685050793840302,0.2886212375,0.5873094043604363
0.006,1.7991000000000001,1.0,692.2331339841398,0.06582305659636568,1.357970445418229,0.5086594613430278,0.2886152,0.5913812506603147
0.006500000000000001,1.79894375,1.0,783.5268494113643,0.07106305060133697,1.356303106934655,0.545438706187634,0.2886086375,0.5951788775150251
0.007,1.798775,1.0,873.8102379779147,0.07627365240042347,1.3547369665218403,0.5789916830557458,0.28860155,0.5987298615525598
0.0075,1.79859375,1.0,962.5921525975735,0.08145502670508675,1.353263333727926,0.6095247378892851,0.2885939375,0.6020568145517601
0.008,1.7984,1.0,1049.512736913216,0.08660733787470151,1.351874163167684,0.6372712852248177,0.2885858,0.6051803995377617
0.0085,1.79819375,1.0,1134.2470408902432,0.09173074850608402,1.3505630356664766,0.6624728178220772,0.2885771375,0.6081172130877062
0.009000000000000001,1.797975,1.0,1216.557960767347,0.09682542066260731,1.3493239479992587,0.6853658322674375,0.28856795,0.6108825872264388
0.0095,1.79774375,1.0,1296.286944114559,0.1018915160411074,1.3481512193957987,0.7061745257986722,0.2885582375,0.6134908432181709
0.01,1.7975,1.0,1373.2999947271703,0.10692919462502123,1.3470400101670656,0.7251072213533669,0.288548,0.6159541815792187
0.0105,1.79724375,1.0,1447.5100205202098,0.11193861559835083,1.3459858246718481,0.7423544579314468,0.2885372375,0.6182838301216236
0.011,1.796975,1.0,1518.877212100411,0.11691993748477145,1.3449843811240907,0.7580887141773454,0.28852595000000003,0.6204903596314673
0.0115,1.79669375,1.0,1587.399470783318,0.12187331875524754,1.3440316305542737,0.7724650587595195,0.2885141375,0.6225836644711982
0.012,1.7964,1.0,1653.063168173869,0.12679891526964593,1.343124246183816,0.7856224642461317,0.28850180000000003,0.6245719122474109
0.0125,1.79609375,1.0,1715.8922289401687,0.13169688273391672,1.3422589400914986,0.7976848175670286,0.2884889375,0.6264630673706759
0.013000000000000001,1.7957750000000001,1.0,1775.929028246495,0.13656737607217953,1.3414326341442042,0.8087624152996217,0.28847555,0.6282645291497131
0.0135,1.79544375,1.0,1833.2507831709543,0.1414105507308803,1.3406422244062135,0.8189532690823615,0.2884616375,0.6299836573711317
0.014,1.7951000000000001,1.0,1887.9067688377163,0.14622655919209654,1.339885237055469,0.8283446812178149,0.2884472,0.6316263572440932
0.0145,1.79474375,1.0,1939.9537016797208,0.15101555314854742,1.3391593746023236,0.8370142770634029,0.2884322375,0.6331980823321453
0.015,1.794375,1.0,1989.469189118716,0.15577768429295216,1.3384623395571298,0.845031059482213,0.28841675,0.6347042241757468
0.0155,1.79399375,1.0,2036.5322947660393,0.1605131033232576,1.3377920198490911,0.852456479185624,0.2884007375,0.6361497172393853
0.016,1.7936,1.0,2081.246374226138,0.16522196145087475,1.3371462234334597,0.8593452413917688,0.2883842,0.6375396174252415
0.0165,1.7931937500000001,1.0,2123.6831143221584,0.16990440675064347,1.33652324386938,0.8657462742629891,0.2883671375,0.6388778901008605
0.017,1.792775,1.0,2163.9168061586865,0.17456058670847008,1.3359214733031333,0.8717032942744077,0.28834955,0.6401682518298863
0.0175,1.7923437500000001,1.0,2202.0326189598436,0.17919064881026098,1.335339303881001,0.877255393160694,0.2883314375,0.6414143854356047
0.018000000000000002,1.7919,1.0,2238.1138967308143,0.18379473942356464,1.3347752459431548,0.8824376123123875,0.2883128,0.642619689743942
0.0185,1.79144375,1.0,2272.2577425554746,0.18837300593336412,1.3342277596300214,0.8872813718113678,0.2882936375,0.6437876425149767
0.019,1.790975,1.0,2304.5376149628623,0.19292559238731638,1.3336956191343299,0.8918149778210448,0.28827395,0.6449210260540696
0.0195,1.79049375,1.0,2335.0248484016656,0.19745264192877032,1.333177683714542,0.8960639218176067,0.2882537375,0.6460224205185353
0.02,1.79,1.0,2363.796542572761,0.20195429770107487,1.3326728126291199,0.9000511795659233,0.288233,0.647094386917827
0.0205,1.78949375,1.0,2390.931852374167,0.20643070228329244,1.3321798964323968,0.9037974999724143,0.2882117375,0.6481394018053641
0.021,1.788975,1.0,2416.5066820420766,0.21088199769049365,1.3316979029685403,0.9073216617954216,0.28818995000000003,0.6491597613720435
0.021500000000000002,1.78844375,1.0,2440.6002402578088,0.21530832669384745,1.331225808416819,0.9106406748514655,0.2881676375,0.6501577290772473
0.022,1.7879,1.0,2463.2708182914025,0.21970982766433744,1.3307628253439814,0.913770014656373,0.2881448,0.6511350553905193
0.0225,1.78734375,1.0,2484.5797270513935,0.22408663897294737,1.3303081663167768,0.9167237399233885,0.28812143749999997,0.6520934797973486
0.023,1.786775,1.0,2504.591046328703,0.2284388989906608,1.3298610439019543,0.9195146418838198,0.28809755,0.6530347312369675
0.0235,1.78619375,1.0,2523.3713877876244,0.23276674608846137,1.3294206706662621,0.9221543761054725,0.28807313749999996,0.653960528500606
0.024,1.7856,1.0,2540.9782208591682,0.2370703155733787,1.3289863670522362,0.9246535969975944,0.2880482,0.6548723542530974
0.0245,1.78499375,1.0,2557.478965683367,0.24134974812379337,1.3285573783780018,0.9270220306972207,0.2880227375,0.6557718402849955
0.025,1.784375,1.0,2572.9220850852153,0.24560517794602194,1.3281331450021976,0.9292686083668552,0.28799675,0.6566602013742564
0.025500000000000002,1.78374375,1.0,2587.353871512115,0.24983673804708237,1.3277131412200096,0.9314015192043041,0.2879702375,0.657538574846027
0.026000000000000002,1.7831000000000001,1.0,2600.821918679972,0.25404456143399257,1.3272968413266242,0.9334282774644481,0.2879432,0.6584080920204547
0.0265,1.78244375,1.0,2613.3750095394657,0.25822878111377046,1.3268837196172274,0.9353557871959546,0.2879156375,0.6592698783456821
0.027,1.781775,1.0,2625.06301037095,0.26238953009343396,1.3264732503870054,0.9371903999792052,0.28788755,0.6601250535132133
0.0275,1.7810937500000001,1.0,2635.927757020233,0.26652693894253515,1.3260649913063864,0.9389379780504203,0.2878589375,0.660974558177188
0.028,1.7804,1.0,2646.0127914803597,0.27064114022411373,1.325658491873324,0.9406039273882929,0.2878298,0.6618193452512504
0.0285,1.77969375,1.0,2655.3718687361106,0.27473226811448287,1.325253214399392,0.942193227635097,0.2878001375,0.6626605437591299
0.029,1.778975,1.0,2664.03592887749,0.27880044955875816,1.3248488379368593,0.9437105098994742,0.28776995,0.663498828096531
0.029500000000000002,1.7782437500000001,1.0,2672.0364336514485,0.2828458115020552,1.3244450415379956,0.9451600599173238,0.2877392375,0.6643348693284705
0.03,1.7775,1.0,2679.405321021661,0.2868684808894896,1.3240415042550702,0.9465458482256541,0.287708,0.6651693352044368
0.0305,1.77674375,1.0,2686.1749620126816,0.29086858466617693,1.3236379051403524,0.9478715573421372,0.2876762375,0.6660028901669779
0.031,1.775975,1.0,2692.3781198377037,0.2948462497772328,1.3232339232461114,0.9491406062800186,0.28764395,0.6668361953537212
0.0315,1.7751937500000001,1.0,2698.0479113097326,0.2988016031677728,1.322829237624617,0.950356172688512,0.2876111375,0.6676699085928209
0.032,1.7744,1.0,2703.2098299640566,0.3027347685191485,1.3224235998550231,0.9515212207225211,0.2875778,0.6685045352567855
0.0325,1.77359375,1.0,2707.89627289958,0.30664587335356913,1.3220167008495272,0.9526385045864251,0.2875439375,0.6693407027231701
0.033,1.772775,1.0,2712.138679348207,0.3105350434321677,1.3216082425466587,0.9537105923832669,0.28750955,0.6701790125192908
0.0335,1.7719437500000002,1.0,2715.957793465343,0.31440239953074367,1.3211980263361365,0.9547398902122393,0.2874746375,0.6710198593041155
0.034,1.7711000000000001,1.0,2719.3745247449087,0.3182480624250966,1.3207858536076795,0.9557286449825185,0.2874392,0.6718636356032921
0.0345,1.7702437500000001,1.0,2722.4099313396714,0.32207215289102603,1.3203715257510067,0.9566789568222569,0.2874032375,0.6727107317856251
0.035,1.7693750000000001,1.0,2725.085204255076,0.32587479170433153,1.319954844155837,0.9575927903817669,0.28736675,0.6735615360370345
0.035500000000000004,1.76849375,1.0,2727.421652418799,0.32965609964081255,1.3195356102118891,0.9584719851410037,0.2873297375,0.6744164343320015
0.036000000000000004,1.7676,1.0,2729.440688623801,0.33341619747626877,1.319113625308882,0.959318264819403,0.2872922,0.6752758104024952
0.0365,1.76669375,1.0,2731.159179540077,0.33715520207312,1.318688732970533,0.960133249362172,0.2872541375,0.6761399600689932
0.037,1.765775,1.0,2732.5974797645436,0.3408732362052375,1.3182607457021227,0.9609184574189281,0.28721555,0.6770092402587015
0.0375,1.76484375,1.0,2733.772384907039,0.3445704180400467,1.317829508943705,0.9616753176639447,0.2871764375,0.67788393891774
0.038,1.7639,1.0,2734.6975896889026,0.3482468624838492,1.3173948967893268,0.9624051751323097,0.28713679999999997,0.6787642840946831
0.0385,1.76294375,1.0,2735.386833783448,0.3519026844429467,1.316956783333034,0.9631092951074659,0.28709663750000003,0.6796505022295158
0.039,1.761975,1.0,2735.8538956552616,0.35553799882364107,1.316515042668873,0.963788868713879,0.28705595,0.6805428181260254
0.0395,1.7609937500000001,1.0,2736.11258675163,0.35915292053223397,1.3160695488908905,0.9644450180593995,0.2870147375,0.6814414549231793
0.04,1.76,1.0,2736.176746044908,0.3627475644750271,1.3156201760931328,0.9650788009680079,0.286973,0.6823466340654971
0.0405,1.7589937500000001,1.0,2736.060234926823,0.3663220455583222,1.315166798369646,0.9656912153395735,0.2869307375,0.6832585752724072
0.041,1.757975,1.0,2735.7755524368326,0.3698764740352572,1.3147093023439105,0.9662832034373415,0.28688795,0.6841774713590854
0.0415,1.75694375,1.0,2735.3322991143787,0.37341096820986824,1.3142476010819955,0.9668556589711537,0.2868446375,0.6851034605044996
0.042,1.7559,1.0,2734.739465446789,0.37692563927192757,1.3137816132920517,0.9674094258991587,0.28680079999999997,0.6860366682392772
0.0425,1.75484375,1.0,2734.005929247072,0.38042059649439025,1.3133112587863944,0.9679453021987792,0.2867564375,0.6869772165742506
0.043000000000000003,1.753775,1.0,2733.1405749306714,0.3838959491502112,1.3128364573773392,0.9684640430537582,0.28671155,0.687925226197692
0.043500000000000004,1.75269375,1.0,2732.152291314347,0.38735180651234546,1.312357128877202,0.9689663635755681,0.28666613750000003,0.6888808164527775
0.044,1.7516,1.0,2731.049969556639,0.39078827785374803,1.311873193098298,0.9694529413254732,0.2866202,0.6898441053146418
0.0445,1.75049375,1.0,2729.8425012417088,0.394205472447374,1.3113845698529434,0.9699244186536883,0.2865737375,0.6908152093670199
0.045,1.7493750000000001,1.0,2728.5387766051967,0.3976034995661783,1.3108911789534532,0.9703814048705667,0.28652675,0.691794243778482
0.0455,1.74824375,1.0,2727.1381422471454,0.4009824673506649,1.3103930269705657,0.9708244846486336,0.2864792375,0.6927811505358727
0.046,1.7471003692807918,1.0,2725.6837542285143,0.4043424823043038,1.3098898888090784,0.9712541957042871,0.2864312155097932,0.6937763291259471
0.0465,1.745953407704691,1.0,2724.57218996469,0.4076836501380699,1.3093820179626077,0.9716710839933161,0.286383043123597,0.6947792313819665
0.047,1.7448064461285904,1.0,2723.945782851528,0.4110060764053204,1.3088697345936233,0.9720756731979135,0.2863348707374008,0.6957891806507166
0.0475,1.7436594845524898,1.0,2723.769701398899,0.41430986635442296,1.3083533541170307,0.9724684608939422,0.28628669835120457,0.6968055134080902
0.048,1.7425125229763891,1.0,2724.004958578118,0.4175951250618133,1.3078332308689078,0.9728499231845714,0.2862385259650083,0.6978274935357454
0.0485,1.7413655614002885,1.0,2724.619239117629,0.4208619561053877,1.3073096593297802,0.9732205089010155,0.2861903535788121,0.69885450664099
0.049,1.7402185998241877,1.0,2725.5827844789515,0.4241104625449862,1.3067829113530933,0.9735806438862896,0.28614218119261586,0.6998859862937503
0.0495,1.739071638248087,1.0,2726.866409067697,0.4273407472726667,1.3062532540363763,0.9739307335731344,0.28609400880641966,0.7009213788014375
0.05,1.7379246766719865,1.0,2728.4424049751397,0.43055291291534303,1.305720941336135,0.9742711635680418,0.2860458364202234,0.7019601595298071
0.0505,1.7367777150958859,1.0,2730.2867970484185,0.4337470610502164,1.3051861934458087,0.9746022993144049,0.2859976640340272,0.7030018728637036
0.051000000000000004,1.7356307535197852,1.0,2732.3784615847576,0.4369232923025149,1.304649204737369,0.97492448775657,0.285949491647831,0.7040461162400786
0.051500000000000004,1.7344837919436846,1.0,2734.6966413289288,0.44008170709040306,1.3041101662791588,0.9752380599029583,0.28590131926163476,0.7050924960639746
0.052000000000000005,1.7333368303675838,1.0,2737.230267144812,0.4432224003870838,1.3035691811488421,0.9755433257271454,0.2858531468754385,0.7061407916346348
0.0525,1.7321898687914832,1.0,2739.9433802550575,0.44634548218287384,1.3030265782756274,0.975840597298969,0.2858049744892423,0.7071903471255263
0.053,1.7310429072153826,1.0,2742.8246398258048,0.449451048798364,1.302482462894785,0.9761301575559885,0.28575680210304605,0.7082409427331153
0.0535,1.729895945639282,1.0,2745.8626965807875,0.4525391965541451,1.3019369402415857,0.9764122771305886,0.28570862971684985,0.7092923600687153
0.054,1.7287489840631813,1.0,2749.046189394723,0.455610021770808,1.3013901155512997,0.9766872149925737,0.2856604573306536,0.7103443821682851
0.0545,1.7276020224870807,1.0,2752.3637421327603,0.45866362076894357,1.3008420940591976,0.9769552190530076,0.2856122849444574,0.7113967935015209
0.055,1.7264550609109799,1.0,2755.803960735042,0.4617000898691426,1.30029298100055,0.9772165267319365,0.28556411255826114,0.7124493799802403
0.0555,1.7253080993348793,1.0,2759.355430547592,0.464719525391996,1.2997428816106271,0.9774713654924403,0.28551594017206494,0.7135019289660638
0.056,1.7241611377587787,1.0,2763.006713897523,0.4677220236580946,1.2991919011247,0.977719953343268,0.2854677677858687,0.7145542292773845
0.0565,1.723014176182678,1.0,2766.7463479151634,0.4707076809880293,1.2986401447780387,0.9779624993121487,0.2854195953996725,0.715606071195638
0.057,1.7218672146065774,1.0,2770.56924464753,0.47367658727518436,1.2980876600466047,0.97819920000824,0.28537142301347623,0.7166573562753183
0.0575,1.7207202530304766,1.0,2774.4619939933377,0.476628844609365,1.2975345693383176,0.9784302494194341,0.28532325062728003,0.717707844542927
0.058,1.719573291454376,1.0,2778.418787376721,0.479564545101754,1.296980926258922,0.978655829010162,0.2852750782410838,0.7187574280560993
0.0585,1.7184263298782754,1.0,2782.434735543283,0.48248377973030504,1.2964267760046329,0.9788761124695576,0.2852269058548876,0.7198060155213624
0.059000000000000004,1.7172793683021748,1.0,2786.5049365585323,0.4853866394729717,1.2958721637716644,0.9790912666447642,0.2851787334686913,0.7208535162789331
0.059500000000000004,1.7161324067260741,1.0,2790.6244753227365,0.48827321530770773,1.2953171347562313,0.9793014518654356,0.2851305610824951,0.7218998403041132
0.06,1.7149854451499735,1.0,2794.7884231302337,0.49114359821246656,1.2947617341545488,0.9795068222504145,0.28508238869629887,0.7229448982085559
0.0605,1.713838483573873,1.0,2798.991837274831,0.493997879165202,1.2942060071628312,0.9797075259977008,0.2850342163101027,0.7239886012414035
0.061,1.712691521997772,1.0,2803.2297606997304,0.49683614914386753,1.2936499989772932,0.9799037056587352,0.2849860439239064,0.7250308612902925
0.0615,1.7115445604216715,1.0,2807.497221693406,0.49965849912641686,1.2930937547941497,0.9800954983979661,0.2849378715377102,0.7260715908822286
0.062,1.7103975988455709,1.0,2811.7945253182875,0.5024650046606763,1.292537272419253,0.9802830325880966,0.28488969915151396,0.727110791599183
0.0625,1.7092506372694702,1.0,2816.1127191068786,0.5052557732202172,1.291980632511768,0.9804664385367321,0.28484152676531777,0.7281483107079971
0.063,1.7081036756933696,1.0,2820.4478326137496,0.5080308966713105,1.2914238709370844,0.9806458382688996,0.2847933543791215,0.7291840798725943
0.0635,1.7069567141172688,1.0,2824.7982151002816,0.5107904596414674,1.2908670027249218,0.9808213477545974,0.2847451819929253,0.7302180699165188
0.064,1.7058097525411682,1.0,2829.1622107276066,0.5135345467581992,1.2903100429050003,0.9809930787602363,0.28469700960672906,0.7312502518765844
0.0645,1.7046627909650676,1.0,2833.538158524113,0.5162632426490171,1.289753006507039,0.9811611390323436,0.2846488372205328,0.7322805970029713
0.065,1.703515829388967,1.0,2837.9243923571894,0.5189766319414324,1.2891959085607583,0.9813256324719517,0.2846006648343366,0.7333090767593033
0.0655,1.7023688678128663,1.0,2842.3192409101753,0.5216747992629562,1.2886387640958772,0.9814866593002094,0.2845524924481404,0.7343356628227187
0.066,1.7012219062367655,1.0,2846.72102766429,0.5243578292410999,1.2880815881421162,0.9816443162157141,0.28450432006194415,0.7353603270839164
0.0665,1.7000749446606649,1.0,2851.128070886171,0.5270258065033746,1.2875243957291942,0.9817986965440408,0.2844561476757479,0.7363830416471995
0.067,1.6989279830845643,1.0,2855.5386836191815,0.5296788156772917,1.2869672018868317,0.9819498903798998,0.2844079752895517,0.7374037788304924
0.0675,1.6977810215084637,1.0,2859.9511736807303,0.5323169413903622,1.286410021644748,0.9820979847223439,0.2843598029033555,0.7384225111653537
0.068,1.696634059932363,1.0,2864.3638436644014,0.5349402682700976,1.2858528700326628,0.9822430636034057,0.28431163051715924,0.7394392113969694
0.0685,1.6954870983562624,1.0,2868.7749909468234,0.537548880944009,1.285295762080296,0.9823852082105294,0.284263458130963,0.7404538524841299
0.069,1.6943401367801616,1.0,2873.183012506619,0.5401428628447212,1.2847387118888398,0.9825244968843007,0.2842152857447668,0.7414664092853454
0.0695,1.693193175204061,1.0,2877.590173875898,0.5427222598663529,1.2841816992694706,0.9826610014229458,0.2841671133585706,0.7424769190061103
0.07,1.6920462136279604,1.0,2881.9913618306346,0.5452872070822276,1.2836247693668512,0.982794799781619,0.28411894097237433,0.7434853003877566
0.07050000000000001,1.6908992520518598,1.0,2886.3862487651177,0.5478377812884934,1.2830679248873291,0.9829259618218749,0.2840707685861781,0.7444915494259611
0.07100000000000001,1.6897522904757591,1.0,2890.7745061882856,0.5503740592812983,1.2825111685372514,0.9830545551306382,0.2840225961999819,0.7454956621547089
0.07150000000000001,1.6886053288996585,1.0,2895.1558047291373,0.5528961178567907,1.281954503022965,0.9831806451097328,0.2839744238137857,0.7464976346462779
0.07200000000000001,1.6874583673235577,1.0,2899.5298141419294,0.5554040338111185,1.2813979310508172,0.9833042950613113,0.2839262514275894,0.747497463011223
0.0725,1.686311405747457,1.0,2903.8962033118796,0.5578978839404297,1.2808414553271552,0.9834255662694067,0.28387807904139317,0.7484951433983593
