Time [s],Phi [rad],STIM [ ],Fsee [N],Gamma [ ],Lcerel [ ],q [ ],Lmtc [m],fisomrel [ ]
0.0,1.8,1.0,17.967124535687727,1.0262743534366026e-05,1.3793397499876194,0.005000028064943529,0.288653,0.5411395219366403
0.0005,1.79999375,1.0,18.276548057063874,0.005619414486453811,1.3793024095712338,0.012941244028631022,0.2886527375,0.5412298536143367
0.001,1.799975,1.0,21.618364863414754,0.01119710332301643,1.3789383038187843,0.0356099476744756,0.28865195,0.5421102101369346
0.0015,1.79994375,1.0,31.06954350440471,0.016743505736111344,1.3780461775310846,0.07060358268501557,0.2886506375,0.544263672366504
0.002,1.7999,1.0,53.58325617320737,0.022258797216976465,1.3763680753541714,0.11472006049221616,0.2886488,0.5483006117799643
0.0025,1.79984375,1.0,97.1204922290446,0.02774315227276304,1.3739350923482379,0.16457709316479568,0.28864643749999996,0.5541216412962846
0.003,1.7997750000000001,1.0,160.96038421897927,0.033196744434251475,1.371214260757236,0.21728272287729106,0.28864354999999997,0.5605866473547795
0.0035,1.79969375,1.0,237.6859430626844,0.03861974625544369,1.3685846537916597,0.2706151441364463,0.2886401375,0.5667900286648035
0.004,1.7996,1.0,321.4696371979542,0.044012329324345165,1.3661560164906748,0.3229179850783287,0.2886362,0.5724801389913289
0.0045000000000000005,1.7994937500000001,1.0,409.2708024276751,0.049374664268149446,1.3639227425331268,0.37303657999933926,0.2886317375,0.5776793286580596
0.005,1.799375,1.0,499.41667543192955,0.054706920744329174,1.36185827495782,0.4202493998709441,0.28862675,0.5824572348359397
0.0055,1.79924375,1.0,590.7936676147726,0.06000926748809119,1.3599387715316487,0.464175494024839,0.2886212375,0.5868752574881622
0.006,1.7991000000000001,1.0,682.5214044711624,0.06528187225555791,1.3581463548323622,0.5046816130562525,0.2886152,0.5909795552305219
0.006500000000000001,1.79894375,1.0,773.8847897405475,0.07052490187914864,1.3564671933258443,0.541802268344983,0.2886086375,0.5948059313851886
0.007,1.798775,1.0,864.288810943799,0.07573852225206205,1.3548903465409956,0.5756781616226586,0.28860155,0.5983827867729976
0.0075,1.79859375,1.0,953.2458071147115,0.0809228983368297,1.3534067393280849,0.6065111764063,0.2885939375,0.6017336626195506
0.008,1.7984,1.0,1040.3566820552705,0.08607819410468424,1.3520086724416345,0.6345332432558671,0.2885858,0.6048784901973154
0.0085,1.79819375,1.0,1125.3222370673182,0.0912045729112368,1.3506891281128683,0.6599854353119552,0.2885771375,0.6078352532635084
0.009000000000000001,1.797975,1.0,1207.8879047256416,0.09630219665385413,1.349442202785979,0.6831052558950654,0.28856795,0.6106190909186313
0.0095,1.79774375,1.0,1287.873615988772,0.10137122665710806,1.3482623697961722,0.7041184919006798,0.2885582375,0.6132440107906703
0.01,1.7975,1.0,1365.165593632453,0.10641182371272244,1.347144403988084,0.7232350415113542,0.288548,0.615723095598718
0.0105,1.79724375,1.0,1439.6631670297083,0.11142414682496371,1.3460839004816794,0.7406473709511601,0.2885372375,0.6180673910312087
0.011,1.796975,1.0,1511.3140825960188,0.1164083544762184,1.3450766529740603,0.7565298443711415,0.28852595000000003,0.620287320064477
0.0115,1.79669375,1.0,1580.1162288805522,0.1213646050878459,1.3441185402059912,0.7710392479970782,0.2885141375,0.622392953719699
0.012,1.7964,1.0,1646.067655506161,0.12629305522624631,1.3432060403630157,0.78431609731318,0.28850180000000003,0.6243929013339924
0.0125,1.79609375,1.0,1709.1793069720377,0.13119386028863123,1.3423359735435496,0.7964858165201166,0.2884889375,0.6262949018430808
0.013000000000000001,1.7957750000000001,1.0,1769.4945753640277,0.1360671753785924,1.341505207986036,0.8076600204195753,0.28847555,0.628106482520454
0.0135,1.79544375,1.0,1827.0788216543856,0.14091315533377718,1.3407107362479687,0.8179379566503955,0.2884616375,0.6298348029507881
0.014,1.7951000000000001,1.0,1881.9943562983287,0.1457319537830744,1.3399499069658134,0.8274079269114458,0.2884472,0.6314861631184145
0.0145,1.79474375,1.0,1934.2950861737784,0.15052372224358757,1.3392204292773664,0.8361485079717961,0.2884322375,0.6330660088038242
0.015,1.794375,1.0,1984.0559617749825,0.1552886122324201,1.338520012320424,0.8442295432741328,0.28841675,0.6345797234010843
0.0155,1.79399375,1.0,2031.3596294910456,0.16002677438346588,1.3378464866837037,0.851713204381522,0.2884007375,0.6360323706488459
0.016,1.7936,1.0,2076.302961879699,0.16473836014837898,1.3371977119743572,0.8586548676037957,0.2883842,0.6374288999976354
0.0165,1.7931937500000001,1.0,2118.9633907691637,0.16942351833928077,1.3365719070600437,0.8651040147088427,0.2883671375,0.6387734418940221
0.017,1.792775,1.0,2159.4114686408084,0.17408239609407694,1.3359674905529653,0.8711048792129872,0.28834955,0.6400696597306863
0.0175,1.7923437500000001,1.0,2197.7286285718988,0.17871514055067328,1.3353828810653239,0.8766970087732804,0.2883314375,0.641321183317356
0.018000000000000002,1.7919,1.0,2234.006264114747,0.18332189884697542,1.3348164972093213,0.8819158162651429,0.2883128,0.6425316109581651
0.0185,1.79144375,1.0,2268.323253619668,0.18790281610188017,1.3342669730780559,0.8867931172063079,0.2882936375,0.643704052006487
0.019,1.790975,1.0,2300.782797422124,0.19245803987709373,1.3337327779038533,0.8913574513085812,0.28827395,0.6448419418130655
0.0195,1.79049375,1.0,2331.4498235311817,0.19698771272385085,1.3332128306139717,0.8956346038719875,0.2882537375,0.6459477344203592
0.02,1.79,1.0,2360.393627869054,0.20149197705757682,1.332706062486101,0.8996478139177033,0.288233,0.6470238392378658
0.0205,1.78949375,1.0,2387.6886448040623,0.2059709752936969,1.332211404797931,0.9034180573024481,0.2882117375,0.6480726483488051
0.021,1.788975,1.0,2413.4140137669706,0.21042484984763635,1.3317277888271517,0.906964297928974,0.28818995000000003,0.6490965373719664
0.021500000000000002,1.78844375,1.0,2437.636069684412,0.21485374057911347,1.3312543103403296,0.910303741692649,0.2881676375,0.6500975187530377
0.022,1.7879,1.0,2460.443757865925,0.21925779102884133,1.3307898830547638,0.9134519579095518,0.2881448,0.6510779759841063
0.0225,1.78734375,1.0,2481.8923820737355,0.22363713875115065,1.3303337758588136,0.9164231572201091,0.28812143749999997,0.6520395297412598
0.023,1.786775,1.0,2502.0393673959056,0.22799192121151513,1.329885262870958,0.9192302677299956,0.28809755,0.6529837797849454
0.0235,1.78619375,1.0,2520.944582386008,0.23232227587540843,1.329443618209676,0.9218850676151911,0.28807313749999996,0.653912316393231
0.024,1.7856,1.0,2538.670131831191,0.2366283402083043,1.3290081159934457,0.9243983032947899,0.2880482,0.654826720696567
0.0245,1.78499375,1.0,2555.27200035966,0.24091024975725797,1.3285781070068656,0.9267798066462066,0.2880227375,0.6557284043232933
0.025,1.784375,1.0,2570.813251536801,0.24516814248361302,1.3281528921956034,0.9290385664227416,0.28799675,0.6566188754581017
0.025500000000000002,1.78374375,1.0,2585.348259093421,0.2494021538172217,1.3277318691880253,0.9311828338175184,0.2879702375,0.6574994321381475
0.026000000000000002,1.7831000000000001,1.0,2598.9199803861143,0.25361241592373357,1.3273145549706296,0.933220197143122,0.2879432,0.6583711164042689
0.0265,1.78244375,1.0,2611.572517562458,0.2577990609687981,1.3269004665299138,0.9351576274110698,0.2879156375,0.6592349648677447
0.027,1.781775,1.0,2623.351019974967,0.26196222111806494,1.3264891208523761,0.937001536829079,0.28788755,0.6600920088171
0.0275,1.7810937500000001,1.0,2634.3015917669386,0.26610202853718345,1.3260800349245148,0.9387578310427576,0.2878589375,0.6609432743100359
0.028,1.7804,1.0,2644.468442865775,0.2702186143958537,1.325672751236628,0.9404319592131495,0.2878298,0.6617897292792265
0.0285,1.77969375,1.0,2653.890104953306,0.2743121081492082,1.3252668716814284,0.9420289600725034,0.2878001375,0.6626322136051568
0.029,1.778975,1.0,2662.6184487442833,0.2783826444044078,1.3248618813755542,0.9435534764409731,0.28776995,0.6634718049398449
0.029500000000000002,1.7782437500000001,1.0,2670.6836038101123,0.2824303495819397,1.3244574713438482,0.9450098299823209,0.2877392375,0.6643091495189921
0.03,1.7775,1.0,2678.116169480936,0.28645535010229106,1.3240533326111532,0.9464020240471437,0.287708,0.6651448903813946
0.0305,1.77674375,1.0,2684.9471732572,0.29045777238594916,1.3236491562023123,0.9477337711583143,0.2876762375,0.6659796673773319
0.031,1.775975,1.0,2691.208031337509,0.2944377428534012,1.3232446331421683,0.9490085177985548,0.28764395,0.6668141171708706
0.0315,1.7751937500000001,1.0,2696.930511262966,0.29839538792513437,1.3228394544555642,0.9502294667941931,0.2876111375,0.6676488732360769
0.032,1.7744,1.0,2702.1466966785265,0.3023308340216359,1.3224333111673425,0.9513995975542184,0.2875778,0.6684845658471419
0.0325,1.77359375,1.0,2706.8832561157215,0.30624420308274547,1.3220259463117734,0.9525216892910682,0.2875439375,0.6693217152487463
0.033,1.772775,1.0,2711.173269250443,0.3101356247023365,1.3216170465849304,0.9535983279659087,0.28750955,0.6701609545471515
0.0335,1.7719437500000002,1.0,2715.038397789724,0.31400522045709367,1.321206404813199,0.9546319360179485,0.2874746375,0.6710026961319493
0.034,1.7711000000000001,1.0,2718.4993389798706,0.3178531110063634,1.3207938241534083,0.9556247763215735,0.2874392,0.6718473290339035
0.0345,1.7702437500000001,1.0,2721.576939802196,0.32167941700949204,1.3203791077623865,0.9565789637343677,0.2874032375,0.6726952401446975
0.035,1.7693750000000001,1.0,2724.2921812272066,0.32548425912582607,1.3199620587969625,0.9574964765096902,0.28736675,0.6735468141913556
0.035500000000000004,1.76849375,1.0,2726.666163328101,0.32926775801471186,1.319542480413965,0.9583791667027299,0.2873297375,0.6744024337081976
0.036000000000000004,1.7676,1.0,2728.7200912529215,0.33303003433549594,1.3191201757702227,0.9592287696692816,0.2872922,0.6752624790063207
0.0365,1.76669375,1.0,2730.4648362723997,0.3367711990820146,1.318695042772163,0.9600469201787248,0.2872541375,0.6761271355626568
0.037,1.765775,1.0,2731.9288322532866,0.34049138114183464,1.3182668203813281,0.9608351405560547,0.28721555,0.6769969102179829
0.0375,1.76484375,1.0,2733.134302451607,0.34419070390589224,1.3178353046764324,0.9615948650111213,0.2871764375,0.6778721910116052
0.038,1.7639,1.0,2734.093180484842,0.3478692809792903,1.3174003857205838,0.9623274486029152,0.28713679999999997,0.6787531732921703
0.0385,1.76294375,1.0,2734.817443013031,0.35152722596713193,1.3169619535768908,0.9630341659451408,0.28709663750000003,0.6796400509716866
0.039,1.761975,1.0,2735.3191044076393,0.35516465247452,1.3165198983084618,0.9637162168542501,0.28705595,0.6805330165012786
0.0395,1.7609937500000001,1.0,2735.6102116897873,0.35878167410655765,1.316074109978405,0.9643747315422609,0.2870147375,0.6814322608461707
0.04,1.76,1.0,2735.70283973483,0.36237840446834785,1.3156244786498288,0.9650107753955391,0.286973,0.6823379734598972
0.0405,1.7589937500000001,1.0,2735.609086746086,0.3659549571649936,1.3151708943858413,0.9656253533765972,0.2869307375,0.6832503422577451
0.041,1.757975,1.0,2735.3410699960154,0.36951144580159795,1.3147132472495509,0.96621941408232,0.28688795,0.684169553589423
0.0415,1.75694375,1.0,2734.9109218351946,0.3730479839832639,1.3142514273040662,0.966793853488743,0.2868446375,0.6850957922109605
0.042,1.7559,1.0,2734.3307859700126,0.3765646853150944,1.313785324612495,0.9673495184095985,0.28680079999999997,0.686029241255839
0.0425,1.75484375,1.0,2733.6106657037,0.3800616593666343,1.3133148487505248,0.9678872106479585,0.2867564375,0.6869700432156752
0.043000000000000003,1.753775,1.0,2732.7581238992534,0.3835390132330892,1.3128399315182018,0.9684076903794069,0.28671155,0.6879182947949197
0.043500000000000004,1.75269375,1.0,2731.7884666788814,0.38699687057560733,1.3123604344101327,0.9689116743412227,0.28666613750000003,0.6888742315532945
0.044,1.7516,1.0,2730.7077840005522,0.3904353373779329,1.3118763026503633,0.969399845463601,0.2866202,0.6898379204245504
0.0445,1.75049375,1.0,2729.5221680965024,0.3938545196238101,1.3113874814629385,0.9698728511576937,0.2865737375,0.6908094272581893
0.045,1.7493750000000001,1.0,2728.2377122784833,0.397254523296983,1.3108939160719033,0.9703313055079635,0.28652675,0.6917888168031772
0.0455,1.74824375,1.0,2726.8605098106445,0.40063545438119597,1.310395551701303,0.9707757913085734,0.2864792375,0.692776152691466
0.046,1.7471,1.0,2725.3966528485503,0.40399741886019314,1.3098923335751826,0.9712068619563129,0.2864312,0.6937714974213257
0.0465,1.7459437500000001,1.0,2723.852231444744,0.40734052271771864,1.3093842069175874,0.9716250432114509,0.28638263750000004,0.694774912340483
0.047,1.744775,1.0,2722.233332620851,0.4106648719375167,1.3088711169525622,0.9720308348369059,0.28633355,0.695786457629071
0.0475,1.74359375,1.0,2720.5460395065793,0.4139705725033316,1.3083530089041524,0.9724247121252124,0.28628393750000003,0.6968061922823843
0.048,1.7424,1.0,2718.796430544181,0.41725773039890734,1.307829827996403,0.9728071273219493,0.2862338,0.6978341740934471
0.0485,1.74119375,1.0,2716.99057876093,0.4205264516079883,1.3073015194533593,0.9731785109535521,0.2861831375,0.6988704596353847
0.049,1.739975,1.0,2715.1290281555503,0.42377681496711384,1.3067680788332616,0.9735392732412994,0.28613195,0.6999150057683348
0.0495,1.73874375,1.0,2713.224240419044,0.4270089583892226,1.306229393052452,0.9738898048081635,0.2860802375,0.700967980965328
0.05,1.7375,1.0,2711.2797299711583,0.43022298405661485,1.3056854304803167,0.974230479232118,0.286028,0.7020293928318351
0.0505,1.73624375,1.0,2709.298029283889,0.4334189896637372,1.3051361684083365,0.9745616529039498,0.2859752375,0.703099230641197
0.051000000000000004,1.734975,1.0,2707.2816680195697,0.43659707290503635,1.3045815841279915,0.9748836659082354,0.28592195,0.7041774828127654
0.051500000000000004,1.73369375,1.0,2705.233172862321,0.439757331474959,1.3040216549307626,0.9751968429108108,0.2858681375,0.7052641369042102
0.052000000000000005,1.7324,1.0,2703.1550673611387,0.44289986306795176,1.3034563581081298,0.9755014939903986,0.2858138,0.7063591796037962
0.0525,1.73109375,1.0,2701.0498717847295,0.44602476537846125,1.3028856709515735,0.9757979154183652,0.28575893750000003,0.7074625967226249
0.053,1.729775,1.0,2698.9201029871106,0.44913213610093433,1.3023095707525747,0.9760863903902618,0.28570355000000003,0.7085743731868432
0.0535,1.72844375,1.0,2696.7682742852444,0.4522220729298176,1.3017280348026135,0.9763671897125235,0.2856476375,0.7096944930298243
0.054,1.7271,1.0,2694.5968953480583,0.45529467355955766,1.3011410403931702,0.97664057244743,0.2855912,0.7108229393843081
0.0545,1.7257437500000001,1.0,2692.408472096331,0.4583500356846012,1.3005485648157258,0.9769067865192023,0.2855342375,0.7119596944745137
0.055,1.724375,1.0,2690.205506614638,0.46138825699939495,1.2999505853617601,0.9771660692838784,0.28547675,0.713104739608219
0.0555,1.72299375,1.0,2687.990497074501,0.46440943519838557,1.2993470793227542,0.9774186480654228,0.2854187375,0.7142580551688034
0.056,1.7216,1.0,2685.7659376689035,0.4674136679760197,1.298738023990188,0.977664740660328,0.2853602,0.7154196206072636
0.0565,1.72019375,1.0,2683.5343185583415,0.47040105302674406,1.2981233966555423,0.9779045558128089,0.28530113749999997,0.7165894144341907
0.057,1.718775,1.0,2681.2953517508195,0.4733716451392462,1.29750320005126,0.9781382912630597,0.28524155,0.7177673659415177
0.0575,1.71734375,1.0,2679.054276775584,0.47632559262952634,1.2968773862007603,0.9783661421579499,0.2851814375,0.7189534998807545
0.058,1.7159,1.0,2676.8121173817817,0.4792629865543188,1.2962459457424496,0.9785882928061043,0.2851208,0.7201477666810001
0.0585,1.71444375,1.0,2674.5697303258944,0.48218391546767625,1.2956088708324867,0.9788049199878819,0.2850596375,0.7213501131541524
0.059000000000000004,1.7129750000000001,1.0,2672.3279709336734,0.4850884679236512,1.2949661536270296,0.9790161934490077,0.28499795,0.722560485377792
0.059500000000000004,1.71149375,1.0,2670.0876930987943,0.48797673247629625,1.2943177862822368,0.9792222762337461,0.2849357375,0.7237788286923583
0.06,1.71,1.0,2667.849749283202,0.490848797679664,1.2936637609542667,0.9794233249997718,0.284873,0.7250050876983268
0.0605,1.7084937500000001,1.0,2665.614990518662,0.4937047520878072,1.2930040697992773,0.9796194903158788,0.2848097375,0.7262392062533809
0.061,1.7069750000000001,1.0,2663.3842664094414,0.4965446842547782,1.2923387049734274,0.9798109169435898,0.28474595,0.7274811274695772
0.0615,1.7054437500000001,1.0,2661.1584251368135,0.4993686827346298,1.2916676586328748,0.9799977441036469,0.2846816375,0.7287307937105127
0.062,1.7039,1.0,2658.9383134648288,0.5021768360814145,1.2909909229337782,0.9801801057283103,0.2846168,0.7299881465884821
0.0625,1.70234375,1.0,2656.7247767467657,0.504969232849185,1.2903084900322956,0.9803581307003156,0.2845514375,0.7312531269616342
0.063,1.7007750000000001,1.0,2654.518658934085,0.5077459615919938,1.289620352084586,0.9805319430792944,0.28448555,0.732525674931124
0.0635,1.69919375,1.0,2652.320802586031,0.5105071108638936,1.2889265012468067,0.9807016623164004,0.28441913750000003,0.7338057298382621
0.064,1.6976,1.0,2650.1320488802417,0.5132527692189369,1.2882269296751168,0.9808674034578405,0.2843522,0.735093230261656
0.0645,1.69599375,1.0,2647.953237626054,0.5159830252111763,1.2875216295256744,0.9810292773379583,0.2842847375,0.7363881140143522
0.065,1.694375,1.0,2645.785207277615,0.5186979673946646,1.2868105929546378,0.9811873907624814,0.28421675,0.7376903181409727
0.0655,1.69274375,1.0,2643.6287949493276,0.5213976843234541,1.2860938121181655,0.9813418466824982,0.2841482375,0.7389997789148464
0.066,1.6911,1.0,2641.4805226544063,0.5240822339218034,1.285371319030947,0.9814927442050795,0.2840792,0.7403163592938057
0.0665,1.6894437500000001,1.0,2639.339794612746,0.5267517087487751,1.2846431191182575,0.9816401800184664,0.2840096375,0.7416399704675686
0.067,1.687775,1.0,2637.2120107966243,0.5294062330356389,1.2839091623698793,0.9817842468377151,0.28393955,0.7429706234771477
0.0675,1.68609375,1.0,2635.097044776219,0.5320458857743772,1.2831694498202362,0.9819250335238088,0.2838689375,0.7443082356138544
0.068,1.6844000000000001,1.0,2632.994770382999,0.5346707459569721,1.2824239825037518,0.9820626258526176,0.2837978,0.7456527235545934
0.0685,1.68269375,1.0,2630.905061707264,0.5372808925754059,1.28167276145485,0.9821971066419439,0.2837261375,0.7470040033622423
0.069,1.680975,1.0,2628.827793095738,0.539876404621661,1.2809157877079544,0.9823285558724779,0.28365395,0.7483619904860315
0.0695,1.67924375,1.0,2626.7628391489648,0.5424573610877197,1.280153062297489,0.9824570508029971,0.28358123749999997,0.7497265997619236
0.07,1.6775,1.0,2624.710074718913,0.5450238409655641,1.2793845862578777,0.9825826660801196,0.283508,0.7510977454129928
0.07050000000000001,1.67574375,1.0,2622.6693749067117,0.5475759232471767,1.278610360623544,0.982705473842905,0.2834342375,0.7524753410498048
0.07100000000000001,1.673975,1.0,2620.640615059758,0.5501136869245397,1.2778303864289116,0.9828255438225741,0.28335995,0.7538592996707962
0.07150000000000001,1.67219375,1.0,2618.623670769945,0.5526372109896353,1.2770446647084044,0.9829429434376099,0.2832851375,0.7552495336626525
0.07200000000000001,1.6704,1.0,2616.6184178709163,0.5551465744344459,1.2762531964964463,0.9830577378844804,0.2832098,0.7566459548006883
0.0725,1.66859375,1.0,2614.624732435764,0.5576418562509536,1.275455982827461,0.9831699902242144,0.2831339375,0.7580484742492268
0.073,1.6667750000000001,1.0,2612.6424907749383,0.560123135431141,1.274653024735872,0.9832797614650407,0.28305755,0.7594570025619785
0.0735,1.66494375,1.0,2610.6715694336735,0.5625904909669901,1.2738443232561036,0.9833871106413021,0.2829806375,0.760871449682419
0.074,1.6631,1.0,2608.711845189817,0.5650440018504834,1.2730298794225792,0.9834920948888256,0.2829032,0.7622917249441705
0.0745,1.6612437500000001,1.0,2606.763195051686,0.567483747073603,1.2722096942697225,0.9835947695169374,0.2828252375,0.7637177370713781
0.075,1.659375,1.0,2604.8254962558835,0.5699098056283313,1.2713837688319576,0.9836951880772885,0.28274675,0.7651493941790899
0.0755,1.65749375,1.0,2602.8986262648123,0.5723222565066506,1.270552104143708,0.9837934024296504,0.2826677375,0.7665866037736357
