Time [s],Phi [rad],STIM [ ],Fsee [N],Gamma [ ],Lcerel [ ],q [ ],Lmtc [m],fisomrel [ ]
0.0,1.8,1.0,17.983566965705887,0.0001327954136448841,1.3793379083051034,0.005004604950311402,0.288653,0.5411439774321077
0.0005,1.79999375,1.0,18.333432372094933,0.0057412598452173825,1.3792960957062377,0.013284934511889765,0.2886527375,0.541245126855882
0.001,1.799975,1.0,21.766339070021214,0.0113182652256626,1.3789232161997858,0.036251327365486745,0.28865195,0.5421466716352373
0.0015,1.79994375,1.0,31.41293626864114,0.016863988016329202,1.378017002184312,0.07147968188846482,0.2886506375,0.544334011669598
0.002,1.7999,1.0,54.31611503862236,0.022378603686766974,1.3763206930944136,0.11575645936657088,0.2886488,0.5484143365718755
0.0025,1.79984375,1.0,98.3461568737914,0.027862286723063085,1.3738762161396605,0.1657038756383147,0.28864643749999996,0.5542620376437816
0.003,1.7997750000000001,1.0,162.5510631772471,0.033315210634463584,1.3711548669181257,0.21844471324252335,0.28864354999999997,0.5607272473309579
0.0035,1.79969375,1.0,239.480936967034,0.03873754795387023,1.3685294675299353,0.271770563781562,0.2886401375,0.566919743501602
0.004,1.7996,1.0,323.3779638137331,0.044129470248348,1.3661055472216552,0.3240365302232233,0.2886362,0.5725979856298864
0.0045000000000000005,1.7994937500000001,1.0,411.24597015218535,0.04949114812439391,1.3638764337958262,0.3740982227076068,0.2886317375,0.5777868014286724
0.005,1.799375,1.0,501.43137458491134,0.05482275121966645,1.3618155059942487,0.42124254376487663,0.28862675,0.5825559299174929
0.0055,1.79924375,1.0,592.8254595136016,0.060124448243765435,1.3598991094254655,0.4650949268177823,0.2886212375,0.5869662979424642
0.006,1.7991000000000001,1.0,684.5544567470307,0.06539640693756636,1.358109426921886,0.5055265300331919,0.2886152,0.5910638977987193
0.006500000000000001,1.79894375,1.0,775.9051270430988,0.07063879410154185,1.3564327274011172,0.5425747836601712,0.2886086375,0.5948842820070182
0.007,1.798775,1.0,866.2870022054796,0.07585177565063765,1.3548580880395273,0.5763821250308843,0.28860155,0.59845579513052
0.0075,1.79859375,1.0,955.2070781060638,0.0810355164017292,1.3533765884949849,0.6071514549673193,0.2885939375,0.6018016157641777
0.008,1.7984,1.0,1042.2845052596742,0.08619018056962058,1.3519803022415111,0.6351149424268414,0.2885858,0.6049421774042554
0.0085,1.79819375,1.0,1127.2013128039744,0.09131593122804679,1.3506625384991349,0.6605138818294485,0.2885771375,0.6078947196854043
0.009000000000000001,1.797975,1.0,1209.708580913842,0.09641293028430065,1.3494173346512754,0.6835855431377278,0.28856795,0.6106745097104547
0.0095,1.79774375,1.0,1289.637828548549,0.10148133904286534,1.3482390323671687,0.7045553226774249,0.2885582375,0.6132958429080932
0.01,1.7975,1.0,1366.8779547723154,0.10652131861258084,1.3471224024039352,0.7236327466805653,0.288548,0.6157718040475781
0.0105,1.79724375,1.0,1441.3189544335908,0.11153302764490762,1.3460631830132035,0.7410099605091626,0.2885372375,0.6181131165904656
0.011,1.796975,1.0,1512.9109069759102,0.11651662468029703,1.3450571521709775,0.7568609265541072,0.28852595000000003,0.6203302351264505
0.0115,1.79669375,1.0,1581.640776834868,0.12147226745680703,1.3441003314937225,0.7713421206902484,0.2885141375,0.6224329141132343
0.012,1.7964,1.0,1647.53229587839,0.126400113798533,1.3431889008702935,0.7845935760996372,0.28850180000000003,0.6244304155594383
0.0125,1.79609375,1.0,1710.5898810223764,0.13130031868616127,1.3423197741081725,0.796740447527105,0.2884889375,0.6263302686687812
0.013000000000000001,1.7957750000000001,1.0,1770.8485842197838,0.13617303685474294,1.341489925246591,0.8078941097297349,0.28847555,0.6281397670761406
0.0135,1.79544375,1.0,1828.3682261373292,0.1410184225538342,1.3406964136662158,0.8181535778582087,0.2884616375,0.6298659238360291
0.014,1.7951000000000001,1.0,1883.2233320795322,0.14583663004329386,1.339936456086963,0.8276068740143496,0.2884472,0.6315153246908043
0.0145,1.79474375,1.0,1935.4790551441872,0.1506278117664025,1.3392076472456054,0.8363323359434272,0.2884322375,0.6330936608740464
0.015,1.794375,1.0,1985.1959388548803,0.1553921183632161,1.3385078604209195,0.8443996899326277,0.28841675,0.6346059580141941
0.0155,1.79399375,1.0,2032.4529152363748,0.16012970047379077,1.337834968891682,0.851870963652532,0.2884007375,0.6360571868429729
0.016,1.7936,1.0,2077.33689840062,0.1648407079877102,1.3371869378536743,0.8588014236703303,0.2883842,0.6374520693267296
0.0165,1.7931937500000001,1.0,2119.943478621983,0.16952529122777124,1.3365617973093074,0.865240368507736,0.2883671375,0.6387951421936503
0.017,1.792775,1.0,2160.3547358911296,0.17418359852016574,1.335957852107077,0.871231893147688,0.28834955,0.6400903112487226
0.0175,1.7923437500000001,1.0,2198.640971666029,0.17881577606649773,1.335373640182375,0.8768154872187071,0.2883314375,0.6413409485676749
0.018000000000000002,1.7919,1.0,2234.8819904897023,0.18342197006837127,1.3348076994705935,0.8820265116583712,0.2883128,0.6425503966046198
0.0185,1.79144375,1.0,2269.166301015615,0.1880023267273903,1.3342585679071242,0.8868966808433018,0.2882936375,0.6437219699638983
0.019,1.790975,1.0,2301.5729638723133,0.19255699037978913,1.3337249556686541,0.8914545266735856,0.28827395,0.6448585904462846
0.0195,1.79049375,1.0,2332.200063015087,0.19708610778011118,1.3332054526025314,0.8957256937936535,0.2882537375,0.6459634131248156
0.02,1.79,1.0,2361.1144705277507,0.20158982093079003,1.3326990171374866,0.8997333779089948,0.288233,0.6470387882517551
0.0205,1.78949375,1.0,2388.3835484498827,0.2060682712671002,1.3322046518791582,0.903498525973217,0.2882117375,0.6480869555798704
0.021,1.788975,1.0,2414.079177399571,0.21052160022431624,1.3317213594331845,0.9070400759586312,0.28818995000000003,0.6491101393360971
0.021500000000000002,1.78844375,1.0,2438.2773758483163,0.21494994923771274,1.331248142405204,0.9103751771011898,0.2881676375,0.6501105489575946
0.022,1.7879,1.0,2461.044467426413,0.2193534575895172,1.3307841323814673,0.9135194087657172,0.2881448,0.6510901076678569
0.0225,1.78734375,1.0,2482.462105256044,0.22373226772360547,1.330328345420617,0.9164869016152764,0.28812143749999997,0.6520509700627474
0.023,1.786775,1.0,2502.588333807998,0.2280865172998851,1.3298800513767164,0.9192905580809185,0.28809755,0.652994743953109
0.0235,1.78619375,1.0,2521.476384477345,0.2324163426794428,1.329438588616392,0.9219421455026584,0.28807313749999996,0.6539228837067592
0.024,1.7856,1.0,2539.1816117220233,0.23672188022336527,1.3290032955062692,0.92445240046439,0.2880482,0.6548368352870362
0.0245,1.78499375,1.0,2555.7613148929677,0.24100326629273913,1.3285735104129743,0.9268311332786674,0.2880227375,0.6557380365270888
0.025,1.784375,1.0,2571.2745697710966,0.2452606372486511,1.3281485717031334,0.9290873206142022,0.28799675,0.6566279173762549
0.025500000000000002,1.78374375,1.0,2585.7722552233436,0.249494125726222,1.327727909399989,0.9312292012791353,0.2879702375,0.6575077085469152
0.026000000000000002,1.7831000000000001,1.0,2599.3182687825315,0.2537038709180835,1.327310844987455,0.9332643198517965,0.2879432,0.6583788608214227
0.0265,1.78244375,1.0,2611.9532247171724,0.2578900039621231,1.3268969289069432,0.935199640647754,0.2879156375,0.6592423401505387
0.027,1.781775,1.0,2623.7182204955056,0.2620526558025805,1.3264857163999735,0.9370415704608887,0.28788755,0.6600990975344263
0.0275,1.7810937500000001,1.0,2634.6552648175857,0.2661919573836956,1.3260767627080663,0.9387960100125856,0.2878589375,0.6609500791512355
0.028,1.7804,1.0,2644.8071974817253,0.2703080396497082,1.325669623072742,0.9404684006191831,0.2878298,0.6617962264274813
0.0285,1.77969375,1.0,2654.2176136367448,0.274401033544858,1.325263852735521,0.9420637659907093,0.2878001375,0.662638476095808
0.029,1.778975,1.0,2662.918372056097,0.2784710692993402,1.3248591212368743,0.9435867654971547,0.28776995,0.6634775234349675
0.029500000000000002,1.7782437500000001,1.0,2670.9691972990868,0.2825182762122168,1.3244548470476574,0.9450416758234567,0.2877392375,0.6643145798063816
0.03,1.7775,1.0,2678.4009359338725,0.2865427819335655,1.3240507195477131,0.946432495115534,0.287708,0.6651502906907187
0.0305,1.7767477484939447,1.0,2685.4117939650896,0.29054471299838636,1.3236467040362894,0.9477629667990422,0.28767640543674566,0.6659847288470871
0.031,1.7759952466111981,1.0,2692.41101570145,0.2945241959416791,1.3232427658126342,0.949036565412238,0.2876448003576703,0.6668179666766534
0.0315,1.7752427447284518,1.0,2699.4144617591783,0.29848135687426464,1.322838872239892,0.9502565193943516,0.28761319527859497,0.6676500719734524
0.032,1.7744902428457052,1.0,2706.409076918293,0.30241632174162786,1.3224351423164373,0.9514258499125675,0.2875815901995196,0.6684808003806721
0.0325,1.7737377409629589,1.0,2713.382157102679,0.306329215148066,1.3220316912258356,0.9525473685011372,0.2875499851204443,0.6693099166014925
0.033,1.7729852390802123,1.0,2720.32658237523,0.31022016002818353,1.3216285827204413,0.953623688481473,0.2875183800413689,0.6701372920192611
0.0335,1.7722327371974658,1.0,2727.2351977197786,0.3140892793165853,1.3212258805526078,0.9546572473994938,0.2874867749622936,0.6709627986709239
0.034,1.7714802353147194,1.0,2734.1025981200833,0.3179366932073858,1.3208236322674627,0.9556503184032868,0.28745516988321823,0.6717863424066068
0.0345,1.7707277334319729,1.0,2740.92460468315,0.3217625207959127,1.3204218740612967,0.9566050241634657,0.2874235648041429,0.6726078527520616
0.035,1.7699752315492265,1.0,2747.6884820978844,0.32556689628040936,1.3200207194808184,0.9575233621275526,0.2873919597250675,0.673427101731439
0.035500000000000004,1.76922272966648,1.0,2754.3928657862853,0.32934993665715645,1.3196201786458113,0.9584071867339969,0.2873603546459922,0.6742440733495526
0.036000000000000004,1.7684702277837334,1.0,2761.0363882002944,0.33311175892243466,1.319220261676058,0.9592582355004691,0.2873287495669168,0.6750587517074906
0.0365,1.767717725900987,1.0,2767.6176789614633,0.33685248007252466,1.3188209786913418,0.9600781377315178,0.28729714448784144,0.675871121002216
0.037,1.7669652240182405,1.0,2774.135365001374,0.3405722171037073,1.3184223398114463,0.9608684224838405,0.2872655394087661,0.6766811655261602
0.0375,1.7662127221354942,1.0,2780.5880707052843,0.34427108701226306,1.3180243551561541,0.9616305258600192,0.28723393432969074,0.6774888696668123
0.038,1.7654602202527476,1.0,2786.974418057981,0.34794920679447283,1.3176270348452483,0.9623657976941411,0.2872023292506154,0.6782942179062992
0.0385,1.7647077183700013,1.0,2793.293026791308,0.35160669344661716,1.3172303889985124,0.9630755076861205,0.28717072417154005,0.6790971948209583
0.039,1.7639552164872547,1.0,2799.542514534557,0.3552436639649768,1.3168344277357296,0.9637608510356942,0.2871391190924647,0.679897785080908
0.0395,1.7632027146045082,1.0,2805.721496967101,0.3588602353458325,1.3164391611766824,0.9644229536218671,0.28710751401338935,0.6806959734496099
0.04,1.7624502127217618,1.0,2811.83169601547,0.36245650495773896,1.3160445716068865,0.965062870642391,0.287075908934314,0.6814918008859043
0.0405,1.7616977108390153,1.0,2817.8710601442685,0.3660326129396297,1.3156506751737755,0.9656816083768935,0.28704430385523866,0.6822852399947055
0.041,1.760945208956269,1.0,2823.840288673781,0.3695886706381857,1.3152574634007044,0.966280109295424,0.2870126987761633,0.6830763130425814
0.0415,1.7601927070735224,1.0,2829.740367333701,0.373124786953879,1.3148649253180833,0.9668592630601874,0.2869810936970879,0.6838650472080288
0.042,1.7594402051907758,1.0,2835.5722900327874,0.37664107078718173,1.3144730499563217,0.9674199106422782,0.2869494886180126,0.6846514695509209
0.0425,1.7586877033080295,1.0,2841.3370586952437,0.38013763103856596,1.3140818263458303,0.9679628474868958,0.2869178835389372,0.685435607012971
0.043000000000000003,1.757935201425283,1.0,2847.035683102177,0.3836145766085037,1.3136912435170187,0.9684888264417774,0.28688627845986187,0.6862174864181967
0.043500000000000004,1.7571826995425366,1.0,2852.669180733478,0.38707201639746697,1.3133012905002968,0.9689985604687813,0.2868546733807865,0.6869971344733694
0.044,1.75643019765979,1.0,2858.2385766136117,0.39051005930592786,1.312911956326075,0.9694927251567015,0.28682306830171117,0.6877745777684585
0.0445,1.7556776957770435,1.0,2863.744903159775,0.3939288142343585,1.312523230024763,0.9699719610517185,0.2867914632226358,0.68854984277707
0.045,1.7549251938942971,1.0,2869.18920003285,0.39732839008323084,1.3121351006267707,0.9704368758204011,0.2867598581435605,0.6893229558568741
0.0455,1.7541726920115506,1.0,2874.5725139906317,0.4007088957530171,1.3117475571625086,0.9708880462588125,0.28672825306448513,0.690093943250027
0.046,1.7534201901288042,1.0,2879.8958987440874,0.4040704401441892,1.3113605886623865,0.9713260201600677,0.2866966479854098,0.6908628310835847
0.0465,1.7526676882460577,1.0,2885.1599677694453,0.40741311865975505,1.3109741881091654,0.9717513165289986,0.28666504290633443,0.6916296375313948
0.047,1.7519151863633113,1.0,2890.3649390428286,0.41073700014025244,1.3105883520237847,0.9721644256357553,0.2866334378272591,0.6923943736835129
0.0475,1.7511626844805648,1.0,2895.514860876599,0.4140422659979384,1.310203043154999,0.9725658260802419,0.28660183274818374,0.693157117402353
0.048,1.7504101825978182,1.0,2900.610783699702,0.4173290146277963,1.3098182508347704,0.972955964430061,0.28657022766910834,0.6939178936533268
0.0485,1.7496576807150719,1.0,2905.653763993873,0.4205973444248093,1.3094339643950605,0.9733352659462704,0.28653862259003304,0.6946767272919528
0.049,1.7489051788323253,1.0,2910.6448641717407,0.4238473537839606,1.3090501731678317,0.9737041357959622,0.28650701751095764,0.6954336430642005
0.0495,1.748152676949579,1.0,2915.585152459824,0.4270791411002335,1.3086668664850452,0.9740629601851338,0.28647541243188235,0.6961886656068346
0.05,1.7474001750668324,1.0,2920.475702781203,0.43029280476861126,1.3082840336786634,0.9744121074177655,0.28644380735280695,0.6969418194477446
0.0505,1.7466476731840859,1.0,2925.3175946434294,0.43348844318407714,1.3079016640806478,0.9747519288865367,0.2864122022737316,0.6976931290062753
0.051000000000000004,1.7458951713013395,1.0,2930.1119130269244,0.43666615474161435,1.3075197470229607,0.9750827600001675,0.28638059719465625,0.6984426185935404
0.051500000000000004,1.745142669418593,1.0,2934.859748276914,0.4398260378362062,1.3071382718375635,0.9754049210519676,0.2863489921155809,0.699190312412739
0.052000000000000005,1.7443901675358466,1.0,2939.5621959977248,0.4429681908628359,1.3067572278564186,0.9757187180338095,0.28631738703650556,0.6999362345594557
0.0525,1.7436376656531,1.0,2944.220356949389,0.4460927122164866,1.3063766044114873,0.9760244433993982,0.2862857819574302,0.7006804090219612
0.053,1.7428851637703535,1.0,2948.835336946991,0.44919970029214173,1.305996390834732,0.9763223767804172,0.28625417687835486,0.7014228596814984
0.0535,1.7421326618876072,1.0,2953.40824676259,0.4522892534847845,1.3056165764581142,0.9766127856588352,0.2862225717992795,0.702163610312569
0.054,1.7413801600048606,1.0,2957.9402020292,0.45536147018939804,1.305237150613596,0.9768959259984165,0.28619096672020417,0.7029026845832045
0.0545,1.7406276581221143,1.0,2962.432323147971,0.4584164488009657,1.3048581026331394,0.9771720428382309,0.2861593616411288,0.7036401060552369
0.055,1.7398751562393677,1.0,2966.8857351973807,0.4614542877144708,1.304479421848706,0.9774413708507577,0.28612775656205347,0.7043758981845593
0.0555,1.7391226543566214,1.0,2971.301567845086,0.4644750853248964,1.3041010975922576,0.9777041348669696,0.28609615148297807,0.7051100843213783
0.056,1.7383701524738748,1.0,2975.6809552626096,0.4674789400272259,1.3037231191957563,0.9779605503706124,0.2860645464039027,0.7058426877104604
0.0565,1.7376176505911283,1.0,2980.025036041861,0.47046595021644244,1.303345475991164,0.9782108239637264,0.28603294132482737,0.7065737314913716
0.057,1.736865148708382,1.0,2984.3343842445324,0.4734361996355371,1.3029681622555631,0.9784551527847772,0.286001336245752,0.7073032291437718
0.0575,1.7361126468256354,1.0,2988.6086824737945,0.47638975177932974,1.3025911800327004,0.9786937246872485,0.2859697311666767,0.708031179102098
0.058,1.735360144942889,1.0,2992.8511323438556,0.4793267621609599,1.3022145008200081,0.9789267262572516,0.28593812608760133,0.7087576386929635
0.0585,1.7346076430601425,1.0,2997.0623345896865,0.48224731823023287,1.3018381187624064,0.9791543320148887,0.285906521008526,0.7094826213710824
0.059000000000000004,1.733855141177396,1.0,3001.2428924389687,0.48515150743695395,1.3014620280048146,0.9793767096083201,0.28587491592945063,0.710206140533241
0.059500000000000004,1.7331026392946496,1.0,3005.3934115738302,0.48803941723092836,1.3010862226921527,0.9795940201382904,0.2858433108503753,0.7109282095184039
0.06,1.732350137411903,1.0,3009.5145000933057,0.49091113506196143,1.3007106969693405,0.9798064184648821,0.28581170577129994,0.7116488416078236
0.0605,1.7315976355291567,1.0,3013.6067684769387,0.4937667483798584,1.3003354449812978,0.9800140534976031,0.2857801006922246,0.7123680500251461
0.061,1.7308451336464101,1.0,3017.670829548452,0.49660634463442455,1.2999604608729443,0.9802170684698335,0.2857484956131492,0.7130858479365143
0.0615,1.7300926317636636,1.0,3021.707298441213,0.49943001127546516,1.2995857387891998,0.9804156011985885,0.2857168905340739,0.7138022484506675
0.062,1.7293401298809172,1.0,3025.716792562908,0.5022378357527855,1.2992112728749843,0.980609784330488,0.2856852854549985,0.7145172646190424
0.0625,1.7285876279981707,1.0,3029.6999315631133,0.5050299055161906,1.298837057275217,0.9807997455747672,0.28565368037592315,0.7152309094358695
0.063,1.7278351261154243,1.0,3033.65733729918,0.5078063080154862,1.2984630861348183,0.9809856079240975,0.2856220752968478,0.7159431958382654
0.0635,1.7270826242326778,1.0,3037.5896338051202,0.5105671307004772,1.2980893535987077,0.9811674898639459,0.28559047021777245,0.7166541367063285
0.064,1.7263301223499314,1.0,3041.4974472595604,0.5133124610209691,1.297715853811805,0.9813455055711482,0.2855588651386971,0.717363744863227
0.0645,1.7255776204671849,1.0,3045.381405955525,0.5160423864267669,1.29734258091903,0.9815197651023226,0.28552726005962176,0.7180720330752873
0.065,1.7248251185844383,1.0,3049.2421402706073,0.5187569943676761,1.2969695290653023,0.9816903745727196,0.2854956549805464,0.7187790140520809
0.0655,1.724072616701692,1.0,3053.0802826375802,0.5214563722935018,1.296596692395542,0.9818574363260534,0.28546404990147106,0.7194847004465057
0.066,1.7233201148189454,1.0,3056.896467516496,0.5241406076540494,1.2962240650546688,0.9820210490958395,0.2854324448223957,0.7201891048548703
0.0665,1.722567612936199,1.0,3060.6913313668238,0.5268097878991241,1.2958516411876022,0.9821813081587104,0.28540083974332037,0.7208922398169716
0.067,1.7218151110534525,1.0,3064.4655126206526,0.5294640004785313,1.2954794149392623,0.9823383054801722,0.285369234664245,0.7215941178161711
0.0675,1.721062609170706,1.0,3068.2192507574946,0.5321033153217929,1.2951073838915692,0.9824921288840761,0.2853376295851696,0.7222947448108228
0.068,1.7203101072879596,1.0,3071.9523486472435,0.5347277903488525,1.294735549375426,0.982642862617557,0.2853060245060943,0.7229941196886664
0.0685,1.719557605405213,1.0,3075.66654156703,0.5373375688986184,1.2943638961737938,0.9827905927010994,0.2852744194270189,0.7236922724151275
0.069,1.7188051035224667,1.0,3079.362130506906,0.5399327284329889,1.293992421382556,0.9829353986648565,0.28524281434794363,0.7243892097245588
0.0695,1.7180526016397202,1.0,3083.0394174851804,0.5425133464138622,1.2936211220975964,0.9830773573860033,0.2852112092688682,0.7250849383231773
0.07,1.7173000997569736,1.0,3086.698705538069,0.5450795003031367,1.2932499954147985,0.9832165431954085,0.2851796041897929,0.7257794648890966
0.07050000000000001,1.7165475978742273,1.0,3090.340298707582,0.5476312675627106,1.2928790384300461,0.9833530279793241,0.28514799911071753,0.7264727960723583
0.07100000000000001,1.7157950959914807,1.0,3093.9645020311305,0.5501687256544824,1.2925082482392232,0.9834868812763531,0.2851163940316422,0.727164938494965
