Time [s],Phi [rad],STIM [ ],Fsee [N],Gamma [ ],Lcerel [ ],q [ ],Lmtc [m],fisomrel [ ]
0.0,1.8,1.0,17.995137583249733,0.00016957750217384409,1.3793366128088567,0.00500749470671567,0.288653,0.5411471115519884
0.0005,1.79999375,1.0,18.356803347187263,0.005777835615322843,1.3792935044880728,0.013389467567645467,0.2886527375,0.5412513949399118
0.001,1.799975,1.0,21.81696628006422,0.011354635834621216,1.378918065972894,0.03644497110308196,0.28865195,0.5421591176000052
0.0015,1.79994375,1.0,31.522865353730456,0.016900154614940106,1.3780076961152568,0.07174345703323962,0.2886506375,0.5443564466761343
0.002,1.7999,1.0,54.543909211247126,0.022414567419329387,1.3763060304936352,0.11606802185020432,0.2886488,0.5484495261929953
0.0025,1.79984375,1.0,98.7216600022763,0.027898048727543947,1.3738582519231817,0.16604230494974306,0.28864643749999996,0.5543048707555576
0.003,1.7997750000000001,1.0,163.03495047287691,0.03335077204236857,1.3711368569126223,0.21879351822460028,0.28864354999999997,0.560769877044068
0.0035,1.79969375,1.0,240.02507130800316,0.0387729098903763,1.3685127792508223,0.2721172557213768,0.2886401375,0.5669589653342946
0.004,1.7996,1.0,323.95533001449456,0.04416463383234065,1.3660903070519372,0.32437205731664276,0.2886362,0.5726335685032472
0.0045000000000000005,1.7994937500000001,1.0,411.84280612481564,0.04952611446853746,1.3638624625846931,0.3744166110260186,0.2886317375,0.5778192229649324
0.005,1.799375,1.0,502.0395569216985,0.054857521430577864,1.361802612109007,0.4215403425108217,0.28862675,0.5825856819869243
0.0055,1.79924375,1.0,593.4384226776141,0.0601590234207553,1.3598871572733193,0.46537059145723486,0.2886212375,0.5869937309621465
0.006,1.7991000000000001,1.0,685.167138663684,0.06543078817529475,1.3580983090594132,0.5057798376276118,0.2886152,0.5910892890586383
0.006500000000000001,1.79894375,1.0,776.5132185113379,0.07067298249069098,1.3564223624582825,0.5428063789488901,0.2886086375,0.5949078429198236
0.007,1.798775,1.0,866.8854846784011,0.07588577226175836,1.3548484334697548,0.5765931902720234,0.28860155,0.5984776443369292
0.0075,1.79859375,1.0,955.7946997210086,0.08106932231718124,1.3533675609513165,0.6073434200181536,0.2885939375,0.6018219606738445
0.008,1.7984,1.0,1042.862330345307,0.08622379693813184,1.3519718039729647,0.6352893412173972,0.2885858,0.6049612538520948
0.0085,1.79819375,1.0,1127.7622771412596,0.0913493588955929,1.3506546049436274,0.6606723327445174,0.2885771375,0.6079124618361882
0.009000000000000001,1.797975,1.0,1210.2569458639407,0.09644617041599636,1.3494098483469579,0.6837295177050055,0.28856795,0.6106911922135074
0.0095,1.79774375,1.0,1290.181781104761,0.10151439312529456,1.3482318400516604,0.7046861841069375,0.2885582375,0.6133118162443711
0.01,1.7975,1.0,1367.3943000237325,0.10655418693866107,1.3471157707525594,0.7237519655529628,0.288548,0.6157864849963541
0.0105,1.79724375,1.0,1441.8078859403665,0.1115657112274348,1.346057067702505,0.7411187182363642,0.2885372375,0.618126613179668
0.011,1.796975,1.0,1513.3914826999976,0.11654912530084752,1.345051285279623,0.7569601835719841,0.28852595000000003,0.6203431458127557
0.0115,1.79669375,1.0,1582.116198651348,0.12150458640722195,1.3440946550030795,0.7714328342416068,0.2885141375,0.622445371168086
0.012,1.7964,1.0,1647.9787309576411,0.12643225094601443,1.3431836781194861,0.7846767387528053,0.28850180000000003,0.624441846531827
0.0125,1.79609375,1.0,1711.0073898641276,0.13133227484492924,1.3423149805984957,0.796816822995952,0.2884889375,0.6263407336028428
0.013000000000000001,1.7957750000000001,1.0,1771.2598949822277,0.13620481411637228,1.3414852839264944,0.8079642776470313,0.28847555,0.6281498751965611
0.0135,1.79544375,1.0,1828.7806773487494,0.14105002255634688,1.3406918332637638,0.8182181249830254,0.2884616375,0.6298758761077032
0.014,1.7951000000000001,1.0,1883.6174612667346,0.14586805277909282,1.3399321433562497,0.8276664296331558,0.2884472,0.6315246744681956
0.0145,1.79474375,1.0,1935.8420700272022,0.15065905739884977,1.3392037289498977,0.8363874306935285,0.2884322375,0.6331021373293506
0.015,1.794375,1.0,1985.529758911861,0.15542318792467152,1.3385043026346073,0.8444507416942346,0.28841675,0.6346136387049051
0.0155,1.79399375,1.0,2032.783472340924,0.16016059653627104,1.3378314870744539,0.8519182640405778,0.2884007375,0.6360646885875737
0.016,1.7936,1.0,2077.6681899367,0.16487143202134383,1.3371834862022014,0.8588453068618938,0.2883842,0.6374594918129142
0.0165,1.7931937500000001,1.0,2120.2582906807465,0.169555842895412,1.3365585504723982,0.8652811975313125,0.2883671375,0.6388021113007595
0.017,1.792775,1.0,2160.6407155738684,0.17421397767399766,1.3359549303395926,0.8712699765802447,0.28834955,0.6400965713664526
0.0175,1.7923437500000001,1.0,2198.8956067053773,0.17884598348310382,1.3353710613933645,0.8768510732448876,0.2883314375,0.6413464642215821
0.018000000000000002,1.7919,1.0,2235.1305625590903,0.18345200877927675,1.3348052025752897,0.8820597491193626,0.2883128,0.6425557280883905
0.0185,1.79144375,1.0,2269.415671821766,0.18803219809094582,1.3342560819828597,0.8869277515736044,0.2882936375,0.6437272693159048
0.019,1.790975,1.0,2301.823695720618,0.19258669557867686,1.3337224738349445,0.8914836102900907,0.28827395,0.6448638726322857
0.0195,1.79049375,1.0,2332.433990823659,0.1971156454030356,1.333203152350414,0.8957529947937751,0.2882537375,0.6459683012236825
0.02,1.79,1.0,2361.3259985586537,0.20161919086714628,1.3326969499157797,0.8997590521327735,0.288233,0.6470431744793915
0.0205,1.78949375,1.0,2388.583814037191,0.20609747573782328,1.3322027059251684,0.9035226788389217,0.2882117375,0.6480910783673344
0.021,1.788975,1.0,2414.2820991769213,0.21055064210753327,1.3317193981913227,0.9070627978484974,0.28818995000000003,0.6491142884680698
0.021500000000000002,1.78844375,1.0,2438.48239179541,0.21497882953560818,1.3312461707801033,0.9103965787811398,0.2881676375,0.6501147141056078
0.022,1.7879,1.0,2461.24970689102,0.21938217758137987,1.3307821677573708,0.9135395935926146,0.2881448,0.6510942522121639
0.0225,1.78734375,1.0,2482.6522463367164,0.22376082580418027,1.3303265331889862,0.9165059873347003,0.28812143749999997,0.6520547878550562
0.023,1.786775,1.0,2502.754083550654,0.22811491223589442,1.329878477979628,0.9193086407191537,0.28809755,0.6529980541002682
0.0235,1.78619375,1.0,2521.624883494336,0.23244457661995413,1.3294371842607282,0.9219592851886312,0.28807313749999996,0.6539258342677392
0.024,1.7856,1.0,2539.3271181851105,0.23674995697389756,1.3290019242565285,0.924468640865427,0.2880482,0.6548397124856553
0.0245,1.78499375,1.0,2555.9096511953358,0.24103118774969529,1.3285721170368021,0.9268465275574415,0.2880227375,0.6557409563327615
0.025,1.784375,1.0,2571.422998461527,0.24528840339931807,1.3281471816713226,0.9291019304035681,0.28799675,0.6566308264067857
0.025500000000000002,1.78374375,1.0,2585.919189083053,0.24952173837473654,1.3277265372298632,0.9312430822154434,0.2879702375,0.6575105765156986
0.026000000000000002,1.7831000000000001,1.0,2599.451633603149,0.2537313271279214,1.3273096027821976,0.933277536692339,0.2879432,0.6583814538474492
0.0265,1.78244375,1.0,2612.068004457357,0.2579173022838625,1.326895862396416,0.9352122431348474,0.2879156375,0.6592445636100238
0.027,1.781775,1.0,2623.8168459393946,0.2620797977812254,1.326484802047441,0.937053595007403,0.28788755,0.6601010013776891
0.0275,1.7810937500000001,1.0,2634.751604494218,0.26621894802547774,1.3260758714023464,0.9388074756504597,0.2878589375,0.6609519326823994
0.028,1.7804,1.0,2644.9075101267154,0.27033488180668896,1.3256686967934974,0.9404793343985866,0.2878298,0.6617981502832431
0.0285,1.77969375,1.0,2654.3204808370715,0.2744277279149286,1.3252629045532582,0.9420742022350342,0.2878001375,0.6626404429897259
0.029,1.778975,1.0,2663.0270628511325,0.27849761514026605,1.3248581210139936,0.9435967293535072,0.28776995,0.663479595699163
0.029500000000000002,1.7782437500000001,1.0,2671.0643739469,0.28254467227277097,1.3244539725080682,0.9450512188966047,0.2877392375,0.6643163894251713
0.03,1.7775,1.0,2678.4700498764632,0.2865690281025127,1.3240500853678465,0.9464416573017336,0.287708,0.6651516013172558
0.0305,1.77674375,1.0,2685.2775992665306,0.2905708098040453,1.3236461280314966,0.9477717465862627,0.2876762375,0.6659859177621814
0.031,1.775975,1.0,2691.518379028742,0.2945501448773531,1.3232417922827573,0.9490449267081883,0.28764395,0.6668199736027768
0.0315,1.7751937500000001,1.0,2697.230358235662,0.2985071620277684,1.3228367126282572,0.9502643877252095,0.2876111375,0.6676545184291457
0.032,1.7744,1.0,2702.4381075909323,0.302441984355363,1.3224306490510782,0.9514331109437092,0.2875778,0.668490040027106
0.0325,1.77359375,1.0,2707.1664487170956,0.30635473496020865,1.3220233615343029,0.9525538724401714,0.2875439375,0.6693270236803178
0.033,1.772775,1.0,2711.440429989497,0.3102455369423772,1.321614610061013,0.9536292596788991,0.28750955,0.670165952153388
0.0335,1.7719437500000002,1.0,2715.285303647122,0.3141145134019403,1.3212041546142912,0.9546616865943393,0.2874746375,0.6710073056712963
0.034,1.7711000000000001,1.0,2718.7265041805604,0.31796178743896975,1.3207917551772193,0.955653407296204,0.2874392,0.6718515618951499
0.0345,1.7702437500000001,1.0,2721.7862026457865,0.32178747943607217,1.3203772029121144,0.9566065312635663,0.2874032375,0.6726991321881693
0.035,1.7693750000000001,1.0,2724.4857229265085,0.32559171063611386,1.319960297926645,0.95752303296752,0.28736675,0.6735504073682801
0.035500000000000004,1.76849375,1.0,2726.8534630434183,0.32937460864986495,1.3195407770751113,0.9584047558213297,0.2873297375,0.6744059049305933
0.036000000000000004,1.7676,1.0,2728.9049340235506,0.3331362903351033,1.3191184954076536,0.9592534368409492,0.2872922,0.6752658988799598
0.0365,1.76669375,1.0,2730.655728109132,0.3368768725496068,1.3186933079744125,0.9600707049359832,0.2872541375,0.6761306615188976
0.037,1.765775,1.0,2732.1215097204567,0.3405964721511536,1.3182650698255283,0.9608580888546566,0.28721555,0.6770004634214019
0.0375,1.76484375,1.0,2733.3180068853776,0.34429520599752145,1.3178336360111418,0.9616170244596162,0.2871764375,0.6778755734054115
0.038,1.7639,1.0,2734.2610031340428,0.3479731909464885,1.317398861581393,0.9623488613977063,0.28713679999999997,0.6787562585039406
0.0385,1.76294375,1.0,2734.9663298600576,0.3516305438558326,1.3169606015864228,0.9630548692202929,0.28709663750000003,0.6796427839348628
0.039,1.761975,1.0,2735.449859146622,0.3552673815833317,1.3165187110763716,0.963736243004891,0.28705595,0.6805354130693635
0.0395,1.7609937500000001,1.0,2735.725644512738,0.35888381800719016,1.3160730619211582,0.964394109488247,0.2870147375,0.6814343734942081
0.04,1.76,1.0,2735.8050920767296,0.36247996403986726,1.3156235502776377,0.9650295324410917,0.286973,0.682339842187945
0.0405,1.7589937500000001,1.0,2735.7077099040202,0.36605594650038215,1.315169998948194,0.9656435117502854,0.2869307375,0.6832521421013884
0.041,1.757975,1.0,2735.4422544104905,0.3696118752125287,1.3147123285124775,0.9662369966611094,0.28688795,0.6841713975837195
0.0415,1.75694375,1.0,2735.0174963559116,0.37314786000010086,1.3142504595501385,0.9668108837872017,0.2868446375,0.6850977317363736
0.042,1.7559,1.0,2734.442218226821,0.37666401068689254,1.3137843126408275,0.9673660205684248,0.28680079999999997,0.6860312663919752
0.0425,1.75484375,1.0,2733.7252117592775,0.38016043709669756,1.3133138083641949,0.9679032084673583,0.2867564375,0.6869721220928717
0.043000000000000003,1.753775,1.0,2732.875275600772,0.3836372490533099,1.3128388672998905,0.9684232059266467,0.28671155,0.687920418069265
0.043500000000000004,1.75269375,1.0,2731.901213113141,0.3870945563805234,1.312359410027565,0.9689267311073221,0.28666613750000003,0.6888762722169373
0.044,1.7516,1.0,2730.8118303141796,0.390532468902132,1.3118753571268689,0.9694144644263681,0.2866202,0.6898398010745791
0.0445,1.75049375,1.0,2729.6159339599535,0.3939510964419296,1.3113866291774523,0.9698870509100891,0.2865737375,0.6908111198007136
0.045,1.7493750000000001,1.0,2728.3223297667305,0.39735054882371,1.3108931467589653,0.9703451023783426,0.28652675,0.6917903421502183
0.0455,1.74824375,1.0,2726.9375347492864,0.4007309336672837,1.3103948512398977,0.9707892007327104,0.2864792375,0.6927775392977097
0.046,1.7471016780732629,1.0,2725.549540143806,0.40409235873802335,1.3098917007007223,0.9712198997876564,0.286431270479077,0.6937727482041263
0.0465,1.7459581550966201,1.0,2724.597488208045,0.40743493068325903,1.3093839317872642,0.9716377460015141,0.28638324251405806,0.6947754552036143
0.047,1.7448146321199773,1.0,2724.11921415376,0.41075875374001247,1.308871853486702,0.9720432636379387,0.28633521454903904,0.6957850067719682
0.0475,1.7436711091433346,1.0,2724.0806335087354,0.41406393214530524,1.3083557747862138,0.9724369511978775,0.2862871865840201,0.6968007530484497
0.048,1.7425275861666918,1.0,2724.447774899474,0.41735057013615906,1.3078360046729782,0.9728192829349657,0.28623915861900107,0.6978220479176599
0.0485,1.741384063190049,1.0,2725.1867537049866,0.4206187719495957,1.3073128521341733,0.9731907102684318,0.28619113065398205,0.6988482490853309
0.049,1.7402405402134065,1.0,2726.263747825753,0.4238686418226367,1.3067866261569772,0.9735516631013125,0.28614310268896304,0.6998787181480202
0.0495,1.7390970172367637,1.0,2727.6544696035044,0.4271002808186581,1.3062575494021287,0.9739025448155305,0.2860950747239441,0.7009129892672281
0.05,1.737953494260121,1.0,2729.3233173960452,0.430313795434923,1.3057259476643637,0.9742437475222457,0.28604704675892506,0.7019503983569093
0.0505,1.7368099712834781,1.0,2731.2501297998065,0.43350928617483975,1.3051920064595444,0.9745756352112221,0.2859990187939061,0.7029905586517775
0.051000000000000004,1.7356664483068354,1.0,2733.4167648225653,0.4366868527711463,1.3046558930481402,0.9748985539532083,0.2859509908288871,0.7040331212724495
0.051500000000000004,1.7345229253301926,1.0,2735.805084331954,0.4398465949565809,1.3041177746906212,0.9752128341562479,0.28590296286386807,0.7050777395319661
0.052000000000000005,1.7333794023535498,1.0,2738.3969463100475,0.44298861246388155,1.3035778186474571,0.9755187914164984,0.28585493489884906,0.7061240689580728
0.0525,1.732235879376907,1.0,2741.174197728357,0.4461130050257863,1.3030361921791176,0.9758167273157441,0.2858069069338301,0.7071717673137147
0.053,1.7310923564002645,1.0,2744.118668042829,0.4492198723750333,1.3024930625460729,0.9761069301693774,0.28575887896881114,0.7082204946157451
0.0535,1.7299488334236217,1.0,2747.2176695797853,0.45230931110453776,1.301948547120508,0.9763896723295705,0.2857108510037921,0.7092700092213471
0.054,1.728805310446979,1.0,2750.4526433275446,0.45538142301557466,1.3014028162969073,0.976665218158646,0.2856628230387731,0.7103199691590967
0.0545,1.7276617874703362,1.0,2753.813212033246,0.4584363041243362,1.3008559661267438,0.9769338156473931,0.2856147950737541,0.7113701774424221
0.055,1.7265182644936934,1.0,2757.289957541965,0.46147404978251644,1.300308083833207,0.9771957016964458,0.28556676710873513,0.7124204553074855
0.0555,1.7253747415170506,1.0,2760.8734448703667,0.4644947553418093,1.2997592566394862,0.9774511032688412,0.2855187391437161,0.7134706251879549
0.056,1.7242312185404078,1.0,2764.554220295314,0.4674985161539086,1.2992095717687708,0.9777002378913362,0.28547071117869716,0.7145205107204999
0.0565,1.723087695563765,1.0,2768.3228096104635,0.47048542757050826,1.2986591164442505,0.9779433141264843,0.28542268321367814,0.7155699367498076
0.057,1.7219441725871225,1.0,2772.1697165523365,0.47345558494330237,1.2981079778891143,0.9781805320174083,0.2853746552486591,0.7166187293331103
0.0575,1.7208006496104797,1.0,2776.09344032029,0.4764090725757529,1.2975561710517618,0.9784120784312539,0.28532662728364017,0.7176668528986437
0.058,1.719657126633837,1.0,2780.0763873010037,0.47934600007157624,1.2970038558062034,0.9786381430943044,0.28527859931862115,0.7187139975645662
0.0585,1.7185136036571942,1.0,2784.1132005662357,0.48226645934858114,1.296451081457102,0.9788589004921958,0.28523057135360214,0.7197600647414372
0.059000000000000004,1.7173700806805514,1.0,2788.199966345887,0.4851705402051211,1.2958978842008102,0.9790745173314876,0.2851825433885832,0.720804981267487
0.059500000000000004,1.7162265577039086,1.0,2792.3327603272055,0.4880583324395499,1.2953443002336817,0.9792851538052555,0.28513451542356416,0.7218486744881278
0.06,1.7150830347272659,1.0,2796.507647330452,0.4909299258502208,1.2947903657520692,0.9794909638994173,0.28508648745854515,0.7228910722568918
0.0605,1.713939511750623,1.0,2800.7206810126763,0.49378541023548767,1.2942361169523262,0.9796920956823693,0.2850384594935262,0.7239321029362787
0.061,1.7127959887739803,1.0,2804.9679036010125,0.496624875393704,1.2936815900308056,0.9798886915789669,0.28499043152850717,0.7249716953985261
0.0615,1.7116524657973378,1.0,2809.24534565522,0.4994484111232233,1.2931268211838605,0.980080888629804,0.2849424035634882,0.7260097790262918
0.062,1.710508942820695,1.0,2813.5490258585382,0.5022561072223992,1.2925718466078442,0.9802688187366908,0.2848943755984692,0.7270462837132529
0.0625,1.7093654198440522,1.0,2817.8749508384976,0.5050480534895854,1.2920167024991098,0.9804526088951604,0.2848463476334502,0.728081139864625
0.063,1.7082218968674094,1.0,2822.219115016303,0.5078243397231352,1.2914614250540104,0.9806323814147835,0.28479831966843117,0.729114278397594
0.0635,1.7070783738907667,1.0,2826.5801399984657,0.5105850450075671,1.2909060268923238,0.9808082521441194,0.2847502917034122,0.7301456744825338
0.064,1.705934850914124,1.0,2830.9553127410745,0.5133302597607683,1.290350532507931,0.9809803341557751,0.2847022637383932,0.7311752814807428
0.0645,1.7047913279374811,1.0,2835.338813845945,0.5160600874600232,1.2897949940232605,0.9811487387571131,0.28465423577337423,0.7322030020378139
0.065,1.7036478049608383,1.0,2839.729507694683,0.5187746109390444,1.2892394216605587,0.9813135697310843,0.2846062078083552,0.7332288168286528
0.0655,1.7025042819841958,1.0,2844.12625513011,0.5214739130315449,1.2886838256420718,0.9814749271852257,0.2845581798433362,0.7342527066730162
0.066,1.701360759007553,1.0,2848.5279134492052,0.5241580765712373,1.2881282161900462,0.9816329077086535,0.28451015187831724,0.7352746525355293
0.0665,1.7002172360309102,1.0,2852.9333363989026,0.5268271843918343,1.2875726035267285,0.9817876045212772,0.2844621239132982,0.7362946355256984
0.067,1.6990737130542675,1.0,2857.3413741746426,0.5294813193270488,1.2870169978743646,0.9819391076156623,0.2844140959482792,0.7373126368979177
0.0675,1.6979301900776247,1.0,2861.7508734204994,0.5321205642105935,1.2864614094552014,0.9820875038919614,0.28436606798326025,0.7383286380514651
0.068,1.696786667100982,1.0,2866.1606772317255,0.5347450018761811,1.2859058484914847,0.9822328772862946,0.28431804001824124,0.739342620530498
0.0685,1.6956431441243391,1.0,2870.569625160289,0.5373547151575244,1.2853503252054612,0.982375308892939,0.2842700120532222,0.7403545660240355
0.069,1.6944996211476964,1.0,2874.9765532219503,0.5399497868883363,1.2847948498193773,0.9825148770806743,0.28422198408820326,0.7413644563659385
0.0695,1.6933560981710536,1.0,2879.3802939060274,0.5425302999023294,1.2842394325554791,0.9826516576035909,0.28417395612318425,0.7423722735348828
0.07,1.6922125751944108,1.0,2883.779676187309,0.5450963370332165,1.2836840836360133,0.9827857237066704,0.28412592815816523,0.7433779996543222
0.07050000000000001,1.6910690522177683,1.0,2888.173525540758,0.5476479811147104,1.283128813283226,0.982917146226414,0.28407790019314627,0.7443816169924496
0.07100000000000001,1.6899255292411255,1.0,2892.5606639575512,0.5501853149805237,1.2825736317193634,0.9830459936867812,0.28402987222812726,0.7453831079621478
0.07150000000000001,1.6887820062644827,1.0,2896.9421463903695,0.5527083886393657,1.2820185294346298,0.9831723295477737,0.28398184426310824,0.7463824906107426
0.07200000000000001,1.68763848328784,1.0,2901.3157061657216,0.5552173175930065,1.2814635262330665,0.9832962204178431,0.2839338162980893,0.7473797302310201
