Time [s],Phi [rad],STIM [ ],Fsee [N],Gamma [ ],Lcerel [ ],q [ ],Lmtc [m],fisomrel [ ]
0.0,1.8,1.0,17.968774784315595,1.8126874415082878e-05,1.3793395651086562,0.005000087163215677,0.288653,0.5411399692065548
0.0005,1.79999375,1.0,18.28069742466644,0.0056272345057817325,1.3793019486809468,0.012963088640470882,0.2886527375,0.5412309685166978
0.001,1.799975,1.0,21.628287520938443,0.011204879478219028,1.3789372904812411,0.035650928898914414,0.28865195,0.5421126590648453
0.0015,1.79994375,1.0,31.09190115596957,0.01675123827323464,1.3780442730879172,0.07065967090592126,0.2886506375,0.5442682639841463
0.002,1.7999,1.0,53.63048850331541,0.02226648638067422,1.3763650118637623,0.11478648354145053,0.2886488,0.548307965066295
0.0025,1.79984375,1.0,97.19935882471813,0.027750798306336717,1.3739312927568466,0.16464935784004134,0.28864643749999996,0.5541307024782957
0.003,1.7997750000000001,1.0,161.06275518468277,0.03320434757962156,1.3712104295500225,0.2173572793360105,0.28864354999999997,0.5605957174530861
0.0035,1.79969375,1.0,237.80146090302947,0.03862730675317536,1.3685810959883749,0.2706893034249234,0.2886401375,0.5667983918367615
0.004,1.7996,1.0,321.5924241920143,0.04401984741365991,1.3661527646571714,0.3229897951675297,0.2886362,0.5724877325698663
0.0045000000000000005,1.7994937500000001,1.0,409.39786127206725,0.049382140186940995,1.3639197602203115,0.3731047492749519,0.2886317375,0.5776862503864509
0.005,1.799375,1.0,499.54623576433215,0.054714354729186086,1.36185552199879,0.42031317937506374,0.28862675,0.5824635880069617
0.0055,1.79924375,1.0,590.9243433348307,0.0600166597740691,1.3599362185931592,0.4642345449729321,0.2886212375,0.586881117808857
0.006,1.7991000000000001,1.0,682.6521981661198,0.06528922307661567,1.3581439774707582,0.5047358812085362,0.2886152,0.5909849853361768
0.006500000000000001,1.79894375,1.0,774.0169324273285,0.07053221146844302,1.3564649376649136,0.5418518647276469,0.2886086375,0.5948110593608076
0.007,1.798775,1.0,864.4214420019088,0.07574579083989039,1.3548882042103185,0.5757233381620909,0.28860155,0.5983876355624211
0.0075,1.79859375,1.0,953.3777313597789,0.08093012615718723,1.3534047102698177,0.606552249975434,0.2885939375,0.6017382358389867
0.008,1.7984,1.0,1040.4799895851907,0.08608538113389128,1.3520068570389316,0.6345706136256921,0.2885858,0.6048825656810368
0.0085,1.79819375,1.0,1125.4314342219693,0.09121171922205401,1.3506875823256408,0.6600194728701007,0.2885771375,0.6078387104674647
0.009000000000000001,1.797975,1.0,1208.0189732530632,0.09630930360324018,1.3494404119298358,0.6831360005679441,0.28856795,0.6106230819843963
0.0095,1.79774375,1.0,1288.0183181447553,0.10137829429876455,1.3482604550396462,0.7041463309879745,0.2885582375,0.6132482635700848
0.01,1.7975,1.0,1365.2887723694528,0.10641885132994196,1.3471428208432012,0.7232605014812673,0.288548,0.6157266005644932
0.0105,1.79724375,1.0,1439.765553424295,0.1114311347097565,1.3460826190617916,0.7406706865232057,0.2885372375,0.6180702193346009
0.011,1.796975,1.0,1511.4205293161274,0.11641530346875038,1.3450753527007424,0.756551089237725,0.28852595000000003,0.6202901816277367
0.0115,1.79669375,1.0,1580.2167443610047,0.12137151499495392,1.3441173394108896,0.7710586887362867,0.2885141375,0.6223955890203144
0.012,1.7964,1.0,1646.1520921420897,0.12629992590038003,1.3432050520627998,0.7843339691828248,0.28850180000000003,0.6243950645362591
0.0125,1.79609375,1.0,1709.263219686924,0.13120069264993825,1.3423350096790012,0.79650220389018,0.2884889375,0.6262970062119839
0.013000000000000001,1.7957750000000001,1.0,1769.5830315469332,0.13607396990890336,1.341504209399911,0.8076750499924071,0.28847555,0.6281086574047887
0.0135,1.79544375,1.0,1827.1591795244765,0.14091991173320045,1.34070984349279,0.8179518171522254,0.2884616375,0.6298367428160668
0.014,1.7951000000000001,1.0,1882.063812340184,0.1457386717424344,1.3399491466671223,0.8274207432334773,0.2884472,0.6314878114805338
0.0145,1.79474375,1.0,1934.3600940151734,0.15053040239130075,1.3392197273565691,0.8361603567213853,0.2884322375,0.6330675273346138
0.015,1.794375,1.0,1984.1165082484902,0.15529525468296126,1.3385193668208515,0.8442405165261753,0.28841675,0.6345811169872762
0.0155,1.79399375,1.0,2031.4212095051023,0.16003337989578714,1.3378458378543916,0.8517233660369979,0.2884007375,0.6360337686366841
0.016,1.7936,1.0,2076.371181578734,0.16474492933108548,1.3371970010093137,0.8586642747313054,0.2883842,0.6374304289232299
0.0165,1.7931937500000001,1.0,2119.0301487814763,0.16943005060060554,1.3365712183671083,0.8651127603955111,0.2883671375,0.6387749201750008
0.017,1.792775,1.0,2159.47395339838,0.1740888913160966,1.335966852009266,0.8711130306401934,0.28834955,0.6400710279049233
0.0175,1.7923437500000001,1.0,2197.789543206852,0.17872159908930785,1.335382264017277,0.8767046106233539,0.2883314375,0.641322503133436
0.018000000000000002,1.7919,1.0,2234.0678422127885,0.1833283209386276,1.334815878525922,0.8819229099664712,0.2883128,0.6425329320373565
0.0185,1.79144375,1.0,2268.397688970317,0.18790920346441245,1.3342662308957756,0.8867997155790683,0.2882936375,0.6437056341923855
0.019,1.790975,1.0,2300.855982743411,0.19246439125003142,1.333732053350956,0.8913636296734049,0.28827395,0.6448434839481972
0.0195,1.79049375,1.0,2331.5150746002805,0.19699402762448687,1.333212188874231,0.8956404122089922,0.2882537375,0.6459490981685071
0.02,1.79,1.0,2360.4531747089495,0.20149825591678117,1.3327054804483671,0.8996532772018148,0.288233,0.647025074233486
0.0205,1.78949375,1.0,2387.7437618014756,0.20597721801927227,1.3322108691473562,0.9034231998753258,0.2882117375,0.648073783228183
0.021,1.788975,1.0,2413.4752205337068,0.21043105804129236,1.3317271971726847,0.9069691234496543,0.28818995000000003,0.6490977890814884
0.021500000000000002,1.78844375,1.0,2437.7162337768323,0.2148599166887859,1.3312535392961666,0.9103082495882244,0.2881676375,0.6500991476523055
0.022,1.7879,1.0,2460.525909356342,0.21926393269444394,1.3307890965660791,0.9134562038417697,0.2881448,0.6510796351817512
0.0225,1.78734375,1.0,2481.9664288723748,0.22364324479095765,1.3303330700306997,0.9164271790400491,0.28812143749999997,0.6520410167222349
0.023,1.786775,1.0,2502.102791541111,0.22799799171101806,1.329884660738305,0.9192340864926681,0.28809755,0.6529850465866499
0.0235,1.78619375,1.0,2520.999006447755,0.23232831156745262,1.32944310346207,0.9218886954502407,0.28807313749999996,0.6539133978994894
0.024,1.7856,1.0,2538.7130886387827,0.23663434115997825,1.3290077111245595,0.9244017579826829,0.2880482,0.6548275702186812
0.0245,1.78499375,1.0,2555.3212506350374,0.24091621993006554,1.3285776443325614,0.9267830726676,0.2880227375,0.6557293738675535
0.025,1.784375,1.0,2570.8679877553623,0.2451740813715281,1.328152379541318,0.9290416575042779,0.28799675,0.6566199483462081
0.025500000000000002,1.78374375,1.0,2585.3992232423875,0.24940805897817944,1.3277313932060713,0.931185774881861,0.2879702375,0.657500427000024
0.026000000000000002,1.7831000000000001,1.0,2598.9621900329876,0.25361828624383315,1.3273141617820636,0.9332230051505639,0.2879432,0.6583719371712535
0.0265,1.78244375,1.0,2611.6053186055174,0.2578048966623028,1.3269001617245368,0.9351603121326366,0.2879156375,0.6592356003331367
0.027,1.781775,1.0,2623.3780202022144,0.2619680236744332,1.326488870515126,0.93700410167767,0.28788755,0.660092530069379
0.0275,1.7810937500000001,1.0,2634.323806255444,0.26610779696652453,1.3260798293875051,0.9387602817291217,0.2878589375,0.6609437017430343
0.028,1.7804,1.0,2644.495998365309,0.27022435267947864,1.325672496773219,0.9404342906623956,0.2878298,0.6617902577981432
0.0285,1.77969375,1.0,2653.9285668695215,0.27431781887816886,1.3252665171332534,0.9420311730824079,0.2878001375,0.6626329490816423
0.029,1.778975,1.0,2662.6560935776974,0.27838832362746846,1.3248615349285946,0.9435555915937658,0.28776995,0.6634725227163186
0.029500000000000002,1.7782437500000001,1.0,2670.7137180077175,0.28243599499225075,1.3244571946202284,0.9450118606595337,0.2877392375,0.6643097221274594
0.03,1.7775,1.0,2678.1370864242617,0.28646096103738905,1.3240531406691405,0.9464039770544508,0.287708,0.6651452870614358
0.0305,1.77674375,1.0,2684.9623036805847,0.29046334982775673,1.323649017536317,0.9477356472921931,0.2876762375,0.6659799535962272
0.031,1.775975,1.0,2691.2140559871677,0.2944432841084338,1.3232445779921962,0.9490103244576684,0.28764395,0.6668142308630325
0.0315,1.7751937500000001,1.0,2696.9314528495333,0.2984008949548453,1.3228394458453747,0.9502312039743416,0.2876111375,0.6676488909638117
0.032,1.7744,1.0,2702.153755644557,0.3023363126064828,1.322433246680112,0.9514012583810536,0.2875778,0.6684846984544707
0.0325,1.77359375,1.0,2706.9024285612895,0.3062496585679499,1.3220257713152748,0.952523272838636,0.2875439375,0.6693220746454157
0.033,1.772775,1.0,2711.1991473435032,0.31014105434385,1.3216168105697295,0.9535998431799156,0.28750955,0.6701614386446262
0.0335,1.7719437500000002,1.0,2715.065779512555,0.31401062143878644,1.3212061552623424,0.9546333910555955,0.2874746375,0.6710032073392347
0.034,1.7711000000000001,1.0,2718.524365559616,0.3178584813573627,1.3207935962119808,0.9556261776968518,0.2874392,0.6718477953743133
0.0345,1.7702437500000001,1.0,2721.5971011087468,0.32168475560418236,1.3203789242375108,0.956580316435604,0.2874032375,0.6726956151288754
0.035,1.7693750000000001,1.0,2724.3063200494967,0.32548956568384874,1.319961930157799,0.9574977841076742,0.28736675,0.673547076689081
0.035500000000000004,1.76849375,1.0,2726.674478640118,0.3292730331009653,1.3195424047917121,0.9583804314501888,0.2873297375,0.674402587818653
0.036000000000000004,1.7676,1.0,2728.7241405807717,0.3330352793601355,1.3191201389581166,0.9592299925924056,0.2872922,0.6752625539265062
0.0365,1.76669375,1.0,2730.470744520077,0.33677641762929333,1.3186949890779427,0.9600480985016322,0.2872541375,0.6761272446958226
0.037,1.765775,1.0,2731.9405919952446,0.34049657658860627,1.3182667135373594,0.9608362735117547,0.28721555,0.6769971270858688
0.0375,1.76484375,1.0,2733.147609915836,0.34419587206565405,1.3178351837972067,0.9615959576027953,0.2871764375,0.6778724360350634
0.038,1.7639,1.0,2734.104780303334,0.34787441872866126,1.3174002803713323,0.9623285048865561,0.28713679999999997,0.6787533865440041
0.0385,1.76294375,1.0,2734.8251299460135,0.3515323312458525,1.316961883773584,0.9630351890852998,0.28709663750000003,0.6796401920749398
0.039,1.761975,1.0,2735.321724539152,0.35516972428545235,1.3165198745178086,0.9637172091759819,0.28705595,0.680533064525608
0.0395,1.7609937500000001,1.0,2735.6076631427363,0.3587867125156854,1.3160741331178545,0.9643756945795169,0.2870147375,0.6814322142021583
0.04,1.76,1.0,2735.696072954984,0.3623834106047762,1.3156245400875686,0.9650117099362429,0.286973,0.6823378497911697
0.0405,1.7589937500000001,1.0,2735.600104402773,0.36595993322094933,1.315170975940799,0.9656262595046261,0.2869307375,0.6832501783307535
0.041,1.757975,1.0,2735.33292654841,0.3695163950324294,1.3147133211913928,0.9662202912165941,0.28688795,0.6841694051807501
0.0415,1.75694375,1.0,2734.8991882735545,0.3730528938114147,1.3142515338522645,0.9667947041326301,0.2868446375,0.6850955786718721
0.042,1.7559,1.0,2734.32025575032,0.3765695631393953,1.3137854202437163,0.9673503413103348,0.28680079999999997,0.6860290498803393
0.0425,1.75484375,1.0,2733.605979299215,0.3800665159503738,1.3133148913161488,0.9678880052297497,0.2867564375,0.68696995816183
0.043000000000000003,1.753775,1.0,2732.763210701888,0.38354385925224377,1.312839885308681,0.9684084565468049,0.28671155,0.6879183869899598
0.043500000000000004,1.75269375,1.0,2731.79880695096,0.3870017000528989,1.312360340460432,0.9689124155172264,0.28666613750000003,0.6888744187099585
0.044,1.7516,1.0,2730.7196286921926,0.3904401453602329,1.311876195010521,0.969400564541805,0.2866202,0.6898381345209166
0.0445,1.75049375,1.0,2729.5325387524435,0.39385930218213955,1.311387387198067,0.9698735505269479,0.2865737375,0.6908096144577841
0.045,1.7493750000000001,1.0,2728.2444007511463,0.39725927752651236,1.3108938552621892,0.9703319870756144,0.28652675,0.6917889373731281
0.0455,1.74824375,1.0,2726.8620777968504,0.4006401784012451,1.3103955374420067,0.9707764565223579,0.2864792375,0.6927761809186475
0.046,1.7471,1.0,2725.3924312687586,0.4040021118142315,1.3098923719766382,0.9712075118249779,0.2864312,0.6937714215264441
0.0465,1.7459437500000001,1.0,2723.842319681852,0.4073451847733651,1.3093842971052032,0.971625678324167,0.28638263750000004,0.694774734390049
0.047,1.744775,1.0,2722.2185976371143,0.41066950428653975,1.3088712510668208,0.9720314553815358,0.28633355,0.6957861934452072
0.0475,1.74359375,1.0,2720.5281148570084,0.41397517736164896,1.3083531721006099,0.972425317905501,0.28628393750000003,0.6968058713504199
0.048,1.7424,1.0,2718.7777937613896,0.417262310994122,1.3078299977311354,0.9728077177216913,0.2862338,0.6978338408700548
0.0485,1.74119375,1.0,2716.9772628099718,0.42053100852118247,1.3073016407687863,0.9731790827807615,0.2861831375,0.6988702218775887
0.049,1.739975,1.0,2715.1249578777,0.4237813716154075,1.306768115928346,0.9735398275019214,0.28613195,0.6999149331944289
0.0495,1.73874375,1.0,2713.2242162237635,0.42701350255823267,1.3062293932730367,0.973890343818832,0.2860802375,0.7009679805345276
0.05,1.7375,1.0,2711.2783718999967,0.4302275036310934,1.3056854428660805,0.9742310053789287,0.286028,0.7020293686854855
0.0505,1.73624375,1.0,2709.292488659013,0.43342347664228026,1.3051362189579634,0.9745621674565526,0.2859752375,0.7030991322705289
0.051000000000000004,1.734975,1.0,2707.2713136718266,0.4366015231718172,1.3045816786306048,0.9748841692183233,0.28592195,0.7041772992428666
0.051500000000000004,1.73369375,1.0,2705.2171868362266,0.4397617432417755,1.304021800888185,0.9751973356894403,0.2858681375,0.7052638539053087
0.052000000000000005,1.7324,1.0,2703.132466131553,0.4429042367697173,1.3034565645438623,0.9755019772600833,0.2858138,0.7063587800868518
0.0525,1.7310974773919718,1.0,2701.2075927385304,0.4460291018876234,1.3028859131566561,0.9757983880753333,0.28575909405046285,0.7074621288624316
0.053,1.7297946306193748,1.0,2699.8143208230968,0.44913644064619374,1.3023102628506082,0.9760868792379954,0.2857043744860137,0.7085730388239674
0.0535,1.7284917838467777,1.0,2698.927732261907,0.4522263508730594,1.3017299840412158,0.9763677449574932,0.2856496549215647,0.7096907421252796
0.054,1.7271889370741806,1.0,2698.5129772449727,0.4552989291179297,1.30114539303196,0.9766412632498014,0.28559493535711555,0.7108145798967676
0.0545,1.7258860903015836,1.0,2698.5353465524618,0.45835427193051387,1.3005568061263226,0.976907700196117,0.28554021579266653,0.7119438976120667
0.055,1.7245832435289865,1.0,2698.960242421977,0.46139247586052123,1.299964539627785,0.9771673105644288,0.28548549622821745,0.7130780451718463
0.0555,1.7232803967563894,1.0,2699.753151635266,0.46441363745766107,1.2993689098398284,0.9774203383938325,0.28543077666376837,0.7142163769812266
0.056,1.7219775499837924,1.0,2700.8810486464913,0.46741785286285203,1.2987702200189721,0.9776670167415561,0.2853760570993193,0.7153582768807876
0.0565,1.7206747032111953,1.0,2702.315742765708,0.4704052175012795,1.2981687296093904,0.9779075664295188,0.2853213375348702,0.7165032164640377
0.057,1.719371856438598,1.0,2704.0323010918673,0.4733758259768692,1.2975646685358382,0.9781421974727528,0.28526661797042113,0.7176507271656785
0.0575,1.7180690096660012,1.0,2706.00985220055,0.4763297715098492,1.2969582297802797,0.9783711091472932,0.28521189840597205,0.7188004137938857
0.058,1.716766162893404,1.0,2708.2275334849023,0.47926714732044734,1.296349606324679,0.9785944927225667,0.285157178841523,0.7199518840280859
0.0585,1.7154633161208068,1.0,2710.6644813947114,0.48218804662889164,1.2957389911510004,0.9788125318520996,0.2851024592770739,0.7211047484470297
0.059000000000000004,1.7141604693482098,1.0,2713.309816705932,0.48509255721541494,1.2951264861269578,0.9790253974503889,0.2850477397126248,0.7222587920483245
0.059500000000000004,1.7128576225756127,1.0,2716.1310905006976,0.48798077980529375,1.2945123896880324,0.979233265580615,0.28499302014817574,0.723413432143637
0.06,1.7115547758030156,1.0,2719.1149693554685,0.49085280482283217,1.293896825739882,0.9794362951723385,0.28493830058372666,0.7245684177934357
0.0605,1.7102519290304188,1.0,2722.250731451746,0.4937087212307649,1.2932798942842354,0.9796346376445048,0.2848835810192776,0.7257235446703689
0.061,1.7089490822578215,1.0,2725.527642718819,0.4965486179918267,1.292661695322822,0.9798284386454417,0.2848288614548285,0.7268786099833281
0.0615,1.7076462354852244,1.0,2728.9349539128634,0.49937258406875207,1.2920423288573706,0.980017838319454,0.2847741418903794,0.7280334124858527
0.062,1.7063433887126274,1.0,2732.461897917077,0.5021807084242759,1.2914218948896106,0.9802029715591808,0.28471942232593034,0.7291877524838928
0.0625,1.7050405419400303,1.0,2736.0976872643587,0.5049730800211326,1.2908004934212707,0.9803839682445742,0.28466470276148126,0.7303414318429385
0.063,1.7037376951674332,1.0,2739.8315118810847,0.507749787822057,1.29017822445408,0.9805609534693056,0.2846099831970322,0.7314942539945075
0.0635,1.7024348483948362,1.0,2743.652537052838,0.5105109207897838,1.289555187989768,0.9807340477553446,0.2845552636325831,0.7326460239419965
0.064,1.701132001622239,1.0,2747.554112508476,0.5132565634340751,1.2889314458805523,0.9809033650025535,0.284500544068134,0.7337966185630531
0.0645,1.699829154849642,1.0,2751.525876123538,0.515986807292554,1.2883070934388858,0.9810690171989683,0.28444582450368494,0.7349458541862932
0.065,1.698526308077045,1.0,2755.5602542620204,0.5187017400267585,1.2876822005009179,0.9812311107928752,0.2843911049392359,0.736093595392059
0.0655,1.697223461304448,1.0,2759.6526323935577,0.521401445623232,1.2870568099677429,0.9813897468774279,0.2843363853747868,0.7372397571783902
0.066,1.6959206145318508,1.0,2763.7983836532812,0.5240860080685178,1.2864309647404555,0.9815450229948052,0.28428166581033776,0.7383842552227422
0.0665,1.6946177677592538,1.0,2767.992868388122,0.5267555113491591,1.28580470772015,0.9816970332874747,0.2842269462458886,0.7395270058832897
0.067,1.6933149209866567,1.0,2772.231433745413,0.5294100394516991,1.2851780818079206,0.9818458686419913,0.2841722266814396,0.7406679262001115
0.0675,1.6920120742140596,1.0,2776.5094133008756,0.5320496763626812,1.284551129904862,0.9819916168257458,0.2841175071169905,0.7418069338962576
0.068,1.6907092274414626,1.0,2780.8221267288645,0.5346745060686485,1.2839238949120686,0.982134362617058,0.28406278755254144,0.742943947378701
0.0685,1.6894063806688655,1.0,2785.164879512235,0.5372846125561445,1.2832964197306345,0.9822741879289838,0.28400806798809236,0.7440788857391716
0.069,1.6881035338962684,1.0,2789.535775468905,0.5398800713187388,1.2826687219712043,0.9824111702005822,0.2839533484236433,0.7452117143468304
0.0695,1.6868006871236714,1.0,2793.9308655161053,0.5424609671510177,1.2820408376360524,0.9825453857373025,0.2838986288591942,0.7463423657702614
0.07,1.6854978403510743,1.0,2798.34289347196,0.5450273959455342,1.2814128323048084,0.9826769103779605,0.2838439092947451,0.7474707200707456
0.07050000000000001,1.6841949935784772,1.0,2802.7702907737034,0.5475794357412312,1.2807847203335576,0.9828058140208583,0.28378918973029604,0.7485967500867534
0.07100000000000001,1.6828921468058802,1.0,2807.2114838831194,0.5501171645770514,1.2801565160783852,0.9829321642882385,0.28373447016584696,0.7497204288865482
0.07150000000000001,1.681589300033283,1.0,2811.6648942549805,0.5526406604919373,1.279528233895376,0.9830560266161505,0.2836797506013979,0.750841729768278
0.07200000000000001,1.680286453260686,1.0,2816.128938309829,0.5551500015248318,1.2788998881406153,0.9831774643401969,0.2836250310369488,0.751960626260052
0.0725,1.678983606488089,1.0,2820.602027411521,0.5576452657146774,1.2782714931701884,0.9832965387773759,0.2835703114724997,0.7530770921200057
0.073,1.677680759715492,1.0,2825.082567849378,0.5601265311004171,1.2776430633401799,0.9834133093042207,0.28351559190805065,0.7541911013363549
