Time [s],Phi [rad],STIM [ ],Fsee [N],Gamma [ ],Lcerel [ ],q [ ],Lmtc [m],fisomrel [ ]
0.0,1.8,1.0,17.968326638447575,2.3744472376631844e-05,1.3793396153140352,0.005000149240709623,0.288653,0.5411398477468108
0.0005,1.79999375,1.0,18.282188287223004,0.0056328205934634105,1.3793017830964203,0.01297871406977737,0.2886527375,0.5412313690684827
0.001,1.799975,1.0,21.633994320206437,0.011210434232365214,1.3789367077876218,0.03568022881440904,0.28865195,0.5421140672547147
0.0015,1.79994375,1.0,31.106509476848018,0.01675676186960473,1.3780430291089572,0.07069976601617353,0.2886506375,0.5442712632083042
0.002,1.7999,1.0,53.66285003099117,0.022271978994031078,1.376362913672779,0.1148339614290119,0.2886488,0.5483130013129345
0.0025,1.79984375,1.0,97.25434167291291,0.027756260110479155,1.3739286447353443,0.16470100521247388,0.28864643749999996,0.5541370173673109
0.003,1.7997750000000001,1.0,161.13462244661432,0.03320977874736056,1.371207740663484,0.2174105588205504,0.28864354999999997,0.560602083136198
0.0035,1.79969375,1.0,237.88284615534477,0.03863270745635395,1.3685785899444454,0.2707422943759863,0.2886401375,0.5668042826357284
0.004,1.7996,1.0,321.6791257760905,0.044025217823161836,1.3661504688667632,0.32304110400076097,0.2886362,0.5724930935862549
0.0045000000000000005,1.7994937500000001,1.0,409.48772349304227,0.049387480472702354,1.363917651262405,0.3731534542114695,0.2886317375,0.5776911450881844
0.005,1.799375,1.0,499.63798660028436,0.05471966506022115,1.3618535726496879,0.4203587460428972,0.28862675,0.5824680866092381
0.0055,1.79924375,1.0,591.0169673043157,0.06002194031825485,1.3599344092213927,0.464276732118312,0.2886212375,0.5868852712322927
0.006,1.7991000000000001,1.0,682.7449859952411,0.06529447400108722,1.3581422910579628,0.504774650370072,0.2886152,0.5909888372313568
0.006500000000000001,1.79894375,1.0,774.1088804256201,0.07053743293643441,1.3564633682364342,0.5418873159788187,0.2886086375,0.594814627249797
0.007,1.798775,1.0,864.5136460888241,0.07575098302781695,1.3548867149754251,0.5757556316014467,0.28860155,0.5983910061669369
0.0075,1.79859375,1.0,953.467800947719,0.08093528920490038,1.3534033250369262,0.6065816263433988,0.2885939375,0.6017413579491222
0.008,1.7984,1.0,1040.5807585242496,0.08609051555018707,1.3520053735418949,0.6345971963228769,0.2885858,0.6048858960383643
0.0085,1.79819375,1.0,1125.5370299768097,0.09121682512535104,1.3506860875908961,0.6600435628709788,0.2885771375,0.6078420534763722
0.009000000000000001,1.797975,1.0,1208.0984650795074,0.0963143801784798,1.3494393258397939,0.6831580676744475,0.28856795,0.6106255024127245
0.0095,1.79774375,1.0,1288.073496961147,0.10138334171815346,1.3482597249199113,0.7041665544658222,0.2885582375,0.6132498851999608
0.01,1.7975,1.0,1365.3595316864553,0.1064238709347603,1.3471419114470247,0.723278799744254,0.288548,0.6157286138931954
0.0105,1.79724375,1.0,1439.8511988628316,0.11143612661268723,1.3460815471988212,0.7406872625792078,0.2885372375,0.6180725851035398
0.011,1.796975,1.0,1511.4955346626666,0.11642026720113013,1.3450744365191674,0.7565662691222051,0.28852595000000003,0.6202921978985305
0.0115,1.79669375,1.0,1580.2797152800688,0.12137645058896863,1.34411658715646,0.7710726218290387,0.2885141375,0.6223972399355564
0.012,1.7964,1.0,1646.2217396572928,0.12630483427957276,1.3432042368829573,0.7843466874551125,0.28850180000000003,0.6243968488060807
0.0125,1.79609375,1.0,1709.3298647594615,0.1312055734818944,1.3423342441763202,0.7965138769147981,0.2884889375,0.6262986775007258
0.013000000000000001,1.7957750000000001,1.0,1769.6413430630196,0.13607882310352845,1.3415035511320363,0.8076858065558515,0.28847555,0.6281100910848489
0.0135,1.79544375,1.0,1827.2068705828294,0.1409247372996057,1.3407093136667336,0.8179617575593391,0.2884616375,0.6298378940712479
0.014,1.7951000000000001,1.0,1882.113165687519,0.14574347063720638,1.3399486064305608,0.8274298986618615,0.2884472,0.6314889827357133
0.0145,1.79474375,1.0,1934.4151018935713,0.15053517474416545,1.3392191334193744,0.8361687877432775,0.2884322375,0.633068812251941
0.015,1.794375,1.0,1984.175979368112,0.15530000068614724,1.3385187327954562,0.8442482968348131,0.28841675,0.634582485798975
0.0155,1.79399375,1.0,2031.477694082782,0.16003809952881626,1.337845242721088,0.8517305825048225,0.2884007375,0.6360350509270698
0.016,1.7936,1.0,2076.405383545834,0.16474962109239083,1.3371966445711656,0.8586710408375159,0.2883842,0.6374311954398821
0.0165,1.7931937500000001,1.0,2119.0587348910085,0.16943471581966071,1.3365709234687202,0.8651190660126957,0.2883671375,0.6387755531741484
0.017,1.792775,1.0,2159.5054688046325,0.17409353076312908,1.3359665299508012,0.8711188920148998,0.28834955,0.6400717179617901
0.0175,1.7923437500000001,1.0,2197.823088774268,0.17872621289601787,1.335381924213805,0.876710069343336,0.2883314375,0.6413232299446607
0.018000000000000002,1.7919,1.0,2234.0989033125265,0.183332909191549,1.3348155664541277,0.8819280131081209,0.2883128,0.6425335984056174
0.0185,1.79144375,1.0,2268.4122231466117,0.18791376468420834,1.334266085979385,0.8868045284161333,0.2882936375,0.6437059431250716
0.019,1.790975,1.0,2300.8686619143996,0.1924689270756498,1.3337319278251782,0.8913681410992398,0.28827395,0.6448437511163585
0.0195,1.79049375,1.0,2331.532393829581,0.19699853884981264,1.3332120185423197,0.8956446318748885,0.2882537375,0.6459494601369667
0.02,1.79,1.0,2360.4727441385016,0.2015027424392913,1.3327052891695184,0.8996572338787876,0.288233,0.6470254800976631
0.0205,1.78949375,1.0,2387.764176979808,0.20598168027668018,1.3322106707454826,0.9034269177372024,0.2882117375,0.6480742035804736
0.021,1.788975,1.0,2413.4858618887315,0.21043549479457374,1.3317270943089212,0.9069726426978495,0.28818995000000003,0.6490980067007657
0.021500000000000002,1.78844375,1.0,2437.703766769061,0.21486432574646894,1.3312536592070463,0.9103116112300432,0.2881676375,0.6500988943301723
0.022,1.7879,1.0,2460.5084101077523,0.21926831685404782,1.3307892640964614,0.9134593859238946,0.2881448,0.6510792817554896
0.0225,1.78734375,1.0,2481.954424559545,0.22364760557909114,1.330333184457369,0.9164301756141737,0.28812143749999997,0.6520407756576974
0.023,1.786775,1.0,2502.099004366897,0.22800232936776751,1.3298846966925566,0.9192369059830865,0.28809755,0.6529849709440687
0.0235,1.78619375,1.0,2521.001782633057,0.23233262566624568,1.3294430772048118,0.9218913530283475,0.28807313749999996,0.6539134530670421
0.024,1.7856,1.0,2538.724624761803,0.23663863192069434,1.329007602396922,0.924404261207609,0.2880482,0.6548277983578729
0.0245,1.78499375,1.0,2555.3236826526377,0.24092048383488052,1.3285776214854534,0.9267854600391335,0.2880227375,0.6557294217441394
0.025,1.784375,1.0,2570.8612710035527,0.24517831899209458,1.3281524424494908,0.9290439373536117,0.28799675,0.6566198166914338
0.025500000000000002,1.78374375,1.0,2585.3938226199825,0.2494122731881522,1.327731443645204,0.9311879394552455,0.2879702375,0.6575003215759903
0.026000000000000002,1.7831000000000001,1.0,2598.9638871390516,0.2536224785499883,1.3273141459733582,0.9332250538691003,0.2879432,0.6583719701713366
0.0265,1.78244375,1.0,2611.6151533846905,0.25780906720453767,1.3269000703347198,0.9351622508896328,0.2879156375,0.6592357908646533
0.027,1.781775,1.0,2623.3923526328736,0.26197217127873523,1.3264887376300543,0.9370059420701768,0.28788755,0.6600928067625433
0.0275,1.7810937500000001,1.0,2634.3411669656025,0.26611192289951585,1.326079668760127,0.9387620324578749,0.2878589375,0.6609440357821614
0.028,1.7804,1.0,2644.506463636834,0.2702284535238312,1.3256724001312004,0.9404359693233513,0.2878298,0.6617904585229061
0.0285,1.77969375,1.0,2653.926696870503,0.27432189201017476,1.3252665343711478,0.9420327903099494,0.2878001375,0.6626329133232873
0.029,1.778975,1.0,2662.653434859166,0.27839237328239913,1.324861559396811,0.9435571379001,0.28776995,0.663472472022552
0.029500000000000002,1.7782437500000001,1.0,2670.7168326908577,0.2824400237774382,1.3244571659990538,0.9450133329107121,0.2877392375,0.6643097813516021
0.03,1.7775,1.0,2678.147515437019,0.28646496993222575,1.3240530449687409,0.9464053779188104,0.287708,0.6651454848421148
0.0305,1.77674375,1.0,2684.9765365244943,0.2904673381836958,1.3236488870967362,0.9477369847397944,0.2876762375,0.665980222834962
0.031,1.775975,1.0,2691.2353382270144,0.29444725496878205,1.3232443831739042,0.949011599208607,0.28764395,0.6668146324825325
0.0315,1.7751937500000001,1.0,2696.9557142762283,0.2984048467244184,1.322839223991109,0.9502324235577748,0.2876111375,0.667649347744957
0.032,1.7744,1.0,2702.1697745931538,0.3023402398875388,1.322433100339215,0.9514024366513552,0.2875778,0.6684849993802353
0.0325,1.77359375,1.0,2706.899516168991,0.30625355248676367,1.3220257978980958,0.9525244211700883,0.2875439375,0.6693220200513226
0.033,1.772775,1.0,2711.187132841317,0.3101449207053646,1.3216169201450954,0.9536009545664041,0.28750955,0.6701612138915286
0.0335,1.7719437500000002,1.0,2715.0528959507305,0.31401446521800336,1.3212062726800673,0.9546344603184358,0.2874746375,0.6710029668079664
0.034,1.7711000000000001,1.0,2718.5163109050527,0.3178623059753453,1.3207936695734475,0.9556272021109753,0.2874392,0.67184764528572
0.0345,1.7702437500000001,1.0,2721.5970288057733,0.3216885629280557,1.320378924895671,0.9565812955563472,0.2874032375,0.6726956137841008
0.035,1.7693750000000001,1.0,2724.3148316215406,0.32549335602679985,1.319961852717174,0.9574987196111924,0.28736675,0.6735472347123517
0.035500000000000004,1.76849375,1.0,2726.6896181286643,0.329276805222243,1.3195422671083914,0.95838132698645,0.2873297375,0.6744028684031551
0.036000000000000004,1.7676,1.0,2728.741390617569,0.33303903046505046,1.319119982139759,0.9592308536497876,0.2872922,0.6752628730839283
0.0365,1.76669375,1.0,2730.4902423662616,0.33678015170588743,1.3186948118817123,0.9600489275089834,0.2872541375,0.6761276048459184
0.037,1.765775,1.0,2731.9563458796138,0.34050028889541933,1.3182665704046868,0.9608370763552679,0.28721555,0.6769974176110924
0.0375,1.76484375,1.0,2733.1469806184855,0.34419954944679826,1.3178351895134635,0.9615967439799922,0.2871764375,0.677872424448153
0.038,1.7639,1.0,2734.0926537432542,0.3478780663004922,1.3174003905044425,0.9623292725447111,0.28713679999999997,0.6787531636085058
0.0385,1.76294375,1.0,2734.8090243878532,0.3515359567476797,1.316962030024642,0.9630359341242183,0.28709663750000003,0.6796398964370469
0.039,1.761975,1.0,2735.3070865495447,0.3551733332513465,1.3165200074301127,0.9637179291579316,0.28705595,0.6805327962258974
0.0395,1.7609937500000001,1.0,2735.597865326848,0.3587903082744782,1.3160742220769044,0.9643763884495503,0.2870147375,0.6814320348803563
0.04,1.76,1.0,2735.6924126062127,0.36238699428006066,1.3156245733210679,0.9650123779475982,0.286973,0.6823377828950697
0.0405,1.7589937500000001,1.0,2735.601802974126,0.3659635037310794,1.315170960518653,0.9656269031489246,0.2869307375,0.6832502093295589
0.041,1.757975,1.0,2735.3371298535008,0.36951994909052016,1.3147132830257104,0.9662209131585549,0.28688795,0.6841694817830966
0.0415,1.75694375,1.0,2734.9095018645166,0.3730564428213686,1.3142514401982903,0.9667953044360261,0.2868446375,0.6850957663689425
0.042,1.7559,1.0,2734.3300394103994,0.3765730973866104,1.313785331392443,0.9673509242554194,0.28680079999999997,0.6860292276879296
0.0425,1.75484375,1.0,2733.609871487714,0.38007002524923117,1.3133148559642187,0.9678885739036898,0.2867564375,0.6869700288014059
0.043000000000000003,1.753775,1.0,2732.76013272045,0.3835473388722167,1.3128399132696678,0.9684090116395592,0.28671155,0.6879183312035293
0.043500000000000004,1.75269375,1.0,2731.7875632680807,0.3870051433636798,1.3123604426183557,0.9689129574938062,0.28666613750000003,0.6888742152017376
0.044,1.7516,1.0,2730.701475834502,0.3904435520309736,1.3118763599765602,0.9694010930639378,0.2866202,0.6898378064023312
0.0445,1.75049375,1.0,2729.5137641712395,0.3938626817634322,1.311387557851192,0.9698740631702829,0.2865737375,0.6908092755595363
0.045,1.7493750000000001,1.0,2728.22985380626,0.39726263748674995,1.3108939875190206,0.9703324821765272,0.28652675,0.691788675141974
0.0455,1.74824375,1.0,2726.855170534014,0.4006435241266212,1.3103956002568165,0.9707769331465556,0.2864792375,0.6927760565727379
0.046,1.7471,1.0,2725.395139494862,0.40400544660874027,1.309892347341349,0.9712079697377449,0.2864312,0.6937714702145046
0.0465,1.7459437500000001,1.0,2723.855184306191,0.4073485098588016,1.3093841800493882,0.9716261179621877,0.28638263750000004,0.694774965354489
0.047,1.744775,1.0,2722.2407262468178,0.41067281880249945,1.3088710496577036,0.9720318778262339,0.28633355,0.6957865901892487
0.0475,1.74359375,1.0,2720.557183494124,0.41397847836552826,1.3083529074430653,0.9724257248578283,0.28628393750000003,0.696806391809338
0.048,1.7424,1.0,2718.8099704129745,0.41726559347358233,1.3078297046822431,0.9728081115303067,0.2862338,0.6978344161838106
0.0485,1.74119375,1.0,2717.004496898714,0.4205342690523561,1.3073013926520065,0.9731794685905685,0.2861831375,0.6988707081445706
0.049,1.739975,1.0,2715.1461677709576,0.4237846100275438,1.3067679226291256,0.9735402062988744,0.28613195,0.6999153113705703
0.0495,1.73874375,1.0,2713.239622560033,0.4270167183712208,1.3062292528160675,0.9738907157068777,0.2860802375,0.7009682548460237
0.05,1.7375,1.0,2711.286407077971,0.4302306825756705,1.3056853695843862,0.9742313699474745,0.286028,0.7020295115499274
0.0505,1.73624375,1.0,2709.297713623083,0.4334266315984178,1.3051361712882512,0.9745625237347378,0.2859752375,0.7030992250368209
0.051000000000000004,1.734975,1.0,2707.2759504748965,0.4366046625770831,1.304581636311161,0.9748845171313759,0.28592195,0.7041773814477539
0.051500000000000004,1.73369375,1.0,2705.2235230394995,0.4397648726492866,1.304021743036614,0.9751976747848866,0.2858681375,0.7052639660745508
0.052000000000000005,1.7324,1.0,2703.1428337071343,0.4429073589526486,1.3034564698481084,0.9755023067588572,0.2858138,0.7063589633524365
0.0525,1.73109375,1.0,2701.036281719825,0.4460322186247894,1.3028857951291426,0.9757987093124221,0.28575893750000003,0.7074623568526374
0.053,1.729775,1.0,2698.906263049436,0.44913954880332935,1.302309697263215,0.9760871656315341,0.28570355000000003,0.7085741292749466
0.0535,1.72844375,1.0,2696.7551702860837,0.4522294466258887,1.3017281546338242,0.9763679465154196,0.2856476375,0.7096942624402649
0.054,1.7271,1.0,2694.585392536979,0.45530200923008773,1.3011411456244681,0.9766413110213171,0.2855912,0.7108227372831086
0.0545,1.7257437500000001,1.0,2692.399315335366,0.4583573337535467,1.3005486486186455,0.9769075070703725,0.2855342375,0.7119595338440878
0.055,1.724375,1.0,2690.1993205602125,0.46139551733388595,1.2999506419998548,0.9771667720173338,0.28547675,0.7131046312623563
0.0555,1.72299375,1.0,2687.987786366101,0.46441665710872576,1.299347104151594,0.9774193331864948,0.2854187375,0.7142580077680316
0.056,1.7216,1.0,2685.767087123082,0.4674208502156864,1.2987380134573618,0.9776654083761473,0.2853602,0.7154196406745826
0.0565,1.72019375,1.0,2683.539593367775,0.47040819379238824,1.2981233483006565,0.9779052063336403,0.28530113749999997,0.7165895063711909
0.057,1.718775,1.0,2681.3059499475376,0.47337876504911003,1.2975031028556618,0.9781389263169038,0.28524155,0.7177675503547625
0.0575,1.71734375,1.0,2679.0677666841343,0.4763326667950491,1.2968772624336986,0.9783667612457132,0.2851814375,0.7189537342151557
0.058,1.7159,1.0,2676.828063997536,0.47927001607041075,1.2962457993743899,0.9785888967136567,0.2851208,0.7201480432175662
0.0585,1.71444375,1.0,2674.5877242937204,0.48219090137148646,1.2956087056033534,0.9788055094540412,0.2850596375,0.7213504246540496
0.059000000000000004,1.7129750000000001,1.0,2672.347628508071,0.4850954111945678,1.2949659730462062,0.9790167691677658,0.28499795,0.7225608250794158
0.059500000000000004,1.71149375,1.0,2670.108656103216,0.4879836340359462,1.2943175936285656,0.9792228388563639,0.2849357375,0.7237791903083244
0.06,1.71,1.0,2667.871685068811,0.49085565839191325,1.2936635592760488,0.9794238751367517,0.284873,0.7250054654123806
0.0605,1.7084937500000001,1.0,2665.6375919225584,0.49371157275876054,1.293003861914273,0.9796200285388256,0.2848097375,0.7262395947172247
0.061,1.7069750000000001,1.0,2663.407251712459,0.4965514656327795,1.2923384934688555,0.9798114437869604,0.28474595,0.7274815217996171
0.0615,1.7054437500000001,1.0,2661.18153802089,0.49937542551026176,1.2916674458654138,0.9799982600664028,0.2846816375,0.7287311894845214
0.062,1.7039,1.0,2658.961322970291,0.5021835408874987,1.2909907110295646,0.9801806112754725,0.2846168,0.7299885398421824
0.0625,1.70234375,1.0,2656.747477229262,0.504975900260782,1.2903082808869255,0.9803586262644339,0.2845514375,0.7312535141851977
0.063,1.7007750000000001,1.0,2654.5408700213034,0.507752592126403,1.2896201473631137,0.9805324290618309,0.28448555,0.7325260530655877
0.0635,1.69919375,1.0,2652.342369134675,0.5105137049806534,1.2889263023837463,0.9807021390890349,0.28441913750000003,0.7338060962718622
0.064,1.6976,1.0,2650.1528409328353,0.5132593273198247,1.2882267378744408,0.9808678713637033,0.2843522,0.7350935828260792
0.0645,1.69599375,1.0,2647.9731503678654,0.5159895476402083,1.2875214457608142,0.9810297366927924,0.2842847375,0.7363884509809031
0.065,1.694375,1.0,2645.804160993996,0.5187044544380959,1.286810417968484,0.9811878418557396,0.28421675,0.7376906382166566
0.0655,1.69274375,1.0,2643.646734983115,0.5214041362097789,1.2860936464230672,0.9813422897783791,0.2841482375,0.7390000812383706
0.066,1.6911,1.0,2641.499488589746,0.5240886426894563,1.2853711437893682,0.9814931780419172,0.2840792,0.7403166782281496
0.0665,1.6894437500000001,1.0,2639.3625675234853,0.526758086751791,1.2846429086157216,0.9816406044176079,0.2840096375,0.7416403525981567
0.067,1.687775,1.0,2637.237302333207,0.5294125792239587,1.2839089284920633,0.9817846625277399,0.28393955,0.7429710469467108
0.0675,1.68609375,1.0,2635.1236949622116,0.5320521992178614,1.2831692032797672,0.9819254411675933,0.2838689375,0.7443086808479014
0.068,1.6844000000000001,1.0,2633.0217473962507,0.5346770258454008,1.282423732840207,0.9820630260492639,0.2837978,0.74565317324172
0.0685,1.68269375,1.0,2630.9314616633833,0.5372871382184787,1.2816725170347567,0.9821974999286087,0.2837261375,0.7470044424340073
0.069,1.680975,1.0,2628.8528398349285,0.5398826154489972,1.28091555572479,0.9823289427261088,0.28365395,0.7483624060964045
0.0695,1.67924375,1.0,2626.7858840251943,0.5424635366488578,1.2801528487716811,0.9824574316419794,0.28358123749999997,0.7497269812662997
0.07,1.6775,1.0,2624.7305963922354,0.5450299809299627,1.2793843960368037,0.9825830412658368,0.283508,0.7510980843467808
0.07050000000000001,1.67574375,1.0,2622.6869791379063,0.5475820274042134,1.2786101973815314,0.9827058436812173,0.2834342375,0.7524756311065821
0.07100000000000001,1.673975,1.0,2620.6550345081055,0.5501197551835119,1.2778302526672385,0.9828259085652207,0.28335995,0.7538595366800332
0.07150000000000001,1.67219375,1.0,2618.634764793344,0.5526432433797599,1.2770445617552988,0.9829433032835353,0.2832851375,0.7552497155670104
0.07200000000000001,1.6704,1.0,2616.6261723290545,0.5551525711048595,1.2762531245070858,0.9830580929810907,0.2832098,0.7566460816328844
0.0725,1.66859375,1.0,2614.6292594954507,0.5576478174707122,1.2754559407839738,0.9831703406685628,0.2831339375,0.7580485481084691
0.073,1.6667750000000001,1.0,2612.644028718485,0.5601290615892202,1.2746530104473366,0.9832801073049522,0.28305755,0.759457027589972
0.0735,1.66494375,1.0,2610.6704824696753,0.562596382572285,1.2738443333585479,0.9833874518764313,0.2829806375,0.7608714320389429
0.074,1.6631,1.0,2608.7086232665138,0.5650498595318085,1.2730299093789816,0.9834924314716579,0.2829032,0.7622916727822229
0.0745,1.6612437500000001,1.0,2606.7584536729078,0.5674895715796928,1.2722097383700117,0.9835951013537314,0.2828252375,0.7637176605118934
0.075,1.659375,1.0,2604.819976299559,0.5699155978278395,1.271383820193012,0.9836955150289637,0.28274675,0.7651493052852261
