Time [s],Phi [rad],STIM [ ],Fsee [N],Gamma [ ],Lcerel [ ],q [ ],Lmtc [m],fisomrel [ ]
0.0,1.8,1.0,17.966715220090176,1.3854748942556652e-05,1.3793397958449591,0.005000051027710118,0.288653,0.5411394109958696
0.0005,1.79999375,1.0,18.27738699231908,0.00562298634355379,1.3793023163824267,0.012951220470785053,0.2886527375,0.5412300790399409
0.001,1.799975,1.0,21.621903446047934,0.011200655144821919,1.3789379424193007,0.0356286707906359,0.28865195,0.54211108353006
0.0015,1.79994375,1.0,31.07876746777491,0.016747037635006616,1.3780453917432849,0.07062921225526185,0.2886506375,0.5442655669058236
0.002,1.7999,1.0,53.60382058343197,0.022262309304708287,1.376366741379993,0.11475041451456515,0.2886488,0.5483038137213188
0.0025,1.79984375,1.0,97.15552396372094,0.027746644660461946,1.3739334044182616,0.164610116140226,0.28864643749999996,0.5541256666459464
0.003,1.7997750000000001,1.0,161.0062282024475,0.033200217232416285,1.3712125449072907,0.2173167914979922,0.28864354999999997,0.5605907095135609
0.0035,1.79969375,1.0,237.73788901298028,0.038623199573954256,1.3685830538151815,0.27064902971336663,0.2886401375,0.5667937896692443
0.004,1.7996,1.0,321.5249951292442,0.044015763272468,1.366154550340168,0.32295079604237276,0.2886362,0.5724835627078744
0.0045000000000000005,1.7994937500000001,1.0,409.32819133619927,0.04937807895454528,1.3639213954489404,0.3730677265412796,0.2886317375,0.5776824551482651
0.005,1.799375,1.0,499.4752806035132,0.05471031627706974,1.3618570296432768,0.4202785399832405,0.28862675,0.5824601087300533
0.0055,1.79924375,1.0,590.8528389128589,0.06001264397451754,1.3599376155001028,0.46420247321593877,0.2886212375,0.5868779111865439
0.006,1.7991000000000001,1.0,682.5806889615105,0.06528522980254105,1.3581452772241303,0.504706406568,0.2886152,0.5909820165881725
0.006500000000000001,1.79894375,1.0,773.9460124583597,0.07052824059430922,1.3564661482369362,0.5418249132077678,0.2886086375,0.5948083072739879
0.007,1.798775,1.0,864.3503130555639,0.0757418422373671,1.354889353104215,0.575698787691075,0.28860155,0.5983850352464025
0.0075,1.79859375,1.0,953.3051407947889,0.08092619970333025,1.3534058267302085,0.6065299464879595,0.2885939375,0.6017357194934243
0.008,1.7984,1.0,1040.418581689849,0.08608147701403389,1.3520077611070054,0.6345502648091635,0.2885858,0.6048805360983209
0.0085,1.79819375,1.0,1125.3792457603631,0.09120783729889295,1.3506883210924703,0.6600009254184056,0.2885771375,0.6078370581930628
0.009000000000000001,1.797975,1.0,1207.944564114295,0.09630544273580145,1.3494414286079297,0.6831193234819595,0.28856795,0.6106208162386773
0.0095,1.79774375,1.0,1287.9342053286543,0.10137445474170231,1.3482615680408196,0.704131246907159,0.2885582375,0.6132457915361912
0.01,1.7975,1.0,1365.2108812627632,0.10641503337682677,1.347143821924129,0.723246743235312,0.288548,0.6157243842471577
0.0105,1.79724375,1.0,1439.6906978102397,0.11142733784493357,1.3460835559149191,0.740658138367446,0.2885372375,0.6180681515474651
0.011,1.796975,1.0,1511.3642782803606,0.11641152856661638,1.3450760398155126,0.7565395394978235,0.28852595000000003,0.6202886694682487
0.0115,1.79669375,1.0,1580.1757291887288,0.12136776181465178,1.3441178293886933,0.7710480551150385,0.2885141375,0.6223945137015758
0.012,1.7964,1.0,1646.1154965997234,0.12629619386181629,1.3432054803972457,0.7843242139655586,0.28850180000000003,0.6243941269939279
0.0125,1.79609375,1.0,1709.2163013717916,0.13119698098088647,1.342335548603954,0.7964933081702738,0.2884889375,0.6262958295983093
0.013000000000000001,1.7957750000000001,1.0,1769.5305058270123,0.13607027867450594,1.3415048023622926,0.8076669055787115,0.28847555,0.628107365955011
0.0135,1.79544375,1.0,1827.1164336736967,0.1409162416144255,1.3407103183857063,0.8179442843210591,0.2884616375,0.6298357109231845
0.014,1.7951000000000001,1.0,1882.0225194100417,0.14573502237619282,1.3399495986773788,0.8274137957794692,0.2884472,0.6314868315021973
0.0145,1.79474375,1.0,1934.316390703576,0.15052677327619388,1.3392201992408554,0.836153952204874,0.2884322375,0.6330665064636299
0.015,1.794375,1.0,1984.0709364049574,0.15529164575009113,1.3385198526716087,0.8442346011664124,0.28841675,0.6345800680714042
0.0155,1.79399375,1.0,2031.3870083119944,0.1600297921017949,1.3378461982093244,0.8517178494641873,0.2884007375,0.6360329922050572
0.016,1.7936,1.0,2076.3347109906636,0.16474136140383328,1.3371973810932847,0.8586591636166208,0.2883842,0.6374296115555809
0.0165,1.7931937500000001,1.0,2118.9865808460404,0.16942650200504697,1.3365716678239783,0.8651080324718592,0.2883671375,0.6387739554151327
0.017,1.792775,1.0,2159.4276783560495,0.17408536225427684,1.3359673249018944,0.8711086388093698,0.28834955,0.6400700146628346
0.0175,1.7923437500000001,1.0,2197.7441741648795,0.17871808950394233,1.3353827235920448,0.8767005150127363,0.2883314375,0.641321520140249
0.018000000000000002,1.7919,1.0,2234.0319392022934,0.1833248319091945,1.3348162392472411,0.8819190628480122,0.2883128,0.64253216178678
0.0185,1.79144375,1.0,2268.3668555483614,0.18790573463468874,1.3342665383291286,0.8867961070712923,0.2882936375,0.6437049788056799
0.019,1.790975,1.0,2300.8213908566045,0.19246094165629007,1.3337323958178093,0.8913602611497283,0.28827395,0.6448427550437024
0.0195,1.79049375,1.0,2331.4746248781794,0.19699059694986332,1.3332125866933855,0.895637268847158,0.2882537375,0.6459482527713746
0.02,1.79,1.0,2360.4093596556854,0.2014948441023851,1.3327059087157926,0.8996503351326826,0.288233,0.6470241655153018
0.0205,1.78949375,1.0,2387.7017607697544,0.20597382555104307,1.3322112773308012,0.9034204321195732,0.2882117375,0.6480729184127471
0.021,1.788975,1.0,2413.436815080133,0.21042768547159868,1.3317275684176582,0.9069665130930518,0.28818995000000003,0.6490970036725381
0.021500000000000002,1.78844375,1.0,2437.6743704065543,0.2148565630320113,1.3312539419500176,0.910305798385552,0.2881676375,0.6500982970107603
0.022,1.7879,1.0,2460.4777210904167,0.2192605974002403,1.3307895579015327,0.9134539051905236,0.2881448,0.6510786619365705
0.0225,1.78734375,1.0,2481.913322896251,0.22363992774424502,1.330333576245858,0.916425018970015,0.28812143749999997,0.6520399502698405
0.023,1.786775,1.0,2502.05052355823,0.22799469323198482,1.3298851569566463,0.9192320445422318,0.28809755,0.6529840026138036
0.0235,1.78619375,1.0,2520.9500930180493,0.2323250303692731,1.3294435660893762,0.921886757880657,0.28807313749999996,0.6539124259002387
0.024,1.7856,1.0,2538.6806116928146,0.23663108001472682,1.329008017220196,0.9243998964229719,0.2880482,0.6548269279490921
0.0245,1.78499375,1.0,2555.294368638672,0.24091297772463338,1.3285778968708803,0.9267812992528427,0.2880227375,0.6557288446680776
0.025,1.784375,1.0,2570.8395331434835,0.24517085731646787,1.3281526460438609,0.9290399774205003,0.28799675,0.656619390607183
0.025500000000000002,1.78374375,1.0,2585.3657595103123,0.2494048526077054,1.3277317057415683,0.9311841870963732,0.2879702375,0.657499773761869
0.026000000000000002,1.7831000000000001,1.0,2598.9240602041336,0.25361509741582094,1.3273145169664338,0.93322150306424,0.2879432,0.6583711957367033
0.0265,1.78244375,1.0,2611.566685926726,0.2578017255582897,1.3269005207208886,0.9351588841624547,0.2879156375,0.6592348518890685
0.027,1.781775,1.0,2623.337678409221,0.26196486847803363,1.3264892445514729,0.9370027440343923,0.28788755,0.660091751250665
0.0275,1.7810937500000001,1.0,2634.283725950615,0.26610465985213755,1.3260802002265617,0.9387589882096044,0.2878589375,0.6609429305491246
0.028,1.7804,1.0,2644.4585692101687,0.2702212338885571,1.325672842415993,0.9404330541402609,0.2878298,0.6617895399001525
0.0285,1.77969375,1.0,2653.895188686767,0.2743147184610551,1.3252668248186024,0.9420299882184109,0.2878001375,0.6626323108176806
0.029,1.778975,1.0,2662.6271678304097,0.27838524144339416,1.3248618011332258,0.9435544546717011,0.28776995,0.6634719711877437
0.029500000000000002,1.7782437500000001,1.0,2670.6886407376946,0.2824329307093369,1.3244574250586998,0.9450107694382902,0.2877392375,0.6643092452942545
0.03,1.7775,1.0,2678.114242506339,0.28645791413264604,1.3240533502938598,0.9464029306345721,0.287708,0.6651448538371332
0.0305,1.77674375,1.0,2684.9390622487376,0.29046031958708435,1.323649230537542,0.9477346459954828,0.2876762375,0.6659795139427838
0.031,1.775975,1.0,2691.1985987643607,0.29444027494641445,1.3232447194885824,0.9490093576211133,0.28764395,0.6668139391669251
0.0315,1.7751937500000001,1.0,2696.921089851664,0.29839790348087697,1.3228395406082545,0.9502302715840194,0.2876111375,0.6676486958541175
0.032,1.7744,1.0,2702.143148215972,0.3023333362188753,1.3224333435843774,0.9514003636605792,0.2875778,0.6684844991868586
0.0325,1.77359375,1.0,2706.8896483039443,0.30624669670249943,1.322025887967006,0.952522415703035,0.2875439375,0.6693218350735375
0.033,1.772775,1.0,2711.183167430793,0.31013810678354864,1.3216169563107178,0.953599022693505,0.28750955,0.670161139711192
0.0335,1.7719437500000002,1.0,2715.0464781931823,0.31400768831382214,1.3212063311700906,0.9546326054976644,0.2874746375,0.6710028469905935
0.034,1.7711000000000001,1.0,2718.5025288934053,0.3178555631451192,1.3207937950997015,0.9556254246217327,0.2874392,0.6718473884742688
0.0345,1.7702437500000001,1.0,2721.574425012502,0.32168185312923914,1.3203791306541284,0.9565795927276135,0.2874032375,0.6726951933715082
0.035,1.7693750000000001,1.0,2724.2854117309867,0.32548668011798115,1.3199621203879486,0.9574970860313519,0.28736675,0.6735466885103569
0.035500000000000004,1.76849375,1.0,2726.6555184147014,0.32927016258977987,1.3195425772225675,0.9583797570886182,0.2873297375,0.6744022364220648
0.036000000000000004,1.7676,1.0,2728.702510500364,0.333032417472657,1.3191203355957126,0.9592293436072128,0.2872922,0.6752621537285707
0.0365,1.76669375,1.0,2730.4575660715886,0.3367735774121212,1.3186951088439087,0.9600474663987167,0.2872541375,0.6761270012722231
0.037,1.765775,1.0,2731.9340041461637,0.34049375730218934,1.3182667733917004,0.960835658911396,0.28721555,0.6769970055957781
0.0375,1.76484375,1.0,2733.145202662143,0.3441930720368781,1.3178352056636318,0.9615953613900147,0.2871764375,0.6778723917115972
0.038,1.7639,1.0,2734.104591697012,0.3478716365102042,1.317400282084248,0.9623279275704524,0.28713679999999997,0.6787533830766574
0.0385,1.76294375,1.0,2734.8256470267766,0.3515295656161844,1.3169618790780937,0.9630346308227772,0.28709663750000003,0.6796402015665941
0.039,1.761975,1.0,2735.321884022024,0.3551669742488355,1.316519873069713,0.9637166697937252,0.28705595,0.6805330674487653
0.0395,1.7609937500000001,1.0,2735.606851884366,0.3587839773021742,1.316074140483651,0.9643751735943491,0.2870147375,0.681432199354341
0.04,1.76,1.0,2735.6941282196585,0.3623806896702173,1.3156245577444516,0.9650112065739764,0.286973,0.6823378142494239
0.0405,1.7589937500000001,1.0,2735.5973139512066,0.36595722624698146,1.3151710012766602,0.9656257727175231,0.2869307375,0.6832501274051896
0.041,1.757975,1.0,2735.330028570734,0.36951370192648353,1.314713347504821,0.9662198196995357,0.28688795,0.6841693523670593
0.0415,1.75694375,1.0,2734.899710802563,0.3730502231134968,1.3142515291073642,0.9667942459672871,0.2868446375,0.6850955881813885
0.042,1.7559,1.0,2734.320108257232,0.3765669077443992,1.3137854215831903,0.9673498978241999,0.28680079999999997,0.6860290471998072
0.0425,1.75484375,1.0,2733.605869454892,0.3800638746351997,1.313314892313842,0.9678875750848706,0.2867564375,0.6869699561682576
0.043000000000000003,1.753775,1.0,2732.7637367252837,0.38354123107523425,1.3128398805301829,0.9684080386017225,0.28671155,0.6879183965237912
0.043500000000000004,1.75269375,1.0,2731.8004575885775,0.3869990843538387,1.3123603254630765,0.968912008813105,0.28666613750000003,0.6888744485861
0.044,1.7516,1.0,2730.722783229,0.3904375417603489,1.311876166343386,0.969400168289692,0.2866202,0.6898381915400276
0.0445,1.75049375,1.0,2729.537467051828,0.39385671058410093,1.3113873424019753,0.9698731640960679,0.2865737375,0.6908097034178412
0.045,1.7493750000000001,1.0,2728.2512633211654,0.39725669811443054,1.3108937928697075,0.9703316099826036,0.28652675,0.6917890610812736
0.0455,1.74824375,1.0,2726.8709258801587,0.4006376116406737,1.3103954569774463,0.9707760884213636,0.2864792375,0.6927763402033236
0.046,1.7471,1.0,2725.4032069529917,0.40399955845216623,1.309892273956055,0.971207152498548,0.2864312,0.6937716152498258
0.0465,1.7459437500000001,1.0,2723.854856028659,0.40734264583824414,1.3093841830363973,0.9716253276748613,0.28638263750000004,0.6947749594607815
0.047,1.744775,1.0,2722.232618826582,0.41066698108824323,1.3088711234493366,0.9720311134242041,0.28633355,0.6957864448314561
0.0475,1.74359375,1.0,2720.543152598224,0.41397267148539857,1.3083530351882122,0.972424984813906,0.28628393750000003,0.6968061405938047
0.048,1.7424,1.0,2718.788194413205,0.41725982094783903,1.307829903006997,0.972807396604995,0.2862338,0.6978340268325981
0.0485,1.74119375,1.0,2716.9952537856198,0.42052853301805687,1.3073014768614573,0.9731787653161793,0.2861831375,0.698870543108314
0.049,1.739975,1.0,2715.15161124919,0.4237789101561829,1.306767873019375,0.9735395127707477,0.28613195,0.6999154084284713
0.0495,1.7387447282825508,1.0,2713.293026602316,0.4270110548223479,1.3062292077485322,0.9738900408900273,0.2860802785878671,0.7009683428625838
0.05,1.737512173690903,1.0,2711.8642892726302,0.4302250694766826,1.3056855973167107,0.9742307328148087,0.28602851129501794,0.7020290675801204
0.0505,1.736279619099255,1.0,2710.959021657237,0.433421055805767,1.305137215701219,0.9745619576893112,0.2859767440021687,0.7030971925832517
0.051000000000000004,1.7350470645076075,1.0,2710.522260498889,0.43659911597717044,1.3045845618508407,0.9748840890571044,0.2859249767093195,0.7041716986037354
0.051500000000000004,1.7338145099159596,1.0,2710.5181380513127,0.4397593499150372,1.3040279618957773,0.9751974720321562,0.2858732094164703,0.7052519081170274
0.052000000000000005,1.7325819553243118,1.0,2710.914095768406,0.44290185707605767,1.3034677127837746,0.9755024342846433,0.2858214421236211,0.7063372043934455
0.0525,1.731349400732664,1.0,2711.6776591667913,0.44602673691692224,1.3029041114625783,0.9757992888895108,0.28576967483077187,0.7074269746781439
0.053,1.7301168461410161,1.0,2712.7779913280506,0.4491340884227354,1.3023374405055879,0.9760883341641241,0.2857179075379227,0.7085206379736293
0.0535,1.7288842915493683,1.0,2714.185327067549,0.4522240106752718,1.3017679730958711,0.9763698548245344,0.2856661402450735,0.7096176352474797
0.054,1.7276517369577205,1.0,2715.8749755681306,0.4552966013242065,1.301195936399957,0.9766441203134097,0.28561437295222425,0.7107174996688554
0.0545,1.7264191823660728,1.0,2717.8256781589025,0.45835195691083025,1.3006215264624985,0.9769113865415442,0.2855626056593751,0.7118198272556037
0.055,1.725186627774425,1.0,2720.0161848802964,0.4613901739764338,1.300044939328148,0.9771718985632875,0.28551083836652585,0.7129242167843368
0.0555,1.7239540731827772,1.0,2722.42734389906,0.4644113478800005,1.2994663519348997,0.9774258898900585,0.28545907107367663,0.714030306309958
0.056,1.7227215185911293,1.0,2725.0440296921956,0.46741557201808165,1.2988859045368581,0.9776735819796407,0.28540730378082746,0.7151378063430616
0.0565,1.7214889639994815,1.0,2727.8352355367615,0.47040294966388185,1.2983038817369263,0.9779151964289535,0.28535553648797823,0.7162461547853376
0.057,1.7202564094078336,1.0,2730.7899489920237,0.473373572999636,1.2977203860275894,0.9781509343102559,0.285303769195129,0.7173551394884666
0.0575,1.7190238548161858,1.0,2733.897148326866,0.4763275342075791,1.2971355199013328,0.9783809885538367,0.2852520019022798,0.7184645497862394
0.058,1.717791300224538,1.0,2737.1457992891856,0.47926492546994615,1.2965493858506414,0.9786055443457221,0.28520023460943056,0.7195741765038501
0.0585,1.7165587456328903,1.0,2740.52485210819,0.482185838968972,1.295962086368001,0.9788247795029292,0.2851484673165814,0.7206838119665175
0.059000000000000004,1.7153261910412425,1.0,2744.023238729636,0.4850903668868917,1.2953737239458967,0.9790388648277004,0.28509670002373216,0.7217932500074402
0.059500000000000004,1.7140936364495947,1.0,2747.6298702839727,0.48797860140594024,1.2947844010768135,0.9792479644420548,0.28504493273088294,0.7229022859750778
0.06,1.7128610818579468,1.0,2751.3336347873887,0.49085063470835244,1.294194220253237,0.9794522361038898,0.28499316543803377,0.7240107167397636
0.0605,1.711628527266299,1.0,2755.1233950754695,0.4937065589763634,1.2936032839676526,0.9796518315057864,0.28494139814518454,0.7251183406996492
0.061,1.7103959726746512,1.0,2758.994830539392,0.49654645970334144,1.2930116328404457,0.9798468927364898,0.2848896308523353,0.7262250734061729
0.0615,1.7091634180830033,1.0,2762.9342281906765,0.49937043543125964,1.2924193922649376,0.9800375620055063,0.28483786355948615,0.7273306729190196
0.062,1.7079308634913555,1.0,2766.9364875416163,0.5021785736322044,1.2918266095481006,0.980223971251443,0.2847860962666369,0.7284350445142234
0.0625,1.7066983088997079,1.0,2770.9968492469984,0.504970961355589,1.2912333288012605,0.980406247311106,0.2847343289737877,0.7295381001126815
0.063,1.70546575430806,1.0,2775.1105413782293,0.5077476856508271,1.2906395941357425,0.9805845123448623,0.28468256168093853,0.7306397522978664
0.0635,1.7042331997164122,1.0,2779.2727789575238,0.5105088335673317,1.290045449662872,0.980758884045042,0.2846307943880893,0.7317399143171633
0.064,1.7030006451247643,1.0,2783.4787635357393,0.5132544921545164,1.2894509394939744,0.9809294758335763,0.2845790270952401,0.7328385000830855
0.0645,1.7017680905331165,1.0,2787.723682813279,0.5159847484617945,1.2888561077403753,0.9810963970495077,0.2845272598023909,0.7339354241743645
0.065,1.7005355359414687,1.0,2792.002710303575,0.5186996895385795,1.2882609985133997,0.9812597531269583,0.2844754925095417,0.7350306018369189
0.0655,1.6993029813498208,1.0,2796.311005040578,0.5213994024342846,1.2876656559243733,0.9814196457641085,0.28442372521669246,0.736123948984694
0.066,1.6980704267581732,1.0,2800.6491498396667,0.5240839584354229,1.2870700752825526,0.9815761696136149,0.2843719579238433,0.7372154715474158
0.0665,1.6968378721665254,1.0,2805.007936425773,0.5267534621562111,1.28647433970626,0.9817294225580198,0.28432019063099406,0.7383050149549184
0.067,1.6956053175748775,1.0,2809.38376572789,0.529408000676656,1.2858784818022138,0.9818794954712319,0.28426842333814484,0.7393925179925426
0.0675,1.6943727629832297,1.0,2813.7750177678367,0.5320476549260037,1.2852825163589026,0.9820264748457056,0.28421665604529567,0.7404779523594787
0.068,1.6931402083915819,1.0,2818.180067493677,0.5346725058335001,1.2846864581648154,0.9821704442268295,0.28416488875244644,0.7415612899795052
0.0685,1.691907653799934,1.0,2822.5972847474873,0.5372826343283915,1.2840903220084405,0.982311484334372,0.2841131214595972,0.742642503001086
0.069,1.6906750992082862,1.0,2827.0250342368313,0.5398781213399236,1.2834941226782666,0.9824496731781164,0.28406135416674805,0.7437215637974488
0.0695,1.6894425446166383,1.0,2831.461675511659,0.5424590477973429,1.2828978749627824,0.9825850861680036,0.2840095868738988,0.7447984449666516
0.07,1.6882099900249907,1.0,2835.9055629463483,0.545025494629895,1.2823015936504762,0.982717796219075,0.2839578195810496,0.7458731193316371
0.07050000000000001,1.6869774354333429,1.0,2840.355045726035,0.5475775427668262,1.2817052935298372,0.9828478738515013,0.28390605228820043,0.7469455599402688
0.07100000000000001,1.685744880841695,1.0,2844.8084678378837,0.5501152731373827,1.2811089893893535,0.9829753872859528,0.2838542849953512,0.7480157400653583
0.07150000000000001,1.6845123262500472,1.0,2849.2641680677143,0.5526387666708102,1.2805126960175137,0.9831004025345608,0.283802517702502,0.7490836332046746
0.07200000000000001,1.6832797716583994,1.0,2853.7204800008085,0.5551481042963551,1.279916428202807,0.9832229834877008,0.28375075040965275,0.75014921308094
0.0725,1.6820472170667515,1.0,2858.1757320280312,0.5576433669432631,1.2793202007337214,0.9833431919968176,0.2836989831168035,0.7512124536418162
