Time [s],Phi [rad],STIM [ ],Fsee [N],Gamma [ ],Lcerel [ ],q [ ],Lmtc [m],fisomrel [ ]
0.0,1.8,1.0,19.476762611009807,0.0012547894736545382,1.3791740307032008,0.00540359740128164,0.288653,0.5415403521692863
0.0005,1.79999375,1.0,20.141572845197494,0.006856960405802331,1.3791002720323726,0.01675394151626044,0.2886527375,0.5417186981663937
0.001,1.799975,1.0,24.417488594890816,0.012427707579043074,1.3786611139512317,0.04238587097060667,0.28865195,0.5427798494298863
0.0015,1.79994375,1.0,36.03194866503458,0.017967207293809375,1.3776390541726935,0.07968599081147386,0.2886506375,0.5452447218225557
0.002,1.7999,1.0,62.67985882294159,0.023475634766946363,1.3758010614375926,0.12535363470249303,0.2886488,0.5496605938213608
0.0025,1.79984375,1.0,111.13746110283192,0.028953164326771023,1.3732824097574623,0.1760671111266211,0.28864643749999996,0.555676793895606
0.003,1.7997750000000001,1.0,178.4097403835279,0.03439996927687218,1.3705779216130232,0.2290848820043373,0.28864354999999997,0.5620918495311609
0.0035,1.79969375,1.0,256.9781543601728,0.03981622195787815,1.3680019983450626,0.28231727682263186,0.2886401375,0.5681585752998741
0.004,1.7996,1.0,341.7508482944286,0.04520209374370709,1.3656270622804758,0.3342229260047448,0.2886362,0.5737144493882305
0.0045000000000000005,1.7994937500000001,1.0,430.109682097767,0.05055775505125721,1.3634396494974967,0.38374995297334413,0.2886317375,0.5787998124143391
0.005,1.799375,1.0,520.5529564799855,0.055883375327140675,1.3614137863384022,0.4302605167925924,0.28862675,0.5834823821573336
0.0055,1.79924375,1.0,612.0123043156311,0.06117912298638998,1.3595278688635684,0.4734364526714971,0.2886212375,0.5878179576225153
0.006,1.7991000000000001,1.0,703.7017707064064,0.06644516593746112,1.3577642945096393,0.5131872487641911,0.2886152,0.5918517524681763
0.006500000000000001,1.79894375,1.0,794.8752573925125,0.07168167039638607,1.3561112704105744,0.5495763530729706,0.2886086375,0.5956146782097154
0.007,1.798775,1.0,884.9755461043939,0.07688880216889375,1.3545581659912969,0.5827611974447269,0.28860155,0.5991342695436479
0.0075,1.79859375,1.0,973.5462182715995,0.08206672608963805,1.3530961433582782,0.6129525003665051,0.2885939375,0.6024333977854281
0.008,1.7984,1.0,1060.2016147392108,0.0872156059663025,1.351717875736158,0.6403858094414538,0.2885858,0.6055310455600909
0.0085,1.79819375,1.0,1144.636937270297,0.09233560425383355,1.3504168672260866,0.6653024684756068,0.2885771375,0.6084439386589772
0.009000000000000001,1.797975,1.0,1226.6542950188505,0.09742688390795227,1.3491867693810877,0.6879376077667558,0.28856795,0.6111881380395379
0.0095,1.79774375,1.0,1306.0802033173557,0.102489606013061,1.3480222917329037,0.708513873567191,0.2885582375,0.6137770550286279
0.01,1.7975,1.0,1382.7669313238196,0.1075239298270785,1.3469189036246516,0.727237679744406,0.288548,0.6162221757266253
0.0105,1.79724375,1.0,1456.6376684962315,0.1125300146079235,1.3458720743994497,0.7442973824575977,0.2885372375,0.6185347836435637
0.011,1.796975,1.0,1527.6660846125787,0.1175080192298895,1.3448774430606263,0.7598633030656321,0.28852595000000003,0.62072560353305
0.0115,1.79669375,1.0,1595.8465039615874,0.12245810166436742,1.3439310829195172,0.7740885626264421,0.2885141375,0.6228042417149495
0.012,1.7964,1.0,1661.1761146618917,0.12738041798242947,1.3430296029911273,0.7871102484762514,0.28850180000000003,0.6247789906624668
0.0125,1.79609375,1.0,1723.6784973274998,0.13227512373695896,1.342169778070986,0.7990505866260404,0.2884889375,0.6266576625473603
0.013000000000000001,1.7957750000000001,1.0,1783.3973630849212,0.1371423738013975,1.341348563865228,0.8100183656847255,0.28847555,0.6284475699845227
0.0135,1.79544375,1.0,1840.4036168651894,0.14198232320517207,1.3405629685137714,0.8201102791039943,0.2884616375,0.630155817847857
0.014,1.7951000000000001,1.0,1894.7459846655222,0.14679512422440422,1.3398105559694269,0.829412427827887,0.2884472,0.6317882208282812
0.0145,1.79474375,1.0,1946.4901068987474,0.15158092880244758,1.3390889595832798,0.8380013356020796,0.2884322375,0.6333503746451814
0.015,1.794375,1.0,1995.7170705852773,0.15633988838352428,1.3383958718069644,0.8459450524281631,0.28841675,0.6348476847704225
0.0155,1.79399375,1.0,2042.5157220031365,0.1610721544905494,1.3377291021114794,0.8533041677363685,0.2884007375,0.6362852474074423
0.016,1.7936,1.0,2086.9649133869543,0.16577787703034222,1.337086737714503,0.8601327378492329,0.2883842,0.6376675103858223
0.0165,1.7931937500000001,1.0,2129.1359777422604,0.17045720384169227,1.336467088843651,0.8664790377726893,0.2883671375,0.6389983996335418
0.017,1.792775,1.0,2169.112353440569,0.17511028276338905,1.3358684657265387,0.8723861798707927,0.28834955,0.6402818039875666
0.0175,1.7923437500000001,1.0,2206.98393662702,0.17973726113502778,1.3352892252589659,0.8778927360520797,0.2883314375,0.6415214777590639
0.018000000000000002,1.7919,1.0,2242.83825312794,0.18433828576425498,1.334727847951989,0.8830332910286404,0.2883128,0.6427208794816011
0.0185,1.79144375,1.0,2276.769968901452,0.18891350396650602,1.3341828298786804,0.8878388780934248,0.2882936375,0.643883406295526
0.019,1.790975,1.0,2308.844130718798,0.19346305888332554,1.3336530378489386,0.8923374740790739,0.28827395,0.6450116400962205
0.0195,1.79049375,1.0,2339.131987325192,0.19798709365625808,1.3331373386726628,0.8965542583186171,0.2882537375,0.6461081428000497
0.02,1.79,1.0,2367.7104792961413,0.20248575142684827,1.3326345991597517,0.9005119295695617,0.288233,0.6471754574037989
0.0205,1.78949375,1.0,2394.660984674861,0.20695917521404586,1.3321436936185318,0.9042309854848449,0.2882117375,0.6482160930785679
0.021,1.788975,1.0,2420.053266605478,0.21140750575412068,1.331663654241285,0.9077299975564712,0.28818995000000003,0.6492322080845581
0.021500000000000002,1.78844375,1.0,2443.9770535734397,0.21583088693589111,1.3311933598170775,0.9110257580614117,0.2881676375,0.6502262704498591
0.022,1.7879,1.0,2466.4888533986973,0.22022945687471393,1.3307320445156412,0.9141335719975058,0.2881448,0.65119998319676
0.0225,1.78734375,1.0,2487.6481127545176,0.22460335368594606,1.3302789425067076,0.9170673455883218,0.28812143749999997,0.6521550387010553
0.023,1.786775,1.0,2507.5169753545633,0.22895271548494425,1.3298332879600083,0.9198397334780205,0.28809755,0.6530931191118949
0.0235,1.78619375,1.0,2526.1600531431804,0.23327768038706542,1.329394315045275,0.922462268695139,0.28807313749999996,0.6540158967342289
0.024,1.7856,1.0,2543.635787520774,0.2375783844415765,1.3289613372416573,0.9249454908429229,0.2880482,0.6549248679852697
0.0245,1.78499375,1.0,2560.0086550010624,0.24185496652091018,1.328533629605043,0.9272990278887597,0.2880227375,0.6558216014621698
0.025,1.784375,1.0,2575.3321748878993,0.24610756218708607,1.3281105867410905,0.9295317111310142,0.28799675,0.6567074071059227
0.025500000000000002,1.78374375,1.0,2589.651556019921,0.250336304263468,1.3276916948659037,0.9316516485777191,0.2879702375,0.6575833964155341
0.026000000000000002,1.7831000000000001,1.0,2603.0132781600155,0.2545413255734198,1.327276440195586,0.933666281113231,0.2879432,0.658450675041151
0.0265,1.78244375,1.0,2615.4649833300327,0.25872275894030516,1.3268643089462413,0.9355824463843361,0.2879156375,0.6593103429116586
0.027,1.781775,1.0,2627.055372998607,0.2628807371874881,1.3264547873339727,0.9374064357894712,0.28788755,0.6601634943454422
0.0275,1.7810937500000001,1.0,2637.827249713751,0.26701539127041046,1.3260474250169223,0.9391440541489794,0.2878589375,0.6610110862239618
0.028,1.7804,1.0,2647.8227796073447,0.27112685303101197,1.3256417850882984,0.9408006579915832,0.2878298,0.6618540427439619
0.0285,1.77969375,1.0,2657.095132852604,0.2752152563647352,1.3252373360225926,0.942381181115434,0.2878001375,0.6626934797733648
0.029,1.778975,1.0,2665.6755410847986,0.2792807282744012,1.3248337547998927,0.9438902117603882,0.28776995,0.6635300757098315
0.029500000000000002,1.7782437500000001,1.0,2673.5957539183187,0.28332339576283105,1.3244307184002873,0.9453319965597403,0.2877392375,0.6643645056067395
0.03,1.7775,1.0,2680.8879934586234,0.2873433858328457,1.3240279038038645,0.9467104703385574,0.287708,0.6651974411877346
0.0305,1.77674375,1.0,2687.5849111272096,0.2913408254872662,1.3236249879907127,0.9480292829592131,0.2876762375,0.6660295508546271
0.031,1.775975,1.0,2693.7195468001,0.2953158417289136,1.32322164794092,0.9492918235387843,0.28764395,0.6668614996886351
0.0315,1.7751937500000001,1.0,2699.325290259684,0.29926856156060894,1.3228175606345751,0.9505012423240968,0.2876111375,0.6676939494449694
0.032,1.7744,1.0,2704.4292801904853,0.3031991073397484,1.3224124629989489,0.9516604763582638,0.2875778,0.6685274352772685
0.0325,1.77359375,1.0,2709.0660912803232,0.307107609383557,1.3220060264633593,0.9527722556128833,0.2875439375,0.6693626241112193
0.033,1.772775,1.0,2713.258504794646,0.3109941899691067,1.3215980322833667,0.9538391355971961,0.28750955,0.6701999541819728
0.0335,1.7719437500000002,1.0,2717.027941969715,0.3148589702029422,1.3211882758303477,0.9548635021224096,0.2874746375,0.6710398324908433
0.034,1.7711000000000001,1.0,2720.395990283749,0.3187020711916081,1.320776552475679,0.9558475833952998,0.2874392,0.671882663845083
0.0345,1.7702437500000001,1.0,2723.384386304938,0.32252361404164914,1.320362657590737,0.9567934622856619,0.2874032375,0.6727288508335465
0.035,1.7693750000000001,1.0,2726.0149994675776,0.3263237198596101,1.3199463865468988,0.9577030875020299,0.28736675,0.6735787937996889
0.035500000000000004,1.76849375,1.0,2728.309816776561,0.3301025097520357,1.319527534715541,0.9585782837842366,0.2873297375,0.67443289081189
0.036000000000000004,1.7676,1.0,2730.2840341320243,0.33386009826643614,1.3191059601256618,0.9594207661452661,0.2872922,0.6752914101156873
0.0365,1.76669375,1.0,2731.959943396599,0.3375966080098465,1.3186814570741705,0.9602321385062493,0.2872541375,0.6761547478223331
0.037,1.765775,1.0,2733.364642369018,0.34131216719659696,1.3182537769263167,0.9610139033600382,0.28721555,0.6770233847963465
0.0375,1.76484375,1.0,2734.510557814715,0.34500688989806544,1.3178228049285152,0.9617674821511552,0.2871764375,0.6778975276383004
0.038,1.7639,1.0,2735.4101651535857,0.34868089018563003,1.3173884263271816,0.9624942111646608,0.28713679999999997,0.6787773814845512
0.0385,1.76294375,1.0,2736.0759826188278,0.35233428213066864,1.3169505263687313,0.9631953475582219,0.28709663750000003,0.6796631499827301
0.039,1.761975,1.0,2736.5205657071856,0.3559671798045592,1.3165089902995795,0.9638720749038574,0.28705595,0.6805550352663926
0.0395,1.7609937500000001,1.0,2736.756501921818,0.3595796972786798,1.3160637033661415,0.9645255082840785,0.2870147375,0.6814532379288256
0.04,1.76,1.0,2736.7964058063376,0.36317194862440827,1.3156145508148327,0.965156698982632,0.286973,0.6823579569960185
0.0405,1.7589937500000001,1.0,2736.6529142714685,0.36674404791312265,1.3151614178920685,0.9657666388060612,0.2869307375,0.6832693898987914
0.041,1.757975,1.0,2736.3386822132456,0.37029610921620093,1.3147041898442644,0.9663562640687177,0.28688795,0.6841877324440855
0.0415,1.75694375,1.0,2735.866378423401,0.3738282466050211,1.3142427519178355,0.9669264592706802,0.2868446375,0.6851131787854137
0.042,1.7559,1.0,2735.248489085088,0.3773405737915807,1.3137769911089854,0.9674780605817939,0.28680079999999997,0.6860459178909175
0.0425,1.75484375,1.0,2734.4944663057804,0.38083320085631944,1.313306822028142,0.9680118605776207,0.2867564375,0.6869860818578639
0.043000000000000003,1.753775,1.0,2733.611766295693,0.38430623732917923,1.312832177463762,0.9685286107658793,0.28671155,0.6879337651252595
0.043500000000000004,1.75269375,1.0,2732.6076792921817,0.387759792549893,1.3123529917545944,0.9690290229107275,0.28666613750000003,0.6888890578506195
0.044,1.7516,1.0,2731.4894986589657,0.39119397585819365,1.31186919923939,0.9695137714390245,0.2866202,0.6898520489980282
0.0445,1.7504947624759706,1.0,2730.315152097326,0.39460889621964523,1.3113807313379429,0.9699834954831844,0.28657378002399075,0.6908228321155863
0.045,1.749387293569218,1.0,2729.5301497694186,0.3980046617292694,1.3108877189118975,0.9704388164453578,0.28652726632990716,0.6918011040489702
0.0455,1.7482798246624656,1.0,2729.208377062106,0.401381379550684,1.3103904965260533,0.9708803392480037,0.28648075263582357,0.6927861596502235
0.046,1.747172355755713,1.0,2729.3129717752295,0.40473915661634663,1.309889398509741,0.9713086381579753,0.2864342389417399,0.6937772981226751
0.0465,1.7460648868489606,1.0,2729.8083457069934,0.4080780993780256,1.3093847485497108,0.9717242578463159,0.2863877252476563,0.6947738436378579
0.047,1.744957417942208,1.0,2730.6635643874797,0.41139831319815423,1.3088768287346297,0.972127712853812,0.2863412115535727,0.6957752062207851
0.0475,1.7438499490354553,1.0,2731.848799833172,0.4146999031715831,1.3083659116081887,0.9725194917962041,0.28629469785948913,0.6967808181060291
0.048,1.7427424801287028,1.0,2733.335938144349,0.4179829740129847,1.3078522544853615,0.9729000584769016,0.28624818416540554,0.697790144796812
0.0485,1.7416350112219503,1.0,2735.1006765860684,0.4212476293404995,1.3073360802777627,0.9732698519177797,0.2862016704713219,0.6988027224473872
0.049,1.7405275423151978,1.0,2737.1247754615715,0.4244939698656835,1.3068175569815752,0.9736292861810804,0.2861551567772383,0.6998181974740365
0.0495,1.7394200734084453,1.0,2739.3820108546565,0.4277221004327245,1.3062969251365064,0.9739787612844938,0.2861086430831547,0.7008360766961779
0.05,1.7383126045016928,1.0,2741.843707991265,0.4309321279428289,1.305774447402873,0.9743186603309636,0.2860621293890711,0.7018558268988128
0.0505,1.73720513559494,1.0,2744.4965944214086,0.43412415168216933,1.3052502465773044,0.9746493386447577,0.28601561569498746,0.7028771905755578
0.051000000000000004,1.7360976666881875,1.0,2747.327392220138,0.4372982709369183,1.3047244454564302,0.974971135362026,0.28596910200090386,0.7038999118025226
0.051500000000000004,1.734990197781435,1.0,2750.3228134632755,0.4404545849932485,1.3041971668368795,0.9752843743144952,0.28592258830682027,0.7049237362513256
0.052000000000000005,1.7338827288746825,1.0,2753.4695560377663,0.4435931931373324,1.3036685335152822,0.975589364857498,0.2858760746127367,0.7059484112011414
0.0525,1.73277525996793,1.0,2756.754299786191,0.4467141946553427,1.3031386682882675,0.9758864026462991,0.2858295609186531,0.706973685549795
0.053,1.7316677910611775,1.0,2760.1637029856315,0.44981768883345186,1.3026076939524651,0.9761757703643619,0.2857830472245695,0.7079993098238878
0.0535,1.730560322154425,1.0,2763.6843991608334,0.4529037749578325,1.302075733304504,0.9764577384069184,0.28573653353048584,0.709025036187966
0.054,1.7294528532476723,1.0,2767.3069520024355,0.4559725485726185,1.3015428734129508,0.9767325629763602,0.28569001983640224,0.710050687161547
0.0545,1.7283453843409198,1.0,2771.01963814133,0.45902411017503497,1.301009221802473,0.9770004910680774,0.28564350614231865,0.7110760471615742
0.055,1.7272379154341673,1.0,2774.812165841167,0.4620585585305103,1.300474872844615,0.9772617582787201,0.285596992448235,0.7121009272608817
0.0555,1.7261304465274148,1.0,2778.6786843263158,0.4650759875787666,1.2999398806771334,0.9775165875068542,0.2855504787541514,0.7131252167710045
0.056,1.7250229776206623,1.0,2782.6133290035236,0.4680764912595258,1.2994042994377855,0.9777651924066302,0.2855039650600678,0.714148805733957
0.0565,1.7239155087139097,1.0,2786.6102207230842,0.4710601635125099,1.2988681832643276,0.978007777848388,0.2854574513659842,0.7151715849243632
0.057,1.7228080398071572,1.0,2790.663465103658,0.474027098277441,1.2983315862945168,0.9782445403527106,0.2854109376719006,0.7161934458513943
0.0575,1.7217005709004045,1.0,2794.7671519230366,0.47697738949404106,1.29779456266611,0.9784756684996548,0.28536442397781697,0.7172142807605237
0.058,1.720593101993652,1.0,2798.915354573532,0.47991113110203204,1.2972571665168642,0.9787013433147689,0.2853179102837334,0.7182339826350934
0.0585,1.7194856330868995,1.0,2803.102129582171,0.4828284170411361,1.2967194519845358,0.9789217386333904,0.2852713965896498,0.7192524451976938
0.059000000000000004,1.718378164180147,1.0,2807.326785931506,0.4857293284047574,1.2961814259755806,0.9791370177747767,0.2852248828955662,0.7202696521271419
0.059500000000000004,1.7172706952733945,1.0,2811.5799796900924,0.48861397167993265,1.295643172876635,0.979347344011347,0.28517836920148254,0.7212854411078955
0.06,1.716163226366642,1.0,2815.856475947546,0.49148244275705866,1.295104740050809,0.9795528714139897,0.28513185550739895,0.7222997206618129
0.0605,1.7150557574598895,1.0,2820.1542157562735,0.4943348292707215,1.2945661463191727,0.9797537459488598,0.28508534181331535,0.7233124535799482
0.061,1.7139482885531367,1.0,2824.471133937883,0.49717121885550686,1.294027410502797,0.9799501080312009,0.28503882811923176,0.7243236029114151
0.0615,1.7128408196463842,1.0,2828.8051590198347,0.49999169914600067,1.2934885514227525,0.9801420927793978,0.28499231442514816,0.7253331319635662
0.062,1.7117333507396317,1.0,2833.1542131799397,0.5027963577767888,1.2929495879001098,0.9803298302555485,0.2849458007310645,0.7263410043021551
0.0625,1.7106258818328792,1.0,2837.516212199288,0.5055852823824569,1.2924105387559397,0.9805134456933668,0.2848992870369809,0.7273471837514703
0.063,1.7095184129261267,1.0,2841.8890654219545,0.5083585605975912,1.2918714228113128,0.9806930597141691,0.2848527733428973,0.728351634394451
0.0635,1.7084109440193742,1.0,2846.2706757237693,0.5111162800567772,1.2913322588872995,0.9808687885316584,0.28480625964881373,0.729354320572779
0.064,1.7073034751126217,1.0,2850.658939487895,0.5138585283946011,1.2907930658049709,0.9810407441461588,0.2847597459547301,0.7303552068869448
0.0645,1.706196006205869,1.0,2855.0517465892735,0.5165853932456484,1.2902538623853974,0.9812090345289227,0.2847132322606465,0.7313542581962971
0.065,1.7050885372991165,1.0,2859.4469803858797,0.5192969622445053,1.2897146674496498,0.9813737637970842,0.2846667185665629,0.7323514396190651
0.0655,1.703981068392364,1.0,2863.842517718571,0.5219933230257574,1.2891754998187983,0.9815350323797952,0.2846202048724793,0.7333467165323603
0.066,1.7028735994856115,1.0,2868.2391483023066,0.5246745390653123,1.288636352427553,0.9816929342709018,0.2845736911783957,0.7343401022235887
0.0665,1.701766130578859,1.0,2872.6338772352424,0.5273407164100086,1.288097251765044,0.9818475646938708,0.28452717748431205,0.7353315482315972
0.067,1.7006586616721064,1.0,2877.024268572647,0.5299919533171695,1.2875582192907433,0.9819990147954805,0.28448066379022846,0.7363210156834719
0.0675,1.699551192765354,1.0,2881.4098755827413,0.5326283296818661,1.2870192588007592,0.9821473705368313,0.28443415009614487,0.7373084983337463
0.068,1.6984437238586012,1.0,2885.7902502603365,0.5352499253991698,1.2864803740911996,0.9822927149540088,0.2843876364020612,0.7382939899890508
0.0685,1.6973362549518487,1.0,2890.164943333429,0.5378568203641519,1.2859415689581724,0.9824351282782067,0.2843411227079776,0.7392774845080956
0.069,1.6962287860450962,1.0,2894.53350426889,0.5404490944718837,1.2854028471977856,0.9825746880501192,0.28429460901389403,0.74025897580165
0.0695,1.6951213171383437,1.0,2898.895481280067,0.5430268276174365,1.2848642126061476,0.9827114692289141,0.28424809531981043,0.7412384578325241
0.07,1.6940138482315912,1.0,2903.2504213335906,0.5455900996958815,1.2843256689793658,0.9828455442960764,0.28420158162572684,0.7422159246155487
0.07050000000000001,1.6929063793248387,1.0,2907.5978701569697,0.5481389906022901,1.283787220113549,0.9829769833544013,0.28415506793164325,0.7431913702175514
0.07100000000000001,1.6917989104180862,1.0,2911.937372246444,0.5506735802317335,1.2832488698048046,0.9831058542223873,0.2841085542375596,0.7441647887573369
0.07150000000000001,1.6906914415113334,1.0,2916.2684708752186,0.5531939484792832,1.2827106218492406,0.9832322225242812,0.284062040543476,0.7451361744056624
0.07200000000000001,1.689583972604581,1.0,2920.5907081014784,0.5557001752400103,1.2821724800429655,0.9833561517759951,0.2840155268493924,0.7461055213852112
