Time [s],Phi [rad],STIM [ ],Fsee [N],Gamma [ ],Lcerel [ ],q [ ],Lmtc [m],fisomrel [ ]
0.0,1.8,1.0,18.141626290538575,0.0004247294260000349,1.3793202471766985,0.005046672506795683,0.288653,0.5411867030669909
0.0005,1.79999375,1.0,18.58254823208114,0.006031556338649656,1.3792685598223735,0.014131897944623953,0.2886527375,0.5413117331959908
0.001,1.799975,1.0,22.23194311661295,0.011606933385323485,1.378876074271676,0.03780241360467247,0.28865195,0.5422605878331745
0.0015,1.79994375,1.0,32.35617262705392,0.017151036975842922,1.3779376736166402,0.0735833267477446,0.2886506375,0.544525238715695
0.002,1.7999,1.0,56.2072737853815,0.022664042528405582,1.376199878566457,0.11823522644916601,0.2886488,0.5487042454291549
0.0025,1.79984375,1.0,101.40611798286815,0.02814612447898546,1.3737308091926324,0.16839255282440635,0.28864643749999996,0.5546086806767228
0.003,1.7997750000000001,1.0,166.4598559458584,0.03359745628442689,1.3710101405948791,0.22121323567208345,0.28864354999999997,0.5610697563002807
0.0035,1.79969375,1.0,243.8524652216029,0.039018210429483814,1.3683959258910126,0.27452056057254615,0.2886401375,0.5672335516164018
0.004,1.7996,1.0,328.00485823962873,0.044408558429484296,1.3659837950953913,0.3266966757718721,0.2886362,0.5728822121415009
0.0045000000000000005,1.7994937500000001,1.0,416.0216283684149,0.049768670837970624,1.3637649236418798,0.37662158356125497,0.2886317375,0.5780455367596216
0.005,1.799375,1.0,506.291661540726,0.05509871724631148,1.3617126818848393,0.42360212289540555,0.28862675,0.5827931625117253
0.0055,1.79924375,1.0,597.725452627536,0.06039886633680622,1.3598037365714226,0.46727865810337044,0.2886212375,0.5871851758585533
0.006,1.7991000000000001,1.0,689.4492902850998,0.06566928575272342,1.3580207425624744,0.5075328966927031,0.2886152,0.5912664154815512
0.006500000000000001,1.79894375,1.0,780.7662600102414,0.07091014228904739,1.3563499823679384,0.5444089605910087,0.2886086375,0.5950723535279656
0.007,1.798775,1.0,871.0879156308084,0.07612160178831631,1.354780734553379,0.5780534365582315,0.28860155,0.598630836702056
0.0075,1.79859375,1.0,959.9185931347948,0.08130382897203711,1.3533042841083471,0.6086714878909962,0.2885939375,0.6019645498427562
0.008,1.7984,1.0,1046.8971535992637,0.08645698823367293,1.35191252796592,0.6364960329710208,0.2885858,0.6050943005760061
0.0085,1.79819375,1.0,1131.6987618405185,0.09158124222153328,1.3505989878001023,0.6617685265126547,0.2885771375,0.608036829571249
0.009000000000000001,1.797975,1.0,1214.0826480732542,0.09667675300324596,1.3493576668005132,0.6847257453348964,0.28856795,0.6108074638000689
0.0095,1.79774375,1.0,1293.8877636067007,0.10174368226489088,1.3481828786600387,0.7055923156232826,0.2885582375,0.6134205453061504
0.01,1.7975,1.0,1370.9797076118123,0.10678219007904172,1.347069756261775,0.7245770540218561,0.288548,0.6158883427563523
0.0105,1.79724375,1.0,1445.2703549610299,0.11179243563805959,1.3460137905105705,0.7418710252634162,0.2885372375,0.6182221198230455
0.011,1.796975,1.0,1516.7184555017782,0.11677457744484757,1.3450106949574017,0.7576472301505951,0.28852595000000003,0.6204324628986312
0.0115,1.79669375,1.0,1585.3219567472806,0.1217287740948604,1.3440564008045661,0.7720612261078673,0.2885141375,0.622529314621836
0.012,1.7964,1.0,1651.0661853279244,0.12665518142713833,1.3431475779819049,0.7852524459801826,0.28850180000000003,0.6245208537154099
0.0125,1.79609375,1.0,1713.9741656986662,0.1315539551218566,1.3422809352306446,0.7973451959484129,0.2884889375,0.6264150554133778
0.013000000000000001,1.7957750000000001,1.0,1774.0909841891732,0.13642525015758486,1.3414533519094083,0.8084501347226641,0.28847555,0.6282194147634879
0.0135,1.79544375,1.0,1831.488993469027,0.14126922193908228,1.3406617693706506,0.8186656322665153,0.2884616375,0.6299411954376839
0.014,1.7951000000000001,1.0,1886.2203528726027,0.14608602318915337,1.3399036727213944,0.828079277264934,0.2884472,0.6315863943574846
0.0145,1.79474375,1.0,1938.3406751308098,0.15087580551717428,1.339176769565573,0.8367689652285978,0.2884322375,0.6331604559536423
0.015,1.794375,1.0,1987.9264929995563,0.15563872053252117,1.33847876750712,0.8448039376427005,0.28841675,0.634668762585654
0.0155,1.79399375,1.0,2035.0604528938827,0.1603749189741851,1.3378075109174663,0.8522458399314002,0.2884007375,0.636116344284904
0.016,1.7936,1.0,2079.8400985630456,0.1650845520788338,1.3371608643907087,0.8591495811040115,0.2883842,0.6375081362350452
0.0165,1.7931937500000001,1.0,2122.340471095829,0.16976776823734457,1.3365370818209195,0.8655642396021933,0.2883671375,0.6388481905595018
0.017,1.792775,1.0,2162.6349925623445,0.17442471477473495,1.3359345607912623,0.8715336773206378,0.28834955,0.640140213220605
0.0175,1.7923437500000001,1.0,2200.807972395336,0.1790555390160225,1.3353516988849004,0.8770971142539585,0.2883314375,0.6413878764509284
0.018000000000000002,1.7919,1.0,2236.946165086765,0.18366038745244265,1.3347869691383045,0.8822896937353872,0.2883128,0.6425946597423084
0.0185,1.79144375,1.0,2271.142566328892,0.18823940711264903,1.3342388706871375,0.8871429456778299,0.2882936375,0.6437639582965146
0.019,1.790975,1.0,2303.4779000032972,0.19279274308348282,1.333706103314546,0.8916852459863537,0.28827395,0.6448987136818287
0.0195,1.79049375,1.0,2334.020203631349,0.1973205381674996,1.3331875578907713,0.8959421728782292,0.2882537375,0.6460014389884693
0.02,1.79,1.0,2362.8432033143663,0.2018229351672548,1.3326821252860537,0.8999367789552069,0.288233,0.6470746285559774
0.0205,1.78949375,1.0,2390.0258388167276,0.20630007688530408,1.3321886963706344,0.9036898746033205,0.2882117375,0.6481207589399824
0.021,1.788975,1.0,2415.639955575377,0.21075210436666617,1.3317062766104284,0.9072203005689075,0.28818995000000003,0.6491420473764221
0.021500000000000002,1.78844375,1.0,2439.7720688900395,0.2151791611146542,1.3312337699390464,0.9105450996112652,0.2881676375,0.6501409108799965
0.022,1.7879,1.0,2462.486984259162,0.2195813867596458,1.3307703258396724,0.913679779177975,0.2881448,0.6511192332395312
0.0225,1.78734375,1.0,2483.841394908871,0.2239589191560183,1.3303152010065953,0.9166384469878976,0.28812143749999997,0.6520786606631779
0.023,1.786775,1.0,2503.8946826115102,0.22831189615814879,1.3298676521341037,0.9194339380496233,0.28809755,0.6530208293224934
0.0235,1.78619375,1.0,2522.7086936736832,0.23264045562041455,1.3294269359164872,0.9220779470858989,0.28807313749999996,0.6539473657291921
0.024,1.7856,1.0,2540.347286075853,0.2369447353359477,1.3289923113196556,0.9245811459777815,0.2880482,0.65485988231043
0.0245,1.78499375,1.0,2556.863815586288,0.24122486978556731,1.3285631551942998,0.9269533061238098,0.2880227375,0.6557597354871381
0.025,1.784375,1.0,2572.3319217444923,0.24548099909653787,1.3281386704972669,0.9292033420546216,0.28799675,0.6566486381514227
0.025500000000000002,1.78374375,1.0,2586.7944957021186,0.24971325580855191,1.327718363818263,0.9313394703560375,0.2879702375,0.6575276594906907
0.026000000000000002,1.7831000000000001,1.0,2600.2956842043145,0.25392177246130204,1.3273017417469952,0.9333692299937738,0.2879432,0.6583978630401253
0.0265,1.78244375,1.0,2612.8807848261554,0.2581066815944808,1.3268883108731704,0.9352995473384668,0.2879156375,0.6592603068063951
0.027,1.781775,1.0,2624.5961466073863,0.2622681157477808,1.326477577786495,0.9371367941584888,0.28788755,0.6601160433758391
0.0275,1.7810937500000001,1.0,2635.4890760844837,0.2664062074608946,1.3260690490766758,0.9388868394164793,0.2878589375,0.6609661200071186
0.028,1.7804,1.0,2645.5979251198355,0.27052108524585217,1.32566232203101,0.9405551073082714,0.2878298,0.6618113903360037
0.0285,1.77969375,1.0,2654.9761294814407,0.27461288495814906,1.3252568615190858,0.9421465898569122,0.2878001375,0.66265297842715
0.029,1.778975,1.0,2663.6588050716946,0.2786817351960056,1.3248523078344532,0.9436659236133504,0.28776995,0.6634916393323651
0.029500000000000002,1.7782437500000001,1.0,2671.677292325424,0.28272776274902284,1.3244483410230534,0.945117404056376,0.2877392375,0.6643280421153968
0.03,1.7775,1.0,2679.063408274648,0.2867510944068017,1.3240446411308286,0.9465050106240999,0.287708,0.6651628525331393
0.0305,1.77674375,1.0,2685.8494034744576,0.29075185695894334,1.3236408882037205,0.9478324339761314,0.2876762375,0.6659967330443459
0.031,1.775975,1.0,2692.0679211983766,0.29473017719504885,1.3232367622876706,0.9491031005821154,0.28764395,0.666830342811811
0.0315,1.7751937500000001,1.0,2697.751958903197,0.29868618190471913,1.3228319434286213,0.9503201949278276,0.2876111375,0.6676643376980211
0.032,1.7744,1.0,2702.9251771427644,0.3026199930705716,1.3224261998614717,0.951486688889671,0.2875778,0.6684991889122778
0.0325,1.77359375,1.0,2707.6217357365263,0.30653173944824275,1.3220192062866927,0.9526053407184737,0.2875439375,0.6693355573421189
0.033,1.772775,1.0,2711.8766983379624,0.3104215494991792,1.3216106315223601,0.95367872066781,0.28750955,0.6701741125375915
0.0335,1.7719437500000002,1.0,2715.7097906036033,0.3142895434103672,1.3212002862530712,0.9547092407461788,0.2874746375,0.6710152299456159
0.034,1.7711000000000001,1.0,2719.140900046425,0.318135841368793,1.3207879811634222,0.9556991533151571,0.2874392,0.6718592829754333
0.0345,1.7702437500000001,1.0,2722.1900601699804,0.321960563561443,1.32037352693801,0.956650563538638,0.2874032375,0.672706642976085
0.035,1.7693750000000001,1.0,2724.8774353964427,0.32576383017530336,1.3199567342614311,0.9575654407223595,0.28736675,0.6735576792116069
0.035500000000000004,1.76849375,1.0,2727.2233067899383,0.32954576139736036,1.319537413818282,0.9584456286542392,0.2873297375,0.6744127588339413
0.036000000000000004,1.7676,1.0,2729.2480585742524,0.3333064774146003,1.3191153762931596,0.9592928550439399,0.2872922,0.6752722468535561
0.0365,1.76669375,1.0,2730.9721654450364,0.3370460984140094,1.3186904323706603,0.9601087401494466,0.2872541375,0.6761365061077858
0.037,1.765775,1.0,2732.415052511175,0.34076474305679627,1.3182624029845074,0.9608948053542299,0.28721555,0.6770058764238746
0.0375,1.76484375,1.0,2733.592051155837,0.34446252533355715,1.3178311468550121,0.9616524823705894,0.2871764375,0.6778806189057007
0.038,1.7639,1.0,2734.525486606799,0.34813957222893277,1.3173964596785805,0.9623831136614823,0.28713679999999997,0.6787611204831097
0.0385,1.76294375,1.0,2735.2270613103788,0.35179599712919934,1.3169582340620631,0.9630879684126822,0.28709663750000003,0.6796475697074567
0.039,1.761975,1.0,2735.708514329826,0.35543191342063307,1.3165163626123109,0.9637682413940917,0.28705595,0.6805401536947453
0.0395,1.7609937500000001,1.0,2735.98161645789,0.35904743448951026,1.3160707379361745,0.9644250581218308,0.2870147375,0.6814390581010272
0.04,1.76,1.0,2736.058165583741,0.3626426737221072,1.315621252640504,0.9650594796090702,0.286973,0.6823444670970636
0.0405,1.7589937500000001,1.0,2735.9499823157994,0.36621774450469996,1.3151677993321507,0.9656725067424001,0.2869307375,0.6832565633422487
0.041,1.757975,1.0,2735.6689058608426,0.3697727602235649,1.314710270617965,0.9662650843168762,0.28688795,0.6841755279578038
0.0415,1.75694375,1.0,2735.226790158155,0.3733078342649783,1.3142485591047974,0.9668381047596626,0.2868446375,0.6851015404992304
0.042,1.7559,1.0,2734.6355002699543,0.3768230800152163,1.3137825573994988,0.9673924115692811,0.28680079999999997,0.6860347789280301
0.0425,1.75484375,1.0,2733.898027515948,0.38031859273598806,1.313312238773473,0.9679288062042405,0.2867564375,0.6869752584016398
0.043000000000000003,1.753775,1.0,2733.0347364650847,0.3837945053232638,1.3128374187773724,0.96844804034969,0.28671155,0.6879233080762467
0.043500000000000004,1.75269375,1.0,2732.055364096399,0.38725093103374086,1.3123580094890535,0.9689508303721961,0.28666613750000003,0.6888790622067487
0.044,1.7516,1.0,2730.9658546893506,0.3906879754220481,1.31187395745955,0.9694378565432819,0.2866202,0.6898425850080321
0.0445,1.75049375,1.0,2729.772154758753,0.3941057440428144,1.3113852092398959,0.969909763782903,0.2865737375,0.6908139396257216
0.045,1.7493750000000001,1.0,2728.4802118980365,0.3975043424506686,1.3108917113811256,0.9703671638397019,0.28652675,0.6917931881202644
0.0455,1.74824375,1.0,2727.0959736864456,0.4008838762002397,1.3103934104342725,0.9708106373162793,0.2864792375,0.6927803914508331
0.046,1.7471,1.0,2725.625386659672,0.40424445084615646,1.3098902529503709,0.9712407355519023,0.2864312,0.6937756094590407
0.0465,1.7459437500000001,1.0,2724.074395343432,0.40758617194304775,1.3093821854804546,0.9716579823739568,0.28638263750000004,0.6947789008524796
0.047,1.744775,1.0,2722.4489413505507,0.41090914504554255,1.3088691545755577,0.972062875728461,0.28633355,0.6957903231880747
0.0475,1.74359375,1.0,2720.754962541777,0.4142134757082696,1.3083511067867142,0.9724558891990545,0.28628393750000003,0.6968099328552564
0.048,1.7424,1.0,2718.998392248985,0.4174992694858579,1.3078279886649578,0.9728374734230715,0.2862338,0.6978377850589498
0.0485,1.74119375,1.0,2717.1851585630316,0.4207666319329363,1.3072997467613225,0.9732080574125631,0.2861831375,0.6988739338023822
0.049,1.739975,1.0,2715.3211836834403,0.4240156686041336,1.3067663276268424,0.9735680497874675,0.28613195,0.6999184318697091
0.0495,1.73874375,1.0,2713.405923280568,0.4272464720756728,1.3062277367058344,0.973917842385733,0.2860802375,0.7009712157908872
0.05,1.7375,1.0,2711.4445111604177,0.43045914989338696,1.3056839276801004,0.9742578070770757,0.286028,0.7020323225703671
0.0505,1.73624375,1.0,2709.448587602817,0.43365381953767995,1.3051347948164684,0.9745882957327714,0.2859752375,0.7031019036744635
0.051000000000000004,1.734975,1.0,2707.4204421437094,0.43683057809755327,1.304580317574354,0.9749096473703908,0.28592195,0.7041799430685768
0.051500000000000004,1.73369375,1.0,2705.3623615780734,0.4399895226620083,1.3040204754131721,0.9752221856494653,0.2858681375,0.7052664238824898
0.052000000000000005,1.7324,1.0,2703.2766298269976,0.4431307503200465,1.3034552477923382,0.9755262196992094,0.2858138,0.7063613284033501
0.0525,1.73109375,1.0,2701.1655278155176,0.4462543581606693,1.3028846141712676,0.9758220448946595,0.28575893750000003,0.70746463806863
0.053,1.729775,1.0,2699.0313333583636,0.4493604432728781,1.3023085540093755,0.9761099435848583,0.28570355000000003,0.7085763334590578
0.0535,1.72844375,1.0,2696.876321055984,0.45244910274567446,1.3017270467660775,0.976390185776439,0.2856476375,0.709696394291522
0.054,1.7271,1.0,2694.7027621999537,0.4555204336680598,1.3011400719007886,0.976663029775694,0.2855912,0.7108247994119511
0.0545,1.7257437500000001,1.0,2692.512924686886,0.45857453312903546,1.3005476088729242,0.9769287227919827,0.2855342375,0.7119615267881626
0.055,1.724375,1.0,2690.3090729424835,0.46161149821760294,1.2999496371418997,0.9771875015051079,0.28547675,0.7131065535026873
0.0555,1.72299375,1.0,2688.0934678549143,0.4646314260227637,1.2993461361671304,0.9774395925991,0.2854187375,0.7142598557455672
0.056,1.7216,1.0,2685.8683667170494,0.46763441363351915,1.2987370854080316,0.9776852132646542,0.2853602,0.7154214088071251
0.0565,1.72019375,1.0,2683.636023178543,0.47062055813887077,1.2981224643240186,0.9779245716723073,0.28530113749999997,0.7165911870707089
0.057,1.718775,1.0,2681.3993164922604,0.47358995635100076,1.297502246603466,0.9781578670622381,0.28524155,0.7177691749550079
0.0575,1.71734375,1.0,2679.160531437279,0.47654270040946217,1.2968764113451205,0.9783852904295897,0.2851814375,0.7189553456213099
0.058,1.7159,1.0,2676.9179859914348,0.47947888226630303,1.2962449740219857,0.9786070270710078,0.2851208,0.7201496025724268
0.0585,1.71444375,1.0,2674.6736007029895,0.48239859426087967,1.2956079170531547,0.9788232530399693,0.2850596375,0.7213519112739006
0.059000000000000004,1.7129750000000001,1.0,2672.4292929144276,0.4853019287325486,1.2949652228577213,0.9790341373788047,0.28499795,0.7225622363025983
0.059500000000000004,1.7114947158424088,1.0,2670.23416716962,0.4881889774046369,1.2943168763626622,0.9792398425369413,0.2849357780653812,0.723780536633053
0.06,1.7100121297064912,1.0,2668.5152037263188,0.49105983269367487,1.2936631210486318,0.979440538672532,0.28487350944767265,0.7250062861478848
0.0605,1.7085295435705736,1.0,2667.3434028490706,0.4939145851381083,1.2930043394506667,0.9796363966924753,0.2848112408299641,0.7262387023695105
0.061,1.7070469574346558,1.0,2666.678502270108,0.4967533244086491,1.2923408985096152,0.9798275800897481,0.28474897221225554,0.7274770378143842
0.0615,1.7055643712987383,1.0,2666.4804118981488,0.4995761401760092,1.2916731651663251,0.9800142461849474,0.284686703594547,0.7287205507712297
0.062,1.7040817851628207,1.0,2666.709177403851,0.5023831221109006,1.2910015063616445,0.9801965464168305,0.2846244349768385,0.7299685054057838
0.0625,1.702599199026903,1.0,2667.3303892661265,0.5051743587992872,1.2903262389931578,0.9803746239366097,0.2845621663591299,0.7312202645155862
0.063,1.7011166128909854,1.0,2668.3075337339783,0.5079499397824001,1.2896477000005095,0.9805486177423951,0.28449989774142137,0.7324751590702003
0.0635,1.6996340267550678,1.0,2669.6148793219772,0.5107099520078535,1.2889661276782154,0.9807186565498196,0.28443762912371284,0.7337327074446981
0.064,1.69815144061915,1.0,2671.2269648240463,0.5134544823678372,1.288281758196984,0.9808848643121667,0.2843753605060043,0.7349924358764528
0.0645,1.6966688544832325,1.0,2673.1183530999197,0.5161836177545407,1.2875948277275246,0.9810473605442014,0.2843130918882958,0.7362538745675237
0.065,1.695186268347315,1.0,2675.2675240011436,0.5188974435072471,1.2869055365696436,0.9812062586208786,0.2842508232705872,0.7375166233599647
0.0655,1.693703682211397,1.0,2677.649127778701,0.5215960470412336,1.286214120206669,0.9813616698106759,0.2841885546528787,0.7387802212829159
0.066,1.6922210960754795,1.0,2680.238723081914,0.5242795159131219,1.2855208056676528,0.9815137010981928,0.28412628603517015,0.7400442268204542
0.0665,1.690738509939562,1.0,2683.0223362438032,0.5269479334750735,1.2848257238133933,0.9816624507963082,0.28406401741746157,0.7413083770860223
0.067,1.6892559238036442,1.0,2685.9859858110945,0.5296013830792498,1.28412900550469,0.9818080138328151,0.28400174879975304,0.7425724114506247
0.0675,1.6877733376677266,1.0,2689.1156776058156,0.532239948077812,1.2834307816023414,0.9819504818941681,0.2839394801820445,0.743836071557034
0.068,1.686290751531809,1.0,2692.3974001676143,0.5348637118229219,1.2827311829671466,0.9820899435621937,0.283877211564336,0.7450991013329014
0.0685,1.6848081653958913,1.0,2695.817120575162,0.5374727576667407,1.2820303404599047,0.9822264844441502,0.28381494294662746,0.746361247002775
0.069,1.6833255792599737,1.0,2699.360780647307,0.5400671689614299,1.2813283849414148,0.9823601872965072,0.2837526743289189,0.747622257099028
0.0695,1.6818429931240562,1.0,2703.02261252604,0.5426470224725114,1.2806253712863862,0.9824911281773105,0.28369040571121035,0.7488820184642152
0.07,1.6803604069881384,1.0,2706.7828787718227,0.5452124086867105,1.2799214818010716,0.9826193874081329,0.2836281370935018,0.750140191410371
0.07050000000000001,1.6788778208522208,1.0,2710.6323047050137,0.5477634090868911,1.2792168029060147,0.9827450377341446,0.28356586847579324,0.7513966102517339
0.07100000000000001,1.677395234716303,1.0,2714.5648570271874,0.5503001023539252,1.2785113912732071,0.9828681480139678,0.2835035998580847,0.7526511636832351
0.07150000000000001,1.6759126485803855,1.0,2718.5744881804994,0.5528225671686855,1.277805303574641,0.9829887848897508,0.2834413312403762,0.7539037414088059
0.07200000000000001,1.674430062444468,1.0,2722.65513546296,0.5553308822120439,1.2770985964823085,0.9831070128747155,0.28337906262266765,0.7551542341439247
0.0725,1.6729474763085503,1.0,2726.800720214528,0.5578251261648728,1.276391326668201,0.9832228944367046,0.2833167940049591,0.7564025336179586
0.073,1.6714648901726326,1.0,2731.0051470743133,0.5603053777080447,1.2756835508043107,0.9833364900779415,0.28325452538725054,0.7576485325762979
0.0735,1.669982304036715,1.0,2735.262303309448,0.5627717155224317,1.2749753255626297,0.9834478584111911,0.283192256769542,0.7588921247822888
