Time [s],Phi [rad],STIM [ ],Fsee [N],Gamma [ ],Lcerel [ ],q [ ],Lmtc [m],fisomrel [ ]
0.0,1.8,1.0,18.776601809386715,0.0009182178822918527,1.3792500604491063,0.005216737432401498,0.288653,0.5413564784736902
0.0005,1.79999375,1.0,19.356549382661075,0.006522276714921471,1.37918416358562,0.0156529252057594,0.2886527375,0.5415158484881182
0.001,1.799975,1.0,23.373291025711215,0.012094901208831693,1.378762560883115,0.0404969489793733,0.28865195,0.5425348293152568
0.0015,1.79994375,1.0,34.35390191546014,0.017636267685036833,1.3777733908530843,0.07719043277355787,0.2886506375,0.5449211261586826
0.002,1.7999,1.0,59.867745107665705,0.02314655147723777,1.37597167416819,0.1224549411909453,0.2886488,0.549251595099389
0.0025,1.79984375,1.0,107.01726341885715,0.028625926933939134,1.3734697613913855,0.1729500627370932,0.28864643749999996,0.5552306674944565
0.003,1.7997750000000001,1.0,173.42342805177594,0.03407456742698934,1.3707564570246389,0.22589321655724873,0.28864354999999997,0.5616698009392127
0.0035,1.79969375,1.0,251.53964891352803,0.03949264535584477,1.3681639685277882,0.2791599087296946,0.2886401375,0.567778355477901
0.004,1.7996,1.0,336.07959871700956,0.04488033215099099,1.3657733555680762,0.3311778491799312,0.2886362,0.5733732536877223
0.0045000000000000005,1.7994937500000001,1.0,424.3114156545799,0.050237798275713536,1.3635728687714577,0.38086780449819413,0.2886317375,0.5784909728740193
0.005,1.799375,1.0,514.7003028367618,0.05556521326856802,1.3615359476343474,0.42756961937089405,0.28862675,0.5832007607402245
0.0055,1.79924375,1.0,606.1651799226373,0.06086274565708745,1.3596403787472724,0.4709486270513796,0.2886212375,0.5875599425207859
0.006,1.7991000000000001,1.0,697.8690406132481,0.06613056310040136,1.3578689272678808,0.5109034315848299,0.2886152,0.5916129811739039
0.006500000000000001,1.79894375,1.0,789.1035498792974,0.07136883219886896,1.3562086645283618,0.5474895753037847,0.2886086375,0.5953934544480901
0.007,1.798775,1.0,879.3029013943204,0.07657771885235791,1.3546488655045397,0.5808601688054231,0.28860155,0.5989291524118079
0.0075,1.79859375,1.0,967.9799577895038,0.08175738762848499,1.3531809821985152,0.6112239048040994,0.2885939375,0.6022423272107529
0.008,1.7984,1.0,1054.7724914506737,0.08690800265868091,1.3517971587060784,0.638815182577407,0.2885858,0.6053531859895736
0.0085,1.79819375,1.0,1139.36959125356,0.09202972689484072,1.3504908866741923,0.663875417659618,0.2885771375,0.6082785024181714
0.009000000000000001,1.797975,1.0,1221.5310783142463,0.09712272212699785,1.34925630754037,0.6866406219229154,0.28856795,0.6110332641685793
0.0095,1.79774375,1.0,1301.0954095038726,0.10218714949921956,1.3480878556105316,0.7073341775743861,0.2885582375,0.6136315203331051
0.01,1.7975,1.0,1377.957911638543,0.10722317005361368,1.346980371405437,0.7261632205470877,0.288548,0.6160861666433197
0.0105,1.79724375,1.0,1452.0132112001054,0.11223094226647552,1.3459296604757198,0.7433173866555427,0.2885372375,0.6184077487345447
0.011,1.796975,1.0,1523.21580830175,0.11721062454026233,1.3449315529654728,0.7589681590836105,0.28852595000000003,0.6206065808954949
0.0115,1.79669375,1.0,1591.5538062958556,0.12216237447955804,1.3439821468771758,0.7732696720126822,0.2885141375,0.6226922277734983
0.012,1.7964,1.0,1657.0593138232357,0.12708634986498077,1.343077599397179,0.7863597451735412,0.28850180000000003,0.6246739821169283
0.0125,1.79609375,1.0,1719.7387516892,0.13198270557024885,1.342214867611021,0.7983615442554133,0.2884889375,0.6265592614348576
0.013000000000000001,1.7957750000000001,1.0,1779.6250275966486,0.1368515961183473,1.3413910066108086,0.8093846665739902,0.28847555,0.6283551677463612
0.0135,1.79544375,1.0,1836.7790064745554,0.14169317575367932,1.3406031111749825,0.8195265198946085,0.2884616375,0.6300686245469467
0.014,1.7951000000000001,1.0,1891.2747363011442,0.14650759825360815,1.3398484435276163,0.8288736994304733,0.2884472,0.6317061078821957
0.0145,1.79474375,1.0,1943.1820055544006,0.15129501631404768,1.3391245821102837,0.8375032573071514,0.2884322375,0.6332733348486143
0.015,1.794375,1.0,1992.5619793783496,0.15605558042301215,1.338429424050047,0.8454837966997453,0.28841675,0.634775270845515
0.0155,1.79399375,1.0,2039.4938591664509,0.16078944106851586,1.3377608664739682,0.8528763542638159,0.2884007375,0.6362168274194969
0.016,1.7936,1.0,2084.0629530261317,0.16549674786453775,1.337116914455293,0.8597353274460086,0.2883842,0.637602633890761
0.0165,1.7931937500000001,1.0,2126.36698614743,0.1701776512345537,1.3364955956514548,0.8661092359680684,0.2883671375,0.6389372261070556
0.017,1.792775,1.0,2166.488454305261,0.1748322993915237,1.3358952281160876,0.8720414920623247,0.28834955,0.6402244761761526
0.0175,1.7923437500000001,1.0,2204.4968569161674,0.17946083834685894,1.3353143730533859,0.8775709854214898,0.2883314375,0.6414677016065523
0.018000000000000002,1.7919,1.0,2240.4709948816826,0.1840634141119706,1.3347515916675434,0.8827325471954712,0.2883128,0.64267019093127
0.0185,1.79144375,1.0,2274.498191001646,0.18864017269826985,1.334205445162755,0.8875574234168379,0.2882936375,0.6438352054322858
0.019,1.790975,1.0,2306.659967804993,0.1931912585720989,1.3336746291019332,0.8920737220060951,0.28827395,0.6449656948140539
0.0195,1.79049375,1.0,2337.050713319144,0.19771681797490337,1.3331577789089248,0.8963067262334622,0.2882537375,0.646064714134158
0.02,1.79,1.0,2365.740953779151,0.20221699334544285,1.332653824544258,0.9002792940059832,0.288233,0.6471346716073916
0.0205,1.78949375,1.0,2392.7965541260533,0.20669192587236715,1.332161790182688,0.9040120830275562,0.2882117375,0.6481777587456374
0.021,1.788975,1.0,2418.287789188845,0.21114175674432606,1.3316806999989697,0.9075237738275029,0.28818995000000003,0.6491961519393925
0.021500000000000002,1.78844375,1.0,2442.2889742089205,0.2155666271499693,1.3312095781678577,0.9108312861479454,0.2881676375,0.6501920131692276
0.022,1.7879,1.0,2464.8689464698177,0.21996667653337465,1.3307475365762578,0.9139499861063577,0.2881448,0.6511673056401053
0.0225,1.78734375,1.0,2486.103916149898,0.22434204659681714,1.3302936474349536,0.9168938284557727,0.28812143749999997,0.6521240639799573
0.023,1.786775,1.0,2506.0556425840205,0.22869287574391106,1.3298471484265597,0.9196755416013641,0.28809755,0.6530639626111834
0.0235,1.78619375,1.0,2524.777442749395,0.23301930008020424,1.329407380249426,0.9223067427224305,0.28807313749999996,0.6539884497360016
0.024,1.7856,1.0,2542.32472604189,0.2373214557112445,1.3289736836019024,0.9247980335592332,0.2880482,0.6548989652340416
0.0245,1.78499375,1.0,2558.7548181860057,0.24159947874257964,1.328545399182339,0.927159103149384,0.2880227375,0.6557969409314971
0.025,1.784375,1.0,2574.1267947822134,0.24585350527975747,1.3281218676890862,0.9293988189242869,0.28799675,0.6566838008425567
0.025500000000000002,1.78374375,1.0,2588.489172687322,0.2500836680444121,1.3277025432443703,0.931525324929314,0.2879702375,0.6575607243340932
0.026000000000000002,1.7831000000000001,1.0,2601.9063924174297,0.25429010573533734,1.3272867440130454,0.9335460753664694,0.2879432,0.6584291683461075
0.0265,1.78244375,1.0,2614.4218393504107,0.2584729505145808,1.3268739961958151,0.9354679500648211,0.2879156375,0.6592901486319459
0.027,1.781775,1.0,2626.0746374807413,0.26263233293460336,1.3264638748503577,0.9372972854673663,0.28788755,0.6601445740360014
0.0275,1.7810937500000001,1.0,2636.9047892915864,0.2667683835478658,1.3260559550343514,0.9390399184531515,0.2878589375,0.6609933488094294
0.028,1.7804,1.0,2646.9530998245914,0.2708812329068289,1.3256498118054743,0.940701232321117,0.2878298,0.6618373726755715
0.0285,1.77969375,1.0,2656.2611047532587,0.2749710115639535,1.3252450202214046,0.9422861979847872,0.2878001375,0.6626775408838589
0.029,1.778975,1.0,2664.8710024599654,0.27903785007170023,1.3248411553398207,0.94379941092867,0.28776995,0.6635147442522018
0.029500000000000002,1.7782437500000001,1.0,2672.8166447779413,0.2830818733663909,1.3244378743857375,0.9452451335834864,0.2877392375,0.664349699183879
0.03,1.7775,1.0,2680.14601922825,0.28710321735223565,1.324034709411666,0.9466273024223799,0.287708,0.6651833772209732
0.0305,1.77674375,1.0,2686.8866701543448,0.29110200709590844,1.323631384452667,0.9479495901017935,0.2876762375,0.6660163488432718
0.031,1.775975,1.0,2693.0656150968775,0.29507836713194635,1.3232276316427176,0.9492154074766223,0.28764395,0.6668491649956622
0.0315,1.7751937500000001,1.0,2698.7101934075845,0.2990324219948865,1.3228231831157953,0.9504279247303804,0.2876111375,0.6676823738615616
0.032,1.7744,1.0,2703.8480360593944,0.30296429621926596,1.322417771005877,0.951590091327489,0.2875778,0.6685165208533221
0.0325,1.77359375,1.0,2708.507037047207,0.30687411433962175,1.3220111274469402,0.9527046540805025,0.2875439375,0.6693521485980564
0.033,1.772775,1.0,2712.715326378993,0.3107620008904911,1.3216029845729618,0.953774173530583,0.28750955,0.6701897969188881
0.0335,1.7719437500000002,1.0,2716.498519864878,0.31462807793864617,1.3211930993444605,0.9548010409754812,0.2874746375,0.6710299519563123
0.034,1.7711000000000001,1.0,2719.8773127240847,0.3184724636391631,1.3207812751660823,0.9557874938365087,0.2874392,0.6718730022411421
0.0345,1.7702437500000001,1.0,2722.888524195655,0.32229529346214586,1.3203671700531756,0.9567356120290185,0.2874032375,0.6727196312248713
0.035,1.7693750000000001,1.0,2725.5485160897683,0.3260966849116441,1.3199506295955479,0.9576473570753883,0.28736675,0.6735701359101165
0.035500000000000004,1.76849375,1.0,2727.8737541388373,0.3298767554917074,1.3195314993830067,0.9585245655986102,0.2873297375,0.6744248115498966
0.036000000000000004,1.7676,1.0,2729.8807972725285,0.3336356227063854,1.3191096250053598,0.9593689587057457,0.2872922,0.6752839516228912
0.0365,1.76669375,1.0,2731.5862874221993,0.3373734040597277,1.318684852052415,0.9601821505642377,0.2872541375,0.6761478478071759
0.037,1.765775,1.0,2733.006939853435,0.34109021705578396,1.3182570261139794,0.9609656562487862,0.28721555,0.677016789952442
0.0375,1.76484375,1.0,2734.1595340274985,0.3447861791986037,1.317825992779861,0.9617208989282534,0.2871764375,0.6778910660506879
0.038,1.7639,1.0,2735.0609049912487,0.3484614079922366,1.3173915976398674,0.9624492164547911,0.28713679999999997,0.6787709622053972
0.0385,1.76294375,1.0,2735.7279352958744,0.3521160209407323,1.316953686283806,0.9631518674109216,0.28709663750000003,0.6796567625991922
0.039,1.761975,1.0,2736.1775474437973,0.35575013554814033,1.3165121043014847,0.9638300366645814,0.28705595,0.6805487494599685
0.0395,1.7609937500000001,1.0,2736.413183556983,0.35936385928205494,1.3160668199581669,0.9644848497206879,0.2870147375,0.6814469557446803
0.04,1.76,1.0,2736.460453384037,0.3629573182625155,1.3156176005156623,0.9651173531177114,0.286973,0.6823518183824483
0.0405,1.7589937500000001,1.0,2736.332485405604,0.3665306263193632,1.3151643267456672,0.9657285419027649,0.2869307375,0.6832635431981835
0.041,1.757975,1.0,2736.0380493404277,0.3700838936687503,1.3147069191415874,0.9663193582191412,0.28688795,0.6841822546059004
0.0415,1.75694375,1.0,2735.585928761949,0.37361723052682905,1.3142452981968287,0.966890692044004,0.2868446375,0.6851080757690888
0.042,1.7559,1.0,2734.9849185042785,0.3771307471097517,1.3137793844047974,0.9674433846111148,0.28680079999999997,0.6860411285795485
0.0425,1.75484375,1.0,2734.2438222084456,0.38062455363367037,1.3133090982588989,0.9679782315751749,0.2867564375,0.686981533635828
0.043000000000000003,1.753775,1.0,2733.3714500079896,0.3840987603147374,1.3128343602525396,0.9684959859397269,0.28671155,0.6879294102212509
0.043500000000000004,1.75269375,1.0,2732.376616356337,0.38755347736910495,1.3123550908791253,0.9689973607684843,0.28666613750000003,0.6888848762815478
0.044,1.7516,1.0,2731.2681379923665,0.39098881501292526,1.311871210632062,0.9694830316981279,0.2866202,0.6898480484020791
0.0445,1.75049375,1.0,2730.0548320478956,0.39440488346235064,1.3113826400047555,0.9699536392689333,0.2865737375,0.6908190417846585
0.045,1.7493750000000001,1.0,2728.7437642353107,0.39780178780782366,1.3108893154001862,0.970409791567416,0.28652675,0.6917979386798584
0.0455,1.74824375,1.0,2727.3422861876234,0.4011796377903815,1.3103911706106783,0.9708520662114674,0.2864792375,0.6927848252772091
0.046,1.7471,1.0,2725.858581054749,0.4045385470664123,1.3098881318407485,0.9712810116868322,0.2864312,0.693779801480392
0.0465,1.7459437500000001,1.0,2724.2975738512478,0.4078786190161846,1.309380154894534,0.9716971498874837,0.28638263750000004,0.6947829073897771
0.047,1.744775,1.0,2722.664187493161,0.41119995701996703,1.3088671955761728,0.9721009769527216,0.28633355,0.695794182069229
0.0475,1.74359375,1.0,2720.963342127119,0.41450266445802825,1.3083492096898017,0.9724929647770477,0.28628393750000003,0.6968136635321259
0.048,1.7424,1.0,2719.199954501954,0.4177868447106368,1.3078261530395587,0.9728735624178728,0.2862338,0.6978413887272519
0.0485,1.74119375,1.0,2717.378937385143,0.42105260115806137,1.3072979814295813,0.9732431974088516,0.2861831375,0.6988773935245686
0.049,1.739975,1.0,2715.5051990205416,0.42430003718057047,1.3067646506640067,0.9736022769859911,0.28613195,0.6999217127008608
0.0495,1.73874375,1.0,2713.5836426313112,0.42752925615843285,1.3062261165469724,0.9739511892330674,0.2860802375,0.7009743799252554
0.05,1.7375,1.0,2711.619165964987,0.43074036147191697,1.305682334882616,0.9742903041523472,0.286028,0.7020354277446179
0.0505,1.73624375,1.0,2709.6166318028777,0.43393345606758127,1.305133261740363,0.9746199746344077,0.2859752375,0.7031048870525737
0.051000000000000004,1.734975,1.0,2707.579308245466,0.4371086114412125,1.3045788676865575,0.9749405348756647,0.28592195,0.7041827594348677
0.051500000000000004,1.73369375,1.0,2705.513902215992,0.4402659737328114,1.3040190918541654,0.9752523101566715,0.2858681375,0.7052691064673742
0.052000000000000005,1.7324,1.0,2703.422436385568,0.44340563823144225,1.303453916071067,0.9755556082768687,0.2858138,0.706363905679636
0.0525,1.73109375,1.0,2701.3069307680084,0.44652770022616933,1.3028833221651417,0.9758507233583578,0.28575893750000003,0.7074671337825478
0.053,1.729775,1.0,2699.169402624368,0.449632255006057,1.3023072919642695,0.9761379365690785,0.28570355000000003,0.7085787666620852
0.0535,1.72844375,1.0,2697.0118663752596,0.4527193978601695,1.3017258072963303,0.976417516801748,0.2856476375,0.7096987793730158
0.054,1.7271,1.0,2694.8363335204904,0.45578922407757116,1.301138849989204,0.9766897213116273,0.2855912,0.7108271461325882
0.0545,1.7257437500000001,1.0,2692.644812565762,0.45884182894732617,1.3005464018707702,0.9769547963159315,0.2855342375,0.7119638403142012
0.055,1.724375,1.0,2690.439308956561,0.4618773077584989,1.2999484447689087,0.9772129775575011,0.28547675,0.7131088344410489
0.0555,1.72299375,1.0,2688.2218250201863,0.46489575580015363,1.2993449605114995,0.9774644908351378,0.2854187375,0.7142621001797476
0.056,1.7216,1.0,2685.9943599140856,0.4678972683613546,1.2987359309264224,0.9777095525028402,0.2853602,0.7154236083339407
0.0565,1.72019375,1.0,2683.758909582136,0.4708819407311661,1.2981213378415573,0.977948369940002,0.28530113749999997,0.716593328837883
0.057,1.718775,1.0,2681.517466718306,0.4738498681986525,1.297501163084784,0.9781811419944832,0.28524155,0.7177712307500026
0.0575,1.71734375,1.0,2679.2720207368993,0.47680114605287804,1.2968753884839819,0.9784080594003288,0.2851814375,0.7189572822464441
0.058,1.7159,1.0,2677.024557750957,0.479735869582907,1.2962439958670313,0.9786293051717732,0.2851208,0.7201514506145865
0.0585,1.71444375,1.0,2674.777060557854,0.4826541340778036,1.295606967061812,0.9788450549750605,0.2850596375,0.7213537022465459
0.059000000000000004,1.7129750000000001,1.0,2672.5275403480614,0.4855560059412835,1.294964320348829,0.9790554770606491,0.28499795,0.7225639340598002
0.059500000000000004,1.71149375,1.0,2670.2766002083386,0.4884415813587265,1.2943160502202125,0.9792607342561971,0.2849357375,0.7237820873175171
0.06,1.71,1.0,2668.030821398117,0.4913109949626545,1.2936620961970744,0.979460983162181,0.284873,0.7250082055393502
0.0605,1.7084937500000001,1.0,2665.790618209726,0.49416433225248596,1.2930024544200063,0.9796563733021829,0.2848097375,0.7262422248209571
0.061,1.7069750000000001,1.0,2663.556404241838,0.4970016787276392,1.2923371210295995,0.979847048447017,0.28474595,0.7274840805743791
0.0615,1.7054437500000001,1.0,2661.328592402823,0.49982311988753236,1.291666092166446,0.9800331468780923,0.2846816375,0.7287337075266398
0.062,1.7039,1.0,2659.107594915828,0.502628741231584,1.2909893639711372,0.9802148016367833,0.2846168,0.7299910397183452
0.0625,1.70234375,1.0,2656.8938233222466,0.5054186282592124,1.2903069325842647,0.9803921407606497,0.2845514375,0.7312560105022807
0.063,1.7007750000000001,1.0,2654.687688487163,0.5081928664698357,1.2896187941464199,0.9805652875072937,0.28448555,0.7325285525420079
0.0635,1.69919375,1.0,2652.489600604419,0.5109515413628725,1.2889249447981945,0.9807343605665879,0.28441913750000003,0.73380859781046
0.064,1.6976,1.0,2650.2999692015264,0.5136947384377408,1.2882253806801802,0.9808994742619559,0.2843522,0.735096077588537
0.0645,1.69599375,1.0,2648.1192031463943,0.5164225431938593,1.2875200979329684,0.9810607387413524,0.2842847375,0.7363909224636999
0.065,1.694375,1.0,2645.9477106525787,0.519135041130646,1.286809092697151,0.981218260158532,0.28421675,0.7376930623285622
0.0655,1.69274375,1.0,2643.7858992861875,0.5218323177475195,1.286092361113319,0.9813721408451762,0.2841482375,0.7390024263794843
0.066,1.6911,1.0,2641.634175972563,0.524514458543898,1.2853698993220646,0.981522479474393,0.2840792,0.7403189431151618
0.0665,1.6894437500000001,1.0,2639.4929470035245,0.5271815490191998,1.284641703463979,0.9816693712160867,0.2840096375,0.7416425403352176
0.067,1.687775,1.0,2637.362618044425,0.5298336746728431,1.2839077696796537,0.9818129078846519,0.28393955,0.7429731451387905
0.0675,1.68609375,1.0,2635.243594142405,0.5324709210042466,1.2831680941096808,0.9819531780794245,0.2838689375,0.7443106839231217
0.068,1.6844000000000001,1.0,2633.1362797341435,0.5350933735128284,1.2824226728946513,0.9820902673182916,0.2837978,0.7456550823821455
0.0685,1.68269375,1.0,2631.0410786545135,0.5377011176980068,1.281671502175157,0.9822242581648387,0.2837261375,0.7470062655050718
0.069,1.680975,1.0,2628.958394145156,0.5402942390592,1.2809145780917897,0.982355230349391,0.28365395,0.748364157574974
0.0695,1.67924375,1.0,2626.8873600768247,0.5428728049769398,1.280151908541024,0.9824832602896852,0.28358123749999997,0.7497286611633346
0.07,1.6775,1.0,2624.8264441875695,0.545436886019432,1.2793835076068873,0.9826084223207128,0.283508,0.7510996673382409
0.07050000000000001,1.67574375,1.0,2622.778272793943,0.547986604922474,1.2786093508347394,0.982730789733853,0.2834342375,0.752477135291598
0.07100000000000001,1.673975,1.0,2620.7427013703673,0.5505220377804386,1.277829439435574,0.9828504316661728,0.28335995,0.7538609776240903
0.07150000000000001,1.67219375,1.0,2618.719585674442,0.5530432606876983,1.2770437746203853,0.9829674149669207,0.2832851375,0.7552511063268149
0.07200000000000001,1.6704,1.0,2616.7087817439597,0.5555503497386258,1.2762523576001665,0.9830818042869831,0.2832098,0.7566474327817274
0.0725,1.66859375,1.0,2614.7101458938832,0.5580433810275937,1.2754551895859116,0.9831936621642617,0.2831339375,0.7580498677620837
0.073,1.6667750000000001,1.0,2612.7235347134924,0.5605224306489746,1.2746522717886144,0.9833030491051834,0.28305755,0.7594583214328862
0.0735,1.66494375,1.0,2610.7488050637803,0.5629875746971411,1.2738436054192683,0.9834100236625418,0.2829806375,0.7608727033513267
0.074,1.6631,1.0,2608.785814074244,0.5654388892664659,1.2730291916888676,0.9835146425098584,0.2829032,0.7622929224672308
0.0745,1.6612437500000001,1.0,2606.8344191405745,0.5678764504513216,1.2722090318084056,0.9836169605124394,0.2828252375,0.7637188871235027
0.075,1.659375,1.0,2604.894477921799,0.570300334346081,1.271383126988876,0.9837170307952939,0.28274675,0.7651505050565676
0.0755,1.65749375,1.0,2602.965848337331,0.5727106170451164,1.270551478441273,0.9838149048080742,0.2826677375,0.7665876833968157
