Time [s],Phi [rad],STIM [ ],Fsee [N],Gamma [ ],Lcerel [ ],q [ ],Lmtc [m],fisomrel [ ]
0.0,1.8,1.0,17.97076826436361,6.73514732505743e-05,1.3793393417884634,0.005001190920256985,0.288653,0.5411405094754316
0.0005,1.79999375,1.0,18.29923243479971,0.005676182993560975,1.3792998905463012,0.013100500965835288,0.2886527375,0.5412359471669769
0.001,1.799975,1.0,21.683537291354096,0.011253553403684146,1.378931652421141,0.03590805790930775,0.28865195,0.5421262844176773
0.0015,1.79994375,1.0,31.22535763625629,0.016799639176483527,1.3780329193694512,0.07101125761288855,0.2886506375,0.5442956373501596
0.002,1.7999,1.0,53.91991791832824,0.022314615793084136,1.3763462688506964,0.11520263120830394,0.2886488,0.5483529525579061
0.0025,1.79984375,1.0,97.68688493707926,0.02779865775082905,1.3739078391303334,0.165101943322568,0.28864643749999996,0.5541866321329232
0.003,1.7997750000000001,1.0,161.69757839634184,0.03325193857046483,1.3711866985900942,0.21782410030578575,0.28864354999999997,0.5606518966511052
0.0035,1.79969375,1.0,238.5190022665381,0.03867463079615885,1.368559015950154,0.27115355046242434,0.2886401375,0.5668502926079533
0.004,1.7996,1.0,322.35598647270183,0.04406690600616359,1.3661325567480143,0.3234392729082979,0.2886362,0.5725349199271752
0.0045000000000000005,1.7994937500000001,1.0,410.1886604015625,0.0494289348180356,1.3639012090545868,0.3735313938157043,0.2886317375,0.577729305001945
0.005,1.799375,1.0,500.3532485131883,0.05476088688003698,1.361838382242806,0.42071231782559015,0.28862675,0.582503141377261
0.0055,1.79924375,1.0,591.7384933725729,0.06006293091538916,1.3599203193528346,0.46460407353684735,0.2886212375,0.5869176138933467
0.006,1.7991000000000001,1.0,683.4673575102049,0.06533523467314407,1.3581291659192805,0.5050754667810851,0.2886152,0.5910188154271699
0.006500000000000001,1.79894375,1.0,774.8262754624304,0.07057796498061983,1.3564511264686572,0.5421623658985727,0.2886086375,0.594842456757734
0.007,1.798775,1.0,865.2090876852982,0.07579128749976914,1.3548754851035432,0.5760064190313006,0.28860155,0.5984164224251434
0.0075,1.79859375,1.0,954.1569314682978,0.08097536766759388,1.3533927286600713,0.6068096671078111,0.2885939375,0.6017652402110626
0.008,1.7984,1.0,1041.2724693113041,0.08613036952487613,1.3519951922737359,0.6348042499823736,0.2885858,0.604908751964846
0.0085,1.79819375,1.0,1126.210234872741,0.09125645552914115,1.3506765598524915,0.6602316696659158,0.2885771375,0.6078633621493048
0.009000000000000001,1.797975,1.0,1208.7419889638209,0.09635378808175293,1.3494305347430537,0.683329097622508,0.28856795,0.6106450937155087
0.0095,1.79774375,1.0,1288.7084541616825,0.10142252885968098,1.3482513243645777,0.7043220287594424,0.2885582375,0.6132685429793293
0.01,1.7975,1.0,1365.9690007727363,0.10646283805234838,1.3471340795478133,0.7234203926145545,0.288548,0.6157459528587133
0.0105,1.79724375,1.0,1440.4314454891298,0.11147487486421888,1.3460742861819075,0.7408164081708508,0.2885372375,0.6180886111086836
0.011,1.796975,1.0,1512.056743776238,0.11645879798738606,1.34506758213642,0.75668418117172,0.28852595000000003,0.6203072823932559
0.0115,1.79669375,1.0,1580.8378470688554,0.12141476600620704,1.3441099203351867,0.7711803660585406,0.2885141375,0.6224118709404065
0.012,1.7964,1.0,1646.7561825497692,0.1263429346887989,1.343197982142782,0.7844454071252015,0.28850180000000003,0.6244105390724577
0.0125,1.79609375,1.0,1709.8344446924634,0.13124345980327867,1.3423284489237788,0.7966045158981525,0.2884889375,0.6263113299025503
0.013000000000000001,1.7957750000000001,1.0,1770.1196616643267,0.13611649643092297,1.3414981518914837,0.8077691592481195,0.28847555,0.6281218503019806
0.0135,1.79544375,1.0,1827.681607369472,0.14096219999689666,1.3407040399330137,0.8180384521111712,0.2884616375,0.6298493532312609
0.014,1.7951000000000001,1.0,1882.573848277255,0.14578072346113338,1.3399435640021826,0.8275006307410412,0.2884472,0.6314999148389476
0.0145,1.79474375,1.0,1934.8504697127687,0.15057221837156465,1.3392144329153213,0.8362341769982895,0.2884322375,0.6330789811924011
0.015,1.794375,1.0,1984.5865918615418,0.1553368362761219,1.33851435548876,0.8443088504349745,0.28841675,0.6345919359949919
0.0155,1.79399375,1.0,2031.8599427286313,0.1600747280436867,1.3378412154869794,0.8517867665336433,0.2884007375,0.6360437280557409
0.016,1.7936,1.0,2076.7818912057473,0.16478604473293695,1.3371927209647574,0.8587231856067534,0.2883842,0.6374396330624467
0.0165,1.7931937500000001,1.0,2119.4361029753027,0.16947093535434274,1.336567030672103,0.8651675175090471,0.2883671375,0.6387839090068996
0.017,1.7927752439703983,1.0,2159.8816148318306,0.17412954707110598,1.3359627964459457,0.8711640188562215,0.28834956024675673,0.6400797174879466
0.0175,1.7923527136383837,1.0,2198.5440259982925,0.17876202704642866,1.3353786701232153,0.876752255725918,0.2883318139728121,0.6413301901351516
0.018000000000000002,1.791930183306369,1.0,2235.680553371008,0.18336852234415832,1.3348133096062453,0.8819676569212562,0.28831406769886747,0.6425384174442363
0.0185,1.791507652974354,1.0,2271.3502428634997,0.18794917900177768,1.3342656607033194,0.886842070301452,0.2882963214249229,0.6437068497275935
0.019,1.7910851226423394,1.0,2305.5981232948507,0.1925041424610885,1.3337348623241283,0.8914041496844143,0.28827857515097827,0.6448375053236453
0.0195,1.7906625923103248,1.0,2338.4707079164023,0.19703355591452226,1.3332200834917605,0.8956796772686462,0.28826082887703364,0.6459323212938272
0.02,1.79024006197831,1.0,2370.018664921783,0.20153756255451047,1.3327204932293035,0.899691884743208,0.288243082603089,0.6469932187029623
0.0205,1.7898175316462952,1.0,2400.2874191899205,0.20601630342288837,1.3322353488699297,0.9034617582705281,0.2882253363291444,0.6480219163305999
0.021,1.7893950013142805,1.0,2429.3415655245412,0.2104699236382845,1.3317637555692559,0.907008238824633,0.2882075900551998,0.6490204416153796
0.021500000000000002,1.7889724709822659,1.0,2457.231985945125,0.2148985647086545,1.331304983430262,0.9103485099357264,0.2881898437812552,0.6499904590378631
0.022,1.7885499406502512,1.0,2483.9982024453425,0.2193023648487444,1.33085843814784,0.9134981808912886,0.28817209750731054,0.6509333351606246
0.0225,1.7881274103182363,1.0,2509.6821122288065,0.22368146227330027,1.3304235254168824,0.9164714290922412,0.2881543512333659,0.6518504268210424
0.023,1.7877048799862216,1.0,2534.327830515459,0.2280359951970682,1.329999650932281,0.9192811512333163,0.2881366049594213,0.6527430815834591
0.0235,1.787282349654207,1.0,2557.9815411794334,0.23236610183479414,1.329586220388928,0.9219390967389,0.2881188586854767,0.6536126381688171
0.024,1.7868598193221923,1.0,2580.6900405355746,0.23667191996700376,1.3291826517713765,0.9244559877047972,0.2881011124115321,0.6544604010611119
0.0245,1.7864372889901774,1.0,2602.489245528124,0.24095358390882493,1.3287884808258603,0.926841640139141,0.28808336613758745,0.6552874198859149
0.025,1.7860147586581627,1.0,2623.435063846664,0.24521123496415242,1.3284030713459924,0.9291050093746278,0.2880656198636428,0.6560950979927265
0.025500000000000002,1.785592228326148,1.0,2643.557842635168,0.24944500540809272,1.32802603829996,0.9312543388696971,0.2880478735896982,0.6568843054758711
0.026000000000000002,1.7851696979941334,1.0,2662.8890462247064,0.25365502751575236,1.32765699665595,0.933297191665421,0.2880301273157536,0.6576559073418458
0.0265,1.7847471676621185,1.0,2681.4611862693005,0.25784143356223793,1.327295561382149,0.9352405157519063,0.288012381041809,0.6584107637102803
0.027,1.7843246373301038,1.0,2699.3077551694423,0.26200435582265597,1.3269413474467442,0.9370907023583233,0.28799463476786435,0.6591497300054442
0.0275,1.7839021069980892,1.0,2716.4631627814897,0.26614392657211294,1.3265939698179223,0.9388536380086513,0.2879768884939197,0.6598736571382973
0.028,1.7834795766660745,1.0,2732.962321818998,0.2702602779083951,1.3262530466849682,0.9405347514789941,0.2879591422199751,0.6605833849769641
0.0285,1.7830570463340596,1.0,2748.8276925309065,0.2743535361194265,1.3259183162420827,0.9421390699993896,0.2879413959460305,0.6612794998020592
0.029,1.782634516002045,1.0,2764.1039975273416,0.27842383941116616,1.3255893209857215,0.9436712174780737,0.2879236496720859,0.6619629912629363
0.029500000000000002,1.7822119856700303,1.0,2778.8126163712063,0.2824713138279057,1.3252658208307122,0.9451354983549588,0.28790590339814126,0.6626343934927392
0.03,1.7817894553380156,1.0,2792.9754179562146,0.28649608541393684,1.3249475756918827,0.946535900306488,0.28788815712419663,0.663294238048368
0.0305,1.7813669250060007,1.0,2806.6147318956428,0.29049828021355123,1.324634345484061,0.947876121591261,0.287870410850252,0.6639430539927784
0.031,1.780944394673986,1.0,2819.7533211883083,0.2944780242710405,1.3243258901220745,0.9491595957119408,0.2878526645763074,0.66458136797361
0.0315,1.7805218643419713,1.0,2832.4143561628307,0.29843544363069624,1.3240219695207511,0.9503895136859721,0.2878349183023628,0.6652097042981295
0.032,1.7800993340099567,1.0,2844.6213897001794,0.30237066433681015,1.3237223435949188,0.9515688441828817,0.28781717202841817,0.6658285850045068
0.0325,1.7796768036779418,1.0,2856.397120705752,0.30628381146727507,1.3234267830376685,0.9527003527547093,0.28779942575447354,0.6664385076974009
0.033,1.7792542733459271,1.0,2867.7559941346385,0.31017500440868645,1.3231351346378848,0.9537866245370703,0.2877816794805289,0.6670398111050895
0.0335,1.7788317430139124,1.0,2878.7295269060314,0.31404437715237665,1.3228470962197576,0.9548300584937371,0.28776393320658433,0.6676331392298169
0.034,1.7784092126818978,1.0,2889.3315697240932,0.31789204908930274,1.322562524793853,0.9558329088556899,0.2877461869326397,0.6682188061180323
0.0345,1.7779866823498829,1.0,2899.5761743751414,0.3217181396104219,1.3222812773707364,0.9567972826425808,0.2877284406586951,0.6687971245417298
0.035,1.7775641520178682,1.0,2909.4775829623554,0.3255227681066911,1.3220032109609743,0.957725151006502,0.28771069438475044,0.6693684060294078
0.035500000000000004,1.7771416216858535,1.0,2919.050217594921,0.3293060539690675,1.321728182575132,0.9586183595758961,0.2876929481108058,0.6699329608957354
0.036000000000000004,1.7767190913538389,1.0,2928.308670529474,0.33306811658850816,1.3214560492237755,0.9594786378981482,0.28767520183686124,0.6704910982699033
0.0365,1.776296561021824,1.0,2937.2676947655086,0.3368090753559701,1.3211866679174709,0.96030760806874,0.2876574555629166,0.6710431261226795
0.037,1.7758740306898093,1.0,2945.9421950941696,0.34052904966241054,1.3209198956667838,0.9611067926254108,0.287639709288972,0.6715893512921576
0.0375,1.7754515003577946,1.0,2954.3472195998224,0.3442281588987865,1.3206555894822802,0.9618776217774538,0.2876219630150274,0.6721300795081996
0.038,1.77502897002578,1.0,2962.4877357158825,0.3479065097852482,1.3203936955068702,0.9626214459075896,0.2876042167410828,0.6726654332890655
0.0385,1.774606439693765,1.0,2970.387593262199,0.3515642363661827,1.3201339959941087,0.9633395256083693,0.28758647046713814,0.6731958692884055
0.039,1.7741839093617504,1.0,2978.05542312335,0.35520145138777887,1.319876407088713,0.9640330557674582,0.2875687241931935,0.6737215694770917
0.0395,1.7737613790297357,1.0,2985.4995447039064,0.3588182670655978,1.319620848338561,0.9647031623460135,0.2875509779192489,0.6742427082504421
0.04,1.773338848697721,1.0,2992.7283517523074,0.3624147956152005,1.3193672392915312,0.9653509069031502,0.2875332316453043,0.6747594593982966
0.0405,1.7729163183657062,1.0,2999.7503088107214,0.36599114925214815,1.3191154994955017,0.9659772909642332,0.2875154853713596,0.6752719961152311
0.041,1.7724937880336915,1.0,3006.573947809811,0.36954744019200186,1.3188655484983507,0.9665832600485771,0.28749773909741505,0.6757804910103506
0.0415,1.7720712577016768,1.0,3013.2078648055335,0.3730837806503227,1.3186173058479562,0.9671697073863971,0.2874799928234704,0.6762851161166771
0.042,1.7716487273696622,1.0,3019.6607168604087,0.3766002828426718,1.318370691092197,0.9677374773519778,0.2874622465495258,0.6767860429001175
0.0425,1.7712261970376473,1.0,3025.941219068326,0.38009705898461027,1.318125623778951,0.968287368637422,0.2874445002755812,0.6772834422680274
0.043000000000000003,1.7708036667056326,1.0,3032.058141721758,0.3835742212916992,1.3178820234560964,0.9688201371890436,0.2874267540016366,0.6777774845773527
0.043500000000000004,1.770381136373618,1.0,3038.0171563621766,0.387031874332524,1.317639836821938,0.9693364998956259,0.28740900772769196,0.6782682846420045
0.044,1.7699586060416033,1.0,3043.825045202344,0.39047012823625193,1.3173990013410184,0.9698371362331984,0.2873912614537473,0.6787559755986103
0.0445,1.7695360757095884,1.0,3049.493859576067,0.39388910661915244,1.3171594095122827,0.9703226889820948,0.2873735151798027,0.6792407811154979
0.045,1.7691135453775737,1.0,3055.028111899843,0.39728891391002213,1.3169210191000515,0.9707937700705183,0.2873557689058581,0.6797227922595177
0.0455,1.768691015045559,1.0,3060.432342238177,0.40066965453765774,1.3166837878686448,0.9712509603766938,0.2873380226319135,0.6802020998123953
0.046,1.7682684847135444,1.0,3065.7111171987312,0.4040314329308559,1.3164476735823831,0.9716948116041011,0.28732027635796886,0.6806787942739079
0.0465,1.7678459543815295,1.0,3070.8690288660873,0.40737435351841345,1.3162126340055866,0.9721258480260856,0.28730253008402423,0.681152965864952
0.047,1.7674234240495148,1.0,3075.910693776038,0.4106985207291269,1.3159786269025755,0.9725445681101055,0.2872847838100796,0.6816247045304943
0.0475,1.7670008937175001,1.0,3080.8407519286234,0.41400403899179306,1.3157456100376703,0.9729514460309888,0.28726703753613503,0.6820940999424089
0.048,1.7665783633854855,1.0,3085.663865841208,0.4172910127352085,1.315513541175191,0.9733469330817525,0.2872492912621904,0.6825612415022035
0.0485,1.7661558330534706,1.0,3090.384719641072,0.4205595463881701,1.315282378079458,0.9737314589898175,0.28723154498824577,0.6830262183436279
0.049,1.765733302721456,1.0,3095.0080181971734,0.42380974437947444,1.3150520785147917,0.9741054331457751,0.28721379871430114,0.6834891193351709
0.0495,1.7653107723894412,1.0,3099.538486292118,0.42704171113791817,1.3148226002455121,0.9744692457512738,0.2871960524403565,0.6839500330824442
0.05,1.7648882420574266,1.0,3103.9808678329887,0.43025555109229807,1.3145939010359398,0.9748232688920324,0.28717830616641193,0.6844090479304508
0.0505,1.7644657117254117,1.0,3108.333689481742,0.4334513384848853,1.3143659917636605,0.9751678575988834,0.2871605598924673,0.6848661454797517
0.051000000000000004,1.764043181393397,1.0,3112.6067136800475,0.436629208804565,1.314138787673171,0.9755033514305393,0.2871428136185227,0.6853214989771379
0.051500000000000004,1.7636206510613823,1.0,3116.804260204536,0.43978926865449164,1.3139122505681817,0.9758300743448658,0.28712506734457804,0.6857751879566936
0.052000000000000005,1.7631981207293677,1.0,3120.9285084724534,0.44293161362314315,1.3136863605755558,0.9761483357820591,0.2871073210706334,0.6862272550665256
0.0525,1.7627755903973528,1.0,3124.9816469254692,0.4460563392989977,1.313461097822156,0.9764584314928693,0.28708957479668884,0.6866777428320434
0.053,1.762353060065338,1.0,3128.9658727483334,0.44916354127053343,1.3132364424348448,0.9767606442621544,0.2870718285227442,0.687126693656767
0.0535,1.7619305297333234,1.0,3132.8833915973705,0.4522533151262284,1.3130123745404856,0.9770552445881879,0.2870540822487996,0.6875741498231083
0.054,1.7615079994013088,1.0,3136.736417337313,0.4553257564545608,1.3127888742659408,0.9773424913207829,0.28703633597485495,0.6880201534931296
0.0545,1.7610854690692939,1.0,3140.5271717862943,0.4583809608440087,1.3125659217380732,0.9776226322610588,0.2870185897009103,0.6884647467092753
0.055,1.7606629387372792,1.0,3144.2578844707177,0.4614190238830502,1.3123434970837458,0.9778959047254584,0.28700084342696575,0.688907971395077
0.0555,1.7602404084052645,1.0,3147.930792387729,0.4644400411601634,1.3121215804298214,0.9781625360764279,0.2869830971530211,0.6893498693558371
0.056,1.7598178780732499,1.0,3151.5481397774965,0.46744410826382643,1.3119001519031626,0.9784227442219929,0.2869653508790765,0.6897904822792862
0.0565,1.759395347741235,1.0,3155.1121779033997,0.47043132078251737,1.3116791916306323,0.9786767380862906,0.28694760460513186,0.6902298517362104
0.057,1.7589728174092203,1.0,3158.625164841688,0.4734017743047143,1.3114586797390932,0.9789247180529741,0.2869298583311872,0.6906680191810617
0.0575,1.7585502870772056,1.0,3162.089365279109,0.4763555644188954,1.3112385963554085,0.9791668763832606,0.28691211205724265,0.6911050259525354
0.058,1.758127756745191,1.0,3165.5070503199404,0.47929278671353875,1.3110189216064407,0.979403397610263,0.286894365783298,0.6915409132741284
0.0585,1.757705226413176,1.0,3168.8804973016954,0.4822135367771225,1.3107996356190525,0.9796344589111317,0.2868766195093534,0.691975722254669
0.059000000000000004,1.7572826960811614,1.0,3172.2092425088103,0.4851178806073441,1.3105807416824498,0.9798602292779619,0.28685887323540876,0.6924094480101385
0.059500000000000004,1.7568601657491467,1.0,3175.4962933161446,0.48800593119795477,1.31036221383604,0.9800808733616755,0.28684112696146413,0.6928421435675771
0.06,1.756437635417132,1.0,3178.7448258549653,0.4908778004737051,1.3101440247594272,0.9802965492177843,0.28682338068751956,0.6932738644962495
0.0605,1.7560151050851172,1.0,3181.955810438051,0.49373357466110834,1.3099261657647445,0.9805074077381278,0.28680563441357493,0.6937046293825386
0.061,1.7555925747531025,1.0,3185.130220199339,0.49657333998667763,1.3097086281641246,0.9807135940572929,0.2867878881396303,0.6941344567624235
0.0615,1.7551700444210878,1.0,3188.269031030897,0.499397182676926,1.3094914032697007,0.9809152478161085,0.28677014186568567,0.6945633651216565
0.062,1.7547475140890731,1.0,3191.3732215217774,0.5022051889583667,1.309274482393606,0.9811125034111482,0.28675239559174104,0.6949913728959409
0.0625,1.7543249837570583,1.0,3194.4437728989424,0.5049974450575129,1.309057856847973,0.9813054902310894,0.28673464931779646,0.6954184984711029
0.063,1.7539024534250436,1.0,3197.481668969005,0.5077740372008777,1.308841517944935,0.9814943328807123,0.28671690304385183,0.6958447601832536
0.0635,1.753479923093029,1.0,3200.4878960627493,0.5105350516149741,1.308625456996625,0.9816791513932717,0.2866991567699072,0.6962701763189554
0.064,1.7530573927610142,1.0,3203.463442980501,0.5132805745263155,1.3084096653151758,0.9818600614319277,0.28668141049596263,0.6966947651153739
0.0645,1.7526348624289994,1.0,3206.409300939178,0.5160106921614148,1.3081941342127203,0.982037174480875,0.28666366422201794,0.6971185447604329
0.065,1.7522123320969847,1.0,3209.326463521898,0.5187254907467854,1.307978855001392,0.9822105980267669,0.28664591794807337,0.6975415333929578
0.0655,1.75178980176497,1.0,3212.2159266278045,0.5214250565089403,1.3077638189933234,0.9823804357309963,0.28662817167412874,0.6979637491028217
0.066,1.7513672714329553,1.0,3215.0786884252016,0.5241094756743927,1.3075490175006474,0.982546787593355,0.2866104254001841,0.6983852099310792
0.0665,1.7509447411009404,1.0,3217.915749304833,0.5267788344696557,1.3073344418354975,0.9827097501075623,0.2865926791262395,0.6988059338700995
0.067,1.7505222107689258,1.0,3220.728111836079,0.5294332191212424,1.3071200833100065,0.9828694164091198,0.28657493285229485,0.6992259388636948
0.0675,1.750099680436911,1.0,3223.5167807240796,0.5320727158556661,1.306905933236307,0.9830258764159244,0.2865571865783503,0.699645242807243
0.068,1.7496771501048964,1.0,3226.2827627684965,0.5346974108994398,1.3066919829265327,0.983179216962043,0.28653944030440565,0.7000638635478043
0.0685,1.7492546197728815,1.0,3229.025596551934,0.5373073517337491,1.306478235979919,0.9833295201082465,0.286521694030461,0.700481794868103
0.069,1.7488320894408669,1.0,3231.7462929230765,0.539902635291202,1.3062646836932752,0.9834768676192226,0.2865039477565164,0.7008990545990373
0.0695,1.7484095591088522,1.0,3234.44701761254,0.542483387050695,1.3060513077369456,0.9836213397760609,0.28648620148257176,0.7013156793128363
