Time [s],Phi [rad],STIM [ ],Fsee [N],Gamma [ ],Lcerel [ ],q [ ],Lmtc [m],fisomrel [ ]
0.0,1.8,1.0,17.965920903064237,1.496935773859017e-05,1.379339884837111,0.0050000595319361985,0.288653,0.5411391957007887
0.0005,1.79999375,1.0,18.277041903263996,0.005624094700276632,1.3793023547146102,0.012954318773455271,0.2886527375,0.5412299863136227
0.001,1.799975,1.0,21.622432618304245,0.011201757284539614,1.378937888376876,0.03563448605569669,0.28865195,0.5421112141341656
0.0015,1.79994375,1.0,31.08106561208547,0.016748133592592702,1.3780451959829259,0.07063717346694538,0.2886506375,0.5442660388846657
0.002,1.7999,1.0,53.60962755071252,0.02226339911483764,1.3763663647394013,0.11475984323915657,0.2886488,0.5483047177705611
0.0025,1.79984375,1.0,97.16583038927631,0.027747728357619007,1.3739329078829006,0.16462037283609843,0.28864643749999996,0.5541268507724433
0.003,1.7997750000000001,1.0,161.0199317536304,0.03320129485088895,1.3712120320578036,0.21732737151468223,0.28864354999999997,0.5605919236464165
0.0035,1.79969375,1.0,237.7535403842434,0.0386242711478384,1.3685825717747986,0.27065955162733857,0.2886401375,0.5667949227802151
0.004,1.7996,1.0,321.5417572170419,0.044016828835669417,1.366154106422471,0.32296098332798406,0.2886362,0.5724845993302354
0.0045000000000000005,1.7994937500000001,1.0,409.34562906093083,0.049379138540782144,1.3639209861536548,0.3730773963579596,0.2886317375,0.5776834050923196
0.005,1.799375,1.0,499.4931378113086,0.054711369919881604,1.3618566502059528,0.42028758632837965,0.28862675,0.5824609843805062
0.0055,1.79924375,1.0,590.8709038842763,0.06001369170719991,1.3599372625757118,0.4642108483520772,0.2886212375,0.5868787213313238
0.006,1.7991000000000001,1.0,682.5988225741547,0.06528627165826092,1.358144947620619,0.5047141028599583,0.2886152,0.5909827694318368
0.006500000000000001,1.79894375,1.0,773.9639988963556,0.07052927660543902,1.3564658412112673,0.5418319507293159,0.2886086375,0.5948090052600241
0.007,1.798775,1.0,864.3689740490511,0.07574287243855003,1.3548890516822487,0.5757051920858474,0.28860155,0.5983857174619713
0.0075,1.79859375,1.0,953.3256043321273,0.08092722412619417,1.3534055119917683,0.6065357512420754,0.2885939375,0.6017364288706509
0.008,1.7984,1.0,1040.436993180287,0.08608249567386193,1.352007490043935,0.6345555532723297,0.2885858,0.604881144620437
0.0085,1.79819375,1.0,1125.393947559318,0.09120885027756152,1.3506881129757426,0.660005756555553,0.2885771375,0.6078375236527831
0.009000000000000001,1.797975,1.0,1207.9540174240642,0.09630644999819976,1.349441299442315,0.6831237507484201,0.28856795,0.6106211040945992
0.0095,1.79774375,1.0,1287.9445206828823,0.1013754563288313,1.3482614315435966,0.7041352649081821,0.2885582375,0.613246094704097
0.01,1.7975,1.0,1365.2302419831492,0.10641602949058736,1.3471435730914127,0.7232503393008611,0.288548,0.6157249351445375
0.0105,1.79724375,1.0,1439.717291138826,0.11142832873894602,1.3460832230841469,0.7406613691703846,0.2885372375,0.6180688861597214
0.011,1.796975,1.0,1511.3751635064439,0.11641251345892915,1.3450759068498588,0.7565425751241754,0.28852595000000003,0.6202889620910319
0.0115,1.79669375,1.0,1580.173095840854,0.12136874083093785,1.3441178608475617,0.7710509020796814,0.2885141375,0.6223944446610273
0.012,1.7964,1.0,1646.1092358844485,0.1262971673385807,1.343205553676593,0.7843268400552083,0.28850180000000003,0.6243939665993088
0.0125,1.79609375,1.0,1709.2113919549845,0.13119794895856698,1.3423356049961597,0.7964957113014894,0.2884889375,0.6262957064793155
0.013000000000000001,1.7957750000000001,1.0,1769.5373968316098,0.13607124174365465,1.341504724569302,0.80766906169776,0.28847555,0.6281075353853484
0.0135,1.79544375,1.0,1827.1290247364727,0.14091719938002037,1.3407101785023938,0.8179462439599198,0.2884616375,0.6298360148752136
0.014,1.7951000000000001,1.0,1882.03434528931,0.14573597458895257,1.3399494692256873,0.8274156042972963,0.2884472,0.6314871121593544
0.0145,1.79474375,1.0,1934.3256587237117,0.15052772009173965,1.3392200991694336,0.8361556313819436,0.2884322375,0.6330667229575243
0.015,1.794375,1.0,1984.0835952469583,0.15529258740053523,1.3385197177125419,0.8442361418329308,0.28841675,0.6345803594382047
0.0155,1.79399375,1.0,2031.4021870926827,0.1600307286066847,1.3378460382803627,0.8517192677188687,0.2884007375,0.6360333367929327
0.016,1.7936,1.0,2076.34555943962,0.1647422924396064,1.3371972680341186,0.8586604929630158,0.2883842,0.637429854688542
0.0165,1.7931937500000001,1.0,2118.9913748933827,0.16942742759478954,1.336571618367254,0.8651092863805289,0.2883671375,0.6387740615741311
0.017,1.792775,1.0,2159.4279441604017,0.1740862825475991,1.3359673221855797,0.8711098195482602,0.28834955,0.640070020482943
0.0175,1.7923437500000001,1.0,2197.7413710390083,0.17871900456923023,1.3353827519870238,0.8767016248396955,0.2883314375,0.6413214594056456
0.018000000000000002,1.7919,1.0,2234.034362641947,0.1833257423789783,1.3348162148985971,0.8819200858124061,0.2883128,0.6425322137786238
0.0185,1.79144375,1.0,2268.372616601749,0.18790664012849004,1.3342664808867577,0.886797055042032,0.2882936375,0.643705101261425
0.019,1.790975,1.0,2300.829057324666,0.19246184196941216,1.3337323199179636,0.8913611437408764,0.28827395,0.6448429165885651
0.0195,1.79049375,1.0,2331.483240561565,0.1969914920533914,1.333212501958673,0.8956380936725916,0.2882537375,0.6459484328394177
0.02,1.79,1.0,2360.4179903705453,0.2014957340655852,1.33270582435511,0.8996511090535338,0.288233,0.6470243445159015
0.0205,1.78949375,1.0,2387.7112295065467,0.20597471064989994,1.3322111853093768,0.9034211575554274,0.2882117375,0.648073113377994
0.021,1.788975,1.0,2413.4465299725002,0.2104285656232131,1.3317274745087118,0.906967194996858,0.28818995000000003,0.6490972023471684
0.021500000000000002,1.78844375,1.0,2437.683901612123,0.21485743820011927,1.3312538502758564,0.9103064409327822,0.2881676375,0.65009849068055
0.022,1.7879,1.0,2460.486805195128,0.21926146759521284,1.3307894709335513,0.9134545118638872,0.2881448,0.6510788454065728
0.0225,1.78734375,1.0,2481.921866696926,0.22364079302308845,1.3303334948045373,0.9164255926346982,0.28812143749999997,0.6520401218438161
0.023,1.786775,1.0,2502.058607284763,0.22799555369834057,1.3298850802115556,0.9192325875127131,0.28809755,0.6529841640746669
0.0235,1.78619375,1.0,2520.9570445917725,0.23232588594475959,1.3294435003405372,0.9218872735013722,0.28807313749999996,0.6539125640413728
0.024,1.7856,1.0,2538.6874956001125,0.23663193100296534,1.3290079523391172,0.9244003849549961,0.2880482,0.6548270640868024
0.0245,1.78499375,1.0,2555.3008152222824,0.24091382398020666,1.3285778363094316,0.9267817630979228,0.2880227375,0.6557289715759324
0.025,1.784375,1.0,2570.845400556152,0.24517169876007822,1.3281525910902443,0.9290404184429267,0.28799675,0.6566195056146649
0.025500000000000002,1.78374375,1.0,2585.3711367742985,0.24940568922617468,1.3277316555203187,0.9311846066768389,0.2879702375,0.6574998787305841
0.026000000000000002,1.7831000000000001,1.0,2598.929269777531,0.2536159292620907,1.327314468438419,0.933221902148072,0.2879432,0.6583712970372295
0.0265,1.78244375,1.0,2611.572285829756,0.257802552751421,1.3269004686833088,0.935159263302815,0.2879156375,0.6592349603782942
0.027,1.781775,1.0,2623.343454673083,0.2619656906688954,1.3264891909956047,0.9370031046464075,0.28788755,0.6600918627647818
0.0275,1.7810937500000001,1.0,2634.292801033778,0.266105477875351,1.326080116260005,0.938759327436296,0.2878589375,0.6609431051653749
0.028,1.7804,1.0,2644.468894030304,0.27022204753094725,1.3256727470703031,0.9404333759688628,0.2878298,0.6617897379326607
0.0285,1.77969375,1.0,2653.905167533278,0.27431552757226124,1.3252667328318197,0.9420302957507712,0.2878001375,0.6626325016355664
0.029,1.778975,1.0,2662.635663202831,0.27838604593587013,1.3248617229498758,0.9435547502052043,0.28776995,0.6634721331697645
0.029500000000000002,1.7782437500000001,1.0,2670.694977437742,0.28243373055835097,1.324457366829792,0.9450110545388679,0.2877392375,0.6643093657840489
0.03,1.7775,1.0,2678.1182110498426,0.286458709376281,1.3240533138768893,0.9464032062026113,0.287708,0.665144929098872
0.0305,1.77674375,1.0,2684.9409216638664,0.2904611103262372,1.3236492134964883,0.9477349123253355,0.2876762375,0.6659795491170425
0.031,1.775975,1.0,2691.1990788425783,0.2944410613447968,1.3232447150939102,0.9490096144548567,0.28764395,0.6668139482265844
0.0315,1.7751937500000001,1.0,2696.9211653895522,0.2983986853129743,1.322839539917509,0.9502305182771972,0.2876111375,0.6676486972763109
0.032,1.7744,1.0,2702.143787995511,0.3023341139548185,1.32243333773966,0.9514005998342989,0.2875778,0.668484511205556
0.0325,1.77359375,1.0,2706.89073722651,0.30624747018516796,1.3220258780278602,0.952522641996545,0.2875439375,0.6693218554859238
0.033,1.772775,1.0,2711.1846475445686,0.31013887590939226,1.3216169428116746,0.9535992396594664,0.28750955,0.6701611673994643
0.0335,1.7719437500000002,1.0,2715.048348922723,0.3140084530328608,1.3212063141206682,0.9546328136083032,0.2874746375,0.6710028819165006
0.034,1.7711000000000001,1.0,2718.504847220745,0.31785632346094306,1.3207937739844056,0.9556256242745026,0.2874392,0.6718474316736038
0.0345,1.7702437500000001,1.0,2721.5773056148187,0.3216826090990086,1.3203791044324515,0.9565797842504115,0.2874032375,0.6726952469485341
0.035,1.7693750000000001,1.0,2724.2890270795942,0.32548743185242685,1.319962087494371,0.9574972696873216,0.28736675,0.6735467556321573
0.035500000000000004,1.76849375,1.0,2726.6582930125414,0.32927090881830623,1.3195425519893766,0.9583799344683593,0.2873297375,0.6744022878447593
0.036000000000000004,1.7676,1.0,2728.704978033553,0.33303315948981754,1.3191203131634963,0.9592295148311131,0.2872922,0.6752621993827552
0.0365,1.76669375,1.0,2730.460218352611,0.3367743154499152,1.3186950847399102,0.9600476313666348,0.2872541375,0.6761270502634614
0.037,1.765775,1.0,2731.9371990072377,0.340494491535478,1.3182667443645686,0.9608358176347737,0.28721555,0.6769970645139616
0.0375,1.76484375,1.0,2733.1491636893015,0.3441938025833845,1.3178351696834223,0.961595513984399,0.2871764375,0.6778724646438462
0.038,1.7639,1.0,2734.1094080386556,0.34787236343051336,1.317400238342422,0.9623280742485989,0.28713679999999997,0.678753471620452
0.0385,1.76294375,1.0,2734.831273269485,0.35153028891374316,1.3169618279875177,0.9630347718882889,0.28709663750000003,0.6796403048431481
0.039,1.761975,1.0,2735.32814012742,0.35516769386995256,1.3165198162646605,0.9637168056351879,0.28705595,0.6805331821166631
0.0395,1.7609937500000001,1.0,2735.61342317992,0.3587846931360201,1.3160740808198006,0.9643753046799222,0.2870147375,0.6814323196234635
0.04,1.76,1.0,2735.700565437293,0.3623814015488246,1.3156244992988886,0.9650113334464062,0.286973,0.6823379318951719
0.0405,1.7589937500000001,1.0,2735.6030333067465,0.36595793394524445,1.3151709493478752,0.9656258959895446,0.2869307375,0.6832502317830329
0.041,1.757975,1.0,2735.3343118773455,0.3695144051621585,1.3147133086127107,0.9662199400496332,0.28688795,0.6841694304274257
0.0415,1.75694375,1.0,2734.9045070157244,0.37305092505273557,1.3142514855546763,0.966794362567259,0.2868446375,0.6850956754677267
0.042,1.7559,1.0,2734.3232048098166,0.37656760432990294,1.3137853934615251,0.9673500118334153,0.28680079999999997,0.6860291034763899
0.0425,1.75484375,1.0,2733.6077430402024,0.3800645662475013,1.313314875296457,0.9678876863321926,0.2867564375,0.6869699901720843
0.043000000000000003,1.753775,1.0,2732.7647808081556,0.38354191805119076,1.3128398710455336,0.9684081469755201,0.28671155,0.6879184154471107
0.043500000000000004,1.75269375,1.0,2731.800982392401,0.38699976698663135,1.312360320694817,0.9689121142580065,0.28666613750000003,0.6888744580849208
0.044,1.7516,1.0,2730.7230157458876,0.3904382202994832,1.3118761642303687,0.9694002708035591,0.2866202,0.689838195742832
0.0445,1.75049375,1.0,2729.5375510739964,0.39385738523540653,1.3113873416382509,0.9698732637271745,0.2865737375,0.6908097049345129
0.045,1.7493750000000001,1.0,2728.2512594915497,0.39725736904006137,1.3108937929045255,0.970331706827011,0.28652675,0.6917890610122387
0.0455,1.74824375,1.0,2726.8708117601677,0.4006382789591078,1.310395458015254,0.9707761826204713,0.2864792375,0.6927763381489183
0.046,1.7471,1.0,2725.402877105317,0.404000222238206,1.3098922769564982,0.9712072442368134,0.2864312,0.6937716093198885
0.0465,1.7459437500000001,1.0,2723.854122113309,0.407343306123016,1.3093841897143204,0.9716254171776767,0.28638263750000004,0.6947749462844817
0.047,1.744775,1.0,2722.2312097076638,0.410667637859198,1.3088711362747822,0.9720312009559184,0.28633355,0.6957864195673625
0.0475,1.7435941962437351,1.0,2720.5631453483766,0.41397332464271236,1.308353054692528,0.9724250704777182,0.2862839562422369,0.6968061022378409
0.048,1.7424100363175932,1.0,2719.2765420852406,0.41726046973557185,1.3078299881055753,0.9728074845369882,0.2862342215253389,0.6978338597669688
0.0485,1.7412258763914512,1.0,2718.483642047393,0.42052917833321796,1.3073024274270064,0.9731789113109197,0.28618448680844094,0.6988686801577471
0.049,1.7400417164653093,1.0,2718.1508501993562,0.42377955244657456,1.3067706766927385,0.9735397833457995,0.286134752091543,0.6999099232190029
0.0495,1.7388575565391673,1.0,2718.2447023092855,0.4270116940865656,1.3062350399386882,0.9738905127610126,0.28608501737464503,0.7009569525310908
0.05,1.7376733966130253,1.0,2718.7318377291103,0.43022570526411497,1.3056958212007723,0.9742314924072549,0.2860352826577471,0.7020091355241882
0.0505,1.7364892366868834,1.0,2719.578974223577,0.43342168799014663,1.3051533245149076,0.974563096949192,0.28598554794084907,0.7030658435506999
0.051000000000000004,1.7353050767607414,1.0,2720.7556632425008,0.4365997433587427,1.30460782862191,0.9748856821200126,0.2859358132239511,0.7041265010913428
0.051500000000000004,1.7341209168345995,1.0,2722.2320771089767,0.4397599730302334,1.3040596069503778,0.9751995872319034,0.28588607850705317,0.7051905466236663
0.052000000000000005,1.7329367569084575,1.0,2723.982569032389,0.4429024774545302,1.303508895072453,0.9755051338005228,0.2858363437901552,0.7062574955736568
0.0525,1.7317525969823155,1.0,2725.9875398920003,0.446027354914975,1.3029558736510396,0.9758026253433233,0.28578660907325726,0.7073269726413755
0.053,1.7305684370561736,1.0,2728.227398744573,0.4491347036949098,1.3024007233490422,0.9760923520180819,0.2857368743563593,0.7083986049680359
0.0535,1.7293842771300316,1.0,2730.6825539351616,0.4522246220776763,1.3018436248293652,0.976374591330428,0.28568713963946135,0.7094720221615733
0.054,1.7282001172038897,1.0,2733.333404931466,0.45529720834661636,1.301284758754913,0.9766496087981505,0.28563740492256334,0.7105468563201336
0.0545,1.7270159572777477,1.0,2736.163636541608,0.4583525591905616,1.3007242758143116,0.9769176566074143,0.2855876702056654,0.7116227995406819
0.055,1.7258317973516057,1.0,2739.154714771333,0.4613907733599791,1.3001623466850691,0.977178977649307,0.28553793548876744,0.7126995077567359
0.0555,1.7246476374254638,1.0,2742.2941386114603,0.46441194616802606,1.2995990870992076,0.9774338010322189,0.2854882007718695,0.7137767442899281
0.056,1.7234634774993218,1.0,2745.5704844841334,0.46741617230667193,1.2990346028722695,0.9776823456947477,0.28543846605497153,0.7148542930007147
0.0565,1.7222793175731799,1.0,2748.9723115126344,0.47040354646788607,1.2984689998197971,0.9779248215495623,0.2853887313380735,0.7159319392428889
0.057,1.721095157647038,1.0,2752.4881587725886,0.4733741633436379,1.297902383757333,0.9781614299318286,0.28533899662117557,0.7170094698714884
0.0575,1.719910997720896,1.0,2756.108489317712,0.47632811544710596,1.2973348428928402,0.978392362829364,0.2852892619042776,0.71808670663868
0.058,1.718726837794754,1.0,2759.826526113295,0.4792654928293741,1.2967664403091295,0.9786178028987409,0.28523952718737966,0.7191635201092089
0.0585,1.717542677868612,1.0,2763.62313448406,0.4821864006706067,1.296197350596521,0.9788379330374629,0.2851897924704817,0.7202395711084236
0.059000000000000004,1.71635851794247,1.0,2767.493149793204,0.48509092861110437,1.2956276217916791,0.979052920619928,0.28514005775358375,0.7213147615873595
0.059500000000000004,1.7151743580163281,1.0,2771.431395373839,0.4879791662911676,1.2950573019312694,0.9792629264792975,0.2850903230366858,0.7223889941869888
0.06,1.7139901980901862,1.0,2775.432681874105,0.49085120335109694,1.2944864390519562,0.9794681052154627,0.28504058831978785,0.7234621722401101
0.0605,1.7128060381640442,1.0,2779.491806652856,0.493707129431193,1.2939150811904045,0.9796686054862231,0.28499085360288984,0.7245341997730801
0.061,1.7116218782379022,1.0,2783.603553227396,0.4965470341717562,1.2933432763832793,0.9798645702827101,0.2849411188859919,0.7256049815074077
0.0615,1.7104377183117603,1.0,2787.762690771449,0.4993710072130873,1.2927710726672454,0.9800561371900277,0.28489138416909393,0.7266744228611942
0.062,1.7092535583856183,1.0,2791.9639736649237,0.5021791381954867,1.2921985180789677,0.9802434386340045,0.284841649452196,0.7277424299504311
0.0625,1.7080693984594764,1.0,2796.2021410945376,0.5049715167592549,1.2916256606551109,0.9804266021149008,0.284791914735298,0.7288089095901471
0.063,1.7068852385333344,1.0,2800.4719167058347,0.5077482325446925,1.2910525484323399,0.9806057504288497,0.2847421800184,0.7298737692954096
0.0635,1.7057010786071924,1.0,2804.7703538587693,0.5105093682714769,1.2904792084151553,0.9807810002990529,0.28469244530150206,0.7309369562452321
0.064,1.7045169186810505,1.0,2809.094875429863,0.5132550099744744,1.289905664217828,0.9809524642874162,0.2846427105846041,0.7319984242806761
0.0645,1.7033327587549085,1.0,2813.4374795727917,0.515985260852318,1.289331987952175,0.9811202545556096,0.28459297586770615,0.7330580380983498
0.065,1.7021485988287666,1.0,2817.796507198191,0.5187002039866532,1.2887581947661901,0.9812844749969656,0.2845432411508082,0.7341157683525861
0.0655,1.7009644389026246,1.0,2822.1702940750856,0.5213999224591249,1.2881842998078672,0.981445225825007,0.28449350643391025,0.7351715859191623
0.066,1.6997802789764824,1.0,2826.557170794228,0.5240844993513786,1.2876103182252001,0.9816026037307638,0.28444377171701224,0.7362254618954054
0.0665,1.6985961190503405,1.0,2830.9554627366306,0.5267540177450594,1.2870362651661826,0.9817567020322825,0.2843940370001143,0.7372773676002835
0.067,1.6974119591241985,1.0,2835.3634900466823,0.5294085607218125,1.2864621557788087,0.9819076108167729,0.28434430228321633,0.7383272745744819
0.0675,1.6962277991980566,1.0,2839.779567610852,0.5320482113632833,1.2858880052110726,0.9820554170758016,0.2842945675663184,0.7393751545804648
0.068,1.6950436392719146,1.0,2844.202005041418,0.5346730527511169,1.2853138286109675,0.9822002048339177,0.2842448328494204,0.7404209796025237
0.0685,1.6938594793457726,1.0,2848.629106664876,0.5372831679669584,1.284739641126488,0.9823420552710759,0.2841950981325224,0.7414647218468076
0.069,1.6926753194196307,1.0,2853.059171516344,0.5398786400924532,1.2841654579056272,0.9824810468391956,0.28414536341562446,0.7425063537413432
0.0695,1.6914911594934887,1.0,2857.4904933375824,0.5424595522092467,1.2835912940963796,0.9826172553731751,0.2840956286987265,0.7435458479360355
0.07,1.6903069995673468,1.0,2861.9213605817354,0.5450259873989838,1.2830171648467388,0.982750754196661,0.28404589398182856,0.7445831773026591
0.07050000000000001,1.6891228396412048,1.0,2866.350056421996,0.5475780287433097,1.2824430853046989,0.9828816142228546,0.2839961592649306,0.7456183149348297
0.07100000000000001,1.6879386797150628,1.0,2870.7777079978196,0.5501157300861682,1.281869045365106,0.9830099011380797,0.28394642454803265,0.7466512795438897
0.07150000000000001,1.6867545197889209,1.0,2875.201356967839,0.5526392001478484,1.2812950711363842,0.9831356834303233,0.2838966898311347,0.7476820247269661
0.07200000000000001,1.685570359862779,1.0,2879.6192063209533,0.555148531056488,1.2807211783696302,0.9832590259206113,0.28384695511423674,0.7487105230062701
0.0725,1.684386199936637,1.0,2884.0309133640358,0.5576437982115005,1.2801473699077992,0.983379989802297,0.28379722039733873,0.7497367701968838
