Time [s],Phi [rad],STIM [ ],Fsee [N],Gamma [ ],Lcerel [ ],q [ ],Lmtc [m],fisomrel [ ]
0.0,1.8,1.0,17.967784514102288,1.0035358024641544e-05,1.3793396760485752,0.00500002683982427,0.288653,0.5411397008142922
0.0005,1.79999375,1.0,18.277070421331786,0.005619188376396646,1.379302351546835,0.012940611411996247,0.2886527375,0.5412299939765344
0.001,1.799975,1.0,21.618681814026544,0.011196878481258115,1.3789382714470506,0.035608758444683704,0.28865195,0.5421102883696474
0.0015,1.79994375,1.0,31.06949662886964,0.01674328215553718,1.3780461815247012,0.07060195324602092,0.2886506375,0.5442636627378594
0.002,1.7999,1.0,53.582501913444894,0.02225857489051296,1.3763681242864338,0.11471813023593129,0.2886488,0.5483004943275239
0.0025,1.79984375,1.0,97.11881240655018,0.027742931193374946,1.3739351732945768,0.16457499388899094,0.28864643749999996,0.5541214482562336
0.003,1.7997750000000001,1.0,160.95797926609177,0.03319652459494403,1.3712143507766275,0.21728055829318194,0.28864354999999997,0.5605864342394355
0.0035,1.79969375,1.0,237.6830996495355,0.038619527649261264,1.3685847413760872,0.27061299222538415,0.2886401375,0.5667898227829175
0.004,1.7996,1.0,321.466528137266,0.044012111944370755,1.3661560988376493,0.3229159022014386,0.2886362,0.5724799466964081
0.0045000000000000005,1.7994937500000001,1.0,409.2675214912483,0.04937444810750402,1.3639228195490778,0.373034603363185,0.2886317375,0.5776791499089584
0.005,1.799375,1.0,499.4132774693232,0.05470670579616713,1.361858347164137,0.4202475510391564,0.28862675,0.5824570682003791
0.0055,1.79924375,1.0,590.7902030135328,0.06000905374562961,1.359938839221468,0.464173782611686,0.2886212375,0.5868751021042801
0.006,1.7991000000000001,1.0,682.517900523782,0.06528165971202701,1.3581464185247267,0.5046800405995125,0.2886152,0.5909794097509926
0.006500000000000001,1.79894375,1.0,773.8811377862195,0.07052469052801263,1.356467255667032,0.5418008323748614,0.2886086375,0.594805789659486
0.007,1.798775,1.0,864.2856456812841,0.07573831208634053,1.354890397670086,0.5756768484868684,0.28860155,0.5983826710509192
0.0075,1.79859375,1.0,953.2431430401692,0.08092268934960437,1.3534067803042775,0.6065099778219843,0.2885939375,0.601733570264554
0.008,1.7984,1.0,1040.344242184099,0.08607798592999243,1.3520088555943781,0.6345322389574766,0.2885858,0.6048780790278581
0.0085,1.79819375,1.0,1125.3142022952968,0.09120436596734308,1.3506892418554974,0.6599844896172447,0.2885771375,0.6078349988737769
0.009000000000000001,1.797975,1.0,1207.9005198648474,0.09630199141242582,1.3494420304146717,0.68310424236191,0.28856795,0.6106194750627285
0.0095,1.79774375,1.0,1287.893096859072,0.10137102275654226,1.3482621120112763,0.7041175196695466,0.2885582375,0.6132445833464453
0.01,1.7975,1.0,1365.1676635000322,0.1064116204909941,1.3471443773846863,0.723234267635138,0.288548,0.6157231544968065
0.0105,1.79724375,1.0,1439.6589250785082,0.11142394459879126,1.3460839535729257,0.7406467041507159,0.2885372375,0.6180672738499141
0.011,1.796975,1.0,1511.3215548962064,0.11640815386522592,1.3450765616965499,0.7565291693549747,0.28852595000000003,0.6202875209428802
0.0115,1.79669375,1.0,1580.1207626592898,0.12136440546803498,1.3441184860429713,0.7710386455468213,0.2885141375,0.6223930725876701
0.012,1.7964,1.0,1646.057675922039,0.12629285607346685,1.3432061571721055,0.7843156180643777,0.28850180000000003,0.6243926456605742
0.0125,1.79609375,1.0,1709.174254498842,0.13119366241298985,1.3423360315796073,0.7964853546049054,0.2884889375,0.6262947751349683
0.013000000000000001,1.7957750000000001,1.0,1769.506612926802,0.13606697941283602,1.341505072091941,0.8076595202423549,0.28847555,0.6281067784932339
0.0135,1.79544375,1.0,1827.0911436168265,0.1409129605665845,1.3407105993528747,0.8179374939185393,0.2884616375,0.6298351004100922
0.014,1.7951000000000001,1.0,1881.9918860868124,0.14573175936781455,1.3399499340061758,0.827407557868621,0.2884472,0.631486104493612
0.0145,1.79474375,1.0,1934.2806110135673,0.1505235281736121,1.339220585574209,0.8361482123343276,0.2884322375,0.6330656706718456
0.015,1.794375,1.0,1984.0547894590206,0.15528842002546858,1.3385200248188451,0.844229223611249,0.28841675,0.6345796964178843
0.0155,1.79399375,1.0,2031.3742295198922,0.16002658452221488,1.3378463328516272,0.8517128553642399,0.2884007375,0.6360327021004704
0.016,1.7936,1.0,2076.312237865647,0.16473817111446398,1.3371976153021548,0.85865455972455,0.2883842,0.6374291078907528
0.0165,1.7931937500000001,1.0,2118.9565336933483,0.16942332925282888,1.3365719778000273,0.8651037770474436,0.2883671375,0.6387732900503122
0.017,1.792775,1.0,2159.39042101698,0.17408220679530004,1.3359677056447423,0.8711046993660133,0.28834955,0.640069198864183
0.0175,1.7923437500000001,1.0,2197.720594800378,0.17871495320369604,1.3353829624457982,0.8766968062169667,0.2883314375,0.6413210092508939
0.018000000000000002,1.7919,1.0,2234.014497080776,0.18332171364350844,1.334816414491115,0.8819155842560404,0.2883128,0.642531787587098
0.0185,1.79144375,1.0,2268.3466521761497,0.18790263317463976,1.3342667397736978,0.8867928612684263,0.2882936375,0.6437045493656346
0.019,1.790975,1.0,2300.7991218908223,0.1924578568569926,1.3337326162865513,0.8913572269430363,0.28827395,0.6448422857988952
0.0195,1.79049375,1.0,2331.4526917860635,0.19698752867567051,1.3332128024046954,0.8956344230821703,0.2882537375,0.6459477943673769
0.02,1.79,1.0,2360.3964236109864,0.20149179355742367,1.3327060351590911,0.8996476437464275,0.288233,0.6470238972216761
0.0205,1.78949375,1.0,2387.7063837274122,0.205970794266935,1.3322112324028057,0.9034178651447631,0.2882117375,0.6480730136014319
0.021,1.788975,1.0,2413.445296242724,0.21042467112586266,1.3317274864345425,0.9069640882563663,0.28818995000000003,0.6490971771167743
0.021500000000000002,1.78844375,1.0,2437.679818031967,0.2148535644558649,1.3312538895530046,0.9103035182061033,0.2881676375,0.6500984077041002
0.022,1.7879,1.0,2460.4802117431504,0.21925761457859982,1.3307895340568952,0.9134517587549199,0.2881448,0.6510787122398667
0.0225,1.78734375,1.0,2481.901634241798,0.22363696080790194,1.330333687664819,0.9164230181230572,0.28812143749999997,0.6520397155413322
0.023,1.786775,1.0,2502.026285207287,0.22799174262019273,1.3298853870708687,0.9192301761596133,0.28809755,0.6529835184856606
0.0235,1.78619375,1.0,2520.9595741319463,0.23232209967212053,1.3294434764158578,0.9218849320105763,0.28807313749999996,0.6539126143081446
0.024,1.7856,1.0,2538.723511697623,0.2366281671610262,1.3290076128875097,0.9243981090543291,0.2880482,0.6548277763458628
0.0245,1.7849958438733091,1.0,2555.4422061230625,0.24091008028425068,1.3285774536735477,0.9267795949541429,0.288022825442679,0.6557297733973457
0.025,1.784390578984416,1.0,2571.5897289559657,0.24516797423913486,1.3281526559616947,0.9290384353489198,0.28799740431734544,0.6566193698510383
0.025500000000000002,1.783785314095523,1.0,2587.2505262627533,0.24940198422301968,1.3277328769396743,0.9311829170307537,0.28797198319201195,0.6574973258062637
0.026000000000000002,1.7831800492066299,1.0,2602.4548098101945,0.2536122450427273,1.3273177898663957,0.933220644343338,0.28794656206667846,0.6583643636383227
0.0265,1.7825747843177369,1.0,2617.2092532372717,0.25779889027011793,1.3269072917316862,0.9351586374861359,0.2879211409413449,0.6592207353719841
0.027,1.7819695194288439,1.0,2631.5224660305553,0.26196205200586414,1.3265012640808584,0.937003349385553,0.2878957198160114,0.6600667237040865
0.0275,1.7813642545399506,1.0,2645.4075305268284,0.2661018613565639,1.3260995496978094,0.9387607156610739,0.28787029869067793,0.6609026903280801
0.028,1.7807589896510576,1.0,2658.877834853509,0.27021844942881507,1.3257019913664352,0.9404362088072936,0.28784487756534444,0.6617289949615388
0.0285,1.7801537247621646,1.0,2671.9226365508266,0.27431190224294233,1.3253086562324017,0.9420348948363354,0.2878194564400109,0.6625455299115725
0.029,1.7795484598732714,1.0,2684.590561260374,0.2783824118236012,1.324919067730806,0.9435614203502081,0.2877940353146774,0.6633533144928058
0.029500000000000002,1.7789431949843784,1.0,2696.895796441998,0.2824301092983882,1.3245330696356907,0.9450201052184137,0.2877686141893439,0.6641526999771554
0.03,1.7783379300954854,1.0,2708.8477938312535,0.28645511691531067,1.3241505511604506,0.946414953772509,0.2877431930640104,0.6649439419080871
0.0305,1.7777326652065921,1.0,2720.456194699433,0.2904575569223761,1.3237714015184798,0.9477496792874787,0.28771777193867687,0.6657272945113499
0.031,1.7771274003176991,1.0,2731.7308214426853,0.29443755156759194,1.323395509923173,0.9490277288048033,0.2876923508133434,0.6665030107191677
0.0315,1.776522135428806,1.0,2742.681669443058,0.29839522309896555,1.3230227655879245,0.9502523055480145,0.2876669296880099,0.6672713421936505
0.032,1.7759168705399129,1.0,2753.3188992018013,0.30233069376450433,1.322653057726129,0.9514263891902203,0.28764150856267634,0.6680325393494235
0.0325,1.7753116056510199,1.0,2763.65282874506,0.3062440858122158,1.322286275551181,0.9525527542025718,0.28761608743734285,0.6687868513754727
0.033,1.7747063407621269,1.0,2773.693926301033,0.31013552149010726,1.321922308276475,0.9536339864859665,0.28759066631200936,0.6695345262562059
0.0335,1.7741010758732336,1.0,2783.4528032499156,0.3140051230461862,1.3215610451154052,0.95467249846497,0.2875652451866758,0.6702758107917358
0.034,1.7734958109843406,1.0,2792.940207345774,0.31785301272846,1.3212023752813662,0.9556705428025061,0.2875398240613423,0.6710109506173738
0.0345,1.7728905460954476,1.0,2802.167016210112,0.3216793127849361,1.3208461879877527,0.9566302248759571,0.28751440293600883,0.671740190222346
0.035,1.7722852812065544,1.0,2811.144231098258,0.325484145463622,1.320492372447959,0.9575535141395911,0.2874889818106753,0.6724637729677257
0.035500000000000004,1.7716800163176614,1.0,2819.8829709375527,0.329267633012525,1.3201408178753795,0.9584422544844053,0.2874635606853418,0.6731819411035813
0.036000000000000004,1.7710747514287684,1.0,2828.3944666374227,0.3330298976796526,1.319791413483409,0.9592981736943044,0.2874381395600083,0.6738949357853423
0.0365,1.7704694865398751,1.0,2836.6900556719484,0.3367710617130121,1.3194440484854417,0.96012289208681,0.28741271843467475,0.6746029970893839
0.037,1.7698642216509821,1.0,2844.7807844441677,0.3404912464822005,1.3190986155894282,0.9609179305715574,0.28738729730934126,0.6753063569161681
0.0375,1.769258956762089,1.0,2852.668032938634,0.3441905556921665,1.318755094288626,0.961684722432908,0.28736187618400777,0.6760050697227334
0.038,1.7686536918731959,1.0,2860.3666658472634,0.3478691249833899,1.318413344672688,0.9624246102494777,0.2873364550586742,0.6766994321886225
0.0385,1.7680484269843029,1.0,2867.8825380077787,0.3515270669241882,1.3180733076750222,0.963138859847673,0.28731103393334073,0.6773895757164243
0.039,1.7674431620954099,1.0,2875.221559158777,0.35516449408287887,1.3177349242290355,0.9638286629265432,0.28728561280800724,0.678075631138932
0.0395,1.7668378972065166,1.0,2882.389691735705,0.35878151902777927,1.317398135268135,0.9644951422015108,0.2872601916826737,0.6787577287254806
0.04,1.7662326323176236,1.0,2889.3929487441856,0.36237825432720683,1.3170628817257282,0.9651393561381639,0.2872347705573402,0.6794359981880642
0.0405,1.7656273674287306,1.0,2896.237391710195,0.365954812549479,1.3167291045352225,0.9657623033127982,0.2872093494320067,0.6801105686872324
0.041,1.7650221025398374,1.0,2902.9291287083984,0.3695113062629131,1.3163967446300247,0.9663649264327755,0.28718392830667316,0.6807815688377645
0.0415,1.7644168376509444,1.0,2909.474312467203,0.3730478480358267,1.3160657429435423,0.96694811604653,0.2871585071813397,0.6814491267141156
0.042,1.7638115727620514,1.0,2915.879138551261,0.37656455043653714,1.3157360404091827,0.9675127139701601,0.2871330860560062,0.6821133698556472
0.0425,1.7632063078731581,1.0,2922.149843621463,0.3800615260333618,1.315407577960353,0.9680595164549586,0.28710766493067263,0.6827744252716323
0.043000000000000003,1.7626010429842651,1.0,2928.29270377259,0.38353888739461817,1.3150802965304604,0.968589277117925,0.28708224380533914,0.6834324194460368
0.043500000000000004,1.7619957780953721,1.0,2934.3096014616635,0.386996730663917,1.314754175902249,0.9691027102131308,0.28705682268000565,0.6840874003574494
0.044,1.7613905132064789,1.0,2940.208378413474,0.390435177743156,1.314429143830249,0.9696004924437531,0.2870314015546721,0.6847395201217368
0.0445,1.7607852483175859,1.0,2945.9969824213595,0.3938543508269256,1.3141051275028257,0.9700832653605529,0.2870059804293386,0.6853889313661786
0.045,1.7601799834286929,1.0,2951.67864333881,0.3972543538648774,1.3137820956960091,0.9705516380780995,0.2869805593040051,0.6860357028718769
0.0455,1.7595747185397996,1.0,2957.256611363376,0.40063529080666327,1.3134600171858295,0.9710061888060998,0.2869551381786716,0.6866799031436845
0.046,1.7589694536509066,1.0,2962.7341563668665,0.40399726560193483,1.313138860748316,0.9714474667160841,0.2869297170533381,0.6873216004121387
0.0465,1.7583641887620136,1.0,2968.1145672449798,0.4073403822003439,1.3128185951594995,0.971875993678047,0.2869042959280046,0.6879608626353226
0.047,1.7577589238731204,1.0,2973.4011512906604,0.4106647445515423,1.312499189195409,0.9722922658772558,0.28687887480267105,0.688597757500676
0.0475,1.7571536589842274,1.0,2978.5972335879896,0.41397045660518167,1.312180611632075,0.9726967553205595,0.28685345367733756,0.6892323524267335
0.048,1.7565483940953344,1.0,2983.706156427746,0.41725762231091384,1.311862831245527,0.9730899112407151,0.28682803255200406,0.6898647145648087
0.0485,1.7559431292064411,1.0,2988.7312787446617,0.4205263456183906,1.311545816811795,0.9734721614065341,0.2868026114266705,0.6904949108006104
0.049,1.7553378643175481,1.0,2993.6759755767353,0.4237767304772636,1.3112295371069091,0.9738439133459713,0.286777190301337,0.6911230077558006
0.0495,1.7547325994286551,1.0,2998.543637545406,0.4270088808371847,1.3109139609068992,0.9742055554886969,0.28675176917600353,0.6917490717894872
0.05,1.7541273345397619,1.0,3003.337670357722,0.43022290064780555,1.310599056987795,0.9745574582341351,0.28672634805067,0.6923731689996572
0.0505,1.7535220696508689,1.0,3008.061494330638,0.433418893858778,1.3102847941256266,0.9748999749504643,0.2867009269253365,0.6929953652245457
0.051000000000000004,1.7529168047619759,1.0,3012.716970061662,0.4365969528770832,1.3099711547133202,0.9752334425138884,0.286675505800003,0.69361569912529
0.051500000000000004,1.7523115398730826,1.0,3017.304857693594,0.4397571668409696,1.3096581307346848,0.9755581828933879,0.28665008467466946,0.6942341902739185
0.052000000000000005,1.7517062749841896,1.0,3021.8322443656834,0.44289967268069197,1.3093456595623227,0.9758745053406894,0.28662466354933597,0.6948509659118352
0.0525,1.7511010100952966,1.0,3026.3007050059373,0.4460245650400348,1.3090337263589387,0.9761827038678055,0.2865992424240025,0.6954660585864434
0.053,1.7504957452064034,1.0,3030.7118215808973,0.44913193856278255,1.3087223162872372,0.9764830596061618,0.28657382129866893,0.6960795007214384
0.0535,1.7498904803175104,1.0,3035.067182921136,0.45222188789271967,1.3084114145099237,0.9767758414811654,0.28654840017333544,0.6966913246173088
0.054,1.7492852154286174,1.0,3039.3683845516102,0.4552945076736306,1.3081010061897025,0.977061306845891,0.28652297904800195,0.6973015624518268
0.0545,1.7486799505397241,1.0,3043.617028526508,0.45834989254929986,1.3077910764892786,0.9773397020766864,0.2864975579226684,0.69791024628052
0.055,1.7480746856508311,1.0,3047.814723270084,0.46138813716351185,1.3074816105713571,0.977611263133289,0.2864721367973349,0.698517408037131
0.0555,1.7474694207619381,1.0,3051.963083421066,0.46440933616005103,1.3071725935986422,0.9778762160858467,0.2864467156720014,0.6991230795340668
0.056,1.7468641558730449,1.0,3056.063729682487,0.46741358418270196,1.3068640107338394,0.9781347776110582,0.28642129454666787,0.6997272924628256
0.0565,1.7462588909841519,1.0,3060.1182886769984,0.47040097587524893,1.3065558471396532,0.9783871554594789,0.2863958734213344,0.7003300783944183
0.057,1.7456536260952589,1.0,3064.1283928059456,0.47337160588147653,1.3062480879787883,0.9786335488958959,0.2863704522960009,0.7009314687797714
0.0575,1.7450483612063656,1.0,3068.0956801140574,0.4763255688451692,1.3059407184139498,0.9788741491145261,0.28634503117066734,0.7015314949501158
0.058,1.7444430963174726,1.0,3072.0217941590863,0.4792629594101114,1.3056337236078421,0.979109139630668,0.28631961004533385,0.7021301881173634
0.0585,1.7438378314285794,1.0,3075.9083838857355,0.4821838722200876,1.3053270887231705,0.979338696650325,0.28629418892000036,0.7027275793744681
0.059000000000000004,1.7432325665396864,1.0,3079.75710350482,0.48508840191888214,1.3050207989226397,0.9795629894191995,0.2862687677946668,0.7033236996957737
0.059500000000000004,1.7426273016507934,1.0,3083.5696123777893,0.48797664315027967,1.3047148393689545,0.9797821805523665,0.2862433466693333,0.7039185799373477
0.06,1.7420220367619002,1.0,3087.344745268272,0.4908486452511886,1.3044092194086672,0.9799964240092003,0.28621792554399983,0.7045122038871363
0.0605,1.7414167718730071,1.0,3091.085551017262,0.49370453559130256,1.3041039123775486,0.9802058721439219,0.2861925044186663,0.7051046252444777
0.061,1.7408115069841141,1.0,3094.794590164669,0.49654443047024377,1.3037988958500801,0.9804106707845349,0.2861670832933328,0.7056958892865821
0.0615,1.740206242095221,1.0,3098.4725535786797,0.4993684144747541,1.3034941634101906,0.9806109585957375,0.2861416621679993,0.7062860101273869
0.062,1.739600977206328,1.0,3102.1201344582955,0.5021765721915754,1.3031897086418092,0.9808068690425206,0.28611624104266575,0.7068750018293841
0.0625,1.7389957123174349,1.0,3105.7380282939007,0.5049689882074495,1.3028855251288647,0.9809985306242527,0.28609081991733226,0.7074628784037369
0.063,1.7383904474285417,1.0,3109.3269328275896,0.5077457471091184,1.302581606455286,0.9811860670965374,0.28606539879199877,0.7080496538103904
0.0635,1.7377851825396486,1.0,3112.8875480152115,0.5105069334833237,1.302277946205002,0.9813695976815666,0.2860399776666652,0.7086353419581821
0.064,1.7371799176507556,1.0,3116.420575989362,0.5132526319168073,1.3019745379619423,0.9815492372676471,0.28601455654133173,0.7092199567049473
0.0645,1.7365746527618624,1.0,3119.926721022936,0.5159829269963112,1.301671375310035,0.9817250965985356,0.28598913541599824,0.7098035118576275
0.065,1.7359693878729694,1.0,3123.406689493598,0.5186979033085771,1.30136845183321,0.981897282453167,0.2859637142906647,0.7103860211723666
0.0655,1.7353641229840764,1.0,3126.861189849651,0.521397645440347,1.3010657611153955,0.9820658978163365,0.2859382931653312,0.7109674983546161
0.066,1.7347588580951832,1.0,3130.290932576117,0.5240822379783625,1.3007632967405212,0.9822310420408487,0.2859128720399977,0.7115479570592258
0.0665,1.7341535932062901,1.0,3133.696630162156,0.5267517655093656,1.3004610522925153,0.9823928110016177,0.28588745091466417,0.7121274108905433
0.067,1.7335483283173971,1.0,3137.078997069602,0.5294063126200982,1.3001590213553074,0.9825512972421739,0.2858620297893307,0.7127058734025005
0.0675,1.732943063428504,1.0,3140.438749701784,0.5320459638973021,1.2998571975128261,0.9827065901140021,0.2858366086639972,0.7132833580987052
0.068,1.732337798539611,1.0,3143.7766063736813,0.534670803927719,1.2995555743490008,0.9828587759091082,0.28581118753866364,0.7138598784325263
0.0685,1.7317325336507179,1.0,3147.0932872832677,0.537280917298091,1.2992541454477602,0.9830079379861905,0.28578576641333014,0.7144354478071773
0.069,1.7311272687618247,1.0,3150.3895144828602,0.5398763885951599,1.2989529043930332,0.9831541568907637,0.28576034528799665,0.715010079575797
0.0695,1.7305220038729316,1.0,3153.6660118522236,0.5424573024056674,1.298651844768749,0.9832975104695675,0.2857349241626631,0.7155837870415277
0.07,1.7299167389840386,1.0,3156.923505072584,0.5450237433163553,1.2983509601588366,0.9834380739795668,0.2857095030373296,0.7161565834575904
0.07050000000000001,1.7293114740951454,1.0,3160.162637060177,0.5475757926840632,1.2980502448613886,0.9835759200330061,0.2856840819119961,0.7167284806698542
