Time [s],Phi [rad],STIM [ ],Fsee [N],Gamma [ ],Lcerel [ ],q [ ],Lmtc [m],fisomrel [ ]
0.0,1.8,1.0,17.97208037994167,6.820864468985655e-05,1.3793391948050866,0.005001221304075195,0.288653,0.5411408650657799
0.0005,1.79999375,1.0,18.30071733603779,0.0056770353569461935,1.3792997257074038,0.013102901264850642,0.2886527375,0.541236345912909
0.001,1.799975,1.0,21.685594434403622,0.011254400985984974,1.3789314426351396,0.03591253544509566,0.28865195,0.5421267913981248
0.0015,1.79994375,1.0,31.22877383557826,0.016800482004517767,1.3780326290574483,0.07101737185194806,0.2886506375,0.544296337270133
0.002,1.7999,1.0,53.92607723339394,0.022315453893519233,1.3763458705300804,0.11520986398219502,0.2886488,0.5483539085936097
0.0025,1.79984375,1.0,97.69647291919958,0.027799491150183653,1.3739073784647078,0.16510980863263042,0.28864643749999996,0.554187730643016
0.003,1.7997750000000001,1.0,161.70964348775857,0.033252767295108,1.371186248024385,0.21783221387068477,0.28864354999999997,0.5606529632575884
0.0035,1.79969375,1.0,238.53239848899364,0.03867545487231189,1.3685586040403404,0.27116162032611363,0.2886401375,0.5668512608030474
0.004,1.7996,1.0,322.3700821209485,0.044067725459900904,1.366132183927489,0.32344708686631657,0.2886362,0.5725357904734931
0.0045000000000000005,1.7994937500000001,1.0,410.2031422633672,0.04942974967528613,1.3639008694949044,0.3735388114606525,0.2886317375,0.5777300930511879
0.005,1.799375,1.0,500.3679291458925,0.05476169716657832,1.3618380705759616,0.4207192578630115,0.28862675,0.5825038605926831
0.0055,1.79924375,1.0,591.7532419269961,0.06006373665686829,1.3599200314345699,0.46461049904905316,0.2886212375,0.5869182747836041
0.006,1.7991000000000001,1.0,683.482062222593,0.06533603589505169,1.3581288988138682,0.5050813720531884,0.2886152,0.591019425492239
0.006500000000000001,1.79894375,1.0,774.840900625591,0.07057876170833459,1.3564508769609998,0.5421677649440181,0.2886086375,0.5948430239596116
0.007,1.798775,1.0,865.2243287903495,0.07579207977504158,1.3548752390433356,0.5760113311415802,0.28860155,0.5984169793173961
0.0075,1.79859375,1.0,954.1717817342845,0.0809761555000419,1.3533925003579135,0.6068141358247892,0.2885939375,0.6017657547537696
0.008,1.7984,1.0,1041.28533998697,0.0861311529126873,1.3519950028627392,0.6348083248582679,0.2885858,0.6049091771672839
0.0085,1.79819375,1.0,1126.2218423067684,0.09125723450795806,1.3506763955997043,0.6602353791240182,0.2885771375,0.6078637294936214
0.009000000000000001,1.797975,1.0,1208.7541729421469,0.09635456269183762,1.3494303683218736,0.6833324617823923,0.28856795,0.6106454645868615
0.0095,1.79774375,1.0,1288.7207198753752,0.10142329915390703,1.3482511621081803,0.7043250853458102,0.2885582375,0.6132689033491772
0.01,1.7975,1.0,1365.9811413743212,0.10646360402247168,1.3471339235544224,0.7234231738404383,0.288548,0.6157462982069912
0.0105,1.79724375,1.0,1440.4434279802426,0.11147563653842045,1.3460741362523383,0.7408189423154424,0.2885372375,0.6180889420191262
0.011,1.796975,1.0,1512.0702595516814,0.11645955548933098,1.3450674170758539,0.756686483992815,0.28852595000000003,0.6203076456396643
0.0115,1.79669375,1.0,1580.8512015559168,0.12141551917735585,1.3441097608317627,0.7711824702363215,0.2885141375,0.6224122209831221
0.012,1.7964,1.0,1646.7692936393282,0.12634368352501113,1.3431978287126543,0.7844473333340366,0.28850180000000003,0.6244108748945142
0.0125,1.79609375,1.0,1709.8489872225955,0.13124420445481297,1.3423282819111175,0.7966062744177097,0.2884889375,0.6263116945273675
0.013000000000000001,1.7957750000000001,1.0,1770.128772971173,0.1361172369435038,1.3414980490505102,0.8077707984587198,0.28847555,0.6281220742815541
0.0135,1.79544375,1.0,1827.6918057412477,0.14096293662036696,1.3407039266493352,0.8180399559623178,0.2884616375,0.6298495993804987
0.014,1.7951000000000001,1.0,1882.5823097656973,0.1457814558286465,1.3399434713922334,0.8275020233030435,0.2884472,0.6315001156179778
0.0145,1.79474375,1.0,1934.8569929882772,0.15057294641492386,1.3392143624899688,0.8362354696117379,0.2884322375,0.6330791335475894
0.015,1.794375,1.0,1984.593752872365,0.15533756022578057,1.3385142791533067,0.844310043516225,0.28841675,0.6345921007950165
0.0155,1.79399375,1.0,2031.8709334598495,0.16007544806728738,1.337841099698195,0.8517878585784155,0.2884007375,0.6360439775341652
0.016,1.7936,1.0,2076.7926482653097,0.1647867611266091,1.337192608870092,0.8587241998526768,0.2883842,0.6374398741179246
0.0165,1.7931937500000001,1.0,2119.428509464706,0.1694716474783836,1.3365671090006743,0.8651685171307418,0.2883671375,0.6387837408766843
0.017,1.792775,1.0,2159.853428333461,0.1741302547965768,1.3359629742806605,0.8711649791545999,0.28834955,0.6400793364556514
0.0175,1.7923437500000001,1.0,2198.1533534041346,0.17876273075515436,1.3353785789007697,0.8767530767130134,0.2883314375,0.6413303852503195
0.018000000000000002,1.7919,1.0,2234.408071852122,0.18336922170777384,1.3348124603468543,0.8819682157782177,0.2883128,0.642540230856142
0.0185,1.79144375,1.0,2268.7225412992343,0.18794987520015374,1.3342629919907238,0.8868421086338066,0.2882936375,0.6437125388565348
0.019,1.790975,1.0,2301.16648758277,0.19250483499079488,1.3337289794039087,0.8914033502967135,0.28827395,0.6448500264860508
0.0195,1.79049375,1.0,2331.811809974344,0.19703424448374518,1.3332092706156682,0.8956776781473827,0.2882537375,0.645955299667648
0.02,1.79,1.0,2360.736248734829,0.20153824708305265,1.3327027136552616,0.8996882861353144,0.288233,0.6470309449184471
0.0205,1.78949375,1.0,2388.0159625965935,0.20601698515494427,1.3322082238741606,0.9034561249104747,0.2882117375,0.648079387724412
0.021,1.788975,1.0,2413.7342815711213,0.21047060201119908,1.331724693045387,0.9070001315669249,0.28818995000000003,0.6491030868110452
0.021500000000000002,1.78844375,1.0,2437.9617743179224,0.21489923864925903,1.3312511776867266,0.9103374884420103,0.2881676375,0.6501041367383822
0.022,1.7879,1.0,2460.758500056594,0.21930303388657144,1.330786869897965,0.9134838056575549,0.2881448,0.6510843325991925
0.0225,1.78734375,1.0,2482.1876072818923,0.22368212654058378,1.330330961778888,0.9164532622774514,0.28812143749999997,0.6520454581959018
0.023,1.786775,1.0,2502.315074951676,0.2280366554287435,1.3298826454292814,0.9192587573127393,0.28809755,0.6529892864941934
0.0235,1.78619375,1.0,2521.203258361324,0.23236675776536683,1.3294411716788985,0.9219120531361388,0.28807313749999996,0.6539174566416917
0.024,1.7856026984231799,1.0,2539.0425901389244,0.23667257260926877,1.329005824322071,0.9244238891973862,0.28804831333377356,0.654831529216054
0.0245,1.785010911862137,1.0,2556.2963206344543,0.240954237278165,1.328576235620307,0.9268041396079406,0.28802345829820974,0.6557323258469021
0.025,1.7844191253010937,1.0,2573.0138725003126,0.24521188544078018,1.3281522132406816,0.9290618662299558,0.2879986032626459,0.6566202963815124
0.025500000000000002,1.7838273387400505,1.0,2589.210050314499,0.24944565076583894,1.327733564850269,0.9312053702275269,0.2879737482270821,0.6574958879800207
0.026000000000000002,1.7832355521790073,1.0,2604.900113642218,0.2536556669220659,1.3273200981161448,0.9332422662221327,0.2879488931915183,0.658359545182517
0.0265,1.7826437656179641,1.0,2620.0997545295736,0.2578420675781858,1.326911620705383,0.9351795483210192,0.28792403815595446,0.6592117099737875
0.027,1.782051979056921,1.0,2634.8241198699875,0.2620049850026268,1.326507949128994,0.9370236497418782,0.28789918312039064,0.6600528034297778
0.0275,1.7814601924958777,1.0,2649.0892179109533,0.26614455122940295,1.3261088954529796,0.9387804938315153,0.2878743280848269,0.6608832535281812
0.028,1.7808684059348345,1.0,2662.913531640285,0.2702609012214412,1.3257142523323062,0.9404555402874831,0.28784947304926306,0.6617035262359909
0.0285,1.7802766193737916,1.0,2676.310802654382,0.2743541629269476,1.3253238593216026,0.9420538329794751,0.28782461801369924,0.66251398774266
0.029,1.7796848328127484,1.0,2689.2950709900165,0.27842446429412826,1.324937555975498,0.9435800335058392,0.2877997629781354,0.6633150022853003
0.029500000000000002,1.7790930462517052,1.0,2701.880660290628,0.2824719332711891,1.324555181848621,0.9450384551073837,0.2877749079425716,0.664106932191354
0.03,1.778501259690662,1.0,2714.082163543637,0.2864966978063362,1.324176576495601,0.9464330931684118,0.2877500529070078,0.6648901379196165
0.0305,1.7779094731296188,1.0,2725.914429388344,0.29049888584777556,1.323801579471067,0.9477676526855263,0.287725197871444,0.6656649780996249
0.031,1.7773176865685756,1.0,2737.3914291826572,0.2944786236594336,1.323430040493629,0.9490455737853879,0.2877003428358802,0.6664317886042395
0.0315,1.7767259000075324,1.0,2748.5160725559476,0.2984360204004568,1.3230619114810274,0.9502700606666521,0.2876754878003164,0.6671906930810741
0.032,1.7761341134464894,1.0,2759.322753862485,0.3023712332758195,1.322696860811363,0.951444074111668,0.28765063276475256,0.6679423980309052
0.0325,1.7755423268854462,1.0,2769.820833859327,0.30628438215697557,1.3223347859528076,0.9525703871613284,0.28762577772918874,0.668687135729457
0.033,1.774950540324403,1.0,2780.0198197993655,0.31017558691537883,1.321975584373533,0.9536515844599053,0.2876009226936249,0.6694251373320215
0.0335,1.7743587537633598,1.0,2789.9293587830366,0.31404496742248333,1.3216191535417106,0.9546900773281829,0.2875760676580611,0.6701566328925816
0.034,1.7737669672023166,1.0,2799.559231342913,0.3178926435497428,1.321265390925512,0.9556881174599653,0.2875512126224973,0.6708818513822637
0.0345,1.7731751806412734,1.0,2808.9193452616787,0.32171873516861116,1.3209141939931093,0.9566478093822617,0.28752635758693346,0.6716010207071206
0.035,1.7725833940802302,1.0,2818.0197296230563,0.3255233621505424,1.3205654602126735,0.9575711218037632,0.28750150255136964,0.672314367725245
0.035500000000000004,1.7719916075191873,1.0,2826.8705290958164,0.32930664436699025,1.3202190870523764,0.9584598979624489,0.28747664751580587,0.6730221182632097
0.036000000000000004,1.771399820958144,1.0,2835.481998450607,0.3330687016894087,1.31987497198039,0.959315865071019,0.28745179248024205,0.6737244971318391
0.0365,1.7708080343971009,1.0,2843.864497310633,0.33680965398925156,1.3195330124648856,0.9601406429481587,0.28742693744467823,0.6744217281413114
0.037,1.7702162478360577,1.0,2852.0284851345846,0.3405296211379728,1.319193105974035,0.9609357519141966,0.2874020824091144,0.6751140341155883
0.0375,1.7696244612750145,1.0,2859.984516433017,0.3442287230070263,1.3188551499760095,0.9617026200213782,0.2873772273735506,0.675801636906175
0.038,1.7690326747139713,1.0,2867.741488384136,0.3479070755032878,1.318519057438471,0.9624425903452403,0.2873523723379868,0.6764847259199871
0.0385,1.768440888152928,1.0,2875.3026771127256,0.35156478462195656,1.3181847917916185,0.9631569291405069,0.287327517302423,0.6771633873486109
0.039,1.7678491015918851,1.0,2882.685166273282,0.35520198901876016,1.3178521947316646,0.9638468236998033,0.2873026622668592,0.6778379537763519
0.0395,1.767257315030842,1.0,2889.894448810404,0.35881879961457697,1.317521211329215,0.9645133965434071,0.28727780723129537,0.6785085470536607
0.04,1.7666655284697987,1.0,2896.936066431569,0.36241532733028525,1.3171917866548757,0.9651577059758785,0.28725295219573155,0.679175288516224
0.0405,1.7660737419087555,1.0,2903.8156076751916,0.36599168308676344,1.3168638657792529,0.9657807504425506,0.28722809716016773,0.6798382989905218
0.041,1.7654819553477124,1.0,2910.538706045847,0.3695479778048899,1.3165373937729525,0.9663834725463022,0.2872032421246039,0.6804976987991926
0.0415,1.7648901687866692,1.0,2917.111038216395,0.373084322405543,1.3162123157065801,0.9669667627543949,0.2871783870890401,0.6811536077662057
0.042,1.764298382225626,1.0,2923.538322296694,0.376600827809601,1.3158885766507422,0.9675314628222597,0.28715353205347627,0.6818061452218372
0.0425,1.7637065956645828,1.0,2929.8263161695495,0.3800976049379424,1.3155661216760444,0.9680783689585463,0.28712867701791245,0.6824554300074617
0.043000000000000003,1.7631148091035398,1.0,2935.9808158933924,0.3835747647114455,1.3152448958530927,0.9686082347534343,0.2871038219823487,0.6831015804801428
0.043500000000000004,1.7625230225424966,1.0,2942.0076541718186,0.38703241805098865,1.3149248442524932,0.9691217738901416,0.28707896694678486,0.6837447145170372
0.044,1.7619312359814534,1.0,2947.912698890331,0.39047067587745016,1.3146059119448517,0.969619662657705,0.28705411191122104,0.6843849495196054
0.0445,1.7613394494204102,1.0,2953.7018517193646,0.39388964911170854,1.3142880440007743,0.970102542281432,0.2870292568756572,0.6850224024176257
0.045,1.760747662859367,1.0,2959.3775477210984,0.39728943469165495,1.3139712160357824,0.9705710214016503,0.2870044018400934,0.6856571285108803
0.0455,1.7601558762983238,1.0,2964.9451591008087,0.40067014574637627,1.3136553782070348,0.9710256781777841,0.2869795468045296,0.6862892338067664
0.046,1.7595640897372806,1.0,2970.413022646461,0.4040319072847246,1.313340455086486,0.9714670614286754,0.28695469176896576,0.6869188750197508
0.0465,1.7589723031762377,1.0,2975.7840429321486,0.40737482138693976,1.3130264188642293,0.9718956929933005,0.286929836733402,0.6875461131793241
0.047,1.7583805166151945,1.0,2981.061141411702,0.4106989901332616,1.312713241730358,0.9723120690398208,0.2869049816978382,0.6881710090768198
0.0475,1.7577887300541513,1.0,2986.2472558811314,0.41400451560393003,1.3124008958749651,0.9727166615702728,0.28688012666227436,0.6887936232669618
0.048,1.757196943493108,1.0,2991.3453399569844,0.41729149987918485,1.3120893534881444,0.9731099198234501,0.28685527162671054,0.6894140160693625
0.0485,1.7566051569320649,1.0,2996.3583625725655,0.420560045039266,1.3117785867599885,0.9734922715837522,0.2868304165911467,0.6900322475699756
0.049,1.7560133703710217,1.0,3001.2893074907975,0.4238102531644133,1.3114685678805913,0.9738641244031192,0.2868055615555829,0.6906483776224921
0.0495,1.7554215838099785,1.0,3006.141172835113,0.4270422263348666,1.3111592690400455,0.9742258667425665,0.2867807065200191,0.6912624658496958
0.05,1.7548297972489353,1.0,3010.9169706362986,0.43025606663086585,1.3108506624284448,0.9745778690392979,0.28675585148445526,0.691874571644761
0.0505,1.7542380106878923,1.0,3015.6197263975796,0.4334518761326508,1.3105427202358821,0.9749204847048799,0.28673099644889144,0.6924847541725084
0.051000000000000004,1.7536462241268491,1.0,3020.2524786760655,0.4366297569204614,1.310235414652451,0.975254051059507,0.2867061414133277,0.693093072370605
0.051500000000000004,1.753054437565806,1.0,3024.818278681619,0.4397898110745375,1.3099287178682448,0.9755788902069866,0.28668128637776386,0.6936995849507204
0.052000000000000005,1.7524626510047627,1.0,3029.3201898932803,0.442932140675119,1.3096226020733563,0.9758953098546969,0.28665643134220004,0.6943043503996302
0.0525,1.7518708644437195,1.0,3033.761287692083,0.4460568478024456,1.3093170394578793,0.9762036040824273,0.2866315763066362,0.6949074269802704
0.053,1.7512790778826763,1.0,3038.139312361403,0.4491639934402216,1.3090120482762748,0.9765040526996506,0.2866067212710724,0.6955087819518533
0.0535,1.7506872913216331,1.0,3042.462361430545,0.4522537282794137,1.3087075575785836,0.9767969270323938,0.2865818662355086,0.6961085583350304
0.054,1.7500955047605902,1.0,3046.7321065091987,0.45532614746454037,1.308403551916931,0.9770824844375877,0.2865570111999448,0.6967067894292756
0.0545,1.749503718199547,1.0,3050.9499419335843,0.4583813437835289,1.3081000182843143,0.9773609712131143,0.286532156164381,0.6973035036135369
0.055,1.7489119316385038,1.0,3055.11726773427,0.46141941002430636,1.3077969436737304,0.9776326232502954,0.28650730112881717,0.6978987291617041
0.0555,1.7483201450774606,1.0,3059.235489501439,0.46444043897480003,1.307494315078177,0.9778976665600287,0.28648244609325335,0.6984924942429935
0.056,1.7477283585164174,1.0,3063.3060182547315,0.467444523422937,1.3071921194906508,0.9781563177681204,0.28645759105768953,0.6990848269223269
0.0565,1.7471365719553742,1.0,3067.330270316466,0.47043175615664456,1.306890343904149,0.9784087845818528,0.2864327360221257,0.6996757551606925
0.057,1.746544785394331,1.0,3071.309667188397,0.47340222996384984,1.3065889753116693,0.9786552662296822,0.2864078809865619,0.7002653068154996
0.0575,1.745952998833288,1.0,3075.2456354327805,0.47635603763247997,1.3062880007062085,0.9788959538758192,0.28638302595099807,0.7008535096409234
0.058,1.7453612122722448,1.0,3079.1396065567073,0.4792932719504621,1.3059874070807638,0.9791310310113144,0.28635817091543425,0.7014403912882365
0.0585,1.7447694257112016,1.0,3082.993016900357,0.4822140257057236,1.3056871814283324,0.979360673823163,0.28633331587987043,0.7020259793061282
0.059000000000000004,1.7441776391501584,1.0,3086.8073075291077,0.4851183916861915,1.3053873107419118,0.979585051542826,0.28630846084430667,0.7026103011410172
0.059500000000000004,1.7435858525891152,1.0,3090.583924129122,0.488006462679793,1.3050877820144988,0.9798043267754679,0.28628360580874285,0.7031933841373522
0.06,1.742994066028072,1.0,3094.324316907063,0.49087833147445525,1.3047885822390908,0.980018655811123,0.286258750773179,0.7037752555378987
0.0605,1.7424022794670289,1.0,3098.029940493181,0.4937340908581055,1.304489698408685,0.9802281889189163,0.2862338957376152,0.7043559424840182
0.061,1.7418104929059859,1.0,3101.7022538484634,0.4965738336186709,1.3041911175162781,0.9804330706253785,0.2862090407020514,0.7049354720159371
0.0615,1.7412187063449427,1.0,3105.3427201752556,0.49939765254407864,1.3038928265548682,0.9806334399778422,0.2861841856664876,0.705513871073
0.062,1.7406269197838995,1.0,3108.9489020007845,0.5022055714619558,1.3035948457744233,0.9808294273237519,0.2861593306309238,0.706091102102054
0.0625,1.7400351332228563,1.0,3112.5260910123907,0.5049977654521439,1.3032971295926266,0.9810211660951031,0.28613447559536,0.7066672550410507
0.063,1.739443346661813,1.0,3116.0750275385603,0.5077743199024388,1.3029996712553806,0.9812087800687431,0.28610962055979616,0.7072423444487604
0.0635,1.73885156010077,1.0,3119.596315238742,0.510535317569636,1.3027024651898,0.9813923883571833,0.28608476552423234,0.7078163825510775
0.064,1.7382597735397267,1.0,3123.090559682152,0.5132808412105314,1.3024055058229997,0.9815721057468513,0.2860599104886685,0.7083893815304072
0.0645,1.7376679869786837,1.0,3126.5583683169098,0.5160109735819207,1.3021087875820945,0.9817480428868927,0.2860350554531047,0.7089613535257555
0.065,1.7370762004176405,1.0,3130.000350439936,0.5187257974405997,1.3018123048941987,0.9819203064684072,0.2860102004175409,0.7095323106328164
0.0655,1.7364844138565974,1.0,3133.41711716733,0.5214253955433642,1.3015160521864277,0.9820889993946692,0.28598534538197706,0.7101022649040541
0.066,1.7358926272955542,1.0,3136.8092814058873,0.5241098506470099,1.301220023885896,0.9822542209428485,0.28596049034641324,0.710671228348789
0.0665,1.735300840734511,1.0,3140.177457824783,0.5267792455083327,1.3009242144197184,0.9824160669177129,0.2859356353108494,0.7112392129332761
0.067,1.7347090541734678,1.0,3143.522262828506,0.5294336628841282,1.3006286182150095,0.982574629797763,0.28591078027528566,0.7118062305807846
0.0675,1.7341172676124246,1.0,3146.8443145296005,0.5320731855311922,1.3003332296988845,0.9827299988742245,0.28588592523972184,0.7123722931716743
0.068,1.7335254810513814,1.0,3150.144232723292,0.5346978962063207,1.3000380432984577,0.9828822603832935,0.285861070204158,0.712937412543472
0.0685,1.7329336944903384,1.0,3153.4226388617853,0.5373078776663092,1.2997430534408443,0.9830314976320059,0.2858362151685942,0.7135016004909412
0.069,1.7323419079292952,1.0,3156.680156029845,0.5399032126679536,1.2994482545531587,0.9831777911180822,0.2858113601330304,0.7140648687661565
0.0695,1.731750121368252,1.0,3159.9174089206426,0.5424839839680496,1.299153641062516,0.9833212186440752,0.2857865050974666,0.7146272290785695
0.07,1.7311583348072088,1.0,3163.1350238124733,0.5450502743233931,1.2988592073960308,0.9834618554261262,0.2857616500619028,0.7151886930950774
0.07050000000000001,1.7305665482461656,1.0,3166.3336285466817,0.5476021664907799,1.298564947980818,0.9835997741976211,0.285736795026339,0.7157492724400878
