Time [s],Phi [rad],STIM [ ],Fsee [N],Gamma [ ],Lcerel [ ],q [ ],Lmtc [m],fisomrel [ ]
0.0,1.8,1.0,17.967198819333614,1.0307407380431871e-05,1.3793397416653679,0.005000028308783749,0.288653,0.5411395420703188
0.0005,1.79999375,1.0,18.27663051530019,0.00561945889977101,1.3793024004116903,0.012941367880437479,0.2886527375,0.5412298757714598
0.001,1.799975,1.0,21.61847655782971,0.011197147487210053,1.3789382924108542,0.03561017992881017,0.28865195,0.5421102377064604
0.0015,1.79994375,1.0,31.069725371739892,0.01674354965257875,1.3780461620367117,0.07060390045270148,0.2886506375,0.5442637097235725
0.002,1.7999,1.0,53.58358032594754,0.0222588408871072,1.3763680543250143,0.1147204368008944,0.2886488,0.5483006622563874
0.0025,1.79984375,1.0,97.12099505614533,0.02774319569793889,1.3739350681184253,0.16457750266374582,0.28864643749999996,0.5541216990793006
0.003,1.7997750000000001,1.0,160.96101642950663,0.03319678761584643,1.3712142370931806,0.21728314549805405,0.28864354999999997,0.560586703377959
0.0035,1.79969375,1.0,237.68664463843086,0.03861978919482403,1.3685846321814057,0.2706155646240973,0.2886401375,0.5667900794633223
0.004,1.7996,1.0,321.4703749954489,0.04401237202286952,1.3661559969493355,0.3229183923350198,0.2886362,0.5724801846238463
0.0045000000000000005,1.7994937500000001,1.0,409.27156006416607,0.04937470672716888,1.363922724748585,0.373036966673129,0.2886317375,0.5776793699348395
0.005,1.799375,1.0,499.41744318384934,0.054706962965186935,1.3618582586432137,0.4202497616969878,0.28862675,0.5824572724862915
0.0055,1.79924375,1.0,590.7944385602234,0.06000930947212349,1.3599387564692904,0.4641758290603008,0.2886212375,0.5868752920642246
0.006,1.7991000000000001,1.0,682.5221728066539,0.06528191400409306,1.3581463408661056,0.50468192098888,0.2886152,0.5909795871308012
0.006500000000000001,1.79894375,1.0,773.8855583098622,0.0705249433934969,1.3564671802058952,0.5418025498443144,0.2886086375,0.5948059612119192
0.007,1.798775,1.0,864.2895859781137,0.07573856353354942,1.3548903340217324,0.5756784179945438,0.28860155,0.5983828151082372
0.0075,1.79859375,1.0,953.2465561785831,0.08092293938677401,1.3534067278067263,0.6065114096974484,0.2885939375,0.6017336885871889
0.008,1.7984,1.0,1040.3577114886423,0.08607823492811448,1.352008657285293,0.6345334526367242,0.2885858,0.604878524222593
0.0085,1.79819375,1.0,1125.323055635608,0.09120461350149672,1.3506891165249946,0.6599856270241888,0.2885771375,0.6078352791802257
0.009000000000000001,1.797975,1.0,1207.8882344043056,0.09630223701381935,1.3494421982812892,0.6831054336788791,0.28856795,0.6106191009577174
0.0095,1.79774375,1.0,1287.8745735396265,0.10137126679692886,1.3482623571251247,0.7041186490493706,0.2885582375,0.6132440389338398
0.01,1.7975,1.0,1365.1668370766663,0.10641186362955758,1.3471443880064597,0.7232351825033667,0.288548,0.6157231309809328
0.0105,1.79724375,1.0,1439.663995559181,0.11142418650914672,1.3460838901120118,0.7406475018258855,0.2885372375,0.618067413918804
0.011,1.796975,1.0,1511.3140916646767,0.1164083939113557,1.3450766528632827,0.7565299684207504,0.28852595000000003,0.6202873203082702
0.0115,1.79669375,1.0,1580.1166590151856,0.12136464432407928,1.3441185350673623,0.7710393591643122,0.2885141375,0.6223929649971063
0.012,1.7964,1.0,1646.068791217123,0.12629309426390203,1.3432060270697626,0.7843161954827393,0.28850180000000003,0.624392930430451
0.0125,1.79609375,1.0,1709.180623504804,0.13119389911218324,1.3423359584209953,0.79648590557145,0.2884889375,0.6262949348596256
0.013000000000000001,1.7957750000000001,1.0,1769.4958727281191,0.13606721402263822,1.3415051933398499,0.8076601022752955,0.28847555,0.6281065144193616
0.0135,1.79544375,1.0,1827.079042270767,0.14091319369633462,1.3407107337969508,0.8179380363705997,0.2884616375,0.629834808276605
0.014,1.7951000000000001,1.0,1881.9940104981458,0.14573199191758782,1.3399499107511408,0.8274080026856072,0.2884472,0.6314861549116435
0.0145,1.79474375,1.0,1934.2944833797937,0.15052376017677427,1.3392204357860769,0.8361485790118035,0.2884322375,0.6330659947229085
0.015,1.794375,1.0,1984.0551959221043,0.1552886499642705,1.3385200204854166,0.8442296096738819,0.28841675,0.6345797057734475
0.0155,1.79399375,1.0,2031.3584471234622,0.1600268118750594,1.3378464991416528,0.8517132673871088,0.2884007375,0.6360323438065345
0.016,1.7936,1.0,2076.3016488193653,0.1647383973864005,1.337197725658789,0.8586549265526576,0.2883842,0.6374288705693242
0.0165,1.7931937500000001,1.0,2118.9633597195148,0.16942355540684553,1.3365719073803626,0.8651040656296113,0.2883671375,0.6387734412064562
0.017,1.792775,1.0,2159.413386522569,0.17408243301766843,1.335967470953627,0.8711049208615215,0.28834955,0.6400697017252037
0.0175,1.7923437500000001,1.0,2197.7323837843223,0.17871517730014316,1.3353828430258352,0.876697042258439,0.2883314375,0.6413212646808291
0.018000000000000002,1.7919,1.0,2234.010938560392,0.1833219353355437,1.3348164502442406,0.8819158447202625,0.2883128,0.6425317112431314
0.0185,1.79144375,1.0,2268.3299621409533,0.18790285238236715,1.3342669061880263,0.886793138201143,0.2882936375,0.6437041946029503
0.019,1.790975,1.0,2300.788066816535,0.19245807584203703,1.3337327257351521,0.8913574740947237,0.28827395,0.6448420528488066
0.0195,1.79049375,1.0,2331.4532341486515,0.19698774851068185,1.3332127970705632,0.8956346294593474,0.2882537375,0.6459478057028434
0.02,1.79,1.0,2360.3952616838046,0.20149201272357847,1.3327060465163592,0.8996478419532647,0.288233,0.6470238731232598
0.0205,1.78949375,1.0,2387.6890978883175,0.2059710108160038,1.332211400394639,0.9034180862555065,0.2882117375,0.6480726576780385
0.021,1.788975,1.0,2413.414406839003,0.21042488512323468,1.331727785027502,0.906964325252159,0.28818995000000003,0.6490965454105466
0.021500000000000002,1.78844375,1.0,2437.637845739562,0.21485377554363494,1.3312542932575195,0.9103037644872766,0.2881676375,0.650097554842032
0.022,1.7879,1.0,2460.4468932223085,0.21925782565433918,1.3307898530377538,0.9134519765356721,0.2881448,0.6510780393088689
0.0225,1.78734375,1.0,2481.8981458063577,0.22363717327452617,1.3303337209174442,0.9164231697066019,0.28812143749999997,0.65203964548736
0.023,1.786775,1.0,2502.04788394382,0.2279919557323204,1.3298851820165816,0.919230274336723,0.28809755,0.6529839498912209
0.0235,1.78619375,1.0,2520.954812158504,0.23232231035584644,1.3294435214551559,0.9218850705787798,0.28807313749999996,0.6539125196786552
0.024,1.7856,1.0,2538.679854883474,0.2366283744732288,1.3290080243531572,0.9243983066031155,0.2880482,0.6548269129822459
0.0245,1.78499375,1.0,2555.28054683414,0.24091028433038855,1.328578026717977,0.9267798117054711,0.2880227375,0.6557285725705371
0.025,1.784375,1.0,2570.814163950137,0.245168176055295,1.328152883649981,0.9290385829169615,0.28799675,0.656618893342481
0.025500000000000002,1.78374375,1.0,2585.3463182046935,0.24940218691997176,1.3277318873151356,0.9311828538126331,0.2879702375,0.657499394250189
0.026000000000000002,1.7831000000000001,1.0,2598.9184944600297,0.253612448913794,1.32731456881229,0.9332202155579691,0.2879432,0.6583710875102826
0.0265,1.78244375,1.0,2611.573302018578,0.25779909402613677,1.3269004592402927,0.9351576417311684,0.2879156375,0.6592349800653245
0.027,1.781775,1.0,2623.354380136259,0.2619622542463753,1.3264890896979926,0.9370015468501507,0.28788755,0.6600920736867861
0.0275,1.7810937500000001,1.0,2634.3063084104047,0.2661020615638848,1.326079991284239,0.9387578386408596,0.2878589375,0.6609433650640009
0.028,1.7804,1.0,2644.474522042723,0.27021864796804024,1.3256726950978803,0.9404319647836779,0.2878298,0.6617898458790914
0.0285,1.77969375,1.0,2653.898047368034,0.2743121413945841,1.3252667984667519,0.9420289627107093,0.2878001375,0.6626323654821091
0.029,1.778975,1.0,2662.6266516727565,0.27838267693455826,1.3248618058834554,0.9435534782308154,0.28776995,0.6634719613461102
0.029500000000000002,1.7782437500000001,1.0,2670.6915606538773,0.28243038152259753,1.324457398227134,0.9450098316622446,0.2877392375,0.664309300815303
0.03,1.7775,1.0,2678.123481684326,0.28645538158669703,1.3240532655114436,0.946402026168353,0.287708,0.665145029054113
0.0305,1.77674375,1.0,2684.953551222423,0.29045780355485223,1.3236490977500408,0.9477337741015253,0.2876762375,0.6659797880280118
0.031,1.775975,1.0,2691.2132951888716,0.29443777385505826,1.323244584956582,0.9490085217891323,0.28764395,0.66681421650589
0.0315,1.7751937500000001,1.0,2696.9345914747323,0.29839541891531046,1.3228394171447233,0.9502294719158324,0.2876111375,0.667648950056299
0.032,1.7744,1.0,2702.14897097756,0.3023308645279034,1.3224332903904596,0.9513996043082393,0.2875778,0.6684846085713696
0.0325,1.77359375,1.0,2706.879706437324,0.30624422811873075,1.3220259787115314,0.9525217005264143,0.2875439375,0.6693216487081644
0.033,1.772775,1.0,2711.1682554808413,0.31013564854044634,1.3216170923119939,0.95359834008801,0.28750955,0.6701608607550332
0.0335,1.7719437500000002,1.0,2715.0340876363075,0.3140052455436019,1.3212064440950817,0.9546319474075332,0.2874746375,0.6710026156626058
0.034,1.7711000000000001,1.0,2718.496834519049,0.3178531388787491,1.320793846964029,0.9556247862859731,0.2874392,0.6718472823661324
0.0345,1.7702437500000001,1.0,2721.576274110884,0.3216794482964398,1.3203791138220704,0.9565789724461358,0.2874032375,0.6726952277633447
0.035,1.7693750000000001,1.0,2724.292315815151,0.3254842935472255,1.3199620575724405,0.9574964849497075,0.28736675,0.673546816690084
0.035500000000000004,1.76849375,1.0,2726.664986288114,0.3292677943816581,1.319542491118373,0.9583791766074998,0.2873297375,0.6744024118937004
0.036000000000000004,1.7676,1.0,2728.7144160464513,0.33303007055028916,1.319120227363103,0.9592287834821286,0.2872922,0.6752623740042136
0.0365,1.76669375,1.0,2730.460826850734,0.3367712418036704,1.3186950792098648,0.960046933571626,0.2872541375,0.6761270615032462
0.037,1.765775,1.0,2731.9245198652507,0.3404914278923536,1.3182668595618927,0.9608351547530061,0.28721555,0.6769968306907221
0.0375,1.76484375,1.0,2733.1241192107327,0.344190746025961,1.317835397176769,0.9615948830650272,0.2871764375,0.6778720035123902
0.038,1.7639,1.0,2734.0733262959902,0.34786931063139076,1.3174005660363324,0.9623274720863859,0.28713679999999997,0.678752808290229
0.0385,1.76294375,1.0,2734.791944698624,0.3515272481259904,1.3169621851220426,0.9630341922715553,0.28709663750000003,0.6796395829166455
0.039,1.761975,1.0,2735.291253419721,0.35516467117252487,1.3165201511946376,0.9637162439752915,0.28705595,0.6805325060195273
0.0395,1.7609937500000001,1.0,2735.5825629450155,0.3587816924337591,1.3160743610148562,0.9643747579205071,0.2870147375,0.6814317548120228
0.04,1.76,1.0,2735.6772108022183,0.36237842457245806,1.3156247113434365,0.9650107999786165,0.286973,0.6823375050681517
0.0405,1.7589937500000001,1.0,2735.5865573562055,0.36595498025138673,1.3151710989411167,0.9656253755728337,0.2869307375,0.6832499310977322
0.041,1.757975,1.0,2735.321981839177,0.3695114721333099,1.3147134205686355,0.9662194337378234,0.28688795,0.6841692057206288
0.0415,1.75694375,1.0,2734.8948786183346,0.37304801288099276,1.314251572986731,0.9667938708658423,0.2868446375,0.685095500240323
0.042,1.7559,1.0,2734.316653698889,0.37656471515720014,1.3137854529561415,0.9673495341665782,0.28680079999999997,0.6860289844168022
0.0425,1.75484375,1.0,2733.5987214642996,0.3800616916246969,1.3133149572376053,0.9678872248652944,0.2867564375,0.6869698264387678
0.043000000000000003,1.753775,1.0,2732.7456503363633,0.3835390447458102,1.3128400448306958,0.9684077046038522,0.28671155,0.6879180687191588
0.043500000000000004,1.75269375,1.0,2731.765284733609,0.3869968861207844,1.3123606450374237,0.9689116936259878,0.28666613750000003,0.6888738119636627
0.044,1.7516,1.0,2730.6780156369728,0.39043534448672623,1.3118765731744308,0.9693998678901672,0.2866202,0.6898373823500443
0.0445,1.75049375,1.0,2729.489278759557,0.3938545244550519,1.3113877804142695,0.9698728751201461,0.2865737375,0.69080883357358
0.045,1.7493750000000001,1.0,2728.204511023256,0.3972545306371777,1.3108942179294922,0.9703313297033013,0.28652675,0.6917882182972239
0.0455,1.74824375,1.0,2726.829149584834,0.40063546764451974,1.3103958368926516,0.9707758147272563,0.2864792375,0.6927755881368317
0.046,1.7471,1.0,2725.368630914655,0.40399744008849425,1.3098925884763,0.971206883873067,0.2864312,0.6937709936462328
0.0465,1.7459437500000001,1.0,2723.82838992831,0.40734055258051743,1.3093844238529897,0.971625063176354,0.28638263750000004,0.694774484302148
0.047,1.744775,1.0,2722.2138591707085,0.4106649097320056,1.3088712941952734,0.9720308526667667,0.28633355,0.695786108488957
0.0475,1.74359375,1.0,2720.530468053853,0.4139706161543748,1.3083531506757033,0.9724247278952516,0.28628393750000003,0.6968059134833131
0.048,1.7424,1.0,2718.7836421465145,0.4172577764590414,1.3078299444668322,0.9728071413577928,0.2862338,0.6978339454386064
0.0485,1.74119375,1.0,2716.9788025175963,0.42052649525742153,1.307301626741212,0.9731785238235346,0.2861831375,0.6988702493692754
0.049,1.739975,1.0,2715.1213651316284,0.4237768771609314,1.306768148671396,0.9735392855745395,0.28613195,0.6999148691349626
0.0495,1.73874375,1.0,2713.216740297849,0.42700902678098723,1.3062294614299357,0.9738898175638119,0.2860802375,0.7009678474245267
0.05,1.7375,1.0,2711.27033217155,0.43022304872900524,1.305685516189384,0.9742304924976757,0.286028,0.7020292257398909
0.0505,1.73624375,1.0,2709.283386705376,0.43341903358171696,1.3051363019993165,0.9745616667585969,0.2859752375,0.7030989706702229
0.051000000000000004,1.734975,1.0,2707.261261687073,0.43659709360464083,1.3045817703737683,0.9748836804124087,0.28592195,0.7041771210331029
0.051500000000000004,1.73369375,1.0,2705.209245827157,0.4397573372205043,1.3040218733922435,0.9751968576724395,0.2858681375,0.7052637133261181
0.052000000000000005,1.7324,1.0,2703.129574091919,0.4428998608456445,1.3034565909593159,0.9755015086397355,0.2858138,0.7063587289647655
0.0525,1.73109375,1.0,2701.0244785356426,0.4460247608963985,1.3028859029795596,0.9757979296116606,0.28575893750000003,0.707462148521227
0.053,1.729775,1.0,2698.896188189302,0.4491321337891033,1.3023097893575486,0.9760864038130117,0.28570355000000003,0.7085739517174573
0.0535,1.72844375,1.0,2696.746928958444,0.45222207594009617,1.301728229997857,0.9763672020823364,0.2856476375,0.7096941174182408
0.054,1.7271,1.0,2694.5789235298266,0.4552946837657141,1.3011412048050586,0.9766405835165525,0.2855912,0.7108226236242277
0.0545,1.7257437500000001,1.0,2692.3943912868453,0.45835005368229403,1.3005486936837274,0.9769067960767382,0.2855342375,0.7119594474649394
0.055,1.724375,1.0,2690.1955482342764,0.4613882821061732,1.2999506765384374,0.9771660771577353,0.28547675,0.7131045651917528
0.0555,1.72299375,1.0,2687.9846069318064,0.46440946545368866,1.2993471332737627,0.9774186541240143,0.2854187375,0.7142579521708551
0.056,1.7216,1.0,2685.7637764364204,0.46741370014117745,1.2987380437942773,0.9776647448140592,0.2853602,0.715419582876175
0.0565,1.72019375,1.0,2683.535262253905,0.47040108258497665,1.298123388004555,0.9779045580153659,0.28530113749999997,0.716589430882288
0.057,1.718775,1.0,2681.3012662994006,0.47337170920142335,1.2975031458091701,0.9781382939119948,0.28524155,0.7177674688572948
0.0575,1.71734375,1.0,2679.063431926066,0.476325664872939,1.2968773022041546,0.9783661437751566,0.2851814375,0.7189536589157622
0.058,1.7159,1.0,2676.823062371999,0.47926303384663044,1.296245845282405,0.9785882912661649,0.2851208,0.7201479564825042
0.0585,1.71444375,1.0,2674.5828910031605,0.48218394365075873,1.2956087499848614,0.9788049156610504,0.2850596375,0.7213503409833791
0.059000000000000004,1.7129750000000001,1.0,2672.343670281912,0.48508848221988043,1.294966009407696,0.9790161866840719,0.28499795,0.7225607566776115
0.059500000000000004,1.71149375,1.0,2670.106151411363,0.4879767374885523,1.2943176166470813,0.97922226736058,0.2849357375,0.7237791471019823
0.06,1.71,1.0,2667.8710843362715,0.4908487973913308,1.2936635647991894,0.9794233143316999,0.284873,0.7250054550683427
0.0605,1.7084937500000001,1.0,2665.6392177443263,0.4937047498627728,1.293003846960193,0.9796194781518636,0.2848097375,0.7262396226611219
0.061,1.7069750000000001,1.0,2663.411299068998,0.49654468283743475,1.2923384562262643,0.9798109035702571,0.28474595,0.7274815912348359
0.0615,1.7054437500000001,1.0,2661.188074493097,0.4993686842498734,1.2916673856935754,0.9799977297971646,0.2846816375,0.7287313014115916
0.062,1.7039,1.0,2658.970288953868,0.5021768420346453,1.290990628458299,0.9801800907561264,0.2846168,0.7299886930785847
0.0625,1.70234375,1.0,2656.758686148338,0.5049692441263073,1.2903081776166072,0.9803581153227737,0.2845514375,0.731253705385601
0.063,1.7007750000000001,1.0,2654.5540085405223,0.5077459784594157,1.2896200262646724,0.9805319275511306,0.28448555,0.7325262767425078
0.0635,1.69919375,1.0,2652.356997369504,0.5105071329685275,1.2889261674986672,0.9807016468881335,0.28441913750000003,0.7338063448167479
0.064,1.6976,1.0,2650.168392657876,0.513252795588199,1.2882265944147635,0.9808673883770646,0.2843522,0.7350938465308272
0.0645,1.69599375,1.0,2647.9889332224884,0.5159830542529872,1.287521300109134,0.9810292628505423,0.2842847375,0.7363887180598003
0.065,1.694375,1.0,2645.8193566851637,0.5186979968974484,1.2868102776779506,0.9811873771136871,0.28421675,0.7376908948287527
0.0655,1.69274375,1.0,2643.660399484811,0.5213977114561394,1.2860935202173862,0.9813418341180209,0.2841482375,0.7390003115102808
0.066,1.6911,1.0,2641.512796890778,0.5240822858636169,1.2853710208236129,0.9814927331266355,0.2840792,0.7403169020219678
0.0665,1.6894437500000001,1.0,2639.373075925799,0.5267517730252754,1.284642811481087,0.9816401693820738,0.2840096375,0.7416405289290253
0.067,1.687775,1.0,2637.2420100297745,0.5294062736479771,1.2839088849588178,0.981784236126808,0.28393955,0.7429711257699003
0.0675,1.68609375,1.0,2635.123937144859,0.5320459079140554,1.283169201039345,0.9819250230244417,0.2838689375,0.7443086848939382
0.068,1.6844000000000001,1.0,2633.0187410555827,0.5346707543321444,1.2824237606628557,0.9820626158026853,0.2837978,0.7456531231283483
0.0685,1.68269375,1.0,2630.926305791588,0.5372808914108786,1.2816725647695377,0.9821970972334613,0.2837261375,0.7470043566841537
0.069,1.680975,1.0,2628.8465156257407,0.5398763976588924,1.2809156142995783,0.9823285472537241,0.28365395,0.7483623011565387
0.0695,1.67924375,1.0,2626.779255071419,0.54245735158482,1.2801529101931652,0.9824570430805304,0.28358123749999997,0.7497268715251924
0.07,1.6775,1.0,2624.724408880467,0.545023831697296,1.279384453390486,0.9825826593206702,0.283508,0.7510979821546537
0.07050000000000001,1.67574375,1.0,2622.6818620408158,0.5475759165049545,1.278610244831728,0.9827054680751547,0.2834342375,0.7524755467946574
0.07100000000000001,1.673975,1.0,2620.6514997743498,0.55011368451643,1.2778302854570789,0.9828255390388286,0.28335995,0.7538594785804785
0.07150000000000001,1.67219375,1.0,2618.633207534659,0.5526372142403568,1.2770445762067262,0.9829429395953707,0.2832851375,0.7552496900332765
0.07200000000000001,1.6704,1.0,2616.626871004912,0.5551465841853692,1.2762531180208574,0.9830577349079219,0.2832098,0.7566460930604408
0.0725,1.66859375,1.0,2614.6323760954924,0.5576418728601017,1.27545591183966,0.9831699880055711,0.2831339375,0.7580485989559358
0.073,1.6667750000000001,1.0,2612.64960894213,0.5601231587731886,1.2746529586033215,0.983279759865911,0.28305755,0.7594571184006447
0.0735,1.66494375,1.0,2610.6784559034822,0.5625905204332643,1.2738442592520294,0.9833871094938724,0.2829806375,0.7608715614627147
0.074,1.6631,1.0,2608.7188035591457,0.5650440363489629,1.2730298147259713,0.9834920939970209,0.2829032,0.7622918375979011
0.0745,1.6612437500000001,1.0,2606.770538707628,0.5674837850289192,1.2722096259653348,0.9835947686575004,0.2828252375,0.7637178556499123
0.075,1.659375,1.0,2604.833548364205,0.5699098449817671,1.2713836939103074,0.9836951870007923,0.28274675,0.7651495238507544
0.0755,1.65749375,1.0,2602.9077197588385,0.5723222947161413,1.2705520195010764,0.9837934008614493,0.2826677375,0.7665867498210751
