Time [s],Phi [rad],STIM [ ],Fsee [N],Gamma [ ],Lcerel [ ],q [ ],Lmtc [m],fisomrel [ ]
0.0,1.8,1.0,17.96762969570687,2.476521338189661e-05,1.3793396933931483,0.005000162293916,0.288653,0.5411396588532916
0.0005,1.79999375,1.0,18.281900772673342,0.005633835608919464,1.3793018150290601,0.01298155612134097,0.2886527375,0.5412312918228976
0.001,1.799975,1.0,21.63450661141055,0.011211443554386883,1.3789366554838087,0.035685558132497706,0.28865195,0.5421141936567132
0.0015,1.79994375,1.0,31.10864381597702,0.016757765530128595,1.3780428473826862,0.07070705940187909,0.2886506375,0.5442717013481857
0.002,1.7999,1.0,53.668201128336584,0.02227297702481186,1.3763625667901627,0.11484259757589388,0.2886488,0.5483138339257665
0.0025,1.79984375,1.0,97.26381259188585,0.027757252543097157,1.3739281886832788,0.16471039868672172,0.28864643749999996,0.5541381049363592
0.003,1.7997750000000001,1.0,161.14719993142134,0.03321076561321607,1.371207270143285,0.21742024773127985,0.28864354999999997,0.5606031970432727
0.0035,1.79969375,1.0,237.89720309890276,0.03863368878667147,1.3685781479047658,0.27075192960541467,0.2886401375,0.56680532170629
0.004,1.7996,1.0,321.69449656463735,0.04402619364899173,1.3661500618925442,0.3230504324649669,0.2886362,0.572494043928846
0.0045000000000000005,1.7994937500000001,1.0,409.5037104072152,0.04938845082492315,1.3639172760930645,0.37316230859767274,0.2886317375,0.5776920158195291
0.005,1.799375,1.0,499.65435552935065,0.054720629969547845,1.3618532248923017,0.42036702937622406,0.28862675,0.5824688891423513
0.0055,1.79924375,1.0,591.0335242051815,0.06002289981517948,1.359934085803971,0.4642844007596276,0.2886212375,0.5868860136366698
0.006,1.7991000000000001,1.0,682.7616032933084,0.06529542811598327,1.3581419890517439,0.5047816973793026,0.2886152,0.5909895270346319
0.006500000000000001,1.79894375,1.0,774.1253200535679,0.07053838169842737,1.3564630876439514,0.5418937602061148,0.2886086375,0.5948152651382035
0.007,1.798775,1.0,864.5301366566908,0.07575192647104147,1.354886448636286,0.575761501829499,0.28860155,0.59839160897425
0.0075,1.79859375,1.0,953.4833751917718,0.08093622734913927,1.3534030855181494,0.6065869713465226,0.2885939375,0.6017418977877922
0.008,1.7984,1.0,1040.5956090997354,0.08609144844178923,1.3520051549212269,0.6346020564736755,0.2885858,0.6048863868267955
0.0085,1.79819375,1.0,1125.5500864390544,0.09121775277061135,1.3506859027782256,0.660047989672186,0.2885771375,0.6078424668132043
0.009000000000000001,1.797975,1.0,1208.1094831153518,0.09631530263666913,1.34943917530413,0.6831621034823852,0.28856795,0.6106258378914846
0.0095,1.79774375,1.0,1288.0864885903816,0.10138425902260817,1.348259553018446,0.7041702084596101,0.2885582375,0.6132502670006128
0.01,1.7975,1.0,1365.3686022735794,0.1064247829929929,1.3471417948738718,0.723282149616869,0.288548,0.6157288719762333
0.0105,1.79724375,1.0,1439.8594054241269,0.11143703361472741,1.3460814444943925,0.7406903201093352,0.2885372375,0.6180728117878659
0.011,1.796975,1.0,1511.5030645583188,0.11642116915310109,1.3450743445436244,0.7565690629521135,0.28852595000000003,0.620292400311824
0.0115,1.79669375,1.0,1580.2859546369177,0.12137734743283525,1.3441165126215395,0.7710751820111298,0.2885141375,0.6223974035114472
0.012,1.7964,1.0,1646.2255890509791,0.12630572604918525,1.3432041918287567,0.784349043401698,0.28850180000000003,0.6243969474208226
0.0125,1.79609375,1.0,1709.3340921602723,0.13120646033449287,1.3423341956197954,0.7965160360310756,0.2884889375,0.6262987835119505
0.013000000000000001,1.7957750000000001,1.0,1769.6453530598628,0.13607970501160316,1.3415035058643252,0.8076877912116129,0.28847555,0.62811018967594
0.0135,1.79544375,1.0,1827.2151944530156,0.14092561429174927,1.3407092211930154,0.8179635655151286,0.2884616375,0.6298380950065335
0.014,1.7951000000000001,1.0,1882.1207240452225,0.14574434252263493,1.339948523695133,0.8274315677319866,0.2884472,0.6314891621093739
0.0145,1.79474375,1.0,1934.4238388608953,0.1505360417789059,1.3392190390843943,0.8361703242665341,0.2884322375,0.6330690163350132
0.015,1.794375,1.0,1984.1866325911512,0.15530086295640494,1.3385186192217704,0.844249710883733,0.28841675,0.6345827309954912
0.0155,1.79399375,1.0,2031.4897243991113,0.1600389569509749,1.3378451159682323,0.8517318873262137,0.2884007375,0.636035324031925
0.016,1.7936,1.0,2076.4121974228515,0.16475047353905428,1.3371965735602294,0.8586722681391875,0.2883842,0.6374313481480894
0.0165,1.7931937500000001,1.0,2119.061898256351,0.1694355634291659,1.3365708908351137,0.8651202180086555,0.2883671375,0.6387756232221236
0.017,1.792775,1.0,2159.5101266227275,0.1740943738172226,1.3359664823523838,0.8711199602789095,0.28834955,0.6400718199482315
0.0175,1.7923437500000001,1.0,2197.831452179698,0.17872705140768275,1.3353818394961845,0.8767110548738587,0.2883314375,0.6413234111484551
0.018000000000000002,1.7919,1.0,2234.1101309094556,0.1833337429050049,1.334815453650661,0.8819289250460514,0.2883128,0.6425338392751982
0.0185,1.79144375,1.0,2268.430419649085,0.1879145939962605,1.3342659045475727,0.8868053626558039,0.2882936375,0.6437063299011259
0.019,1.790975,1.0,2300.884522151545,0.19246975122571078,1.3337317708068346,0.89136892672315,0.28827395,0.6448440853129287
0.0195,1.79049375,1.0,2331.546659770532,0.19699935824318487,1.3332118782394968,0.8956453714816388,0.2882537375,0.6459497582911568
0.02,1.79,1.0,2360.486006160927,0.2015035573219134,1.3327051595420525,0.8996579300331782,0.288233,0.6470257551469942
0.0205,1.78949375,1.0,2387.7768679097753,0.20598249073512712,1.3322105474109958,0.9034275729862189,0.2882117375,0.6480744648880311
0.021,1.788975,1.0,2413.4982518364236,0.21043630075605668,1.3317269745428195,0.9069732595820689,0.28818995000000003,0.6490982600786595
0.021500000000000002,1.78844375,1.0,2437.7157061807156,0.2148651270416652,1.3312535443707152,0.9103121928594495,0.2881676375,0.6500991369318834
0.022,1.7879,1.0,2460.520787825085,0.21926911359602014,1.330789145597385,0.9134599332649574,0.2881448,0.6510795317441072
0.0225,1.78734375,1.0,2481.968297258212,0.2236483979561771,1.3303330522210282,0.9164306892963181,0.28812143749999997,0.652041054242154
0.023,1.786775,1.0,2502.1144810133505,0.22800311746396865,1.3298845497622707,0.9192373882878676,0.28809755,0.6529852800642346
0.0235,1.78619375,1.0,2521.0180083460514,0.23233340946122735,1.329442923741738,0.9218918076986146,0.28807313749999996,0.6539137754990287
0.024,1.7856,1.0,2538.739767219363,0.23663941128978586,1.3290074596800565,0.9244046932782293,0.2880482,0.6548280978152934
0.0245,1.78499375,1.0,2555.3375513312785,0.24092125927502156,1.3285774911991044,0.9267858716826736,0.2880227375,0.6557296947618063
0.025,1.784375,1.0,2570.86786353378,0.24517908938523253,1.3281523807047593,0.9290443391204218,0.28799675,0.656619945911348
0.025500000000000002,1.78374375,1.0,2585.3970861525972,0.24941303901032413,1.3277314131654228,0.9311883261120408,0.2879702375,0.6575003852825094
0.026000000000000002,1.7831000000000001,1.0,2598.9666534273883,0.25362324012905507,1.3273141202051284,0.9332254222748652,0.2879432,0.6583720239615523
0.0265,1.78244375,1.0,2611.619122908983,0.25780982472018404,1.3269000334479106,0.9351625997864027,0.2879156375,0.6592358677670757
0.027,1.781775,1.0,2623.3980811100564,0.26197292476246986,1.3264886845178034,0.9370062718953956,0.28788755,0.6600929173527876
0.0275,1.7810937500000001,1.0,2634.348054018984,0.2661126722346712,1.3260796050388406,0.9387623451760966,0.2878589375,0.6609441682962811
0.028,1.7804,1.0,2644.5144224776723,0.2702291991155468,1.3256723266350563,0.9404362662623058,0.2878298,0.6617906111738177
0.0285,1.77969375,1.0,2653.904235179621,0.2743226333875924,1.325266741426414,0.9420331140261586,0.2878001375,0.6626324838068951
0.029,1.778975,1.0,2662.639668042125,0.2783931100571371,1.324861686093177,0.9435574363920401,0.28776995,0.6634722095302874
0.029500000000000002,1.7782437500000001,1.0,2670.7358807828937,0.2824407561090437,1.3244569909643504,0.9450135772403084,0.2877392375,0.664310143540687
0.03,1.7775,1.0,2678.201105030545,0.2864656979698658,1.324052553214152,0.9464055688210473,0.287708,0.6651465011332562
0.0305,1.7767439981134918,1.0,2685.0560959728373,0.2904680620661572,1.3236482700168002,0.9477371498934575,0.2876762479207666,0.6659814965406008
0.031,1.7759839886630882,1.0,2691.7164627675234,0.2944479748244716,1.3232440385465125,0.9490117907770711,0.2876443275238497,0.6668153429341223
0.0315,1.7752239792126845,1.0,2698.390669481968,0.2984055626713627,1.3228397559775071,0.9502327159722413,0.28761240712693276,0.6676482524246927
0.032,1.7744639697622808,1.0,2705.0903285542922,0.3023409517534377,1.3224353164712974,0.9514029241586579,0.2875804867300158,0.6684804422578261
0.0325,1.7737039603118772,1.0,2711.806328629223,0.30625426478364237,1.3220308036989978,0.9525252288432241,0.28754856633309883,0.6693117393781172
0.033,1.7729439508614735,1.0,2718.5087919344537,0.3101456305679658,1.3216264900579797,0.9536022755093422,0.28751664593618187,0.6701415844801795
0.0335,1.7721839414110698,1.0,2725.192017963669,0.31401517006882845,1.3212224266686194,0.9546365036297827,0.28748472553926496,0.6709698743785824
0.034,1.7714239319606662,1.0,2731.850278995938,0.3178630042486509,1.3208186646512938,0.9556301907097445,0.28745280514234794,0.6717965064137776
0.0345,1.7706639225102625,1.0,2738.4778204095032,0.3216892540698535,1.320415255126379,0.9565854649577707,0.28742088474543104,0.6726213784512036
0.035,1.7699039130598588,1.0,2745.0688610508837,0.3254940404948569,1.3200122492142519,0.9575043168247371,0.2873889643485141,0.6734443888802155
0.035500000000000004,1.7691439036094552,1.0,2751.617593664585,0.3292774844860816,1.3196096980352887,0.9583886095238231,0.2873570439515971,0.6742654366128558
0.036000000000000004,1.7683838941590515,1.0,2758.119523281497,0.33303970422909196,1.3192076406120936,0.9592400867303779,0.28732512355468015,0.6750844457106521
0.0365,1.7676238847086478,1.0,2764.5721350455074,0.3367808163890252,1.318806097913349,0.9600603812517552,0.2872932031577632,0.675901377338215
0.037,1.7668638752582442,1.0,2770.967393787627,0.3405009512692401,1.3184051406260513,0.960851033345695,0.2872612827608463,0.6767160919097721
0.0375,1.7661038658078405,1.0,2777.3045919311066,0.34420022331717587,1.318004773100704,0.9616134794887866,0.2872293623639293,0.6775285850930157
0.038,1.7653438563574368,1.0,2783.583021997101,0.34787874698027166,1.3176049996878103,0.9623490698872216,0.28719744196701236,0.6783388525934504
0.0385,1.7645838469070332,1.0,2789.8019766614,0.35153663670596674,1.317205824737873,0.9630590746094546,0.2871655215700954,0.6791468901542276
0.039,1.7638238374566295,1.0,2795.9607488120478,0.35517400694170026,1.3168072526013954,0.9637446892188185,0.28713360117317843,0.679952693555981
0.0395,1.7630638280062259,1.0,2802.0586316073422,0.3587909721349115,1.3164092876288804,0.964407039951835,0.28710168077626147,0.6807562586166596
0.04,1.7623038185558222,1.0,2808.094918534126,0.36238764673303964,1.316011934170831,0.965047188483338,0.2870697603793445,0.6815575811913597
0.0405,1.7615438091054185,1.0,2814.068903466426,0.3659641451835239,1.3156151965777505,0.9656661363154305,0.2870378399824276,0.6823566571721553
0.041,1.7607837996550149,1.0,2819.979880724851,0.3695205819338035,1.315219079200142,0.9662648288236255,0.28700591958551064,0.6831534824879295
0.0415,1.7600237902046112,1.0,2825.8271755411797,0.3730570709643287,1.3148235861168893,0.9668441588872182,0.2869739991885937,0.6839480536495586
0.042,1.7592637807542075,1.0,2831.6128515252835,0.376573695602271,1.314428696975136,0.9674049632911645,0.2869420787916767,0.6847404161942543
0.0425,1.7585037713038039,1.0,2837.3349505773217,0.38007061199989617,1.3140344273816924,0.9679480485193189,0.28691015839475975,0.6855305434281013
0.043000000000000003,1.7577437618534002,1.0,2842.9944375319483,0.3835479259247693,1.3136407668701524,0.9684741673732933,0.2868782379978428,0.6863184609601489
0.043500000000000004,1.7569837524029965,1.0,2848.5922844008296,0.38700574314445546,1.3132477049741098,0.9689840327899767,0.2868463176009258,0.687104194287159
0.044,1.7562237429525929,1.0,2854.1294702327855,0.39044416942651977,1.3128552312271584,0.9694783203516495,0.2868143972040089,0.687887768794009
0.0445,1.7554637335021892,1.0,2859.606980975825,0.3938633105385274,1.3124633351628923,0.9699576706140352,0.28678247680709196,0.6886692097540883
0.045,1.7547037240517855,1.0,2865.0258093421426,0.3972632722480435,1.312072006314905,0.9704226912671727,0.286750556410175,0.6894485423296872
0.0455,1.7539437146013819,1.0,2870.386954675045,0.40064416032263306,1.3116812342167903,0.9708739591426293,0.28671863601325803,0.69022579157238
0.046,1.7531837051509782,1.0,2875.6914228187084,0.4040060805298612,1.311291008402142,0.9713120220793771,0.28668671561634107,0.6910009824233977
0.0465,1.7524236957005745,1.0,2880.940225990091,0.40734913863729316,1.3109013184045544,0.9717374006595519,0.2866547952194241,0.6917741397139985
0.047,1.7516636862501709,1.0,2886.134382653418,0.41067344041249393,1.310512153757621,0.9721505898243286,0.28662287482250715,0.6925452881658276
0.0475,1.7509036767997672,1.0,2891.274917397153,0.4139790916230287,1.3101235039949353,0.9725520603792557,0.28659095442559024,0.6933144523912735
0.048,1.7501436673493636,1.0,2896.3628608129657,0.41726619803646253,1.3097353586500915,0.9729422603975801,0.2865590340286733,0.6940816568938112
0.0485,1.7493836578989599,1.0,2901.399249377872,0.42053486542036056,1.3093477072566835,0.9733216165293695,0.2865271136317563,0.6948469260683459
0.049,1.7486236484485562,1.0,2906.3851253382218,0.4237851995422879,1.3089605393483048,0.9736905352235653,0.28649519323483935,0.6956102842015452
0.0495,1.7478636389981526,1.0,2911.321366150402,0.42701730132202154,1.308573845958679,0.9740494033990388,0.2864632728379224,0.6963717525199917
0.05,1.7471036295477491,1.0,2916.2074158684077,0.430231221343016,1.3081876307703595,0.9743985850517843,0.2864313524410055,0.6971313272964049
0.0505,1.7463436200973455,1.0,2921.047412275764,0.4334271411084611,1.307801856225182,0.9747384397540331,0.2863994320440885,0.697889085791876
0.051000000000000004,1.7455836106469418,1.0,2925.8422285125594,0.4366051558227117,1.3074165135628175,0.9750693026945397,0.28636751164717156,0.698645048433935
0.051500000000000004,1.7448236011965381,1.0,2930.5927422482823,0.43976536069012256,1.307031594022937,0.9753914939691113,0.2863355912502546,0.6993992355603778
0.052000000000000005,1.7440635917461345,1.0,2935.2998355987893,0.44290785091504864,1.3066470888452109,0.9757053193926218,0.28630367085333763,0.700151667419507
0.0525,1.7433035822957308,1.0,2939.9643950449035,0.44603272170184466,1.3062629892693105,0.9760110712604986,0.28627175045642067,0.7009023641703642
0.053,1.7425435728453271,1.0,2944.5873113529196,0.4491400682548655,1.3058792865349065,0.9763090290632352,0.2862398300595037,0.7016513458829611
0.0535,1.7417835633949235,1.0,2949.1694794966766,0.45222998577846607,1.3054959718816697,0.9765994601572126,0.2862079096625868,0.7023986325385017
0.054,1.7410235539445198,1.0,2953.711798580919,0.45530256947700115,1.3051130365492711,0.976882620394846,0.28617598926566984,0.7031442440296019
0.0545,1.7402635444941161,1.0,2958.21517176759,0.45835791455482555,1.3047304717773813,0.9771587547168553,0.2861440688687529,0.7038882001605058
0.055,1.7395035350437125,1.0,2962.6805062021554,0.46139611621629417,1.3043482688056716,0.9774280977092297,0.2861121484718359,0.7046305206472918
0.0555,1.7387435255933088,1.0,2967.1087129430566,0.46441726966576186,1.3039664188738125,0.9776908741272736,0.28608022807491895,0.7053712251180804
0.056,1.7379835161429051,1.0,2971.5007068920895,0.4674214701075834,1.3035849132214747,0.9779472993889358,0.28604830767800205,0.7061103331132323
0.0565,1.7372235066925015,1.0,2975.857406726441,0.4704088127461136,1.3032037430883296,0.9781975800394598,0.286016387281085,0.7068478640855427
0.057,1.7364634972420978,1.0,2980.1797348333225,0.4733793927857074,1.3028228997140476,0.9784419141892459,0.2859844668841681,0.7075838374004333
0.0575,1.7357034877916941,1.0,2984.468617244831,0.47633330543071956,1.3024423743382998,0.9786804919266736,0.28595254648725116,0.7083182723361344
0.058,1.7349434783412905,1.0,2988.7249835759485,0.479270645885505,1.302062158200757,0.9789134957075079,0.2859206260903342,0.7090511880838675
0.0585,1.7341834688908868,1.0,2992.9497669634598,0.48219150935441846,1.3016822425410899,0.9791411007223911,0.28588870569341723,0.7097826037480199
0.059000000000000004,1.7334234594404831,1.0,2997.1439040065643,0.48509599104181483,1.3013026185989698,0.9793634752438265,0.28585678529650027,0.710512538346313
0.059500000000000004,1.7326634499900795,1.0,3001.3083347097477,0.48798418615204897,1.300923277614067,0.9795807809539405,0.28582486489958336,0.711241010809972
0.06,1.7319034405396758,1.0,3005.4429795744595,0.4908561591316699,1.3005442196862997,0.9797931712533063,0.2857929445026664,0.7119680230011263
0.0605,1.7311434310892722,1.0,3009.548802911615,0.493712010770775,1.3001654358843069,0.9800007960915909,0.28576102410574944,0.7126935940701022
0.061,1.7303834216388685,1.0,3013.627573061306,0.4965518654944512,1.299786910350229,0.9802038011540253,0.2857291037088325,0.7134177563222694
0.0615,1.7296234121884648,1.0,3017.679782962258,0.49937580809456783,1.299408638298599,0.9804023240800047,0.2856971833119155,0.7141405207658761
0.062,1.7288634027380612,1.0,3021.705927473199,0.502183923362994,1.299030614943949,0.980596497350587,0.28566526291499855,0.7148618983617465
0.0625,1.7281033932876575,1.0,3025.7065033463246,0.5049762960915991,1.2986528355008111,0.9807864485206838,0.2856333425180816,0.7155819000233592
0.063,1.7273433838372538,1.0,3029.6820092009903,0.5077530110722521,1.2982752951837182,0.9809723004391255,0.2856014221211647,0.716300536616919
0.0635,1.7265833743868502,1.0,3033.6329454980196,0.5105141530968225,1.2978979892072022,0.9811541714573127,0.2855695017242477,0.7170178189614338
0.064,1.7258233649364465,1.0,3037.559814514894,0.5132598069571791,1.2975209127857958,0.9813321756271317,0.28553758132733076,0.7177337578287847
0.0645,1.7250633554860428,1.0,3041.4631203210065,0.5159900574451914,1.297144061134031,0.9815064228887601,0.2855056609304138,0.7184483639437986
0.065,1.7243033460356392,1.0,3045.343368753353,0.5187049893527286,1.2967674294664406,0.9816770192489453,0.28547374053349683,0.719161647984315
0.0655,1.7235433365852355,1.0,3049.2010673932823,0.5214046874716598,1.2963910129975567,0.9818440669503079,0.28544182013657987,0.719873620581257
0.066,1.7227833271348318,1.0,3053.0367255430638,0.5240892365938543,1.2960148069419117,0.9820076646321836,0.2854098997396629,0.7205842923186949
0.0665,1.7220233176844282,1.0,3056.8508542037243,0.5267587215111812,1.295638806514038,0.9821679074834826,0.285377979342746,0.7212936737339132
0.067,1.7212633082340245,1.0,3060.643966052456,0.5294132270155097,1.295263006928468,0.982324887388015,0.28534605894582904,0.7220017753174726
0.0675,1.7205032987836208,1.0,3064.4165754214364,0.5320528378987092,1.2948874033997342,0.9824786930627081,0.2853141385489121,0.7227086075132731
0.068,1.7197432893332172,1.0,3068.169198276771,0.5346776389526486,1.2945119911423686,0.9826294101891068,0.2852822181519951,0.7234141807186142
0.0685,1.7189832798828135,1.0,3071.902352197703,0.5372877149691974,1.294136765370904,0.9827771215385303,0.28525029775507815,0.7241185052842533
0.069,1.7182232704324099,1.0,3075.6165563568493,0.5398831507402246,1.2937617212998724,0.9829219070912316,0.2852183773581612,0.7248215915144645
0.0695,1.7174632609820062,1.0,3079.312331500429,0.5424640310575994,1.2933868541438063,0.9830638441498892,0.28518645696124423,0.7255234496670948
0.07,1.7167032515316025,1.0,3082.990199929374,0.5450304407131912,1.293012159117238,0.9832030074477311,0.2851545365643273,0.7262240899536172
0.07050000000000001,1.7159432420811989,1.0,3086.6496631767304,0.5475824157161522,1.292637640172935,0.9833394667300619,0.28512261616741036,0.7269235062309181
0.07100000000000001,1.7151832326307952,1.0,3090.29206019628,0.5501200912052595,1.292263285559767,0.983473294653417,0.2850906957704934,0.7276217216639351
