Time [s],Phi [rad],STIM [ ],Fsee [N],Gamma [ ],Lcerel [ ],q [ ],Lmtc [m],fisomrel [ ]
0.0,1.8,1.0,17.967052980372507,1.2501241594391781e-05,1.3793397580042235,0.00500004157835709,0.288653,0.5411395025424017
0.0005,1.79999375,1.0,18.277237299625472,0.00562164042831084,1.3793023330101126,0.012947460152114256,0.2886527375,0.5412300388172373
0.001,1.799975,1.0,21.620726371571273,0.011199316779099477,1.378938062631978,0.03562161390481348,0.28865195,0.5421107930125099
0.0015,1.79994375,1.0,31.075446581711095,0.016745706776456933,1.378045674635543,0.07061955223582848,0.2886506375,0.5442648848512666
0.002,1.7999,1.0,53.59622905119645,0.02226098591122407,1.3763672337984503,0.11473897394122293,0.2886488,0.5483026317694601
0.0025,1.79984375,1.0,97.14247820098085,0.027745328690167884,1.3739340329651553,0.16459767000611997,0.28864643749999996,0.5541241676990248
0.003,1.7997750000000001,1.0,160.98909690254152,0.03319890864367526,1.3712131860694916,0.2173039517234335,0.28864354999999997,0.5605891916075798
0.0035,1.79969375,1.0,237.71844361975943,0.03862189832536235,1.3685836527282473,0.27063625931173263,0.2886401375,0.5667923818287717
0.004,1.7996,1.0,321.5042498457289,0.04401446932285237,1.366155099762601,0.3229384309184022,0.2886362,0.5724822797124989
0.0045000000000000005,1.7994937500000001,1.0,409.3066683072546,0.049376792262961225,1.3639219006458074,0.37305598888168917,0.2886317375,0.5776812826222675
0.005,1.799375,1.0,499.4532877252486,0.05470903680279336,1.3618574969663557,0.42026755861796466,0.28862675,0.5824590302590685
0.0055,1.79924375,1.0,590.8306239245787,0.06001137167710503,1.3599380495082536,0.46419230629722424,0.2886212375,0.5868769149113329
0.006,1.7991000000000001,1.0,682.5584221399632,0.06528396464172098,1.3581456819604232,0.5046970634078172,0.2886152,0.5909810921336206
0.006500000000000001,1.79894375,1.0,773.923811615337,0.07052698253054503,1.3564665272067558,0.5418163710594507,0.2886086375,0.5948074457307247
0.007,1.798775,1.0,864.3277687455845,0.07574059122792869,1.354889717255847,0.5756910092755558,0.28860155,0.5983842110525033
0.0075,1.79859375,1.0,953.2838338135431,0.08092495571133665,1.3534061544447864,0.6065228638881113,0.2885939375,0.6017349808690937
0.008,1.7984,1.0,1040.3997848630381,0.08608024000142821,1.3520080378456627,0.634543811211356,0.2885858,0.604879914834332
0.0085,1.79819375,1.0,1125.3618387792912,0.0912066072303126,1.3506885675051568,0.6599950551498521,0.2885771375,0.607836507082848
0.009000000000000001,1.797975,1.0,1207.926435562377,0.0963042195904445,1.3494416763094206,0.6831139981487193,0.28856795,0.6106202642157594
0.0095,1.79774375,1.0,1287.913538441818,0.10137323836767728,1.3482618415156382,0.7041264253203044,0.2885582375,0.6132451841330884
0.01,1.7975,1.0,1365.199195542613,0.10641382396816305,1.3471439721151324,0.7232422981789285,0.288548,0.6157240517351027
0.0105,1.79724375,1.0,1439.6950871720367,0.11142613585117636,1.3460835009793248,0.7406539904321383,0.2885372375,0.6180682727994058
0.011,1.796975,1.0,1511.3518697675145,0.11641033268564642,1.3450761913890643,0.7565358487669769,0.28852595000000003,0.6202883358941896
0.0115,1.79669375,1.0,1580.145899835336,0.12136657192083324,1.3441181857418196,0.7710447760173814,0.2885141375,0.6223937316382606
0.012,1.7964,1.0,1646.089627546248,0.12629501081997874,1.3432057831858115,0.7843211949973746,0.28850180000000003,0.624393464246855
0.0125,1.79609375,1.0,1709.2007635290206,0.13119580511419415,1.3423357270802627,0.7964904931371517,0.2884889375,0.6262954399375888
0.013000000000000001,1.7957750000000001,1.0,1769.5167018075351,0.1360691095932886,1.341504958197205,0.8076643130511761,0.28847555,0.6281070265520577
0.0135,1.79544375,1.0,1827.094603885122,0.14091507856085608,1.3407105609099128,0.8179419328255509,0.2884616375,0.6298351839427698
0.014,1.7951000000000001,1.0,1882.0055749031378,0.14573386597474186,1.339949784160708,0.8274116099478875,0.2884472,0.6314864293657145
0.0145,1.79474375,1.0,1934.3058906681813,0.15052562361963306,1.3392203126152487,0.8361519103464411,0.2884322375,0.6330662611900923
0.015,1.794375,1.0,1984.0684642746874,0.1552905030502706,1.3385198790276553,0.844232684326055,0.28841675,0.6345800111706046
0.0155,1.79399375,1.0,2031.381575498117,0.1600286554101857,1.3378462554515036,0.8517160828434223,0.2884007375,0.6360328688692518
0.016,1.7936,1.0,2076.322260611014,0.16474023052193723,1.337197510847639,0.8586575464996564,0.2883842,0.6374293325196312
0.0165,1.7931937500000001,1.0,2118.957766570944,0.16942537576540012,1.336571965081224,0.8651065790857164,0.2883671375,0.6387733173512862
0.017,1.792775,1.0,2159.3986626376923,0.1740842420264585,1.3359676214211031,0.8711072876859871,0.28834955,0.6400693793260406
0.0175,1.7923437500000001,1.0,2197.738438501569,0.17871697786620766,1.3353827816929293,0.8766991929606197,0.2883314375,0.6413213958670692
0.018000000000000002,1.7919,1.0,2234.040568643885,0.18332372794263094,1.3348161525460702,0.8819177907616842,0.2883128,0.6425323469204294
0.0185,1.79144375,1.0,2268.376654077733,0.18790463691371156,1.334266440629894,0.8867949138251788,0.2882936375,0.6437051870810635
0.019,1.790975,1.0,2300.825756815534,0.19245984943743294,1.3337323525937685,0.8913591560728542,0.28827395,0.6448428470415452
0.0195,1.79049375,1.0,2331.473771424173,0.19698951017177835,1.3332125950870615,0.895636244225291,0.2882537375,0.6459482349341392
0.02,1.79,1.0,2360.4075780595444,0.20149376304354355,1.3327059261299739,0.8996493748778248,0.288233,0.6470241285650395
0.0205,1.78949375,1.0,2387.706236893077,0.20597275124613548,1.3322112338298076,0.9034195160657804,0.2882117375,0.6480730105780514
0.021,1.788975,1.0,2413.445207153416,0.21042661720537678,1.3317274872957232,0.9069656422234268,0.28818995000000003,0.6490971752948527
0.021500000000000002,1.78844375,1.0,2437.6852259774755,0.21485550040541251,1.331253837537704,0.9103049719472428,0.2881676375,0.6500985175910214
0.022,1.7879,1.0,2460.4904994900344,0.21925954033038778,1.330789435565734,0.9134531208840269,0.2881448,0.6510789200194617
0.0225,1.78734375,1.0,2481.928414477744,0.22363887646444772,1.3303334323897964,0.9164242731194897,0.28812143749999997,0.6520402533341065
0.023,1.786775,1.0,2502.063751357019,0.22799364725102175,1.3298850313749495,0.9192313417901576,0.28809755,0.6529842668199891
0.0235,1.78619375,1.0,2520.962569436829,0.23232399135208237,1.3294434480859383,0.9218860942413066,0.28807313749999996,0.6539126738305092
0.024,1.7856,1.0,2538.695157949775,0.23663004793318443,1.3290078801212937,0.9243992642627827,0.2880482,0.6548272156189172
0.0245,1.78499375,1.0,2555.3090695766164,0.24091195135555285,1.3285777587652676,0.926780698912479,0.2880227375,0.6557291340714082
0.025,1.784375,1.0,2570.8534924866794,0.24516983598041261,1.3281525153021125,0.929039407853044,0.28799675,0.6566196642247986
0.025500000000000002,1.78374375,1.0,2585.379114064387,0.24940383616898865,1.3277315810160804,0.931183645996821,0.2879702375,0.6575000344537639
0.026000000000000002,1.7831000000000001,1.0,2598.9379918065497,0.25361408628250587,1.3273143871914233,0.9332209869873503,0.2879432,0.6583714666374461
0.0265,1.78244375,1.0,2611.582235721906,0.2578007204614734,1.3269003762232185,0.9351583903009224,0.2879156375,0.6592351531413208
0.027,1.781775,1.0,2623.36219701688,0.26196387146389427,1.3264890172223538,0.9370022612881344,0.28788755,0.6600922245956045
0.0275,1.7810937500000001,1.0,2634.321967726074,0.26610367100939547,1.3260798463982548,0.9387585091569425,0.2878589375,0.6609436663676357
0.028,1.7804,1.0,2644.4947998537873,0.27022024927406163,1.3256725078409395,0.9404325982374946,0.2878298,0.6617902348105651
0.0285,1.779694891270982,1.0,2653.970539277899,0.2743137364339774,1.3252666456404256,0.942029573082992,0.28780018543338126,0.6626326825058221
0.029,1.778987732785238,1.0,2663.2383570701913,0.2783842604564914,1.3248619269355466,0.9435540985788328,0.28777048477698,0.663471710547588
0.029500000000000002,1.778280574299494,1.0,2672.3885847128236,0.28243195358286827,1.3244584368176462,0.9450105501025207,0.28774078412057874,0.6643071517150814
0.03,1.7775734158137502,1.0,2681.4129874043856,0.2864569445142117,1.3240562445013213,0.9464029761139002,0.2877110834641775,0.6651388724480225
0.0305,1.7768662573280063,1.0,2690.309573658964,0.290459358769144,1.3236553616734197,0.9477351213351742,0.2876813828077763,0.6659668586098466
0.031,1.7761590988422624,1.0,2699.0763548793457,0.29443932186628746,1.3232558000207897,0.9490104614239614,0.28765168215137504,0.6667910961508904
0.0315,1.7754519403565183,1.0,2707.711345697971,0.2983969593242641,1.322857571230279,0.9502322256619503,0.28762198149497376,0.6676115711074149
0.032,1.7747447818707744,1.0,2716.2125643208806,0.30233239666169615,1.3224606869887359,0.9514034174674751,0.2875922808385725,0.6684282696006139
0.0325,1.7740376233850306,1.0,2724.578032874107,0.3062457593972059,1.3220651589830084,0.9525268329640318,0.2875625801821713,0.6692411778356172
0.033,1.7733304648992867,1.0,2732.808815710164,0.3101371650851575,1.3216709713027868,0.9536050723197018,0.28753287952577006,0.6700503387153116
0.0335,1.7726233064135426,1.0,2740.9024013761227,0.31400674844475385,1.3212781406778107,0.9546405695327954,0.28750317886936877,0.6708557280695437
0.034,1.7719161479277987,1.0,2748.8600909543925,0.31785463088517407,1.3208866493168658,0.9556355894604162,0.28747347821296754,0.6716573925069986
0.0345,1.7712089894420548,1.0,2756.683894659475,0.32168093151961774,1.320496473226656,0.9565922473923278,0.2874437775565663,0.6724553911010057
0.035,1.770501830956311,1.0,2764.3758494220206,0.3254857694612845,1.3201075884138849,0.9575125219038949,0.28741407690016507,0.673249782652573
0.035500000000000004,1.7697946724705669,1.0,2771.9380181956285,0.32926926382337385,1.3197199708852563,0.9583982652834863,0.2873843762437638,0.6740406256923817
0.036000000000000004,1.769087513984823,1.0,2779.3724892762784,0.33303153371908545,1.3193335966474735,0.9592512130501915,0.28735467558736255,0.6748279784827446
0.0365,1.7683803554990791,1.0,2786.68137563436,0.33677269826161876,1.3189484417072403,0.9600729926506079,0.2873249749309613,0.6756118990195252
0.037,1.7676731970133353,1.0,2793.8668142597617,0.3404928765641735,1.3185644820712608,0.9608651314139398,0.2872952742745601,0.6763924450340223
0.0375,1.7669660385275912,1.0,2800.9309655197935,0.34419218773994914,1.3181816937462378,0.9616290638362331,0.28726557361815885,0.6771696739948192
0.038,1.7662588800418473,1.0,2807.8748418246473,0.3478707298505025,1.3178000632305755,0.9623661348988305,0.28723587296175757,0.6779436218451601
0.0385,1.7655517215561034,1.0,2814.7021189497837,0.351528628818473,1.3174195533300865,0.9630776133562887,0.28720617230535633,0.6787143723333174
0.039,1.7648445630703595,1.0,2821.417471432458,0.35516602916330403,1.3170401181780045,0.9637646963040114,0.2871764716489551,0.6794820263573883
0.0395,1.7641374045846154,1.0,2828.0233700311305,0.35878304064718086,1.316661731875864,0.9644285063755201,0.2871467709925538,0.6802466440222527
0.04,1.7634302460988716,1.0,2834.52230650072,0.36237977303228874,1.3162843685251997,0.9650701019464493,0.28711707033615264,0.681008285161402
0.0405,1.7627230876131277,1.0,2840.916792996813,0.36595633608081296,1.3159080022275467,0.9656904814960883,0.28708736967975135,0.6817670093386492
0.041,1.7620159291273838,1.0,2847.2093614966825,0.36951283955493885,1.3155326070844395,0.9662905876287134,0.2870576690233501,0.6825228758497982
0.0415,1.76130877064164,1.0,2853.402563233573,0.3730493932168517,1.3151581571974127,0.9668713107845298,0.2870279683669489,0.6832759437242695
0.042,1.7606016121558958,1.0,2859.4989681466886,0.3765661068287368,1.314784626668001,0.9674334926671574,0.2869982677105476,0.6840262717266813
0.0425,1.759894453670152,1.0,2865.5011643459275,0.38006309015277945,1.3144119895977393,0.9679779294120153,0.28696856705414636,0.6847739183583899
0.043000000000000003,1.759187295184408,1.0,2871.4117575913087,0.38354045295116485,1.3140402200881622,0.9685053745176392,0.28693886639774513,0.685518941858988
0.043500000000000004,1.7584801366986642,1.0,2877.2333707874473,0.3869983049860784,1.3136692922408046,0.9690165415598968,0.2869091657413439,0.6862614002077574
0.044,1.7577729782129201,1.0,2882.9686434926593,0.3904367560197053,1.3132991801572012,0.9695121067072066,0.28687946508494266,0.6870013511250816
0.0445,1.7570658197271762,1.0,2888.6202314433785,0.3938559158142309,1.3129298579388862,0.9699927110531898,0.2868497644285414,0.6877388520738155
0.045,1.7563586612414324,1.0,2894.190806093106,0.39725589413184054,1.312561299687395,0.9704589627816852,0.28682006377214014,0.6884739602606074
0.0455,1.7556515027556885,1.0,2899.683054166096,0.4006368007347194,1.3121934795042618,0.9709114391777051,0.2867903631157389,0.6892067326371878
0.046,1.7549443442699444,1.0,2905.0996772261847,0.4039987453850528,1.3118263714910217,0.9713506884966925,0.2867606624593377,0.6899372259016051
0.0465,1.7542371857842005,1.0,2910.442785607607,0.40734183131974455,1.3114599550804926,0.9717772312173746,0.28673096180293645,0.6906654859096222
0.047,1.7535300272984566,1.0,2915.7101448315707,0.4106661148510693,1.311094248020316,0.9721915588067687,0.28670126114653516,0.6913914822980679
0.0475,1.7528228688127128,1.0,2920.9111862497725,0.41397177954657893,1.3107291655181414,0.9725941480485721,0.2866715604901339,0.6921153880624983
0.048,1.7521157103269687,1.0,2926.0473900121005,0.41725892392913927,1.3103646929122497,0.9729854465867683,0.2866418598337327,0.6928372365863679
0.0485,1.7514085518412248,1.0,2931.120244648366,0.4205276465216159,1.310000815540922,0.973365880703396,0.2866121591773314,0.6935570611095767
0.049,1.750701393355481,1.0,2936.1312468728356,0.4237780458468745,1.3096375187424394,0.9737358565344212,0.28658245852093023,0.6942748947290354
0.0495,1.749994234869737,1.0,2941.0819013922337,0.4270102204277808,1.309274787855083,0.9740957612056634,0.28655275786452894,0.6949907703992138
0.05,1.7492870763839932,1.0,2945.9737207204203,0.4302242687872004,1.308912608217134,0.9744459638947286,0.2865230572081277,0.6957047209326768
0.0505,1.748579917898249,1.0,2950.808224996128,0.43342028944799904,1.3085509651668734,0.9747868168243833,0.2864933565517265,0.6964167790006086
0.051000000000000004,1.7478727594125052,1.0,2955.5869418062894,0.4365983809330423,1.3081898440425823,0.9751186561923781,0.2864636558953252,0.6971269771333188
0.051500000000000004,1.7471656009267613,1.0,2960.311406014259,0.43975864176519597,1.3078292301825418,0.9754418030423135,0.28643395523892395,0.6978353477207389
0.052000000000000005,1.7464584424410174,1.0,2964.983159592229,0.44290117046732563,1.3074691089250332,0.975756564079776,0.2864042545825227,0.698541923012902
0.0525,1.7457512839552733,1.0,2969.603751458747,0.44602606556229696,1.3071094656083373,0.9760632324376332,0.2863745539261215,0.699246735120413
0.053,1.7450441254695295,1.0,2974.174737321103,0.44913342557297575,1.3067502855707356,0.9763620883940715,0.28634485326972026,0.6999498160148985
0.0535,1.7443369669837856,1.0,2978.697679522212,0.4522233490222275,1.3063915541505087,0.9766534000466744,0.28631515261331897,0.7006511975294513
0.054,1.7436298084980417,1.0,2983.1741468926393,0.45529593443291805,1.306033256685938,0.9769374239455936,0.28628545195691774,0.7013509113590521
0.0545,1.7429226500122976,1.0,2987.6057146068374,0.45835128032791295,1.3056753785153048,0.9772144056886123,0.2862557513005165,0.7020489890609858
0.055,1.7422154915265538,1.0,2991.993964044603,0.46138948523007794,1.3053179049768897,0.977484580480708,0.28622605064411527,0.702745462055239
0.0555,1.7415083330408099,1.0,2996.340482657158,0.46441064766227863,1.3049608214089743,0.9777481736605046,0.28619634998771404,0.7034403616248843
0.056,1.740801174555066,1.0,3000.646863838032,0.46741486614738076,1.3046041131498394,0.9780054011958367,0.28616664933131275,0.7041337189164536
0.0565,1.740094016069322,1.0,3004.9147067987096,0.47040223920825,1.304247765537766,0.9782564701504757,0.2861369486749115,0.7048255649402952
0.057,1.739386857583578,1.0,3009.143287831501,0.4733728246188029,1.3038917840698034,0.9785015766511782,0.2861072480185103,0.705515891501505
0.0575,1.7386796990978342,1.0,3013.3349656820833,0.4763267453460666,1.3035361475690446,0.9787409131599616,0.286077547362109,0.7062047420884668
0.058,1.7379725406120903,1.0,3017.49206041386,0.479264119307204,1.3031808352590204,0.9789746639335626,0.2860478467057078,0.7068921592207995
0.0585,1.7372653821263464,1.0,3021.6152925818938,0.48218503425113435,1.3028258402450774,0.9792030040588856,0.28601814604930653,0.70757815841793
0.059000000000000004,1.7365582236406023,1.0,3025.705385600141,0.4850895779267771,1.302471155632562,0.9794261017255163,0.2859884453929053,0.7082627551348928
0.059500000000000004,1.7358510651548584,1.0,3029.763065692546,0.48797783808305156,1.3021167745268205,0.9796441185515508,0.28595874473650407,0.7089459647624691
0.06,1.7351439066691146,1.0,3033.789061846358,0.4908499024688771,1.3017626900331989,0.9798572098915816,0.2859290440801028,0.70962780262732
0.0605,1.7344367481833705,1.0,3037.78410576654,0.4937058588331731,1.3014088952570437,0.9800655251279399,0.28589934342370155,0.7103082839921188
0.061,1.7337295896976266,1.0,3041.7489318306784,0.4965457949248589,1.3010553833037013,0.9802692079462323,0.2858696427673003,0.7109874240556808
0.0615,1.7330224312118827,1.0,3045.684277045221,0.4993697984928538,1.3007021472785179,0.9804683965961296,0.2858399421108991,0.7116652379530886
0.062,1.7323152727261388,1.0,3049.590881002909,0.5021779572860772,1.3003491802868397,0.9806632241383058,0.28581024145449785,0.7123417407558148
0.0625,1.731608114240395,1.0,3053.469485840986,0.5049703590534484,1.299996475434013,0.9808538186783599,0.28578054079809656,0.713016947471842
0.063,1.7309009557546509,1.0,3057.3208362007394,0.5077470915438869,1.299644025825384,0.981040303588498,0.28575084014169533,0.7136908730457798
0.0635,1.730193797268907,1.0,3061.1456791879514,0.5105082425063118,1.2992918245662994,0.9812227977177079,0.2857211394852941,0.7143635323589779
0.064,1.729486638783163,1.0,3064.944764334135,0.5132538996896425,1.298939864762105,0.9814014155910963,0.28569143882889286,0.7150349402296375
0.0645,1.7287794802974192,1.0,3068.7188435594417,0.5159841508427987,1.2985881395181476,0.9815762675990303,0.28566173817249163,0.7157051114129186
0.065,1.7280723218116751,1.0,3072.46867113607,0.5186990837146993,1.2982366419397728,0.9817474601766714,0.28563203751609034,0.7163740606010451
0.0655,1.7273651633259313,1.0,3076.1950036531825,0.5213987860542639,1.2978853651323277,0.9819150959744575,0.2856023368596891,0.7170418024234051
0.066,1.7266580048401874,1.0,3079.8985999822435,0.5240833456104117,1.297534302201158,0.9820792740200495,0.2855726362032879,0.7177083514466516
0.0665,1.7259508463544435,1.0,3083.5802212441495,0.5267528501320623,1.29718344625161,0.9822400898722304,0.28554293554688664,0.7183737221747972
0.067,1.7252436878686994,1.0,3087.2406307767137,0.5294073873681348,1.2968327903890307,0.9823976357672098,0.28551323489048536,0.7190379290493042
0.0675,1.7245365293829555,1.0,3090.8789299672885,0.5320469908076946,1.2964823419333888,0.9825519979301333,0.2854835342340841,0.7197009595717254
0.068,1.7238293708972117,1.0,3094.497245443555,0.5346718075891016,1.296132082364097,0.9827032657158101,0.2854538335776829,0.7203628501106624
0.0685,1.7231222124114678,1.0,3098.096026541322,0.5372819196025191,1.2957820075163247,0.9828515219396063,0.28542413292128166,0.7210236097883063
0.069,1.7224150539257237,1.0,3101.675619361658,0.539877404967175,1.2954321141171456,0.9829968464352891,0.28539443226488037,0.7216832460085263
0.0695,1.7217078954399798,1.0,3105.236371113809,0.5424583418022971,1.2950823988936329,0.9831393163714706,0.28536473160847914,0.7223417661453411
0.07,1.721000736954236,1.0,3108.778630101697,0.5450248082271134,1.2947328585728595,0.9832790063588424,0.2853350309520779,0.7229991775429554
0.07050000000000001,1.720293578468492,1.0,3112.302745711247,0.5475768823608517,1.2943834898818987,0.9834159885523969,0.2853053302956767,0.7236554875157974
