Time [s],Phi [rad],STIM [ ],Fsee [N],Gamma [ ],Lcerel [ ],q [ ],Lmtc [m],fisomrel [ ]
0.0,1.8,1.0,18.02616229333363,0.00024461978402452934,1.3793331412026384,0.005015550283298781,0.288653,0.5411555101573318
0.0005,1.79999375,1.0,18.411611488341,0.0058524569693246,1.3792874341886148,0.013604686760818253,0.2886527375,0.5412660786563049
0.001,1.799975,1.0,21.927389184565996,0.011428838621836343,1.3789068535136557,0.03684164136283517,0.28865195,0.5421862128838681
0.0015,1.79994375,1.0,31.755225548424516,0.01697394118320981,1.377988078863953,0.0722827488382354,0.2886506375,0.5444037379998028
0.002,1.7999,1.0,55.01805895514701,0.02248794010324265,1.3762756084068926,0.11670434033591984,0.2886488,0.5485225335396138
0.0025,1.79984375,1.0,99.49683927321284,0.02797100984875805,1.3738212747876573,0.16673305964936613,0.28864643749999996,0.5543930309825602
0.003,1.7997750000000001,1.0,164.0296718287506,0.03342332390936609,1.3710999177084255,0.21950516300588538,0.28864354999999997,0.5608573057295911
0.0035,1.79969375,1.0,241.1413237234005,0.038845054798733,1.3684786035494982,0.27282438550071225,0.2886401375,0.5670392816524608
0.004,1.7996,1.0,325.13842348431155,0.04423637406478855,1.3660591204613752,0.32505626895023954,0.2886362,0.5727063785938915
0.0045000000000000005,1.7994937500000001,1.0,413.06492531835727,0.04959745229510616,1.3638338857993342,0.3750657713533335,0.2886317375,0.577885534260705
0.005,1.799375,1.0,503.28412664708526,0.05492845910871655,1.3617762506930098,0.42214745597233877,0.28862675,0.582646506487591
0.0055,1.79924375,1.0,594.6923719171295,0.06022956319416051,1.3598627257657356,0.46593253459903833,0.2886212375,0.5870498042233895
0.006,1.7991000000000001,1.0,686.4213683906464,0.0655009322767545,1.3580755650203529,0.5062961628825638,0.2886152,0.5911412300234535
0.006500000000000001,1.79894375,1.0,777.758061786567,0.07074273312954564,1.3564011567063265,0.5432784264201108,0.2886086375,0.5949560443188535
0.007,1.798775,1.0,868.1152323585095,0.07595513167155755,1.3548286059411176,0.5770233344119757,0.28860155,0.598522514049372
0.0075,1.79859375,1.0,957.0020744017249,0.08113829266867659,1.3533490209378007,0.6077346326099389,0.2885939375,0.6018637417165105
0.008,1.7984,1.0,1044.04279943839,0.08629238040184137,1.3519544497305007,0.6356448106439532,0.2885858,0.6050002082745549
0.0085,1.79819375,1.0,1128.9159911742458,0.09141755769289597,1.350638294501191,0.6609952349460365,0.2885771375,0.6079489363179084
0.009000000000000001,1.797975,1.0,1211.3760417017531,0.096513986617753,1.3493945756580366,0.6840229868870448,0.28856795,0.610725224811035
0.0095,1.79774375,1.0,1291.2651429705475,0.10158182893547328,1.348217520008406,0.7049531137892289,0.2885582375,0.6133436184923324
0.01,1.7975,1.0,1368.4441972765928,0.10662124457512481,1.3471022903160583,0.723995004848675,0.288548,0.6158163267134782
0.0105,1.79724375,1.0,1442.8229251487846,0.11163239287785291,1.3460443754097169,0.7413403069925316,0.2885372375,0.6181546245130706
0.011,1.796975,1.0,1514.365872312819,0.1166154326084684,1.345039392743116,0.7571625498683385,0.28852595000000003,0.6203693158656308
0.0115,1.79669375,1.0,1583.0595615647005,0.12157052182785263,1.3440833938655128,0.7716178945332864,0.2885141375,0.6224700831185919
0.012,1.7964,1.0,1648.8910357908364,0.12649781662722565,1.343173007455123,0.7848462597070691,0.28850180000000003,0.6244652007468309
0.0125,1.79609375,1.0,1711.8850691842308,0.1313974728419963,1.3423049056782297,0.7969723970877449,0.2884889375,0.6263627281524817
0.013000000000000001,1.7957750000000001,1.0,1772.0946695013583,0.13626964594942267,1.3414758658056851,0.8081073420004677,0.28847555,0.6281703860722505
0.0135,1.79544375,1.0,1829.5810500497255,0.1411144909073563,1.3406829463426855,0.8183498862053544,0.2884616375,0.6298951851762338
0.014,1.7951000000000001,1.0,1884.3861509681012,0.14593215985181499,1.3399237333215923,0.8277879852460266,0.2884472,0.6315429066476754
0.0145,1.79474375,1.0,1936.5755767709438,0.1507228049188164,1.3391958127747672,0.8364997806401557,0.2884322375,0.6331192621047994
0.015,1.794375,1.0,1986.2329815705289,0.1554865779505991,1.3384968088089564,0.8445547453320571,0.28841675,0.6346298164099262
0.0155,1.79399375,1.0,2033.4448508098562,0.1602236300149971,1.337824521506247,0.8520147431095765,0.2884007375,0.6360796960110819
0.016,1.7936,1.0,2078.3034355602854,0.1649341121785764,1.3371768684915868,0.8589349060871879,0.2883842,0.6374737224305076
0.0165,1.7931937500000001,1.0,2120.8737357530395,0.16961817212318067,1.3365522037313424,0.8653645226274245,0.2883671375,0.6388157339399776
0.017,1.792775,1.0,2161.2328602678126,0.17427595753065367,1.3359488811918794,0.8713475981439187,0.28834955,0.6401095319704226
0.0175,1.7923437500000001,1.0,2199.469011991062,0.1789076160828391,1.3353652548395643,0.8769234794998388,0.2883314375,0.6413588834387568
0.018000000000000002,1.7919,1.0,2235.6661959762187,0.18351329401937397,1.3347998226334965,0.8821274403075088,0.2883128,0.6425672154482758
0.0185,1.79144375,1.0,2269.9235210069673,0.1880931392113142,1.3342510197651514,0.8869911033081302,0.2882936375,0.6437380605419527
0.019,1.790975,1.0,2302.3137195271433,0.19264729572005515,1.3337176237938595,0.8915429609540787,0.28827395,0.6448741950554211
0.0195,1.79049375,1.0,2332.9066508705628,0.19717590653947692,1.3331985049553705,0.8958086714999518,0.2882537375,0.6459781769627102
0.02,1.79,1.0,2361.77794061826,0.2016791146634597,1.3326925334854336,0.8998113586303252,0.288233,0.6470525451627668
0.0205,1.78949375,1.0,2389.0084957225686,0.2061570630858836,1.3321985796197988,0.9035718959636946,0.2882117375,0.6480998204674369
0.021,1.788975,1.0,2414.6690767180135,0.2106098927206537,1.3317156582763399,0.9071091870111558,0.28818995000000003,0.6491222004282351
0.021500000000000002,1.78844375,1.0,2438.847807130884,0.21503774747175364,1.3312426568099658,0.9104403252478757,0.2881676375,0.650122137466439
0.022,1.7879,1.0,2461.6056941307265,0.21944076633944384,1.3307787603169765,0.9135808735573125,0.2881448,0.6511014404437634
0.0225,1.78734375,1.0,2483.0005972363497,0.22381908734662426,1.3303232132421012,0.9165449800749292,0.28812143749999997,0.6520617818667517
0.023,1.786775,1.0,2503.0930960021938,0.22817284851619465,1.3298752600300696,0.9193455160179527,0.28809755,0.653004824043667
0.0235,1.78619375,1.0,2521.946261912193,0.23250218787105498,1.3294341451256113,0.9219942086017622,0.28807313749999996,0.653932219468615
0.024,1.7856,1.0,2539.620394237057,0.2368072424856132,1.3289991605487876,0.9245017667092151,0.2880482,0.6548455113462789
0.0245,1.78499375,1.0,2556.1743861819746,0.2410881490223518,1.3285696303864467,0.926877981310066,0.2880227375,0.6557461670526588
0.025,1.784375,1.0,2571.6773633007983,0.24534504556858816,1.328144799642812,0.9291317987352039,0.28799675,0.6566358114393457
0.025500000000000002,1.78374375,1.0,2586.172298423032,0.24957806485316705,1.3277241736109948,0.9312714581364868,0.2879702375,0.6575155166804545
0.026000000000000002,1.7831000000000001,1.0,2599.7034265385987,0.25378733960493316,1.3273072575841067,0.9333045188578294,0.2879432,0.6583863492754185
0.0265,1.78244375,1.0,2612.3161394732615,0.25797300255273115,1.3268935568552591,0.9352379256993711,0.2879156375,0.659249370173844
0.027,1.781775,1.0,2624.0568859909877,0.2621351864254058,1.3264825767175632,0.9370780671206981,0.28788755,0.6601056348847592
0.0275,1.7810937500000001,1.0,2634.9730773214596,0.2662740239518017,1.3260738224641309,0.9388308272227742,0.2878589375,0.6609561935702503
0.028,1.7804,1.0,2645.107653726601,0.2703896437248734,1.325666848735381,0.9405016378153267,0.2878298,0.6618019886312705
0.0285,1.77969375,1.0,2654.5086798542275,0.2744821815919851,1.3252611698693408,0.942095511105747,0.2878001375,0.6626440413750887
0.029,1.778975,1.0,2663.2089257417633,0.27855176483441746,1.3248564474733533,0.9436170975405159,0.28776995,0.6634830629304607
0.029500000000000002,1.7782437500000001,1.0,2671.241623814681,0.28259852067923985,1.324452343872498,0.9450707005787035,0.2877392375,0.6643197594248799
0.03,1.7775,1.0,2678.6404983085226,0.2866225763535218,1.324048521391854,0.9464603069509716,0.287708,0.6651548334941108
0.0305,1.77674375,1.0,2685.4397196362916,0.2906240590843329,1.3236446423565005,0.947789613990455,0.2876762375,0.6659889842918778
0.031,1.775975,1.0,2691.673861283801,0.2946030960987427,1.3232403690915167,0.94906205428219,0.28764395,0.6668229074922835
0.0315,1.7751937500000001,1.0,2697.3712027279344,0.2985598102801772,1.3228354247863372,0.9502808241493512,0.2876111375,0.6676571699713815
0.032,1.7744,1.0,2702.5593537568666,0.30249432634294854,1.3224295414773568,0.9514488987145834,0.2875778,0.6684923175468797
0.0325,1.77359375,1.0,2707.2826922117642,0.30640678124957527,1.3220223005868013,0.9525690339710239,0.2875439375,0.6693292025662749
0.033,1.772775,1.0,2711.5610975176405,0.3102972952206938,1.3216135096043893,0.95364382045437,0.28750955,0.6701682093110568
0.0335,1.7719437500000002,1.0,2715.414630860449,0.31416598847694055,1.32120297601984,0.9546756749565942,0.2874746375,0.671009720012749
0.034,1.7711000000000001,1.0,2718.863518119071,0.31801298123895205,1.3207905073228718,0.9556668542468567,0.2874392,0.6718541148326993
0.0345,1.7702437500000001,1.0,2721.9281336192175,0.32183839372736467,1.3203759110032036,0.9566194675546025,0.2874032375,0.6727017718395005
0.035,1.7693750000000001,1.0,2724.6289847086127,0.3256423461628149,1.319958994550554,0.9575354879395227,0.28736675,0.6735530669840513
0.035500000000000004,1.76849375,1.0,2726.98669715442,0.3294249587659392,1.3195395654546422,0.9584167626592709,0.2873297375,0.6744083740722526
0.036000000000000004,1.7676,1.0,2729.022001361856,0.333186351757374,1.3191174312051865,0.9592650226337062,0.2872922,0.6752680647353413
0.0365,1.76669375,1.0,2730.7557194148435,0.33692664535775574,1.318692399291906,0.9600818910937274,0.2872541375,0.6761325083978584
0.037,1.765775,1.0,2732.208752937957,0.34064595978772094,1.318264277204519,0.9608688914933335,0.28721555,0.677002072243256
0.0375,1.76484375,1.0,2733.391019353352,0.34434440748804784,1.317832972823499,0.9616274629117236,0.2871764375,0.6778769176855133
0.038,1.7639,1.0,2734.325543493076,0.3480221128887537,1.3173982754483462,0.9623589491200456,0.28713679999999997,0.678757444969438
0.0385,1.76294375,1.0,2735.0312456497263,0.35167919506361534,1.3169600121198892,0.9630646166244516,0.28709663750000003,0.6796439755005093
0.039,1.761975,1.0,2735.519196638965,0.3553157668107403,1.3165180815145583,0.9637456630634494,0.28705595,0.680536683910534
0.0395,1.7609937500000001,1.0,2735.800498190268,0.35893194092823605,1.316072382308783,0.9644032166300004,0.2870147375,0.6814357434363856
0.04,1.76,1.0,2735.8862786166733,0.36252783021421,1.3156228131789938,0.9650383408371934,0.286973,0.6823413258959758
0.0405,1.7589937500000001,1.0,2735.7876887135926,0.3661035474667696,1.3151692728016204,0.9656520389081785,0.2869307375,0.6832536016635771
0.041,1.757975,1.0,2735.515897884067,0.36965920548402226,1.3147116598530928,0.9662452578236326,0.28688795,0.6841727396444873
0.0415,1.75694375,1.0,2735.082090492236,0.3731949170640755,1.314249873009841,0.9668188920567755,0.2868446375,0.6850989072490394
0.042,1.7559,1.0,2734.49746244443,0.3767107950050367,1.3137838109482953,0.9673737870230462,0.28680079999999997,0.686032270365958
0.0425,1.75484375,1.0,2733.773217997982,0.3802069521050133,1.3133133723448853,0.9679107422689529,0.2867564375,0.6869729933350615
0.043000000000000003,1.753775,1.0,2732.9312786205624,0.38368349509763205,1.3128383585706587,0.9684305055497645,0.28671155,0.687921433057449
0.043500000000000004,1.7526960553822506,1.0,2732.077729159648,0.3871405387850559,1.31235884743496,0.9689338083869207,0.28666623432605454,0.6888773929499472
0.044,1.7516161471248872,1.0,2731.6330493094933,0.3905781969645286,1.3118751871605818,0.9694213649111565,0.28662087817924525,0.6898401391376022
0.0445,1.7505362388675239,1.0,2731.6174727886055,0.393996575601308,1.3113876281868562,0.9698938431126295,0.28657552203243597,0.6908091358806256
0.045,1.7494563306101605,1.0,2732.0034309982725,0.3973957806606519,1.3108964209531144,0.9703518764763526,0.28653016588562674,0.6917838502504587
0.0455,1.748376422352797,1.0,2732.763440270923,0.4007759181078178,1.310401815898688,0.9707960661069198,0.28648480973881746,0.6927637521900414
0.046,1.7472965140954337,1.0,2733.8700823085574,0.4041370939080636,1.3099040634629089,0.9712269827028639,0.28643945359200823,0.6937483145700809
0.0465,1.7462166058380704,1.0,2735.2959860109117,0.40747941402664695,1.309403414085108,0.9716451683926176,0.28639409744519895,0.6947370132413239
0.047,1.745136697580707,1.0,2737.0138106947184,0.41080298442882557,1.3089001182046176,0.9720511384429845,0.2863487412983897,0.695729327082823
0.0475,1.7440567893233438,1.0,2738.9962307031565,0.4141079110798572,1.3083944262607687,0.9724453828500857,0.28630338515158044,0.6967247380462094
0.048,1.7429768810659805,1.0,2741.215921406496,0.41739429994499955,1.3078865886928932,0.972828367821869,0.28625802900477115,0.6977227311959605
0.0485,1.741896972808617,1.0,2743.65282478862,0.42066225301735166,1.3073767899550783,0.9732005320774582,0.2862126728579619,0.6987229240972948
0.049,1.7408170645512537,1.0,2746.287479660229,0.4239118755446624,1.3068652090125528,0.9735622935123113,0.28616731671115264,0.6997249473778135
0.0495,1.7397371562938904,1.0,2749.095799075517,0.427143275312767,1.3063520665882966,0.9739140534872577,0.28612196056434336,0.7007283523503822
0.05,1.738657248036527,1.0,2752.06654835816,0.43035655204028145,1.3058374667736226,0.974256185888027,0.28607660441753413,0.701732920655272
0.0505,1.7375773397791636,1.0,2755.1884828239945,0.43355180544582145,1.305321513659843,0.9745890473814377,0.2860312482707249,0.7027384352565762
0.051000000000000004,1.7364974315218005,1.0,2758.4503445379746,0.43672913524800294,1.3048043113382708,0.9749129783646076,0.2859858921239156,0.7037446804515386
0.051500000000000004,1.735417523264437,1.0,2761.840859311023,0.4398886411654418,1.304285963900218,0.975228303853779,0.28594053597710634,0.704751441879194
0.052000000000000005,1.7343376150070737,1.0,2765.3487339370836,0.4430304229167539,1.3037665754369974,0.9755353343170928,0.2858951798302971,0.7057585065283132
0.0525,1.7332577067497104,1.0,2768.9626536702667,0.44615458022055504,1.3032462500399216,0.97583436645531,0.2858498236834878,0.70676566274466
0.053,1.732177798492347,1.0,2772.6712799428824,0.4492612127954612,1.3027250918003028,0.9761256839341504,0.28580446753667854,0.7077727002375582
0.0535,1.7310978902349836,1.0,2776.4632483228793,0.45235042036008827,1.3022032048094536,0.9764095580716375,0.2857591113898693,0.7087794100857636
0.054,1.7300179819776202,1.0,2780.333557467129,0.455422295633266,1.3016806356025858,0.9766862442760295,0.28571375524306003,0.7097856954796551
0.0545,1.7289380737202569,1.0,2784.2693603586436,0.4584769442995846,1.30115750122384,0.976955992585086,0.2856683990962508,0.7107913247978723
0.055,1.7278581654628937,1.0,2788.2643667056136,0.4615144625437023,1.3006338594417783,0.9772190379782939,0.2856230429494415,0.7117961816235365
0.0555,1.7267782572055304,1.0,2792.3139701757673,0.4645349443157542,1.3001097527426935,0.9774756044699551,0.2855776868026323,0.7128001795558654
0.056,1.725698348948167,1.0,2796.4135522480824,0.46753848356587496,1.2995852236128789,0.9777259067709456,0.285532330655823,0.7138032327577213
0.0565,1.7246184406908036,1.0,2800.558481795485,0.47052517424419954,1.2990603145386284,0.9779701507526103,0.2854869745090137,0.7148052559568134
0.057,1.7235385324334402,1.0,2804.744114706668,0.4734951103008627,1.298535068006235,0.9782085338838882,0.2854416183622045,0.7158061644467877
0.0575,1.7224586241760769,1.0,2808.9657935481696,0.4764483856859994,1.2980095265019922,0.978441245643415,0.2853962622153952,0.7168058740881965
0.058,1.7213787159187135,1.0,2813.2188472666353,0.4793850943497444,1.297483732512193,0.978668467908229,0.28535090606858593,0.7178043013093558
0.0585,1.7202988076613501,1.0,2817.4985909309685,0.48230533024223254,1.2969577285231315,0.9788903753205801,0.2853055499217767,0.7188013631070859
0.059000000000000004,1.719218899403987,1.0,2821.80188255969,0.48520918206472635,1.2964315431015414,0.9791071344281216,0.2852601937749675,0.7197970033623693
0.059500000000000004,1.7181389911466236,1.0,2826.127550969544,0.4880967349010101,1.295905187124333,0.9793189040119907,0.2852148376281582,0.7207911997223007
0.06,1.7170590828892602,1.0,2830.466618744328,0.49096810222309456,1.2953787411155602,0.9795258427763618,0.2851694814813489,0.7217837987786572
0.0605,1.7159791746318969,1.0,2834.8176164791093,0.49382337128557147,1.2948522183880513,0.9797280975929828,0.2851241253345397,0.7227747745907045
0.061,1.7148992663745335,1.0,2839.1790702293024,0.4966626293430322,1.2943256322546344,0.9799258097409166,0.2850787691877304,0.7237641013963958
0.0615,1.7138193581171701,1.0,2843.549501490386,0.49948596365006837,1.2937989960281377,0.9801191151626987,0.2850334130409211,0.7247517536124308
0.062,1.7127394498598068,1.0,2847.927427180753,0.5022934614612716,1.2932723230213894,0.9803081447068909,0.2849880568941119,0.7257377058343044
0.0625,1.7116595416024434,1.0,2852.3113596288913,0.5050852100312333,1.2927456265472175,0.9804930243578468,0.2849427007473026,0.7267219328363428
0.063,1.7105796333450802,1.0,2856.6998065649573,0.5078612966145452,1.2922189199184502,0.9806738754534572,0.2848973446004934,0.7277044095717295
0.0635,1.7094997250877169,1.0,2861.0912711150118,0.5106218084657986,1.2916922164479159,0.9808508148915868,0.2848519884536841,0.7286851111725198
0.064,1.7084198168303535,1.0,2865.4842518009946,0.5133668328395854,1.2911655294484423,0.9810239553258712,0.28480663230687486,0.7296640129496437
0.0645,1.7073399085729901,1.0,2869.8772425426123,0.5160964569904968,1.2906388722328581,0.9811934053514942,0.2847612761600656,0.7306410903928966
0.065,1.7062600003156267,1.0,2874.268732664904,0.5188107681731245,1.2901122581139912,0.9813592696815312,0.2847159200132563,0.7316163191709213
0.0655,1.7051800920582634,1.0,2878.6572069087315,0.5215098536420603,1.2895857004046698,0.981521649314396,0.28467056386644707,0.7325896751311761
0.066,1.7041001838009,1.0,2883.0411454451896,0.5241938006518952,1.2890592124177223,0.9816806416929114,0.2846252077196378,0.733561134299892
0.0665,1.7030202755435369,1.0,2887.4201445404083,0.5268626829829619,1.2885327975622038,0.9818363394698008,0.28457985157282856,0.7345306911062764
0.067,1.7019403672861735,1.0,2891.794001984626,0.5295165821378637,1.2880064574575,0.9819888325283952,0.2845344954260193,0.73549834331244
0.0675,1.7008604590288101,1.0,2896.1599816108987,0.5321556106849631,1.2874802160786054,0.9821382107633629,0.28448913927921005,0.7364640477149182
0.068,1.6997805507714467,1.0,2900.5178125803423,0.5347798480425037,1.2869540755905025,0.982284557795409,0.28444378313240076,0.7374278013456639
0.0685,1.6987006425140834,1.0,2904.8672233829598,0.5373893736287289,1.2864280381581734,0.9824279544171947,0.2843984269855915,0.7383896012654974
0.069,1.69762073425672,1.0,2909.2079418423,0.5399842668618821,1.2859021059466007,0.9825684787087618,0.28435307083878225,0.7393494445640902
0.0695,1.6965408259993566,1.0,2913.5396951203543,0.5425646071602069,1.2853762811207667,0.9827062061474829,0.28430771469197297,0.7403073283599526
0.07,1.6954609177419933,1.0,2917.8622097229645,0.5451304739419469,1.2848505658456537,0.9828412097128332,0.2842623585451637,0.7412632498004175
0.07050000000000001,1.69438100948463,1.0,2922.1752115048257,0.5476819466253455,1.2843249622862443,0.9829735599862623,0.28421700239835446,0.7422172060616257
0.07100000000000001,1.6933011012272667,1.0,2926.478425674764,0.5502191046286462,1.2837994726075204,0.9831033252464264,0.28417164625154523,0.7431691943485118
0.07150000000000001,1.6922211929699034,1.0,2930.7715768011494,0.5527420273700925,1.2832740989744649,0.9832305715600217,0.28412629010473595,0.7441192118947866
0.07200000000000001,1.69114128471254,1.0,2935.054388817652,0.5552507942679279,1.2827488435520598,0.9833553628684595,0.28408093395792666,0.7450672559629236
