Time [s],Phi [rad],STIM [ ],Fsee [N],Gamma [ ],Lcerel [ ],q [ ],Lmtc [m],fisomrel [ ]
0.0,1.8,1.0,17.96810001040264,1.0302820757253991e-05,1.37933964070321,0.005000028283687566,0.288653,0.5411397863238508
0.0005,1.79999375,1.0,18.277446828060643,0.005619454338874831,1.379302309735963,0.012941353326416025,0.2886527375,0.5412300951178689
0.001,1.799975,1.0,21.619240342929324,0.011197142951897165,1.3789382144023088,0.035610150102819184,0.28865195,0.5421104262295595
0.0015,1.79994375,1.0,31.070476188200434,0.01674354514270506,1.3780460980706175,0.07060385759595877,0.2886506375,0.5442638639463682
0.002,1.7999,1.0,53.58433140230095,0.022258836402530645,1.3763680055997638,0.11472038549946763,0.2886488,0.5483007792119139
0.0025,1.79984375,1.0,97.12171384587431,0.02774319123851709,1.3739350334820946,0.16457744791574808,0.28864643749999996,0.554121781679671
0.003,1.7997750000000001,1.0,160.96166378012623,0.03319678318143854,1.3712142128624696,0.21728309071355786,0.28864354999999997,0.5605867607426567
0.0035,1.79969375,1.0,237.68721017872784,0.038619784785289914,1.3685846147614003,0.27061551164748426,0.2886401375,0.5667901204119584
0.004,1.7996,1.0,321.4708656989754,0.044012367638069545,1.3661559839525512,0.32291834218425164,0.2886362,0.5724802149736578
0.0045000000000000005,1.7994937500000001,1.0,409.27198668938127,0.04937470236696364,1.3639227147341142,0.37303691990803994,0.2886317375,0.5776793931777824
0.005,1.799375,1.0,499.41781140337656,0.0547069586294323,1.3618582508186114,0.42024971862499705,0.28862675,0.58245729054367
0.0055,1.79924375,1.0,590.794762354501,0.06000930516069963,1.3599387501431577,0.4641757896383001,0.2886212375,0.586875306586038
0.006,1.7991000000000001,1.0,682.5224507855768,0.0652819097168571,1.3581463358132044,0.5046818852035081,0.2886152,0.5909795986721156
0.006500000000000001,1.79894375,1.0,773.8856502779655,0.07052493913051329,1.3564671786359437,0.5418025190753785,0.2886086375,0.5948059647810275
0.007,1.798775,1.0,864.2900953886033,0.07573855929437812,1.35489032579314,0.5756783856808073,0.28860155,0.5983828337322672
0.0075,1.79859375,1.0,953.2475106922205,0.08092293517100106,1.3534067131253498,0.6065113759709615,0.2885939375,0.6017337216770942
0.008,1.7984,1.0,1040.3485889570654,0.08607823037595766,1.3520087915965333,0.63453350873683,0.2885858,0.6048782227000906
0.0085,1.79819375,1.0,1125.3184646485217,0.09120460904311176,1.3506891815163033,0.6599856429482627,0.2885771375,0.6078351338246979
0.009000000000000001,1.797975,1.0,1207.9045434822472,0.09630223311995047,1.3494419754367764,0.6831052913809229,0.28856795,0.6106195975855976
0.0095,1.79774375,1.0,1287.896876484226,0.10137126310393178,1.348262061996782,0.704118474601184,0.2885582375,0.6132446944315995
0.01,1.7975,1.0,1365.17136307812,0.10641185949251372,1.3471443298351498,0.7232351368231072,0.288548,0.6157232597681912
0.0105,1.79724375,1.0,1439.6627287504502,0.1114241822630963,1.3460839059670742,0.7406474951774247,0.2885372375,0.6180673789240223
0.011,1.796975,1.0,1511.3252934699422,0.11640839019703059,1.3450765160282734,0.7565298912346329,0.28852595000000003,0.6202876214470305
0.0115,1.79669375,1.0,1580.124269830286,0.12136464047176813,1.3441184441444267,0.7710393062735907,0.2885141375,0.6223931645396017
0.012,1.7964,1.0,1646.0608761984129,0.1262930897489491,1.3432061197134548,0.7843162242393641,0.28850180000000003,0.6243927276506178
0.0125,1.79609375,1.0,1709.1774009128696,0.13119389478359503,1.3423359954377991,0.7964859105577825,0.2884889375,0.6262948540421275
0.013000000000000001,1.7957750000000001,1.0,1769.5097137007115,0.1360672104888925,1.341505037086851,0.8076600309914674,0.28847555,0.6281068547331266
0.0135,1.79544375,1.0,1827.0942124496614,0.14091319035110605,1.340710565258689,0.8179379638901116,0.2884616375,0.6298351744933183
0.014,1.7951000000000001,1.0,1881.9949422737418,0.1457319878565002,1.3399499005513908,0.8274079909659606,0.2884472,0.6314861770251896
0.0145,1.79474375,1.0,1934.2830185882906,0.15052375537414237,1.3392205595781643,0.8361486145877427,0.2884322375,0.6330657269115978
0.015,1.794375,1.0,1984.0567383785146,0.1552886459431923,1.3385200040408165,0.8442295972480455,0.28841675,0.6345797412761658
0.0155,1.79399375,1.0,2031.376297233753,0.1600268091830948,1.3378463110653642,0.8517132010838913,0.2884007375,0.6360327490418531
0.016,1.7936,1.0,2076.3146774272436,0.1647383945261457,1.337197589877638,0.8586548792727523,0.2883842,0.6374291625660466
0.0165,1.7931937500000001,1.0,2118.9592571903945,0.16942355140464072,1.3365719497034692,0.8651040730615135,0.2883671375,0.6387733503597113
0.017,1.792775,1.0,2159.392923655099,0.1740824277291207,1.335967680069502,0.8711049755155276,0.28834955,0.6400692536629999
0.0175,1.7923437500000001,1.0,2197.7225011787714,0.17871517287297742,1.3353829431345587,0.8766970652589867,0.2883314375,0.6413210505561268
0.018000000000000002,1.7919,1.0,2234.016057800383,0.18332193206020425,1.3348163988102797,0.8819158269873765,0.2883128,0.6425318210705222
0.0185,1.79144375,1.0,2268.348111614164,0.18790285035731685,1.3342667252218465,0.8867930884460752,0.2882936375,0.6437045803873168
0.019,1.790975,1.0,2300.80071700673,0.1924580728308309,1.33373260049444,0.8913574392882905,0.28827395,0.6448423194107731
0.0195,1.79049375,1.0,2331.45445413133,0.19698774344972875,1.3332127850720445,0.8956346217372954,0.2882537375,0.6459478312006743
0.02,1.79,1.0,2360.398708945835,0.20149200721039198,1.3327060128210728,0.8996478290553844,0.288233,0.6470239446195922
0.0205,1.78949375,1.0,2387.708342333459,0.20597100670297253,1.3322112133681985,0.9034180399656911,0.2882117375,0.6480730539299404
0.021,1.788975,1.0,2413.4465922672857,0.2104248823038284,1.3317274739065403,0.9069642540907074,0.28818995000000003,0.6490972036211275
0.021500000000000002,1.78844375,1.0,2437.6806418546653,0.21485377438931755,1.331253881629218,0.9103036753612378,0.2881676375,0.650098424443801
0.022,1.7879,1.0,2460.481290490372,0.21925782333579794,1.3307895237293503,0.9134519064877858,0.2881448,0.6510787340271351
0.0225,1.78734375,1.0,2481.9165038393385,0.22363716820500026,1.3303335459244172,0.9164231310329048,0.28812143749999997,0.6520400141486
0.023,1.786775,1.0,2502.056865624259,0.22799194915714868,1.3298850967464804,0.9192302534331733,0.28809755,0.6529841292875169
0.0235,1.78619375,1.0,2520.967544787287,0.23232230514869365,1.3294434010285692,0.9218850445640322,0.28807313749999996,0.6539127727000298
0.024,1.7856,1.0,2538.6997053487116,0.2366283714497602,1.3290078372620047,0.9243982704381778,0.2880482,0.6548273055490379
0.0245,1.78499375,1.0,2555.3063899984213,0.2409102833304734,1.3285777839381074,0.9267797678036626,0.2880227375,0.6557290813211811
0.025,1.784375,1.0,2570.8423620917856,0.2451681760609583,1.3281526195481983,0.9290385371021904,0.28799675,0.6566194460575747
0.025500000000000002,1.78374375,1.0,2585.3639562103735,0.24940218491133995,1.3277317225835978,0.9311828249978545,0.2879702375,0.6574997385599097
0.026000000000000002,1.7831000000000001,1.0,2598.9198254928915,0.2536124428297436,1.3273145564134867,0.9332202105462174,0.2879432,0.6583711133923547
0.0265,1.78244375,1.0,2611.564627704498,0.25779908569308385,1.3269005398471099,0.9351576507014785,0.2879156375,0.6592348120142479
0.027,1.781775,1.0,2623.3495464582466,0.2619622475432378,1.326489134514377,0.9370015508118652,0.28788755,0.6600919803700671
0.0275,1.7810937500000001,1.0,2634.3116175661644,0.26610205801956704,1.3260799421618488,0.9387578296734942,0.2878589375,0.660943467218512
0.028,1.7804,1.0,2644.4886604017906,0.27021864676143326,1.3256725645360858,0.9404319450054762,0.2878298,0.6617901170551308
0.0285,1.77969375,1.0,2653.9192102719667,0.2743121434081981,1.3252666033836489,0.9420289354180386,0.2878001375,0.6626327701634696
0.029,1.778975,1.0,2662.642454305444,0.2783826775992231,1.3248616604510988,0.9435534580545731,0.28776995,0.6634722626561066
0.029500000000000002,1.7782437500000001,1.0,2670.6981708574112,0.28243037897387,1.324457337484996,0.9450098224006179,0.2877392375,0.6643094265055722
0.03,1.7775,1.0,2678.1190120512356,0.2864553742885079,1.3240533065265776,0.9464020290849322,0.287708,0.6651449442895152
0.0305,1.77674375,1.0,2684.9431631217567,0.290457793817929,1.3236491929541203,0.9477337832429431,0.2876762375,0.6659795915183246
0.031,1.775975,1.0,2691.2074302468077,0.2944377661922084,1.3232446386445886,0.9490085261408299,0.28764395,0.6668141058275807
0.0315,1.7751937500000001,1.0,2696.93740447145,0.29839541510723633,1.322839391421743,0.9502294675007882,0.2876111375,0.6676490030179805
0.032,1.7744,1.0,2702.1589628897345,0.3023308642589031,1.3224331991093439,0.9513995930757839,0.2875778,0.6684847962758744
0.0325,1.77359375,1.0,2706.8982416612535,0.30624423734309913,1.3220258095311523,0.9525216830207586,0.2875439375,0.6693219961600956
0.033,1.772775,1.0,2711.1816104373493,0.3101356580557146,1.3216169705109289,0.953598328545529,0.28750955,0.6701611105847332
0.0335,1.7719437500000002,1.0,2715.035648197402,0.31400525009263985,1.321206429872434,0.9546319470284628,0.2874746375,0.6710026447978481
0.034,1.7711000000000001,1.0,2718.487120494842,0.3178531371497652,1.3207939354394285,0.9556247957495693,0.2874392,0.6718471013561347
0.0345,1.7702437500000001,1.0,2721.558106268389,0.3216794380018332,1.3203792792013915,0.9565789879713067,0.2874032375,0.6726948898545817
0.035,1.7693750000000001,1.0,2724.274769950302,0.32548428005259494,1.3199622172103398,0.957496498781491,0.28736675,0.6735464909370005
0.035500000000000004,1.76849375,1.0,2726.6546572143957,0.32926778208856444,1.3195425850546356,0.9583791835598273,0.2873297375,0.6744022204611
0.036000000000000004,1.7676,1.0,2728.714611056092,0.33303006197531904,1.319120225590284,0.9592287812929449,0.2872922,0.6752623776122646
0.0365,1.76669375,1.0,2730.471559292179,0.3367712375784361,1.3186949816732896,0.9600469227044495,0.2872541375,0.6761272597457322
0.037,1.765775,1.0,2731.9425046680567,0.3404914267634931,1.3182666961596565,0.9608351382140045,0.28721555,0.6769971623584722
0.0375,1.76484375,1.0,2733.144515513247,0.3441907473960674,1.3178352119053893,0.9615948652257792,0.2871764375,0.6778723790594907
0.038,1.7639,1.0,2734.094716943523,0.34786931734173643,1.3174003717664928,0.9623274548095646,0.28713679999999997,0.6787532015385591
0.0385,1.76294375,1.0,2734.813124268446,0.3515272529029352,1.3169619927944805,0.9630341750801539,0.28709663750000003,0.679639971695637
0.039,1.7619809132385926,1.0,2735.5945015546076,0.35516467044514893,1.3165200682743747,0.9637162361420367,0.2870561983560209,0.6805326734042895
0.0395,1.7610180718143653,1.0,2736.732905027035,0.3587816879217678,1.316074901614113,0.9643748063373111,0.28701575901620335,0.6814306650817247
0.04,1.760055230390138,1.0,2738.203612913639,0.3623784177742751,1.3156267212944301,0.9650109788317297,0.2869753196763858,0.6823334591993881
0.0405,1.7590923889659105,1.0,2739.981708077172,0.36595497244415426,1.3151757557960622,0.9656257845238343,0.2869348803365682,0.6832405706581026
0.041,1.7581295475416832,1.0,2742.042295222643,0.3695114643728887,1.314722233599744,0.9662201962519438,0.2868944409967507,0.6841515168303196
0.0415,1.7571667061174556,1.0,2744.360487366687,0.37304800600196186,1.314266383186211,0.9667951326751244,0.28685400165693314,0.6850658175990358
0.042,1.7562038646932283,1.0,2746.9113934650086,0.37656470977285716,1.3138084330361985,0.9673514618564836,0.2868135623171156,0.6859829953933856
0.0425,1.7552410232690008,1.0,2749.670664506618,0.3800616878216284,1.3133486065833198,0.9678900041077428,0.286773122977298,0.6869025853070533
0.043000000000000003,1.7542781818447735,1.0,2752.6222476851112,0.38353904882081996,1.312887051950637,0.9684115288732902,0.2867326836374805,0.6878242752603296
0.043500000000000004,1.753315340420546,1.0,2755.7403172960917,0.3869969079441833,1.3124240055419902,0.9689167727423559,0.28669224429766293,0.6887475789575844
0.044,1.7523524989963186,1.0,2759.0125823150133,0.39043537254337596,1.3119595810099747,0.9694064225723142,0.28665180495784537,0.689672257066585
0.0445,1.751389657572091,1.0,2762.4267352453194,0.3938545499700556,1.3114938920071864,0.9698811294824037,0.2866113656180278,0.6905980715631866
0.045,1.7504268161478638,1.0,2765.9704487887684,0.3972545475758797,1.3110270521862208,0.9703415110675379,0.2865709262782103,0.6915247857409116
0.0455,1.7494639747236362,1.0,2769.631372802356,0.4006354727125059,1.3105591751996737,0.9707881534542727,0.2865304869383927,0.6924521642197015
0.046,1.748501133299409,1.0,2773.3971315418494,0.40399743273159167,1.310090374700141,0.9712216132115973,0.28649004759857516,0.6933799729538463
0.0465,1.7475382918751814,1.0,2777.2553211914474,0.4073405349847947,1.3096207643402176,0.9716424191280983,0.28644960825875765,0.6943079792390927
0.047,1.746575450450954,1.0,2781.1975615302504,0.4106648832694019,1.3091504212685907,0.972051070754283,0.2864091689189401,0.6952360236908575
0.0475,1.7456126090267265,1.0,2785.211279636481,0.41397058732134373,1.308679460176803,0.9724480466856871,0.2863687295791225,0.6961638739316246
0.048,1.7446497676024992,1.0,2789.289542442964,0.41725775066451426,1.308207944740129,0.9728337979500576,0.28632829023930495,0.6970913992317145
0.0485,1.7436869261782717,1.0,2793.426379084999,0.42052647579114355,1.3077359298221594,0.9732087532436337,0.2862878508994874,0.698018486914831
0.049,1.7427240847540444,1.0,2797.6158023937496,0.4237768651934616,1.3072634702864845,0.9735733209480893,0.2862474115596699,0.6989450249601616
0.0495,1.7417612433298169,1.0,2801.851808321341,0.42700902136369845,1.306790620996695,0.9739278902803699,0.2862069722198523,0.6998709020040249
0.05,1.7407984019055895,1.0,2806.1283754341225,0.4302230467940841,1.3063174368163817,0.9742728323673927,0.28616653288003474,0.700796007341333
0.0505,1.739835560481362,1.0,2810.4394644715385,0.4334190439768486,1.305843972609135,0.9746085012511674,0.28612609354021723,0.7017202309268579
0.051000000000000004,1.7388727190571347,1.0,2814.7837271433914,0.43659710403037344,1.305370241087384,0.9749352308090838,0.28608565420039966,0.7026435454663043
0.051500000000000004,1.7379098776329072,1.0,2819.15208898541,0.4397573396263579,1.3048963240309954,0.9752533466981206,0.2860452148605821,0.7035657895165377
0.052000000000000005,1.7369470362086799,1.0,2823.5381448104336,0.4428998576060202,1.3044222791140037,0.9755631577974035,0.28600477552076453,0.7044868494229454
0.0525,1.7359841947844523,1.0,2827.939803611296,0.4460247540572818,1.3039481253069447,0.9758649557066738,0.28596433618094697,0.7054066872525314
0.053,1.735021353360225,1.0,2832.354967854205,0.4491321250680643,1.3034738815803544,0.9761590192422329,0.28592389684112945,0.7063252653015084
0.0535,1.7340585119359975,1.0,2836.7815334363963,0.4522220667262892,1.3029995669047683,0.9764456151077069,0.2858834575013119,0.7072425460954173
0.054,1.7330956705117702,1.0,2841.2173896529403,0.45529467511987787,1.3025252002507226,0.9767249985240929,0.2858430181614944,0.7081584923892226
0.0545,1.7321328290875426,1.0,2845.660419170351,0.4583500463367518,1.3020508005887532,0.976997413821888,0.2858025788216768,0.7090730671673892
0.055,1.7311699876633153,1.0,2850.108498009151,0.4613882764648325,1.301576386889396,0.9772630949978829,0.28576213948185925,0.7099862336439331
0.0555,1.7302071462390878,1.0,2854.559495533676,0.46440946159204144,1.3011019781231865,0.977522266239005,0.2857217001420417,0.7108979552624494
0.056,1.7292443048148605,1.0,2859.0112744502608,0.4674136978063001,1.3006275932606612,0.977775142415421,0.2856812608022241,0.7118081956961175
0.0565,1.728281463390633,1.0,2863.461690813302,0.47040108119553,1.3001532512723557,0.97802192954494,0.28564082146240655,0.7127169188476853
0.057,1.7273186219664056,1.0,2867.9085940394393,0.47337170784765253,1.2996789711288057,0.9782628252306119,0.28560038212258904,0.7136240888494274
0.0575,1.726355780542178,1.0,2872.349826929137,0.4763256738505892,1.2992047718005475,0.9784980190732684,0.28555994278277147,0.7145296700630813
0.058,1.7253929391179508,1.0,2876.787044542509,0.47926304743054143,1.2987306384465171,0.9787276887605171,0.28551950344295396,0.715433691496608
0.0585,1.7244300976937232,1.0,2881.2155601346167,0.4821839574381971,1.2982566123780797,0.9789520132334345,0.2854790641031364,0.7163360751682142
0.059000000000000004,1.723467256269496,1.0,2885.634666968158,0.48508849485825306,1.2977826995957427,0.9791711591908916,0.2854386247633188,0.7172368106552032
0.059500000000000004,1.7225044148452684,1.0,2890.0439797307213,0.4879767478819244,1.2973089032430491,0.9793852864302399,0.28539818542350126,0.7181358930242834
0.06,1.721541573421041,1.0,2894.443112111966,0.4908488047004263,1.2968352264635425,0.9795945485589045,0.2853577460836837,0.7190333173799025
0.0605,1.7205787319968135,1.0,2898.8316768121845,0.49370475350497406,1.296361672400766,0.9797990932823653,0.2853173067438662,0.7199290788642252
0.061,1.7196158905725862,1.0,2903.2092855505757,0.49654468248678285,1.2958882441982624,0.9799990626766018,0.2852768674040486,0.7208231726571092
0.0615,1.7186530491483587,1.0,2907.575549073875,0.4993686798370678,1.295414944999575,0.9801945934459494,0.28523642806423105,0.7217155939760779
0.062,1.7176902077241314,1.0,2911.9300771655085,0.5021768337470441,1.294941777948247,0.9803858171672534,0.28519598872441354,0.7226063380762977
0.0625,1.7167273662999039,1.0,2916.2724786541116,0.504969232407927,1.2944687461878217,0.9805728605211492,0.285155549384596,0.7234954002505493
0.063,1.7157645248756765,1.0,2920.602361423669,0.5077459640109317,1.2939958528618416,0.9807558455112365,0.2851151100447784,0.7243827758292041
0.0635,1.714801683451449,1.0,2924.9193324222724,0.5105071167472733,1.2935231011138504,0.9809348896718689,0.28507467070496084,0.7252684601801925
0.064,1.7138388420272217,1.0,2929.2229976724166,0.5132527788081672,1.293050494087391,0.9811101062652275,0.2850342313651433,0.7261524487089797
0.0645,1.7128760006029942,1.0,2933.512962280745,0.5159830383848284,1.2925780349260065,0.9812816044683105,0.28499379202532577,0.7270347368585348
0.065,1.7119131591787669,1.0,2937.7888304481066,0.5186979836684721,1.2921057267732403,0.9814494895504183,0.2849533526855082,0.7279153201093019
0.0655,1.7109503177545393,1.0,2942.050205480346,0.5213977028503135,1.2916335727726351,0.9816138630416897,0.28491291334569063,0.7287941939791713
0.066,1.709987476330312,1.0,2946.2975743442075,0.524082239938606,1.2911615683290119,0.9817748195149635,0.2848724740058731,0.7296713683934636
0.0665,1.7090246349060845,1.0,2950.5305203294483,0.5267517136854063,1.290689716762187,0.9819324556840876,0.28483203466605556,0.7305468385482128
0.067,1.7080617934818572,1.0,2954.7485309866465,0.5294062377383041,1.2902180222202007,0.9820868645658175,0.284791595326238,0.7314205981460304
0.0675,1.7070989520576296,1.0,2958.951679668358,0.5320458909824087,1.2897464837265602,0.9822381334276085,0.2847511559864204,0.7322926504084637
0.068,1.7061361106334023,1.0,2963.140040207738,0.53467075230283,1.2892751003047724,0.9823863465622577,0.2847107166466029,0.7331629985448465
0.0685,1.7051732692091748,1.0,2967.313686914839,0.5372809005846775,1.2888038709783445,0.9825315854101306,0.28467027730678535,0.734031645752308
0.069,1.7042104277849475,1.0,2971.47269457394,0.5398764147130608,1.2883327947707828,0.9826739286755518,0.2846298379669678,0.7348985952157834
0.0695,1.70324758636072,1.0,2975.6171384394725,0.5424573735730894,1.2878618707055949,0.9828134524376787,0.2845893986271502,0.735763850108021
0.07,1.7022847449364926,1.0,2979.747094233367,0.545023856049873,1.287391097806287,0.9829502302561517,0.2845489592873327,0.7366274135895956
0.07050000000000001,1.701321903512265,1.0,2983.862638141047,0.5475759410285213,1.2869204750963668,0.9830843332718052,0.28450851994751514,0.7374892888089133
0.07100000000000001,1.7003590620880378,1.0,2987.963846808993,0.5501137073941436,1.2864500015993405,0.983215830302698,0.28446808060769757,0.7383494789022251
0.07150000000000001,1.6993962206638102,1.0,2992.0507973408803,0.5526372340318497,1.2859796763387155,0.9833447879357126,0.28442764126788,0.7392079869936338
