Time [s],Phi [rad],STIM [ ],Fsee [N],Gamma [ ],Lcerel [ ],q [ ],Lmtc [m],fisomrel [ ]
0.0,1.8,1.0,20.026110872521738,0.001465844027118327,1.379115329596948,0.00554994672023925,0.288653,0.5416822922978235
0.0005,1.79999375,1.0,20.74087816933935,0.007066831110065579,1.379037322324927,0.01747039599706486,0.2886527375,0.5418708810100427
0.001,1.799975,1.0,25.175031329445595,0.012636401084196629,1.3785888679035923,0.043591207947832535,0.28865195,0.5429543019753712
0.0015,1.79994375,1.0,37.17789250787203,0.018174730174479906,1.3775491055989935,0.08126566092940504,0.2886506375,0.5454613292774237
0.002,1.7999,1.0,64.60763153046939,0.02368199361780651,1.3756863048054004,0.1271790311145067,0.2886488,0.549935587951734
0.0025,1.79984375,1.0,113.86963641965532,0.02915836566759428,1.3731600831770774,0.1780246226570523,0.28864643749999996,0.5559679602145302
0.003,1.7997750000000001,1.0,181.65944084338918,0.03460401960043654,1.3704629059057998,0.23108560722508828,0.28864354999999997,0.5623636331244597
0.0035,1.79969375,1.0,260.4909947841833,0.04001912771928267,1.3678982882414759,0.28429389555362744,0.2886401375,0.5684019435873469
0.004,1.7996,1.0,345.3948126429469,0.0454038613655861,1.3655337038336943,0.33612739605928715,0.2886362,0.5739321153112917
0.0045000000000000005,1.7994937500000001,1.0,433.8210313655179,0.050758390917050374,1.3633548495179109,0.3855512566713351,0.2886317375,0.5789963435325777
0.005,1.799375,1.0,524.2906515686137,0.05608288578155466,1.3613361292156916,0.4319414138228422,0.28862675,0.5836613575364191
0.0055,1.79924375,1.0,615.7636325750159,0.061377514446146336,1.3594559689459693,0.4749896385146634,0.2886212375,0.5879828009856962
0.006,1.7991000000000001,1.0,707.4060138472622,0.06664244442985516,1.3576980694830254,0.5146130756700472,0.2886152,0.5920028414799641
0.006500000000000001,1.79894375,1.0,798.530765345752,0.07187784230192483,1.3560497687039104,0.5508790148410921,0.2886086375,0.595754343768788
0.007,1.798775,1.0,888.5721612546962,0.07708387377923653,1.354500810483268,0.5839477226372367,0.28860155,0.5992639520622004
0.0075,1.79859375,1.0,977.0598140442659,0.08226070342047957,1.3530427152784146,0.6140314716993162,0.2885939375,0.6025537027705494
0.008,1.7984,1.0,1063.6345839027756,0.0874084953200238,1.3516678478778854,0.6413661023149156,0.2885858,0.6056432550029862
0.0085,1.79819375,1.0,1147.9906254995697,0.09252741209753171,1.3503698281888858,0.6661929737120449,0.2885771375,0.6085490545117687
0.009000000000000001,1.797975,1.0,1229.8961445948921,0.09761761560155184,1.3491428422857188,0.6887471239531141,0.28856795,0.6112859556143166
0.0095,1.79774375,1.0,1309.2012936126537,0.10267926742028372,1.3479813044088012,0.7092504467905814,0.2885582375,0.6138680222638688
0.01,1.7975,1.0,1385.7782253567004,0.10771252733687461,1.3468804683668938,0.7279085836864635,0.288548,0.6163072087549886
0.0105,1.79724375,1.0,1459.5452494529334,0.11271755442705216,1.3458359145290884,0.7449092727303274,0.2885372375,0.6186145415236898
0.011,1.796975,1.0,1530.4676769548507,0.11769450711580536,1.3448434195498968,0.7604222360337339,0.28852595000000003,0.6208004336515748
0.0115,1.79669375,1.0,1598.5460804675006,0.1226435436427984,1.3438990051686548,0.7745999384151872,0.2885141375,0.6228745989923774
0.012,1.7964,1.0,1663.7700318149955,0.12756481976621667,1.3429993919145122,0.7875789326654643,0.28850180000000003,0.6248450801858254
0.0125,1.79609375,1.0,1726.1663001604684,0.13245849111784203,1.3421413322427393,0.7994809006048642,0.2884889375,0.6267197346019242
0.013000000000000001,1.7957750000000001,1.0,1785.7756140695587,0.13732471244296796,1.3413218291053906,0.8104141692488416,0.28847555,0.6285057684188475
0.0135,1.79544375,1.0,1842.682367564376,0.14216363912380464,1.3405377515216566,0.8204749483298416,0.2884616375,0.6302105860605054
0.014,1.7951000000000001,1.0,1896.9334437268917,0.14697542331908056,1.3397866983821265,0.8297489745962592,0.2884472,0.6318399222020848
0.0145,1.79474375,1.0,1948.587266254169,0.1517602166802002,1.3390663924819344,0.8383124679172845,0.2884322375,0.6333991756673687
0.015,1.794375,1.0,1997.7227448672986,0.15651817085856798,1.3383745566162135,0.8462331894488229,0.28841675,0.6348936844221331
0.0155,1.79399375,1.0,2044.4194672413482,0.16124943640858594,1.3377091029244268,0.8535714951384601,0.2884007375,0.6363283220726369
0.016,1.7936,1.0,2088.7810872772534,0.1659541643468859,1.3370678624616947,0.8603811246717266,0.2883842,0.6377080870392349
0.0165,1.7931937500000001,1.0,2130.876402696094,0.17063250248319453,1.3364491806304621,0.8667101627355839,0.2883671375,0.6390368266999065
0.017,1.792775,1.0,2170.780922143279,0.1752845983080964,1.3358514556231873,0.8726015686127011,0.28834955,0.6403182390171756
0.0175,1.7923437500000001,1.0,2208.580860568568,0.17991059931217596,1.3352730856323278,0.8780937660184197,0.2883314375,0.6415559886816894
0.018000000000000002,1.7919,1.0,2244.3555188186274,0.18451065156002502,1.3347126362920734,0.8832212192727297,0.2883128,0.6427533517423796
0.0185,1.79144375,1.0,2278.2101624785887,0.18908490256348226,1.3341684987628029,0.8880148062038099,0.2882936375,0.6439139490899701
0.019,1.790975,1.0,2310.213554101632,0.19363349580808525,1.3336395058041413,0.8925023845118212,0.28827395,0.6450404342052565
0.0195,1.79049375,1.0,2340.436957954756,0.1981565744531182,1.3331245271664272,0.8967090368077758,0.2882537375,0.6461353616076031
0.02,1.79,1.0,2368.9572938870992,0.20265428165786542,1.3326224326,0.9006573760180941,0.288233,0.6472012670001864
0.0205,1.78949375,1.0,2395.85102881209,0.20712675971327937,1.332132146477196,0.9043678335879825,0.2882117375,0.6482405525397016
0.021,1.788975,1.0,2421.1988837054537,0.21157415135532126,1.331652596586815,0.9078588901165722,0.28818995000000003,0.6492555968661462
0.021500000000000002,1.78844375,1.0,2445.0742691194987,0.21599659794991924,1.3311828212386267,0.9111473099002521,0.2881676375,0.6502485297079841
0.022,1.7879,1.0,2467.5357604480646,0.22039423799553862,1.3307220350741191,0.9142483376559153,0.2881448,0.6512210953967894
0.0225,1.78734375,1.0,2488.6449089449084,0.2247672099906447,1.3302694527347798,0.9171758257358646,0.28812143749999997,0.6521750273924396
0.023,1.786775,1.0,2508.46599373933,0.22911565243370277,1.3298242888620966,0.9199423805730192,0.28809755,0.6531120487136872
0.0235,1.78619375,1.0,2527.0606979951317,0.2334397029007858,1.3293858061767516,0.9225595004580694,0.28807313749999996,0.6540337713306487
0.024,1.7856,1.0,2544.489902695414,0.23773949866163507,1.3289532956891918,0.9250376854435515,0.2880482,0.6549417386964895
0.0245,1.78499375,1.0,2560.825445126996,0.24201517848431098,1.3285259640694738,0.9273865190457201,0.2880227375,0.6558376624114248
0.025,1.784375,1.0,2576.111615650146,0.2462668756865783,1.3281032934926358,0.9296148183830484,0.28799675,0.656722668365068
0.025500000000000002,1.78374375,1.0,2590.3940931780603,0.2504947235862018,1.327684766133717,0.931730664613896,0.2879702375,0.6575978764154694
0.026000000000000002,1.7831000000000001,1.0,2603.719829824684,0.25469885550094623,1.3272698641677563,0.9337414743448699,0.2879432,0.6584644005344973
0.0265,1.78244375,1.0,2616.136941496929,0.25887940474857635,1.326858069769792,0.935654063240047,0.2879156375,0.6593233489361154
0.027,1.781775,1.0,2627.694597295239,0.2630365046427519,1.3264488651809838,0.93747470277437,0.28788755,0.6601758240498976
0.0275,1.7810937500000001,1.0,2638.4365924067965,0.26717028443578594,1.3260417912259184,0.939209178006278,0.2878589375,0.6610228009381207
0.028,1.7804,1.0,2648.414177546443,0.2712808804016692,1.3256363275287937,0.9408628191280847,0.2878298,0.6618653768927303
0.0285,1.77969375,1.0,2657.6610809025215,0.275368420371906,1.325232122427849,0.9424405695222667,0.2878001375,0.6627042938172089
0.029,1.778975,1.0,2666.211624607962,0.2794330321780007,1.324828824261323,0.9439469995867733,0.28776995,0.663540289952189
0.029500000000000002,1.7782437500000001,1.0,2674.1006722834727,0.2834748436514575,1.3244260813674547,0.9453863396824717,0.2877392375,0.6643740998997376
0.03,1.7775,1.0,2681.363579322517,0.2874939826237808,1.3240235420844833,0.9467625097771349,0.287708,0.6652064546397485
0.0305,1.77674375,1.0,2688.0361459185838,0.2914905769264749,1.3236208547506472,0.9480791461531366,0.2876762375,0.6660380815384583
0.031,1.775975,1.0,2694.1460983896427,0.2954647494858686,1.323217745237381,0.9493396337574275,0.28764395,0.6668695445269881
0.0315,1.7751937500000001,1.0,2699.726721657075,0.2994166287681565,1.3228138915733592,0.9505471148491507,0.2876111375,0.6677015032119373
0.032,1.7744,1.0,2704.8191056835453,0.3033463481801213,1.3224089033747464,0.9517045064125824,0.2875778,0.6685347545430276
0.0325,1.77359375,1.0,2709.4443767444463,0.3072540287706425,1.322002575168446,0.952814543714146,0.2875439375,0.669369711686509
0.033,1.772775,1.0,2713.623865338799,0.3111397915885998,1.3215947014813614,0.9538797767075395,0.28750955,0.6702067856476852
0.0335,1.7719437500000002,1.0,2717.3790870447165,0.3150037576828727,1.3211850768403952,0.9549025848107086,0.2874746375,0.6710463852520071
0.034,1.7711000000000001,1.0,2720.7317243105676,0.31884604810234085,1.3207734957724506,0.9558851903373645,0.2874392,0.6718889171234745
0.0345,1.7702437500000001,1.0,2723.7036091824343,0.3226667838958839,1.320359752804431,0.9568296707197556,0.2874032375,0.6727347856603438
0.035,1.7693750000000001,1.0,2726.316706967597,0.3264660861123813,1.3199436424632394,0.9577379696441626,0.28736675,0.6735843930081469
0.035500000000000004,1.76849375,1.0,2728.593100834054,0.33024407580071286,1.3195249592757787,0.9586119072072022,0.2873297375,0.6744381390300126
0.036000000000000004,1.7676,1.0,2730.554977345906,0.33400087400975803,1.3191034977689522,0.9594531891892077,0.2872922,0.6752964212742996
0.0365,1.76669375,1.0,2732.2212122225696,0.33773659828696045,1.3186790833654507,0.9602634178650876,0.2872541375,0.6761595721471816
0.037,1.765775,1.0,2733.6079723040966,0.3414513663558274,1.318251566762488,0.9610440998322531,0.28721555,0.6770278707054265
0.0375,1.76484375,1.0,2734.7381126901255,0.34514530391151005,1.3178207384795417,0.9617966462218587,0.2871764375,0.6779017161744858
0.038,1.7639,1.0,2735.6239336571084,0.34881852480803893,1.3173864853904358,0.9625223904100368,0.28713679999999997,0.6787813102407738
0.0385,1.76294375,1.0,2736.2777774850756,0.3524711428994445,1.3169486943689939,0.9632225868529888,0.28709663750000003,0.6796668531179532
0.039,1.761975,1.0,2736.7120230300993,0.35610327203975717,1.3165072522890393,0.9638984166117714,0.28705595,0.6805585435218189
0.0395,1.7609937500000001,1.0,2736.9390805812536,0.35971502608300737,1.316062046024396,0.9645509924330413,0.2870147375,0.6814565786443643
0.04,1.76,1.0,2736.9713870005885,0.3633065188832256,1.3156129624488873,0.9651813634258016,0.286973,0.6823611541270322
0.0405,1.7589937500000001,1.0,2736.8214011474097,0.36687786429444236,1.3151598884363367,0.9657905193702272,0.2869307375,0.68327246403315
0.041,1.757975,1.0,2736.5015995858334,0.370429176170688,1.3147027108605684,0.9663793946910775,0.28688795,0.6841907008195456
0.0415,1.75694375,1.0,2736.024472576576,0.373960568365993,1.3142413165954054,0.966948872125038,0.2868446375,0.6851160553073539
0.042,1.7559,1.0,2735.395865707826,0.3774721436395718,1.3137756529376126,0.9674997893162983,0.28680079999999997,0.6860485957384405
0.0425,1.75484375,1.0,2734.6299695471616,0.38096402212619135,1.3133055914954461,0.9680329351954167,0.2867564375,0.6869885406176297
0.043000000000000003,1.753775,1.0,2733.740832008225,0.38443632369623404,1.3128310052016796,0.9685490564697109,0.28671155,0.687936103904677
0.043500000000000004,1.75269375,1.0,2732.7346929451096,0.38788915452665046,1.3123518379185652,0.9690488637924634,0.28666613750000003,0.6888913563421377
0.044,1.7516,1.0,2731.6177954659315,0.391322620794391,1.311868033508355,0.9695330305693382,0.2866202,0.6898543675881108
0.0445,1.75049375,1.0,2730.396384643863,0.3947368286764064,1.3113795358333007,0.9700021952748673,0.2865737375,0.6908252061997392
0.045,1.7493750000000001,1.0,2729.0767062970435,0.3981318843496471,1.3108862887556543,0.9704569636029317,0.28652675,0.691803939616505
0.0455,1.74824375,1.0,2727.66500583857,0.4015078939910637,1.3103882361376678,0.9708979104646352,0.2864792375,0.6927906341433272
0.046,1.7471,1.0,2726.167527197109,0.4048649637776066,1.309885321841593,0.9713255818457746,0.2864312,0.6937853549334578
0.0465,1.7459437500000001,1.0,2724.5905118061,0.4082031998862265,1.3093774897296822,0.9717404965350285,0.28638263750000004,0.6947881659711748
0.047,1.744775,1.0,2722.940197663953,0.41152270849387385,1.3088646836641868,0.9721431477330092,0.28633355,0.6957991300542787
0.0475,1.74359375,1.0,2721.222818463815,0.41482359577749917,1.3083468475073594,0.9725340045514395,0.28628393750000003,0.6968183087763815
0.048,1.7424,1.0,2719.4446027924623,0.4181059679140531,1.3078239251214514,0.972913513410916,0.2862338,0.6978457625090022
0.0485,1.74119375,1.0,2717.611773400469,0.42136993108048615,1.3072958603687153,0.9732820993450056,0.2861831375,0.6988815503834537
0.049,1.739975,1.0,2715.7275883325083,0.42461556797499067,1.306762624068486,0.9736401662380771,0.28613195,0.6999256775338545
0.0495,1.73874375,1.0,2713.801045234538,0.42784301218052534,1.3062241346922605,0.9739881015394807,0.2860802375,0.7009782504208428
0.05,1.7375,1.0,2711.834896505501,0.4310523620841899,1.3056803675580066,0.9743262742783166,0.286028,0.7020392630408225
0.0505,1.73624375,1.0,2709.8318435133156,0.4342437157370626,1.3051312984219967,0.9746550364717952,0.2859752375,0.7031087076636046
0.051000000000000004,1.734975,1.0,2707.794584519516,0.43741717119022155,1.3045769030405021,0.9749747240677172,0.28592195,0.7041865756832162
0.051500000000000004,1.73369375,1.0,2705.7258145008204,0.440572826494745,1.304017157169795,0.9752856578170559,0.2858681375,0.7052728576096818
0.052000000000000005,1.7324,1.0,2703.6282249844908,0.443710779701711,1.3034520365661468,0.9755881440917553,0.2858138,0.7063675430607714
0.0525,1.73109375,1.0,2701.504503896579,0.4468311288621979,1.3028815169858297,0.97588247565163,0.28575893750000003,0.7074706207537071
0.053,1.729775,1.0,2699.3573354226965,0.44993397202728375,1.3023055741851155,0.9761689323639454,0.28570355000000003,0.7085820784968355
0.0535,1.72844375,1.0,2697.189399882622,0.4530194072480468,1.3017241839202756,0.9764477818789831,0.2856476375,0.7097019031812619
0.054,1.7271,1.0,2695.003373617228,0.4560875325755651,1.3011373219475824,0.9767192802646334,0.2855912,0.710830080772443
0.0545,1.7257437500000001,1.0,2692.8019288889227,0.45913844606091697,1.300544964023307,0.9769836726028246,0.2855342375,0.7119665963017507
0.055,1.724375,1.0,2690.587733794641,0.46217224575518057,1.2999470859037219,0.977241193550388,0.28547675,0.7131114338579889
0.0555,1.72299375,1.0,2688.363452192546,0.465189029709434,1.2993436633450985,0.9774920678667558,0.2854187375,0.7142645765788785
0.056,1.7216,1.0,2686.107454988935,0.46818889394683044,1.2987348946539763,0.9777365237241266,0.2853602,0.7154255826405539
0.0565,1.72019375,1.0,2683.852321421141,0.47117193267715735,1.2981204815655576,0.977974750968654,0.28530113749999997,0.716594956859439
0.057,1.718775,1.0,2681.620762139939,0.4741382410919045,1.2975002158144133,0.9782069368660535,0.28524155,0.7177730280305405
0.0575,1.7173484627551587,1.0,2679.6061237286553,0.4770879114829264,1.2968744517168926,0.9784332926700822,0.2851816354357167,0.7189590558603137
0.058,1.7159218171956772,1.0,2678.147457436479,0.48002103614207753,1.2962435435893445,0.9786540211361803,0.28512171632221844,0.7201523051072327
0.0585,1.7144951716361956,1.0,2677.211034215903,0.48293770736121255,1.2956078457481175,0.9788693169414266,0.2850617972087202,0.7213520457020318
0.059000000000000004,1.713068526076714,1.0,2676.757978272759,0.4858380174321859,1.294967712509561,0.9790793670806611,0.285001878095222,0.7225575528599392
0.059500000000000004,1.7116418805172324,1.0,2676.7495649788384,0.48872205864685214,1.2943234981900242,0.9792843512402859,0.28494195898172375,0.7237681071849069
0.06,1.710215234957751,1.0,2677.150610754311,0.4915899223269949,1.2936755256862758,0.9794844403721352,0.2848820398682255,0.7249830536125306
0.0605,1.7087885893982695,1.0,2677.926851120362,0.4944416992964818,1.2930241102776165,0.9796797984226655,0.28482212075472735,0.7262017563648318
0.061,1.707361943838788,1.0,2679.0384286647527,0.49727748243251596,1.2923696191443261,0.9798705860301541,0.2847622016412291,0.7274234878871227
0.0615,1.7059352982793063,1.0,2680.463233890873,0.5000973598804785,1.2917122569968187,0.9800569488619769,0.2847022825277309,0.7286478288195855
0.062,1.7045086527198248,1.0,2682.1791910977986,0.5029014197857508,1.2910522285455075,0.9802390271408519,0.28464236341423266,0.729874363069814
0.0625,1.7030820071603432,1.0,2684.1642458137817,0.5056897502937138,1.2903897385008063,0.9804169558947795,0.2845824443007344,0.7311026778489584
0.063,1.7016553616008616,1.0,2686.3963531594154,0.5084624395497487,1.2897249915731288,0.9805908651937659,0.2845225251872362,0.7323323637051992
0.0635,1.70022871604138,1.0,2688.8534671393777,0.5112195756992366,1.2890581924728886,0.9807608803741181,0.28446260607373797,0.7335630145545489
0.064,1.6988020704818985,1.0,2691.51404456214,0.513961246632216,1.2883895412083417,0.9809271219948361,0.28440268696023974,0.7347942363572774
0.0645,1.6973754249224169,1.0,2694.3634083421407,0.5166875376547999,1.2877191748010606,0.981089702960404,0.2843427678467415,0.7360257539916988
0.065,1.6959487793629353,1.0,2697.3788886248144,0.5193985389192787,1.287047303254204,0.981248736137134,0.2842828487332433,0.73725716101559
0.0655,1.6945221338034537,1.0,2700.549211424623,0.5220943346108519,1.286374032114937,0.9814043248518862,0.28422292961974505,0.7384882453132431
0.066,1.6930954882439722,1.0,2703.8630893385107,0.5247750089147196,1.2856994669304247,0.9815565688168911,0.2841630105062468,0.7397187965423189
0.0665,1.6916688426844906,1.0,2707.309218394256,0.5274406460160816,1.2850237132478317,0.9817055642846584,0.2841030913927486,0.740948606142914
0.067,1.6902421971250092,1.0,2710.876275145429,0.5300913301001379,1.2843468766143233,0.9818514041952213,0.28404317227925036,0.7421774673459145
0.0675,1.6888155515655277,1.0,2714.552914014063,0.5327271453520882,1.283669062577064,0.9819941783161407,0.2839832531657521,0.7434051751806434
0.068,1.687388906006046,1.0,2718.3277648795665,0.5353481759571324,1.282990376683219,0.982133973375678,0.28392333405225395,0.7446315264817918
0.0685,1.6859622604465645,1.0,2722.198112219337,0.5379544974186841,1.2823108454643524,0.9822708688970726,0.2838634149387557,0.745856462159447
0.069,1.684535614887083,1.0,2726.1444098791976,0.5405462049385055,1.2816306484987319,0.9824049501772018,0.2838034958252575,0.7470796486804329
0.0695,1.6831089693276013,1.0,2730.16047818165,0.5431233793758727,1.280949843395499,0.9825362931175087,0.28374357671175926,0.7483009741583053
0.07,1.6816823237681198,1.0,2734.241493713543,0.5456861001188086,1.2802684753009537,0.9826649704544348,0.28368365759826103,0.7495203499760164
0.07050000000000001,1.6802556782086382,1.0,2738.382620442245,0.5482344465553355,1.2795865893613951,0.9827910525478702,0.2836237384847628,0.7507376882948426
0.07100000000000001,1.6788290326491566,1.0,2742.579009174965,0.5507684980734757,1.2789042307231226,0.9829146074759895,0.28356381937126457,0.7519529020559412
0.07150000000000001,1.677402387089675,1.0,2746.82579706258,0.553288334061252,1.2782214445324358,0.9830357011257067,0.28350390025776634,0.7531659049817754
0.07200000000000001,1.6759757415301935,1.0,2751.1181071495043,0.5557940339066866,1.277538275935634,0.9831543972789781,0.2834439811442681,0.7543766115774104
0.0725,1.674549095970712,1.0,2755.4510479679902,0.5582856769978021,1.2768547700790167,0.9832707576951684,0.28338406203076993,0.7555849371316798
0.073,1.6731224504112305,1.0,2759.8197131780476,0.5607633427226211,1.2761709721088834,0.9833848421896878,0.2833241429172717,0.7567907977182218
0.0735,1.671695804851749,1.0,2764.219181252556,0.563227110469166,1.2754869271715337,0.9834967087090882,0.2832642238037735,0.7579941101963843
