Time [s],Phi [rad],STIM [ ],Fsee [N],Gamma [ ],Lcerel [ ],q [ ],Lmtc [m],fisomrel [ ]
0.0,1.8,1.0,18.074934225062215,0.00033206946637762,1.3793276897500972,0.0050285860315234885,0.288653,0.5411686983062947
0.0005,1.79999375,1.0,18.487604451119854,0.005939416128121387,1.3792790324838957,0.013858789789702227,0.2886527375,0.5412864015244898
0.001,1.799975,1.0,22.068226152561824,0.01151531000851685,1.3788925936655045,0.03730659792826432,0.28865195,0.542220671126999
0.0015,1.79994375,1.0,32.039793618718235,0.01705992753380085,1.3779641514237915,0.07291312839401466,0.2886506375,0.544461416576828
0.002,1.7999,1.0,55.586620840618785,0.022573444138344625,1.376239301036003,0.117446997223247,0.2886488,0.5486096567472574
0.0025,1.79984375,1.0,100.41560634896786,0.028056034273872547,1.3737776343567447,0.16753851713579485,0.28864643749999996,0.554497066500879
0.003,1.7997750000000001,1.0,165.2015717760498,0.03350787141466509,1.3710565423499328,0.22033449542373185,0.28864354999999997,0.5609599565666854
0.0035,1.79969375,1.0,242.45249280747709,0.038929128059350546,1.368438561056722,0.2736481125934909,0.2886401375,0.5671333760409826
0.004,1.7996,1.0,326.5258708004333,0.04431997574087614,1.3660226192598826,0.3258530530715485,0.2886362,0.5727915886165021
0.0045000000000000005,1.7994937500000001,1.0,414.4966944633041,0.04968058503199579,1.3638004604952505,0.37582156554601964,0.2886317375,0.577963089743124
0.005,1.799375,1.0,504.74089260130296,0.05501112553672179,1.361745436087188,0.42285418358899113,0.28862675,0.5827176003510531
0.0055,1.79924375,1.0,596.1596120355166,0.060311765928781486,1.3598341712526236,0.46658660043775846,0.2886212375,0.5871153354557956
0.006,1.7991000000000001,1.0,687.8876878255529,0.0655826739191209,1.358049001304602,0.506897091207945,0.2886152,0.591201889874927
0.006500000000000001,1.79894375,1.0,779.2135426391807,0.07082401626357708,1.3563763842783856,0.5438277859879682,0.2886086375,0.5950123492623229
0.007,1.798775,1.0,869.5523207493608,0.0760359588758316,1.3548054531929377,0.5775239150511168,0.28860155,0.5985749055629914
0.0075,1.79859375,1.0,958.4138678008425,0.08121866649187257,1.353327356770367,0.6081898883037831,0.2885939375,0.6019125604517406
0.008,1.7984,1.0,1045.424325302065,0.08637230338791918,1.3519341521791775,0.6360584575061603,0.2885858,0.6050457669959297
0.0085,1.79819375,1.0,1130.2634398083292,0.09149703238918232,1.3506192557152472,0.6613710070515764,0.2885771375,0.6079915099543561
0.009000000000000001,1.797975,1.0,1212.6874612045813,0.09659301550859806,1.349376687235964,0.6843644761271006,0.28856795,0.6107650842347684
0.0095,1.79774375,1.0,1292.5358794976403,0.10166041451266059,1.3482007308715225,0.7052637166886699,0.2885582375,0.6133809024889592
0.01,1.7975,1.0,1369.672491326755,0.1066993894003501,1.3470865258684024,0.7242778347328882,0.288548,0.615851223088657
0.0105,1.79724375,1.0,1444.0085881507393,0.11171009939293994,1.3460295552482815,0.7415981907895499,0.2885372375,0.6181873306590451
0.011,1.796975,1.0,1515.5027916295994,0.11669270307722322,1.345025521348487,0.7573980760227285,0.28852595000000003,0.6203998393437653
0.0115,1.79669375,1.0,1584.151891975729,0.12164735894062656,1.3440703586601537,0.7718333299182609,0.2885141375,0.6224986871539324
0.012,1.7964,1.0,1649.9419559570088,0.1265742229118268,1.3431607191512431,0.7850436378144273,0.28850180000000003,0.6244920944885257
0.0125,1.79609375,1.0,1712.8959318854868,0.13147345072791206,1.3422933051397206,0.7971535412081746,0.2884889375,0.6263880524761676
0.013000000000000001,1.7957750000000001,1.0,1773.0554814713232,0.1363451973686561,1.3414650284464922,0.8082739265450963,0.28847555,0.6281939870791974
0.0135,1.79544375,1.0,1830.4971549755976,0.14118961827369392,1.340672776776782,0.818503333316096,0.2884616375,0.6299172804948878
0.014,1.7951000000000001,1.0,1885.2697498958767,0.14600686596268528,1.3399140682137425,0.8279295337922811,0.2884472,0.6315638591530077
0.0145,1.79474375,1.0,1937.429946316947,0.15079709220088988,1.3391865941100431,0.8366305687295649,0.2884322375,0.6331392040051941
0.015,1.794375,1.0,1987.0554609428605,0.15556044875356734,1.3384880458183543,0.844675808115127,0.28841675,0.6346487335397692
0.0155,1.79399375,1.0,2034.22394182381,0.1602970863329831,1.3378163176549196,0.852127032451896,0.2884007375,0.6360973709377247
0.016,1.7936,1.0,2079.0410312299437,0.1650071561851284,1.3371691858118269,0.859039225512856,0.2883842,0.637490242790146
0.0165,1.7931937500000001,1.0,2121.5765435488233,0.16969080633129638,1.336544957193458,0.8654615751731661,0.2883671375,0.6388312875881809
0.017,1.792775,1.0,2161.905129764614,0.1743481843676727,1.3359420145209624,0.8714380203386008,0.28834955,0.6401242438762675
0.0175,1.7923437500000001,1.0,2200.1123995551534,0.17897943789044304,1.335358740515489,0.877007849007298,0.2883314375,0.6413728161985489
0.018000000000000002,1.7919,1.0,2236.2793371378607,0.18358471327350742,1.3347936649892167,0.8822062836961385,0.2883128,0.6425803631476025
0.0185,1.79144375,1.0,2270.5077259342693,0.18816415796549482,1.3342451971372051,0.8870648859798098,0.2882936375,0.6437504725469098
0.019,1.790975,1.0,2302.86911277473,0.1927179158275416,1.3337121273786396,0.8916121044225281,0.28827395,0.6448858929860415
0.0195,1.79049375,1.0,2333.4351681913704,0.19724613016034717,1.3331933089053039,0.8958735514946347,0.2882537375,0.6459892184334655
0.02,1.79,1.0,2362.2833661391137,0.20174894426461087,1.3326875949089816,0.899872310319397,0.288233,0.6470630235767774
0.0205,1.78949375,1.0,2389.4904648283227,0.20622650053090405,1.3321938971408958,0.9036292311535479,0.2882117375,0.6481097407600254
0.021,1.788975,1.0,2415.1381899959515,0.2106789419612268,1.3317111249686016,0.9071631662060893,0.28818995000000003,0.6491317907272475
0.021500000000000002,1.78844375,1.0,2439.2998002378768,0.21510640998311614,1.3312383106398689,0.9104912136721969,0.2881676375,0.6501313187641765
0.022,1.7879,1.0,2462.034356246827,0.21950904326841442,1.3307746575737986,0.9136289155649824,0.2881448,0.6511100953665059
0.0225,1.78734375,1.0,2483.403971321939,0.22388698048896394,1.3303193691894917,0.9165903900441997,0.28812143749999997,0.6520698799051541
0.023,1.786775,1.0,2503.4735569005666,0.22824036031660702,1.3298716489060491,0.9193884815707266,0.28809755,0.6530124210714421
0.0235,1.78619375,1.0,2522.305226041525,0.232569320432426,1.3294307507877905,0.9220349024144164,0.28807313749999996,0.6539393508781655
0.024,1.7856,1.0,2539.96133653407,0.2368739984518709,1.3289959478553763,0.9245403432947202,0.2880482,0.6548522522153779
0.0245,1.78499375,1.0,2556.512409020326,0.24115453307176724,1.3285664555319527,0.9269145637221887,0.2880227375,0.6557528198315349
0.025,1.784375,1.0,2572.0033970649833,0.24541105778993033,1.3281417466347512,0.9291665366074662,0.28799675,0.656642200623389
0.025500000000000002,1.78374375,1.0,2586.480681817092,0.2496437061041755,1.327721293981003,0.931304483673797,0.2879702375,0.6575215353042634
0.026000000000000002,1.7831000000000001,1.0,2599.9919531970068,0.25385261151231797,1.3273045703879403,0.9333359485412671,0.2879432,0.6583919585560136
0.0265,1.78244375,1.0,2612.586097245606,0.25803790751217304,1.3268910486727938,0.9352678618094902,0.2879156375,0.659254599163269
0.027,1.781775,1.0,2624.3124748162804,0.26219972733133784,1.3264802073521627,0.9371065998638995,0.28788755,0.6601105682630386
0.0275,1.7810937500000001,1.0,2635.214031741605,0.2663382009650815,1.3260715933913108,0.93885804484685,0.2878589375,0.6609608290282261
0.028,1.7804,1.0,2645.3439668937317,0.2704534643655228,1.3256646667897585,0.9405276108696823,0.2878298,0.6618065204232002
0.0285,1.77969375,1.0,2654.7361798162515,0.2745456455288053,1.3252590730195197,0.9421203204038063,0.2878001375,0.6626483910028149
0.029,1.778975,1.0,2663.4251775941275,0.2786148724510722,1.3248544575526084,0.9436408158946077,0.28776995,0.6634871856128843
0.029500000000000002,1.7782437500000001,1.0,2671.446021396848,0.28266127312846695,1.324450465861038,0.9450933934203685,0.2877392375,0.6643236454163117
0.03,1.7775,1.0,2678.8342758087097,0.28668497555713285,1.324046743416823,0.9464820329680635,0.287708,0.6651585079111979
0.0305,1.77674375,1.0,2685.6259609457734,0.2906861077332134,1.3236429356919768,0.9478104257028812,0.2876762375,0.6659925069409407
0.031,1.775975,1.0,2691.848875274217,0.29466479354040553,1.323238767167667,0.9490820073009931,0.28764395,0.6668262098211949
0.0315,1.7751937500000001,1.0,2697.5371163048426,0.29862116161442315,1.3228339077629785,0.9502999654008392,0.2876111375,0.6676602933625151
0.032,1.7744,1.0,2702.7314565278148,0.3025553434322542,1.3224279693754064,0.9514672592347728,0.2875778,0.6684955502692984
0.0325,1.77359375,1.0,2707.4533315087874,0.3064674604857254,1.3220207432132862,0.9525866630191694,0.2875439375,0.6693324009577895
0.033,1.772775,1.0,2711.7243870666434,0.310357634266663,1.3216120204849529,0.9536607625227869,0.28750955,0.6701712636466399
0.0335,1.7719437500000002,1.0,2715.566459585501,0.31422598626689385,1.3212015923987417,0.9546919701318007,0.2874746375,0.6710125543383694
0.034,1.7711000000000001,1.0,2719.0015572931375,0.31807263797824425,1.3207892501629879,0.9556825385398416,0.2874392,0.6718566867980484
0.0345,1.7702437500000001,1.0,2722.051842506114,0.3218977108925408,1.3203747849860266,0.9566345732030564,0.2874032375,0.6727040725292004
0.035,1.7693750000000001,1.0,2724.7396148411913,0.3257013265016101,1.3199579880761927,0.9575500436845948,0.28736675,0.6735551207469226
0.035500000000000004,1.76849375,1.0,2727.0872953936073,0.32948360629727863,1.3195386506418216,0.9584307939991581,0.2873297375,0.6744102383482267
0.036000000000000004,1.7676,1.0,2729.1172318545905,0.3332446714949915,1.3191165655277415,0.9592785521608925,0.2872922,0.6752698265490391
0.0365,1.76669375,1.0,2730.8467843077406,0.33698463483594,1.318691571743679,0.9600949414687905,0.2872541375,0.6761341903684426
0.037,1.765775,1.0,2732.30102878801,0.3407036263804124,1.3182634388748686,0.9608814824063184,0.28721555,0.6770037738378277
0.0375,1.76484375,1.0,2733.49291003048,0.3444017607968297,1.3178320473437977,0.9616396105984554,0.2871764375,0.6778787936264349
0.038,1.7639,1.0,2734.435423431718,0.34807915275361295,1.3173972775729528,0.962370675493871,0.28713679999999997,0.6787594648892793
0.0385,1.76294375,1.0,2735.1416088813385,0.35173591691918327,1.3169590099848214,0.9630759464805717,0.28709663750000003,0.6796460012418428
0.039,1.761975,1.0,2735.6245449100916,0.3553721679619617,1.3165171250018903,0.9637566185035016,0.28705595,0.6805386147338576
0.0395,1.7609937500000001,1.0,2735.8973431557356,0.35898802055036927,1.3160715030466472,0.9644138172296056,0.2870147375,0.6814375158221725
0.04,1.76,1.0,2735.97314314531,0.36258358935282703,1.3156220245415784,0.9650486038012603,0.286973,0.6823429133427146
0.0405,1.7589937500000001,1.0,2735.865107394532,0.3661589890377562,1.3151685699091717,0.9656619792149085,0.2869307375,0.6832550144815291
0.041,1.757975,1.0,2735.586416824515,0.36971433427357764,1.3147110195719138,0.9662548883580907,0.28688795,0.6841740247449186
0.0415,1.75694375,1.0,2735.1393091597656,0.3732497189503955,1.3142493534475013,0.9668282286552898,0.2868446375,0.6850999485262355
0.042,1.7559,1.0,2734.5487617625945,0.3767652815337415,1.3137833450853462,0.9673828385436998,0.28680079999999997,0.6860332026372785
0.0425,1.75484375,1.0,2733.8249903574647,0.3802611355105749,1.3133129021238672,0.9679195178696606,0.2867564375,0.6869739329168368
0.043000000000000003,1.753775,1.0,2732.9745324068517,0.3837373875294416,1.312837965658531,0.9684390251762252,0.28671155,0.687922216972678
0.043500000000000004,1.75269375,1.0,2732.0039304684983,0.38719414423888754,1.3123584767848049,0.9689420787429355,0.28666613750000003,0.6888781313159328
0.044,1.7516,1.0,2730.919730729218,0.3906315122874585,1.3118743765981562,0.9694293591209969,0.2866202,0.6898417513441054
0.0445,1.75049375,1.0,2729.728481616751,0.39404959832370057,1.311385606194052,0.9699015114845886,0.2865737375,0.6908131513238607
0.045,1.7493750000000001,1.0,2728.4367324877244,0.3974485089961596,1.3108921066679595,0.9703591478133171,0.28652675,0.6917924043735908
0.0455,1.74824375,1.0,2727.0510323928333,0.4008283509533814,1.3103938191153461,0.9708028489194768,0.2864792375,0.6927795824457583
0.046,1.7471,1.0,2725.5779289190946,0.40418923084391195,1.3098906846316787,0.9712331663325505,0.2864312,0.6937747563090226
0.0465,1.7459437500000001,1.0,2724.0239671088198,0.4075312553162972,1.3093826443124246,0.9716506240522818,0.28638263750000004,0.6947779955301396
0.047,1.744775,1.0,2722.3956884555273,0.41085453101908304,1.3088696392530508,0.9720557201806501,0.28633355,0.6957893684556451
0.0475,1.74359375,1.0,2720.699629977009,0.4141591646008153,1.3083516105490247,0.9724489284421877,0.28628393750000003,0.6968089421933119
0.048,1.7424,1.0,2718.9423233649327,0.41744526271003995,1.3078284992958134,0.9728306996012474,0.2862338,0.6978367825933911
0.0485,1.74119375,1.0,2717.129463218791,0.42071292900516044,1.3073002541594725,0.9732014629418151,0.2861831375,0.6988729393926136
0.049,1.739975,1.0,2715.261934677512,0.42396225098298085,1.30676686758513,0.9735616284014822,0.28613195,0.6999173754847171
0.0495,1.73874375,1.0,2713.351854850768,0.4271933601515716,1.306228229625238,0.9739115849440967,0.2860802375,0.7009702531268892
0.05,1.7375,1.0,2711.4018623954576,0.4304063546270239,1.3056843166313619,0.974251705198777,0.286028,0.7020315643036267
0.0505,1.73624375,1.0,2709.414593190585,0.4336013325254291,1.3051351049550666,0.97458234459491,0.2859752375,0.7031013001404991
0.051000000000000004,1.734975,1.0,2707.3926801494626,0.4367783919628785,1.3045805709479177,0.9749038423064081,0.28592195,0.7041794508961751
0.051500000000000004,1.73369375,1.0,2705.3387530443083,0.43993763105546335,1.3040206909614807,0.9752165221360486,0.2858681375,0.7052660059544129
0.052000000000000005,1.7324,1.0,2703.2554383429833,0.44307914791927494,1.3034554413473207,0.9755206933441848,0.2858138,0.7063609538160166
0.0525,1.73109375,1.0,2701.145359058616,0.4462030406704046,1.3028847984570033,0.9758166514257927,0.28575893750000003,0.7074642820907541
0.053,1.729775,1.0,2699.011134611042,0.44930940742494363,1.3023087386420937,0.9761046788394849,0.28570355000000003,0.708575977489242
0.0535,1.72844375,1.0,2696.855380701065,0.45239834629898334,1.3017272382541574,0.9763850456918532,0.2856476375,0.7096960258147926
0.054,1.7271,1.0,2694.6807091971805,0.45546995540861496,1.3011402736447597,0.9766580103802333,0.2855912,0.7108244119552272
0.0545,1.7257437500000001,1.0,2692.4897280340856,0.4585243328699298,1.300547821165466,0.9769238201967494,0.2855342375,0.7119611198746527
0.055,1.724375,1.0,2690.2850411243307,0.4615615767990192,1.2999498571678416,0.9771827118962783,0.28547675,0.7131061326052022
0.0555,1.72299375,1.0,2688.0692482819522,0.46458178531197436,1.2993463580034519,0.9774349122307656,0.2854187375,0.7142594322387412
0.056,1.7216,1.0,2685.84465843017,0.4675850482429368,1.29873730265121,0.9776806378361579,0.2853602,0.7154209949128809
0.0565,1.72019375,1.0,2683.6132714771943,0.4705714441916449,1.2981226728885096,0.9779200955028742,0.28530113749999997,0.7165907905287332
0.057,1.718775,1.0,2681.3779799819495,0.47354110622244705,1.2975024422764572,0.9781534879687144,0.28524155,0.7177688036975232
0.0575,1.71734375,1.0,2679.1397485034595,0.47649412375035405,1.2968766020209772,0.9783810067498899,0.2851814375,0.7189549846061171
0.058,1.7159,1.0,2676.899540009546,0.4794305861903769,1.2962451433279942,0.978602835619498,0.2851208,0.7201492826995414
0.0585,1.71444375,1.0,2674.6583158708263,0.4823505829575263,1.2956080574034325,0.9788191509801598,0.2850596375,0.7213516466778347
0.059000000000000004,1.7129750000000001,1.0,2672.417035856101,0.4852542034668132,1.2949653354532171,0.9790301222158669,0.28499795,0.7225620244928925
0.059500000000000004,1.71149375,1.0,2670.176658129842,0.48814153713324854,1.2943169686832725,0.9792359120243523,0.2849357375,0.7237803633453113
0.06,1.71,1.0,2667.9381392513055,0.491012673371843,1.2936629482995232,0.9794366767312072,0.284873,0.7250066096812231
0.0605,1.7084937500000001,1.0,2665.7024341753518,0.4938677015976077,1.2930032655078938,0.9796325665868737,0.2848097375,0.7262407091891285
0.061,1.7069750000000001,1.0,2663.4704962548544,0.4967067112255533,1.2923379115143088,0.9798237260475817,0.28474595,0.7274826067967226
0.0615,1.7054437500000001,1.0,2661.2432772447582,0.4995297916706908,1.2916668775246927,0.9800102940412028,0.2846816375,0.7287322466677166
0.062,1.7039,1.0,2659.0217273085977,0.502337032348031,1.2909901547449705,0.9801924042189457,0.2846168,0.7299895721986548
0.0625,1.70234375,1.0,2656.8067950253353,0.5051285226725848,1.2903077343810665,0.9803701851937466,0.2845514375,0.7312545260157275
0.063,1.7007750000000001,1.0,2654.59942739944,0.5079043520593631,1.2896196076389053,0.98054376076615,0.28448555,0.732527049971577
0.0635,1.69919375,1.0,2652.4005698716073,0.5106646099233767,1.2889257657244113,0.9807132501384259,0.28441913750000003,0.7338070851421001
0.064,1.6976,1.0,2650.211166331489,0.5134093856796365,1.2882261998435096,0.9808787681176189,0.2843522,0.7350945718232438
0.0645,1.69599375,1.0,2648.032159132492,0.5161387687431533,1.2875209012021243,0.9810404253081755,0.2842847375,0.7363894495278007
0.065,1.694375,1.0,2645.860377943825,0.5188528066392752,1.2868098989611412,0.9811983272217775,0.28421675,0.7376915875570791
0.0655,1.69274375,1.0,2643.697803399379,0.5215516156554463,1.286093174755559,0.9813525780752728,0.2841482375,0.7390009418312664
0.066,1.6911,1.0,2641.5473372045926,0.5242353097562893,1.2853707016802052,0.9815032777365144,0.2840792,0.7403174828525108
0.0665,1.6894437500000001,1.0,2639.408940068265,0.5269039687964088,1.284642479971599,0.9816505214886835,0.2840096375,0.7416411307258224
0.067,1.687775,1.0,2637.282572811584,0.5295576726304093,1.2839085098662606,0.9817944012613075,0.28393955,0.7429718049283145
0.0675,1.68609375,1.0,2635.168196368293,0.5321965011128955,1.2831687916007097,0.9819350057703505,0.2838689375,0.7443094243092916
0.068,1.6844000000000001,1.0,2633.0657717837003,0.534820534098472,1.2824233254114663,0.9820724206515009,0.2837978,0.7456539070903349
0.0685,1.68269375,1.0,2630.9752602142007,0.5374298514417433,1.2816721115350502,0.9822067285870228,0.2837261375,0.7470051708653898
0.069,1.680975,1.0,2628.8966229269336,0.540024532997314,1.2809151502079814,0.9823380094265294,0.28365395,0.7483631326008522
0.0695,1.67924375,1.0,2626.8298212989225,0.5426046586197888,1.2801524416667798,0.9824663403020077,0.28358123749999997,0.7497277086356555
0.07,1.6775,1.0,2624.774816817087,0.5451703081637723,1.2793839861479648,0.982591795737404,0.283508,0.7510988146813579
0.07050000000000001,1.67574375,1.0,2622.7315710770326,0.547721561483869,1.2786097838880566,0.9827144477530633,0.2834342375,0.7524763658222271
0.07100000000000001,1.673975,1.0,2620.700045782839,0.5502584984346834,1.277829835123575,0.9828343659652958,0.28335995,0.7538602765153287
0.07150000000000001,1.67219375,1.0,2618.6802027467197,0.5527811988708204,1.27704414009104,0.9829516176813318,0.2832851375,0.755250460590613
0.07200000000000001,1.6704,1.0,2616.6720038882036,0.5552897426468844,1.2762526990269714,0.9830662679899024,0.2832098,0.756646831251
0.0725,1.66859375,1.0,2614.675411233636,0.5577842096174799,1.2754555121678888,0.983178379847679,0.2831339375,0.7580493010724684
0.073,1.6667750000000001,1.0,2612.6903869158787,0.5602646796372117,1.2746525797503123,0.983288014161787,0.28305755,0.7594577820041402
0.0735,1.66494375,1.0,2610.716893173488,0.5627312325606844,1.273843902010762,0.9833952298685913,0.2829806375,0.7608721853683681
0.074,1.6631,1.0,2608.7548923503864,0.5651839482425023,1.273029479185757,0.9835000840089502,0.2829032,0.7622924218608236
0.0745,1.6612437500000001,1.0,2606.804346895143,0.5676229065372703,1.2722093115118178,0.9836026318001156,0.2828252375,0.7637184015505808
0.075,1.659375,1.0,2604.8652193607727,0.570048187299593,1.2713833992254642,0.9837029267044488,0.28274675,0.7651500338802052
0.0755,1.65749375,1.0,2602.9374724038908,0.5724598703840748,1.270551742563216,0.9838010204951121,0.2826677375,0.7665872276658396
