Time [s],Phi [rad],STIM [ ],Fsee [N],Gamma [ ],Lcerel [ ],q [ ],Lmtc [m],fisomrel [ ]
0.0,1.8,1.0,17.96797009124099,1.0010150330657139e-05,1.3793396552581456,0.005000026705684969,0.288653,0.5411397511117068
0.0005,1.79999375,1.0,18.277230347254147,0.005619163310097814,1.3793023337823755,0.01294054105537001,0.2886527375,0.5412300369491179
0.001,1.799975,1.0,21.618812841745527,0.011196853555561456,1.378938258064611,0.035608625870291566,0.28865195,0.5421103207109639
0.0015,1.79994375,1.0,31.069586610114335,0.01674325736965389,1.3780461738586458,0.07060177134464808,0.2886506375,0.5442636812207862
0.002,1.7999,1.0,53.58251531545017,0.02225855024365896,1.3763681234169818,0.11471791468499853,0.2886488,0.5483004964144758
0.0025,1.79984375,1.0,97.118721478725,0.02774290668477026,1.3739351776761755,0.16457475959570347,0.28864643749999996,0.5541214378070379
0.003,1.7997750000000001,1.0,160.95780075761957,0.033196500223813256,1.3712143574583753,0.21728031692182181,0.28864354999999997,0.5605864184208087
0.0035,1.79969375,1.0,237.6828632949266,0.03861950341483334,1.3685847486564398,0.270612752455303,0.2886401375,0.5667898056692255
0.004,1.7996,1.0,321.46625353640684,0.04401208784587885,1.3661561061107814,0.3229156702657579,0.2886362,0.5724799297123411
0.0045000000000000005,1.7994937500000001,1.0,409.2672201626837,0.04937442414418544,1.363922826622411,0.3730343833624834,0.2886317375,0.577679133492202
0.005,1.799375,1.0,499.41295607146304,0.05470668196726222,1.3618583539938174,0.42024734534784236,0.28862675,0.5824570524390471
0.0055,1.79924375,1.0,590.7898687718858,0.0600090300503886,1.3599388457517412,0.46417359226562516,0.2886212375,0.586875087113853
0.006,1.7991000000000001,1.0,682.5175562162568,0.06528163614969858,1.3581464247833228,0.5046798657635979,0.2886152,0.5909793954557516
0.006500000000000001,1.79894375,1.0,773.8807863461365,0.0705246670978503,1.3564672616663462,0.5418006726022669,0.2886086375,0.5948057760207164
0.007,1.798775,1.0,864.2852970003916,0.07573828878760061,1.3548904033024005,0.5756767028912628,0.28860155,0.5983826583031235
0.0075,1.79859375,1.0,953.2427989953705,0.08092266618154781,1.3534067855960428,0.6065098454094672,0.2885939375,0.6017335583376042
0.008,1.7984,1.0,1040.343442881063,0.08607796287118896,1.3520088673625876,0.6345321226111329,0.2885858,0.6048780526087634
0.0085,1.79819375,1.0,1125.3132484653238,0.09120434303177802,1.3506892553582257,0.6599843853262064,0.2885771375,0.6078349686744042
0.009000000000000001,1.797975,1.0,1207.9002703230599,0.0963019686340389,1.3494420338243631,0.6831041425098376,0.28856795,0.6106194674639435
0.0095,1.79774375,1.0,1287.8935286904734,0.10137100013260411,1.3482621062969946,0.7041174241538022,0.2885582375,0.6132445960382042
0.01,1.7975,1.0,1365.167746951169,0.10641159798210623,1.3471443763121136,0.723234182893405,0.288548,0.6157231568714084
0.0105,1.79724375,1.0,1439.6575724140296,0.11142392219528031,1.346083970502567,0.7406466357898466,0.2885372375,0.6180672364833495
0.011,1.796975,1.0,1511.3196104500603,0.11640813158216179,1.3450765854488131,0.7565291105989642,0.28852595000000003,0.6202874686702422
0.0115,1.79669375,1.0,1580.1193385021809,0.1213643833244816,1.3441185030567289,0.7710385892875563,0.2885141375,0.622393035248712
0.012,1.7964,1.0,1646.05725023608,0.12629283410722747,1.3432061621546847,0.7843155617252515,0.28850180000000003,0.624392634754631
0.0125,1.79609375,1.0,1709.173371250986,0.13119364053605084,1.3423360417251866,0.7964853051102012,0.2884889375,0.6262947529844748
0.013000000000000001,1.7957750000000001,1.0,1769.5051865680805,0.13606695761355472,1.3415050881943231,0.8076594772410535,0.28847555,0.628106743422792
0.0135,1.79544375,1.0,1827.0892585543547,0.14091293886882822,1.340710620295597,0.8179374564229049,0.2884616375,0.6298350549036658
0.014,1.7951000000000001,1.0,1881.9893616298161,0.14573173779453297,1.3399499616403585,0.8274075260961143,0.2884472,0.6314860445813737
0.0145,1.79474375,1.0,1934.2814503937673,0.15052350678250023,1.3392205765109102,0.8361481703448014,0.2884322375,0.633065690279355
0.015,1.794375,1.0,1984.056501294118,0.1552883987945146,1.3385200065684453,0.8442291815586073,0.28841675,0.6345797358191957
0.0155,1.79399375,1.0,2031.3741992961486,0.1600265633647042,1.3378463331700767,0.8517128222338516,0.2884007375,0.6360327014143288
0.016,1.7936,1.0,2076.3100913224266,0.16473815002719722,1.3371976376729178,0.8586545359002838,0.2883842,0.6374290597825372
0.0165,1.7931937500000001,1.0,2118.9528868774587,0.1694233081816082,1.3365720154218972,0.8651037596410416,0.2883671375,0.6387732092947775
0.017,1.792775,1.0,2159.3879805187794,0.1740821857967946,1.3359677305849693,0.8711046797334462,0.28834955,0.6400691454259742
0.0175,1.7923437500000001,1.0,2197.720187789264,0.1787149324494104,1.3353829665687422,0.8766967823931843,0.2883314375,0.6413210004322384
0.018000000000000002,1.7919,1.0,2234.0153826672185,0.1833216931384052,1.3348164055934653,0.8819155586398265,0.2883128,0.642531806586327
0.0185,1.79144375,1.0,2268.347644498717,0.18790261286272875,1.3342667298793884,0.8867928370611278,0.2882936375,0.6437045704583545
0.019,1.790975,1.0,2300.79858047154,0.19245783662133067,1.3337326216467609,0.8913572080323325,0.28827395,0.6448422743902422
0.0195,1.79049375,1.0,2331.4517174184093,0.19698750872986415,1.3332128119875957,0.8956344065875199,0.2882537375,0.6459477740029312
0.02,1.79,1.0,2360.3906382165073,0.20149177321440484,1.3327060917085103,0.8996476389903272,0.288233,0.6470237772322971
0.0205,1.78949375,1.0,2387.699070192483,0.20597077397267421,1.3322113034790695,0.903417864300876,0.2882117375,0.6480728630125562
0.021,1.788975,1.0,2413.4381395137466,0.21042465112673672,1.3317275556150179,0.9069640876114564,0.28818995000000003,0.6490970307579249
0.021500000000000002,1.78844375,1.0,2437.6728647309055,0.21485354479865687,1.3312539564321002,0.9103035176705465,0.2881676375,0.6500982664160724
0.022,1.7879,1.0,2460.4718357195916,0.21925759511049908,1.3307896142460616,0.9134517614296556,0.2881448,0.6510785430706052
0.0225,1.78734375,1.0,2481.9069102508424,0.22363694218432786,1.3303336373726464,0.9164229953016104,0.28812143749999997,0.6520398214928473
0.023,1.786775,1.0,2502.036855283376,0.22799172307669807,1.3298852867204707,0.9192301439039212,0.28809755,0.6529837296089058
0.0235,1.78619375,1.0,2520.946079052144,0.23232207983122619,1.3294436040540003,0.9218849439302707,0.28807313749999996,0.6539123461349206
0.024,1.7856,1.0,2538.6828630683844,0.23662814750850533,1.3290079960008891,0.9243981679117077,0.2880482,0.6548269724728282
0.0245,1.78499375,1.0,2555.2967397951084,0.24091006106087826,1.3285778745954033,0.9267796593144745,0.2880227375,0.6557288913468349
0.025,1.784375,1.0,2570.838910892271,0.24516795544068773,1.328152651871809,0.9290384245732777,0.28799675,0.6566193784103933
0.025500000000000002,1.78374375,1.0,2585.3621059340494,0.24940196560027655,1.3277317398643724,0.9311827156994923,0.2879702375,0.6574997024409163
0.026000000000000002,1.7831000000000001,1.0,2598.9203486390466,0.2536122264449571,1.3273145515402898,0.933220103859546,0.2879432,0.6583711235649841
0.0265,1.78244375,1.0,2611.5611895873753,0.2577988689414448,1.3269005717961488,0.9351575542757864,0.2879156375,0.6592347454060936
0.027,1.781775,1.0,2623.342618422687,0.261962031159984,1.326489198749076,0.9370014637008569,0.28788755,0.6600918466204925
0.0275,1.7810937500000001,1.0,2634.3016755004137,0.26610184255684544,1.3260800341497785,0.9387577509062066,0.2878589375,0.6609432759211713
0.028,1.7804,1.0,2644.4761841539553,0.2702184325883,1.3256726797489646,0.9404318735958727,0.2878298,0.6617898777587
0.0285,1.77969375,1.0,2653.9046831071396,0.27431193071061843,1.325266737297342,0.9420288703728963,0.2878001375,0.662632492372264
0.029,1.778975,1.0,2662.6263624034036,0.2783824663800717,1.3248618085456183,0.9435533983799282,0.28776995,0.6634719558305806
0.029500000000000002,1.7782437500000001,1.0,2670.6810028511045,0.28243016905293056,1.3244574952445014,0.9450097671070079,0.2877392375,0.6643091000627053
0.03,1.7775,1.0,2678.1004965929887,0.286455164270105,1.3240534764321639,0.9464019777636136,0.287708,0.6651445931512405
0.0305,1.77674375,1.0,2684.920642847008,0.29045758122251525,1.3236493993468643,0.9477337380242569,0.2876762375,0.6659791655051466
0.031,1.775975,1.0,2691.187607534202,0.29443755404022753,1.323244820103239,0.9490084798851588,0.28764395,0.6668137317488032
0.0315,1.7751937500000001,1.0,2696.9249442669898,0.2983952055444827,1.3228395053621103,0.9502294155841493,0.2876111375,0.6676487684233036
0.032,1.7744,1.0,2702.1564808174667,0.3023306585565212,1.3224332217842998,0.9513995331898091,0.2875778,0.668484749648586
0.0325,1.77359375,1.0,2706.906294320806,0.30624403589758387,1.3220257360306296,0.9525216149900071,0.2875439375,0.6693221471107503
0.033,1.772775,1.0,2711.1986876858696,0.31013546038891127,1.3216168147619216,0.9535982541606195,0.28750955,0.670161430045905
0.0335,1.7719437500000002,1.0,2715.0581672132557,0.3140050548517442,1.3212062246389982,0.9546318698936456,0.2874746375,0.6710030652205403
0.034,1.7711000000000001,1.0,2718.5094214202945,0.31785294210732323,1.3207937323226808,0.9556247211434855,0.2874392,0.6718475169084318
0.0345,1.7702437500000001,1.0,2721.5773010733815,0.32167924497688904,1.3203791044737916,0.9565789191322198,0.2874032375,0.6726952468640668
0.035,1.7693750000000001,1.0,2724.28680042703,0.32548408628168235,1.319962107753153,0.9574964387389963,0.28736675,0.6735467142926013
0.035500000000000004,1.76849375,1.0,2726.652379370784,0.329267580852041,1.3195426057701778,0.9583791371931992,0.2873297375,0.6744021782449131
0.036000000000000004,1.7676,1.0,2728.7064354606623,0.33302985814670805,1.3191202999141063,0.9592287413156989,0.2872922,0.6752622263479938
0.0365,1.76669375,1.0,2730.4651295303356,0.3367710359128439,1.3186950401070308,0.9600468828937716,0.2872541375,0.676127140979522
0.037,1.765775,1.0,2731.9422800990837,0.3404912300762886,1.318266698199991,0.9608350951222082,0.28721555,0.6769971582170784
0.0375,1.76484375,1.0,2733.151766129426,0.3441905565628822,1.3178351460440274,0.9615948179986636,0.2871764375,0.6778725125611345
0.038,1.7639,1.0,2734.1075199263055,0.3478691312984648,1.3174002554901798,0.9623274050186285,0.28713679999999997,0.6787534369093386
0.0385,1.76294375,1.0,2734.82352040132,0.3515270702088764,1.3169618983894886,0.9630341293187328,0.28709663750000003,0.679640162529756
0.039,1.761975,1.0,2735.313786700248,0.355164489219957,1.316519946592994,0.9637161893193558,0.28705595,0.680532919033062
0.0395,1.7609937500000001,1.0,2735.592372195655,0.3587815042575468,1.3160742719517358,0.9643747139123183,0.2870147375,0.6814319343436868
0.04,1.7600002384738904,1.0,2735.6852206915933,0.3623782312474857,1.3156247463167543,0.9650107672348199,0.28697301001590336,0.6823374346699123
0.0405,1.7590026801633172,1.0,2736.0343728747857,0.3659547747045527,1.3151710661414737,0.9656253355490452,0.2869311125668593,0.6832499970256595
0.041,1.758005121852744,1.0,2736.761595514481,0.36951126164370524,1.314713954094507,0.9662194429499733,0.28688921511781523,0.6841681348794661
0.0415,1.757007563542171,1.0,2737.828379504432,0.3730478066154422,1.31425376104276,0.9667940221082475,0.2868473176687712,0.6850911150206629
0.042,1.7560100052315977,1.0,2739.214042643889,0.37656451831854215,1.3137906764460958,0.9673499396735815,0.2868054202197271,0.6860185311718802
0.0425,1.7550124469210244,1.0,2740.897939726158,0.38006150545178363,1.3133248897643781,0.9678880151237262,0.286763522770683,0.686949979126723
0.043000000000000003,1.7540148886104512,1.0,2742.8594507898415,0.3835388767139452,1.31285659045747,0.9684090238158657,0.2867216253216389,0.6878850567835678
0.043500000000000004,1.7530173302998782,1.0,2745.07797016665,0.3869967408038054,1.312385967985235,0.9689136998112834,0.2866797278725949,0.6888233641770656
0.044,1.752019771989305,1.0,2747.5328963245324,0.39043520642014284,1.311913211807536,0.9694027384922309,0.2866378304235508,0.689764503507357
0.0445,1.7510222136787317,1.0,2750.2036225069205,0.39385438226173614,1.311438511384237,0.9698767989881875,0.2865959329745067,0.6907080791669976
0.045,1.7500246553681587,1.0,2753.069528168116,0.3972543770273637,1.310962056175201,0.9703365064271186,0.28655403552546266,0.6916536977655969
0.0455,1.7490270970575854,1.0,2756.109971203598,0.4006352994158043,1.3104840356402911,0.9707824540259379,0.28651213807641857,0.6926009681521634
0.046,1.7480295387470122,1.0,2759.304280977438,0.4039972581258363,1.310004639239371,0.9712152050330882,0.28647024062737453,0.6935495014351643
0.0465,1.7470319804364391,1.0,2762.6350385391443,0.4073403597855509,1.3095240267398895,0.9716352920753203,0.28642834317833044,0.6944989696132786
0.047,1.746034422125866,1.0,2766.0915317884273,0.4106647103680858,1.3090422970630864,0.972043216948159,0.2863864457292864,0.6954491665368976
0.0475,1.7450368638152927,1.0,2769.6608583532475,0.41397041656329103,1.3085595687264542,0.9724394584024995,0.2863445482802423,0.6963998486841346
0.048,1.7440393055047194,1.0,2773.3342916714478,0.41725758116405137,1.308075922351561,0.9728244688377976,0.2863026508311982,0.6973508484286829
0.0485,1.7430417471941464,1.0,2777.1030874369053,0.4205263069632516,1.3075914385599747,0.9731986789889709,0.2862607533821542,0.6983019991218281
0.049,1.7420441888835732,1.0,2780.958482030519,0.4237766967537764,1.3071061979732632,0.9735624991655435,0.2862188559331101,0.6992531350969606
0.0495,1.741046630573,1.0,2784.8916910955186,0.42700885332851063,1.3066202812129941,0.9739163204090191,0.286176958484066,0.7002040916736747
0.05,1.7400490722624269,1.0,2788.8939082567126,0.430222879480339,1.3061337689007355,0.9742605155745809,0.28613506103502195,0.7011547051614511
0.0505,1.7390515139518536,1.0,2792.9571214809775,0.43341887663998435,1.305646734312213,0.9745954397018024,0.28609316358597786,0.7021048271820138
0.051000000000000004,1.7380539556412804,1.0,2797.0793872843415,0.4365969373663707,1.3051591960375386,0.9749214270752867,0.28605126613693377,0.703054416689168
0.051500000000000004,1.7370563973307074,1.0,2801.2441228272046,0.43975718051034834,1.3046713039785431,0.9752388082726082,0.28600936868788973,0.7040031777168819
0.052000000000000005,1.7360588390201341,1.0,2805.447931756234,0.4428997027757703,1.3041830893747284,0.9755478890547893,0.28596747123884564,0.7049510463598406
0.0525,1.735061280709561,1.0,2809.6874080109264,0.4460246008664892,1.3036945834655973,0.9758489616491006,0.28592557378980155,0.7058979590996728
0.053,1.7340637223989879,1.0,2813.959135611124,0.44913197148635814,1.3032058174906522,0.9761423054660526,0.2858836763407575,0.7068438528055654
0.0535,1.7330661640884146,1.0,2818.259688465668,0.45222191133922995,1.3027168226893955,0.9764281877724666,0.2858417788917134,0.7077886647348122
0.054,1.7320686057778414,1.0,2822.585630203588,0.4552945171289575,1.3022276303013296,0.9767068643236617,0.2857998814426693,0.7087323325332999
0.0545,1.7310710474672684,1.0,2826.933514026162,0.45834988555939365,1.3017382715659571,0.9769785799575741,0.2857579839936253,0.7096747942359334
0.055,1.7300734891566951,1.0,2831.299882580749,0.4613881133343912,1.3012487777227804,0.9772435691533998,0.2857160865445812,0.7106159882669989
0.0555,1.7290759308461219,1.0,2835.6812678567244,0.4644092971578032,1.3007591800113019,0.9775020565571578,0.2856741890955371,0.7115558534404633
0.056,1.7280783725355486,1.0,2840.074191102552,0.46741353373348243,1.3002695096710242,0.977754257476392,0.28563229164649306,0.7124943289602128
0.0565,1.7270808142249756,1.0,2844.475162764528,0.47040091976528176,1.2997797979414496,0.9780003783460637,0.28559039419744897,0.7134313544202285
0.057,1.7260832559144024,1.0,2848.883742612207,0.47337153706869395,1.299290048835386,0.9782406142792185,0.2855484967484049,0.7143669217733171
0.0575,1.7250856976038291,1.0,2853.296565401464,0.47632548944364,1.2988002923574078,0.9784751559270438,0.28550659929936084,0.7153009734921162
0.058,1.724088139293256,1.0,2857.7092694566454,0.47926288482758944,1.2983105672710273,0.9787041871153669,0.28546470185031675,0.7162334357603248
0.0585,1.7230905809826829,1.0,2862.1210064850598,0.4821838123329844,1.297820881033461,0.9789278809864138,0.28542280440127266,0.7171642947080773
0.059000000000000004,1.7220930226721096,1.0,2866.530925611983,0.4850883610722672,1.2973312411019255,0.9791464038618564,0.2853809069522286,0.7180935365586372
0.059500000000000004,1.7210954643615364,1.0,2870.9381733876285,0.48797662015787996,1.296841654933637,0.9793599155654316,0.2853390095031845,0.7190211476283788
0.06,1.7200979060509634,1.0,2875.3418937954903,0.4908486787022649,1.2963521299858118,0.9795685697278651,0.28529711205414043,0.7199471143267617
0.0605,1.7191003477403901,1.0,2879.741228262013,0.49370462581786434,1.2958626737156667,0.9797725140752075,0.2852552146050964,0.7208714231563041
0.061,1.7181027894298169,1.0,2884.135315666863,0.4965445506171204,1.2953732935804179,0.9799718907016006,0.2852133171560523,0.7217940607125519
0.0615,1.7171052311192438,1.0,2888.5232923554695,0.4993685422124753,1.2948839970372819,0.9801668363274323,0.2851714197070082,0.7227150136840446
0.062,1.7161076728086706,1.0,2892.904292151927,0.5021766897163712,1.2943947915434748,0.9803574825437633,0.2851295222579642,0.7236342688522769
0.0625,1.7151101144980974,1.0,2897.2774463732644,0.5049690822412504,1.2939056845562134,0.9805439560438596,0.2850876248089201,0.724551813091657
0.063,1.7141125561875243,1.0,2901.6418838454865,0.507745808899555,1.293416683532714,0.9807263788425962,0.285045727359876,0.7254676333694614
0.0635,1.713114997876951,1.0,2905.9967309203735,0.5105069588037274,1.292927795930193,0.9809048684844598,0.28500382991083195,0.7263817167457882
0.064,1.7121174395663779,1.0,2910.341111493351,0.5132526210662096,1.292439029205867,0.9810795382408178,0.28496193246178786,0.7272940503735016
0.0645,1.7111198812558048,1.0,2914.6741470231614,0.515982884799444,1.291950390816952,0.9812504972970849,0.28492003501274377,0.728204621498179
0.065,1.7101223229452316,1.0,2918.9964484105567,0.5186978079107761,1.2914618751077827,0.9814178481001229,0.28487813756369973,0.7291134418324468
0.0655,1.7091247646346583,1.0,2923.306929437747,0.5213975033267589,1.2909734913463813,0.9815816940270374,0.28483624011465564,0.7300204953242901
0.066,1.708127206324085,1.0,2927.6046710949868,0.5240820730628266,1.2904852473068849,0.9817421339622036,0.28479434266561154,0.730925768804394
0.0665,1.707129648013512,1.0,2931.8896223672273,0.5267515976764807,1.289997143129154,0.9818992615051239,0.2847524452165675,0.731829263319289
0.067,1.7061320897029388,1.0,2936.161732322576,0.5294061577252228,1.289509178953049,0.9820531670151921,0.2847105477675234,0.7327309799168731
0.0675,1.7051345313923656,1.0,2940.4209501131036,0.5320458337665546,1.2890213549184313,0.9822039377468713,0.2846686503184793,0.73363091964641
0.068,1.7041369730817926,1.0,2944.667224975143,0.5346707063579775,1.2885336711651607,0.9823516579783194,0.2846267528694353,0.7345290835585296
0.0685,1.7031394147712193,1.0,2948.9005062296233,0.5372808560569934,1.2880461278330984,0.9824964091338247,0.2845848554203912,0.7354254727052244
0.069,1.702141856460646,1.0,2953.1207432827073,0.5398763634211036,1.2875587250621046,0.9826382699003902,0.2845429579713471,0.73632008813985
0.0695,1.701144298150073,1.0,2957.327885626194,0.5424573090078098,1.28707146299204,0.9827773163387816,0.28450106052230306,0.7372129309171234
0.07,1.7001467398394998,1.0,2961.521882837613,0.5450237733746136,1.2865843417627654,0.9829136219893444,0.28445916307325897,0.7381040020931202
0.07050000000000001,1.6991491815289266,1.0,2965.7026845812775,0.5475758370790167,1.2860973615141413,0.9830472579728614,0.28441726562421493,0.7389933027252766
0.07100000000000001,1.6981516232183536,1.0,2969.8702406080356,0.5501135806785206,1.2856105223860284,0.9831782930867236,0.28437536817517084,0.7398808338723852
0.07150000000000001,1.6971540649077803,1.0,2974.0245007563917,0.5526370847306268,1.2851238245182872,0.9833067938966558,0.2843334707261268,0.7407665965945949
