Time [s],Phi [rad],STIM [ ],Fsee [N],Gamma [ ],Lcerel [ ],q [ ],Lmtc [m],fisomrel [ ]
0.0,1.8,1.0,18.032899197244493,0.000261449820496869,1.379332387750758,0.005017754237292794,0.288653,0.5411573329187137
0.0005,1.79999375,1.0,18.423770991124826,0.005869192602603397,1.3792860886827147,0.013653317638604587,0.2886527375,0.5412693333283414
0.001,1.799975,1.0,21.952108267565613,0.011445480381446611,1.3789043473817453,0.0369309094127175,0.28865195,0.5421922689260641
0.0015,1.79994375,1.0,31.807477921483734,0.01699048959571162,1.37798367729762,0.07240392582367447,0.2886506375,0.5444143485222217
0.002,1.7999,1.0,55.12475518888143,0.022504395692223608,1.3762687807225888,0.11684719579629838,0.2886488,0.5485389179003073
0.0025,1.79984375,1.0,99.67101152150943,0.027987373134905704,1.3738129863675261,0.16688805439075854,0.28864643749999996,0.5544127908896421
0.003,1.7997750000000001,1.0,164.25289401212905,0.03343959541041268,1.3710916437022038,0.21966478935561848,0.28864354999999997,0.5608768876734586
0.0035,1.79969375,1.0,241.3916804156685,0.038861235029517306,1.36847094937985,0.27298295894607866,0.2886401375,0.5670572686961483
0.004,1.7996,1.0,325.4037193961461,0.0442524635372681,1.366052134997926,0.3252096742076561,0.2886362,0.57272268642685
0.0045000000000000005,1.7994937500000001,1.0,413.3389530034962,0.049613451518388904,1.3638274840207318,0.3752112977055207,0.2886317375,0.5779003886197198
0.005,1.799375,1.0,503.563172799136,0.05494436858907795,1.3617703446498897,0.4222835427767548,0.28862675,0.5826601330736609
0.0055,1.79924375,1.0,594.973510317382,0.060245383434854936,1.3598572516995413,0.4660584872605631,0.2886212375,0.5870623673445567
0.006,1.7991000000000001,1.0,686.7025691456807,0.06551666377849207,1.3580704686146676,0.5064118849516662,0.2886152,0.5911528683229348
0.006500000000000001,1.79894375,1.0,778.0372164223844,0.07075837638785537,1.3563964036714886,0.5433842203807316,0.2886086375,0.594966847736063
0.007,1.798775,1.0,868.3912420751337,0.07597068718752704,1.3548241576976976,0.57711973255178,0.28860155,0.598532580083289
0.0075,1.79859375,1.0,957.2732554439099,0.08115376092645028,1.3533448583874366,0.6078223029829484,0.2885939375,0.6018731219743699
0.008,1.7984,1.0,1044.308369695858,0.08630776189199947,1.3519505468967994,0.6357244667802763,0.2885858,0.6050089685556245
0.0085,1.79819375,1.0,1129.1753709794825,0.0914328529182305,1.3506346287095066,0.6610675946152723,0.2885771375,0.6079571337683243
0.009000000000000001,1.797975,1.0,1211.6296281019966,0.09652919603523004,1.349391115857035,0.6840887359722507,0.28856795,0.6107329341842344
0.0095,1.79774375,1.0,1291.5103911734723,0.10159695301965746,1.3482142791140221,0.7050129191362208,0.2885582375,0.6133508157560648
0.01,1.7975,1.0,1368.680655007618,0.10663628386965196,1.3470992549673557,0.7240494663630742,0.288548,0.6158230459218961
0.0105,1.79724375,1.0,1443.051079561333,0.11164734783512531,1.3460415231270308,0.7413899651394302,0.2885372375,0.6181609192344534
0.011,1.796975,1.0,1514.5805067560389,0.11663030352667672,1.3450367736194804,0.7572079261497704,0.28852595000000003,0.6203750792418987
0.0115,1.79669375,1.0,1583.26495122289,0.12158530939597684,1.3440809425272917,0.7716594040649991,0.2885141375,0.6224754623390644
0.012,1.7964,1.0,1649.0897505699793,0.1265125213898894,1.3431706836030248,0.784884283862008,0.28850180000000003,0.6244702867201296
0.0125,1.79609375,1.0,1712.0780698841088,0.1314120953029664,1.3423026905609772,0.7970072845813543,0.2884889375,0.6263675638862115
0.013000000000000001,1.7957750000000001,1.0,1772.269244947565,0.136284186100097,1.3414738964852675,0.8081394647616637,0.28847555,0.6281746748060231
0.0135,1.79544375,1.0,1829.743620257092,0.14112894928257172,1.3406811414854123,0.8183794907015933,0.2884616375,0.6298991066205246
0.014,1.7951000000000001,1.0,1884.5474965648486,0.14594653725753967,1.3399219682990853,0.8278152749507073,0.2884472,0.6315467329964148
0.0145,1.79474375,1.0,1936.7379307143556,0.15073710185695285,1.3391940608159527,0.8365249710288007,0.2884322375,0.6331230519999482
0.015,1.794375,1.0,1986.3930795235676,0.15550079491276333,1.3384951029256802,0.8445780486363901,0.28841675,0.6346334990284859
0.0155,1.79399375,1.0,2033.5926464759748,0.16023776714889582,1.337822965092755,0.8520363708731316,0.2884007375,0.6360830492855207
0.016,1.7936,1.0,2078.4395251818582,0.1649481697597121,1.337175450901076,0.8589550107292564,0.2883842,0.6374767707578319
0.0165,1.7931937500000001,1.0,2121.001672471946,0.1696321507154797,1.3365508845070788,0.8653832314393589,0.2883671375,0.6388185654894862
0.017,1.792775,1.0,2161.35482527258,0.17428985770817035,1.3359476353420214,0.8713650294247441,0.28834955,0.6401122012375772
0.0175,1.7923437500000001,1.0,2199.5857455340924,0.17892143842975575,1.335364072837162,0.8769397435030336,0.2883314375,0.641361411511705
0.018000000000000002,1.7919,1.0,2235.77496916114,0.1835270390759208,1.3347987301862847,0.8821426453900841,0.2883128,0.6425695480409801
0.0185,1.79144375,1.0,2270.0276860973954,0.18810680739980778,1.3342499815222308,0.8870053305447323,0.2882936375,0.6437402737639935
0.019,1.790975,1.0,2302.411915904547,0.19266088698838796,1.3337166519511905,0.8915562948401501,0.28827395,0.644876263426301
0.0195,1.79049375,1.0,2332.9994647269127,0.19718942118889596,1.3331975924252768,0.8958211837667168,0.2882537375,0.6459801160778034
0.02,1.79,1.0,2361.8679558485983,0.20169255334856645,1.3326916538966025,0.8998231097454453,0.288233,0.6470544114398702
0.0205,1.78949375,1.0,2389.094211163278,0.20617042588988674,1.3321977468332573,0.9035829492788507,0.2882117375,0.6481015848179436
0.021,1.788975,1.0,2414.760015426257,0.21062318178993883,1.3317147794496058,0.9071195779144032,0.28818995000000003,0.6491240596131995
0.021500000000000002,1.78844375,1.0,2438.9395019825884,0.21505096260745074,1.331241775079395,0.910450113117893,0.2881676375,0.6501240001347306
0.022,1.7879,1.0,2461.69132773415,0.2194539069752147,1.330777940685598,0.9135901166003759,0.2881448,0.6511031695018975
0.0225,1.78734375,1.0,2483.077198112339,0.22383215352602293,1.330322483231188,0.9165537241200418,0.28812143749999997,0.6520633197448391
0.023,1.786775,1.0,2503.161613557852,0.22818584089266766,1.3298746096791387,0.9193537958839009,0.28809755,0.6530061922482011
0.0235,1.78619375,1.0,2522.008115889814,0.23251510709668952,1.3294335602218237,0.9220020552157336,0.28807313749999996,0.6539334483404786
0.024,1.7856,1.0,2539.6741810190792,0.2368200888538912,1.3289986537025376,0.9245092130121301,0.2880482,0.6548465748147889
0.0245,1.78499375,1.0,2556.2367608875943,0.2411009257232241,1.328569044520847,0.9268850287916681,0.2880227375,0.6557473947151076
0.025,1.784375,1.0,2571.7402424078914,0.24535775114317065,1.3281442108224115,0.9291384865920048,0.28799675,0.6566370436981401
0.025500000000000002,1.78374375,1.0,2586.2304324108914,0.24959069855221327,1.3277236307528912,0.9312778181674896,0.2879702375,0.6575166512950976
0.026000000000000002,1.7831000000000001,1.0,2599.7544400948173,0.2537999013888344,1.3273067824579454,0.9333105761935667,0.2879432,0.658387341061949
0.0265,1.78244375,1.0,2612.360565512054,0.2579854930915164,1.3268931440832337,0.9352436994553031,0.2879156375,0.6592502307123032
0.027,1.781775,1.0,2624.0981940944357,0.26214760709874185,1.326482193774416,0.9370835709830103,0.28788755,0.6601064322329231
0.0275,1.7810937500000001,1.0,2635.011194835181,0.26628637303761105,1.326073469831675,0.9388360774399782,0.2878589375,0.6609569268875375
0.028,1.7804,1.0,2645.1512556568437,0.2704019269773592,1.3256664461392211,0.9405066405915673,0.2878298,0.6618028248056435
0.0285,1.77969375,1.0,2654.5527912140933,0.27449439711226736,1.325260763291275,0.9421002871906277,0.2878001375,0.6626448847677845
0.029,1.778975,1.0,2663.250459500861,0.27856391143963033,1.3248560652789652,0.9436216639840673,0.28776995,0.663483854755959
0.029500000000000002,1.7782437500000001,1.0,2671.2794745392935,0.28261059795674287,1.3244519960934205,0.9450750709747775,0.2877392375,0.664320479052918
0.03,1.7775,1.0,2678.675555452413,0.2866345846608998,1.3240481997257691,0.9464644917350694,0.287708,0.6651554982604848
0.0305,1.77674375,1.0,2685.474878347132,0.290635999549396,1.3236443201671397,0.9477936207096526,0.2876762375,0.6659896493097894
0.031,1.775975,1.0,2691.703833357618,0.2946149653423496,1.3232400947498681,0.949065898029265,0.28764395,0.6668234730423989
0.0315,1.7751937500000001,1.0,2697.398618665957,0.2985716120848273,1.3228351741067181,0.9502845122268332,0.2876111375,0.6676576860952965
0.032,1.7744,1.0,2702.599660028777,0.30250607175134203,1.3224291732883913,0.9514524258015219,0.2875778,0.6684930746574125
0.0325,1.77359375,1.0,2707.328337731882,0.3064184656434583,1.3220218839890665,0.9525724154450874,0.2875439375,0.6693300581381767
0.033,1.772775,1.0,2711.606242193742,0.31030891506274044,1.3216130979029224,0.9536470692060163,0.28750955,0.6701690537540985
0.0335,1.7719437500000002,1.0,2715.455154325423,0.3141775413107528,1.3212026067241376,0.9546788015722205,0.2874746375,0.6710104765102647
0.034,1.7711000000000001,1.0,2718.8970268524986,0.3180244656890598,1.3207902021468911,0.9556698671769546,0.2874392,0.6718547391790712
0.0345,1.7702437500000001,1.0,2721.9539665992484,0.3218498094992258,1.3203756758653613,0.9566223732681812,0.2874032375,0.6727022522761893
0.035,1.7693750000000001,1.0,2724.648217734281,0.32565369404281513,1.3199588195737273,0.9575382910659479,0.28736675,0.6735534240337597
0.035500000000000004,1.76849375,1.0,2727.0021459791224,0.3294362406213922,1.3195394249661674,0.9584194661185724,0.2873297375,0.6744086603708261
0.036000000000000004,1.7676,1.0,2729.0382237779436,0.33319757053652144,1.3191172837368608,0.9592676277563107,0.2872922,0.6752683648609946
0.0365,1.76669375,1.0,2730.775524970443,0.33693780421812786,1.3186922193086126,0.9600844007534467,0.2872541375,0.6761328742096657
0.037,1.765775,1.0,2732.231788891762,0.3406570590367879,1.3182640679206656,0.9608713105960284,0.28721555,0.67700249703632
0.0375,1.76484375,1.0,2733.423368575419,0.3443554518935182,1.317832678991525,0.9616297913065753,0.2871764375,0.6778775132814742
0.038,1.7639,1.0,2734.363336724441,0.348033099361454,1.3173979322266023,0.9623611936646445,0.28713679999999997,0.6787581397266492
0.0385,1.76294375,1.0,2735.064969058382,0.35169011796527305,1.3169597058979103,0.9630667881322633,0.28709663750000003,0.6796445945060912
0.039,1.7619804796097196,1.0,2735.811363459625,0.355326623038446,1.3165179034852208,0.9637477727401198,0.28705618014360823,0.6805370432822719
0.0395,1.761017183892824,1.0,2736.921119002865,0.35894273152072764,1.3160727921149666,0.9644053094496462,0.2870157217234986,0.6814349173617638
0.04,1.7600538881759284,1.0,2738.36797718449,0.3625385565789511,1.3156246235227531,0.9650404911487069,0.28697526330338896,0.6823376818434961
0.0405,1.7590905924590328,1.0,2740.1244562840284,0.36611421137994943,1.3151736494441857,0.9656543484750562,0.2869348048832794,0.6832448045154131
0.041,1.7581272967421373,1.0,2742.1630946242226,0.3696698090905555,1.3147201216148696,0.9662478540225513,0.28689434646316975,0.684155755901536
0.0415,1.7571640010252416,1.0,2744.4574152412065,0.37320546247542946,1.31426428289028,0.9668219253958764,0.2868538880430601,0.6850700271028638
0.042,1.7562007053083462,1.0,2746.983174962702,0.3767212838826747,1.3138063558259079,0.9673774279019458,0.28681342962295053,0.6859871525614276
0.0425,1.7552374095914505,1.0,2749.717889242686,0.380217385308348,1.3133465469240742,0.9679151783589542,0.2867729712028409,0.6869067013098182
0.043000000000000003,1.7542741138745548,1.0,2752.6447567576183,0.3836938762861043,1.3128850110653851,0.9684359450287662,0.28673251278273126,0.6878283477379268
0.043500000000000004,1.7533108181576593,1.0,2755.7469608617853,0.3871508663495984,1.3124219031304474,0.96894045531123,0.2866920543626217,0.6887517679985631
0.044,1.7523475224407636,1.0,2759.0076639229324,0.39058846503248507,1.311957377999868,0.9694293983299028,0.28665159594251205,0.6896766400237486
0.0445,1.7513842267238682,1.0,2762.415324706609,0.3940067776529417,1.3114915424636622,0.9699034229716177,0.28661113752240247,0.6906027390740068
0.045,1.7504209310069725,1.0,2765.9510185353342,0.3974059162694912,1.311024569826401,0.9703631508076141,0.28657067910229284,0.6915297097075965
0.0455,1.749457635290077,1.0,2769.596100428305,0.40078599365305106,1.3105566305119642,0.9708091715775988,0.28653022068218326,0.692457204225304
0.046,1.7484943395731813,1.0,2773.342570087246,0.40414711411585674,1.3100877985706103,0.9712420369049768,0.2864897622620736,0.6933850675307163
0.0465,1.7475310438562857,1.0,2777.182410625095,0.4074893819701434,1.3096181480525966,0.9716622709279225,0.286449303841964,0.69431314539694
0.047,1.7465677481393902,1.0,2781.107587161109,0.41081290152814637,1.3091477530081808,0.9720703719321818,0.2864088454218544,0.6952412844706406
0.0475,1.7456044524224945,1.0,2785.110045537275,0.41411777710210085,1.3086766874876212,0.9724668138720598,0.2863683870017448,0.6961693322757316
0.048,1.744641156705599,1.0,2789.181711157425,0.41740411300424224,1.3082050255411755,0.97285204778823,0.28632792858163514,0.6970971372167201
0.0485,1.7436778609887034,1.0,2793.314487946938,0.4206720135468057,1.3077328412191014,0.973226503130259,0.28628747016152556,0.6980245485816944
0.049,1.742714565271808,1.0,2797.500257433976,0.42392158304202654,1.3072602085716567,0.9735905889910736,0.2862470117414159,0.6989514165449682
0.0495,1.7417512695549122,1.0,2801.7308779531027,0.42715292580214015,1.3067872016490998,0.9739446952599848,0.2862065533213063,0.6998775921693705
0.05,1.7407879738380165,1.0,2806.005299435267,0.4303661333569412,1.3063138307125528,0.9742891879513038,0.2861660949011967,0.7008030520223264
0.0505,1.739824678121121,1.0,2810.3111923941115,0.43356132360417227,1.3058402070406445,0.9746244259607358,0.2861256364810871,0.7017275757568102
0.051000000000000004,1.7388613824042254,1.0,2814.643760148643,0.4367385983069531,1.305366374149482,0.9749507455338918,0.28608517806097744,0.7026510763354545
0.051500000000000004,1.73789808668733,1.0,2819.0002845224126,0.43989805498632967,1.3048923568337674,0.9752684660697839,0.28604471964086786,0.7035735036490773
0.052000000000000005,1.7369347909704342,1.0,2823.3780390150396,0.44303979116334785,1.3044181798882017,0.9755778927037606,0.2860042612207582,0.7044948078876099
0.0525,1.7359714952535388,1.0,2827.7742887081126,0.4461639043590535,1.303943868107487,0.9758793170695483,0.2859638028006486,0.7054149395403652
0.053,1.735008199536643,1.0,2832.186290183915,0.44927049209449255,1.3034694462863248,0.9761730180142175,0.285923344380539,0.7063338493962737
0.0535,1.7340449038197476,1.0,2836.611291458016,0.45235965189071087,1.3029949392194167,0.9764592622693642,0.2858828859604294,0.7072514885440753
0.054,1.733081608102852,1.0,2841.046531925994,0.4554314812687544,1.3025203717014644,0.9767383050815382,0.2858424275403198,0.708167808372474
0.0545,1.7321183123859563,1.0,2845.4892423229217,0.458486077749669,1.3020457685271696,0.9770103908047182,0.28580196912021016,0.7090827605702535
0.055,1.7311550166690608,1.0,2849.9366446974173,0.46152353885450054,1.3015711544912338,0.9772757534574213,0.2857615107001006,0.7099962971263533
0.0555,1.7301917209521651,1.0,2854.385952398423,0.46454396210429494,1.3010965543883588,0.9775346172468333,0.28572105227999095,0.7109083703299046
0.056,1.7292284252352697,1.0,2858.83437007635,0.46754744502009804,1.300621993013246,0.9777871970621737,0.2856805938598813,0.7118189327702291
0.0565,1.728265129518374,1.0,2863.2840585691138,0.47053405613862337,1.300147451098683,0.9780336937651877,0.28564013543977174,0.7127280216803689
0.057,1.7273018338014785,1.0,2867.728436854835,0.47350392784501977,1.2996729869588062,0.978274310217115,0.2855996770196621,0.7136355257882244
0.0575,1.7263385380845828,1.0,2872.166461629987,0.47645715293453716,1.2991986096575927,0.9785092347190386,0.28555921859955247,0.7145414285043479
0.058,1.7253752423676874,1.0,2876.597564406754,0.47939382101046046,1.2987243240273358,0.9787386475105854,0.2855187601794429,0.7154457214107502
0.0585,1.7244119466507917,1.0,2881.0211750687577,0.4823140216760745,1.2982501349003297,0.9789627216729827,0.28547830175933325,0.7163483961477524
0.059000000000000004,1.723448650933896,1.0,2885.4367218822226,0.4852178445346642,1.2977760471088673,0.9791816234702782,0.2854378433392236,0.7172494444139593
0.059500000000000004,1.7224853552170005,1.0,2889.8436315057256,0.4881053791895144,1.2973020654852423,0.9793955126717024,0.28539738491911404,0.7181488579662267
0.06,1.7215220595001048,1.0,2894.2413290015206,0.4909767152439099,1.2968281948617484,0.9796045428563609,0.2853569264990044,0.7190466286196299
0.0605,1.7205587637832094,1.0,2898.6292378473336,0.4938319423011356,1.296354440070679,0.9798088617013484,0.28531646807889477,0.7199427482474309
0.061,1.7195954680663137,1.0,2903.0067799485532,0.4966711499644764,1.2958808059443276,0.9800086112543139,0.2852760096587852,0.7208372087810432
0.0615,1.7186321723494182,1.0,2907.3733756504257,0.49949442783721715,1.295407297314988,0.9802039281914234,0.28523555123867556,0.7217300022099946
0.062,1.7176688766325225,1.0,2911.7284437518815,0.5023018655226427,1.2949339190149534,0.9803949440616118,0.2851950928185659,0.7226211205818908
0.0625,1.7167055809156269,1.0,2916.0714015188705,0.5050935526240379,1.2944606758765174,0.9805817855179503,0.28515463439845634,0.7235105560023743
0.063,1.7157422851987314,1.0,2920.401664698516,0.5078695787446875,1.2939875727319734,0.9807645745368962,0.2851141759783467,0.7243983006350849
0.0635,1.7147789894818357,1.0,2924.718647534124,0.5106300334878766,1.2935146144136154,0.9809434286261538,0.28507371755823707,0.7252843467016157
0.064,1.7138156937649403,1.0,2929.021762780342,0.5133750064568898,1.2930418057537365,0.9811184610218083,0.2850332591381275,0.7261686864814711
0.0645,1.7128523980480446,1.0,2933.311078493752,0.5161045652461489,1.2925691458259225,0.9812897790308899,0.28499280071801786,0.7270513230570474
0.065,1.711889102331149,1.0,2937.586711306696,0.5188187967716299,1.2920966332821564,0.9814574874795996,0.2849523422979083,0.7279322602845326
0.0655,1.7109258066142534,1.0,2941.847644614495,0.5215178239286008,1.2916242767015844,0.9816216904346603,0.28491188387779864,0.7288114835404265
0.066,1.7099625108973577,1.0,2946.093916533448,0.5242017273986062,1.2911520754120027,0.9817824849336696,0.284871425457689,0.7296889954824091
0.0665,1.7089992151804623,1.0,2950.3255655621065,0.5268705878631907,1.290680028741208,0.9819399646304765,0.28483096703757943,0.7305647987596
0.067,1.7080359194635666,1.0,2954.542630579031,0.5295244860038992,1.290208136016997,0.9820942199373232,0.2847905086174698,0.7314388960125643
0.0675,1.7070726237466711,1.0,2958.745150840871,0.5321635025022762,1.289736396567166,0.9822453381600464,0.2847500501973602,0.7323112898733225
0.068,1.7061093280297754,1.0,2962.9331659795225,0.5347877180398664,1.2892648097195116,0.982393403626733,0.2847095917772506,0.7331819829653531
0.0685,1.70514603231288,1.0,2967.106716000301,0.5373972132982143,1.2887933748018303,0.9825384978101794,0.28466913335714095,0.734050977903602
0.069,1.7041827365959843,1.0,2971.2658412794262,0.5399920689588649,1.2883220911419189,0.9826806994445054,0.28462867493703137,0.7349182772944867
0.0695,1.7032194408790886,1.0,2975.4105825618703,0.5425723657033626,1.2878509580675734,0.9828200846362279,0.28458821651692173,0.7357838837359059
0.07,1.7022561451621931,1.0,2979.540980959,0.5451381842132523,1.2873799749065908,0.9829567269701055,0.2845477580968121,0.7366477998172425
0.07050000000000001,1.7012928494452975,1.0,2983.657077946619,0.5476896051700785,1.2869091409867675,0.9830906976100227,0.2845072996767025,0.7375100281193725
0.07100000000000001,1.700329553728402,1.0,2987.7589153621143,0.5502267092553859,1.2864384556359,0.983222065395187,0.2844668412565929,0.73837057121467
0.07150000000000001,1.6993662580115063,1.0,2991.8465354031337,0.5527495771507192,1.2859679181817847,0.9833508969318824,0.28442638283648325,0.7392294316670156
