Time [s],Phi [rad],STIM [ ],Fsee [N],Gamma [ ],Lcerel [ ],q [ ],Lmtc [m],fisomrel [ ]
0.0,1.8,1.0,17.96786958663497,1.0135971885264364e-05,1.379339666517784,0.005000027378554851,0.288653,0.5411397238717361
0.0005,1.79999375,1.0,18.2771815142154,0.005619288425893087,1.3793023392067072,0.012940890568544312,0.2886527375,0.5412300238275511
0.001,1.799975,1.0,21.61886324826327,0.011196977969556007,1.3789382529163816,0.03560928217489726,0.28865195,0.54211033315268
0.0015,1.79994375,1.0,31.069836657278397,0.016743381085784395,1.378046152555649,0.07060266999810683,0.2886506375,0.5442637325824965
0.002,1.7999,1.0,53.5831611150319,0.02225867326583965,1.3763680815210089,0.11471897908521558,0.2886488,0.5483005969776633
0.0025,1.79984375,1.0,97.11987536901078,0.027743029016893885,1.3739351220730598,0.16457591751099768,0.28864643749999996,0.5541215704088198
0.003,1.7997750000000001,1.0,160.95933895775926,0.03319662186975037,1.3712142998821522,0.2172815113573174,0.28864354999999997,0.5605865547289657
0.0035,1.79969375,1.0,237.6846223630139,0.03861962437843282,1.3685846944725362,0.270613940341518,0.2886401375,0.5667899330375867
0.004,1.7996,1.0,321.468138886518,0.04401220813096812,1.3661560561750914,0.32291682038023123,0.2886362,0.5724800463211203
0.0045000000000000005,1.7994937500000001,1.0,409.26918254935225,0.04937454375457076,1.3639227805577414,0.37303547506036644,0.2886317375,0.5776792404053636
0.005,1.799375,1.0,499.4149665064874,0.05470680090672973,1.3618583112722595,0.42024836665897447,0.28862675,0.5824571510305757
0.0055,1.79924375,1.0,590.7919032392062,0.060009148322696604,1.3599388060031994,0.46417453779929646,0.2886212375,0.5868751783577526
0.006,1.7991000000000001,1.0,682.5195990393942,0.06528175375859122,1.3581463876502484,0.5046807346555715,0.2886152,0.5909794802712947
0.006500000000000001,1.79894375,1.0,773.8828237636159,0.07052478404704995,1.3564672268863054,0.5418014670026062,0.2886086375,0.5948058550892452
0.007,1.798775,1.0,864.2873085268704,0.0757384050808105,1.3548903708098117,0.5756774268599221,0.28860155,0.5983827318446249
0.0075,1.79859375,1.0,953.2447754973101,0.08092278182244982,1.3534067551954094,0.6065105038769837,0.2885939375,0.6017336268566709
0.008,1.7984,1.0,1040.3459339416765,0.08607807788842517,1.3520088306864961,0.6345327161393206,0.2885858,0.6048781349449162
0.0085,1.79819375,1.0,1125.3158845491512,0.09120445741114892,1.3506892180409764,0.6599849228475324,0.2885771375,0.607835052135869
0.009000000000000001,1.797975,1.0,1207.9020076319807,0.09630208233732963,1.3494420100861115,0.6831046371774585,0.28856795,0.6106195203666389
0.0095,1.79774375,1.0,1287.8943889617601,0.1013711131660025,1.3482620949133126,0.7041178798050047,0.2885582375,0.613244621322037
0.01,1.7975,1.0,1365.168968338551,0.1064117103962028,1.3471443606139917,0.723234595177565,0.288548,0.615723191625966
0.0105,1.79724375,1.0,1439.660475462208,0.11142403400394282,1.346083934168685,0.74064700097547,0.2885372375,0.6180673166783333
0.011,1.796975,1.0,1511.3231390987505,0.11640824276963078,1.3450765423448314,0.7565294398757396,0.28852595000000003,0.6202875635310452
0.0115,1.79669375,1.0,1580.1221737421452,0.12136449387070859,1.3441184691854136,0.7710388935930768,0.2885141375,0.6223931095838253
0.012,1.7964,1.0,1646.0588181374617,0.12629294396762336,1.3432061438026783,0.7843158463869864,0.28850180000000003,0.6243926749237733
0.0125,1.79609375,1.0,1709.1754442233305,0.13119374982147453,1.3423360179136352,0.7964855637023692,0.2884889375,0.6262948049714134
0.013000000000000001,1.7957750000000001,1.0,1769.5078588427423,0.13606706634217444,1.3415050580266101,0.8076597120201486,0.28847555,0.6281068091270461
0.0135,1.79544375,1.0,1827.0924594638595,0.14091304701414448,1.3407105847340453,0.8179376700314711,0.2884616375,0.6298351321753348
0.014,1.7951000000000001,1.0,1881.993290890317,0.14573184532180603,1.3399499186283828,0.8274077197529677,0.2884472,0.6314861378334055
0.0145,1.79474375,1.0,1934.2813080098413,0.15052361363730693,1.339220578048316,0.8361483644517644,0.2884322375,0.6330656869533366
0.015,1.794375,1.0,1984.0550058803537,0.15528850499915392,1.3385200225115104,0.8442293660380439,0.28841675,0.6345797013992556
0.0155,1.79399375,1.0,2031.3746883511576,0.16002666903227078,1.337846328017196,0.8517129865220203,0.2884007375,0.6360327125168918
0.016,1.7936,1.0,2076.313254768267,0.1647382551642981,1.3371976047042413,0.8586546796143114,0.2883842,0.6374291306815122
0.0165,1.7931937500000001,1.0,2118.957996274954,0.16942341282287654,1.3365719627115162,0.8651038870239819,0.2883671375,0.6387733224378754
0.017,1.792775,1.0,2159.391693295932,0.1740822899314576,1.3359676926429245,0.8711048022870758,0.28834955,0.6400692267225429
0.0175,1.7923437500000001,1.0,2197.721202385182,0.1787150358419231,1.3353829562910824,0.8766969039812195,0.2883314375,0.6413210224153505
0.018000000000000002,1.7919,1.0,2234.0147543678,0.18332179579287447,1.3348164119061048,0.8819156764541123,0.2883128,0.6425317931068928
0.0185,1.79144375,1.0,2268.3468619645755,0.18790271485233137,1.3342667376819266,0.8867929475943872,0.2882936375,0.6437045538248791
0.019,1.790975,1.0,2300.7995738035597,0.1924579380883135,1.3337326118124833,0.8913573071816743,0.28827395,0.6448422953214872
0.0195,1.79049375,1.0,2331.4534259898714,0.19698760946703645,1.3332127951838062,0.895634497638371,0.2882537375,0.6459478097123559
0.02,1.79,1.0,2360.3978569904416,0.20149187399866275,1.3327060211485144,0.8996477121898617,0.288233,0.6470239269500135
0.0205,1.78949375,1.0,2387.7074498785255,0.2059708742330535,1.3322112220414726,0.9034179302198926,0.2882117375,0.6480730355539267
0.021,1.788975,1.0,2413.4455713710977,0.21042475056026225,1.331727483775018,0.9069641510895465,0.28818995000000003,0.6490971827432883
0.021500000000000002,1.78844375,1.0,2437.6795364356803,0.21485364337034257,1.3312538922614867,0.9103035785004335,0.2881676375,0.6500984019821918
0.022,1.7879,1.0,2460.4802789776345,0.21925769305334797,1.3307895334132156,0.9134518149623296,0.2881448,0.6510787135977906
0.0225,1.78734375,1.0,2481.915705869823,0.2236370386109916,1.330333553530834,0.9164230441870423,0.28812143749999997,0.6520399981240166
0.023,1.786775,1.0,2502.0567014872654,0.227991820362614,1.3298850983047594,0.9192301702207145,0.28809755,0.6529841260091174
0.0235,1.78619375,1.0,2520.9673839024035,0.2323221770988333,1.3294434025502337,0.9218849658156573,0.28807313749999996,0.6539127695029485
0.024,1.7856,1.0,2538.6991508654796,0.236628244108019,1.3290078424880136,0.9243981965076974,0.2880482,0.6548272945834899
0.0245,1.78499375,1.0,2555.3052828683626,0.24091015667854057,1.3285777943388553,0.9267796986200607,0.2880227375,0.6557290595261893
0.025,1.784375,1.0,2570.840784527502,0.2451680500987675,1.3281526343235146,0.9290384722159502,0.28799675,0.6566194151356433
0.025500000000000002,1.78374375,1.0,2585.3622345936205,0.24940205965706927,1.327731738662748,0.931182763622189,0.2879702375,0.6574997049524625
0.026000000000000002,1.7831000000000001,1.0,2598.9179894975523,0.2536123181583891,1.3273145735161043,0.9332201523452395,0.2879432,0.6583710776912334
0.0265,1.78244375,1.0,2611.5632797308144,0.2577989617617541,1.3269005523732842,0.9351575946516028,0.2879156375,0.6592347858993677
0.027,1.781775,1.0,2623.348542776209,0.26196212435912314,1.3264891438202149,0.9370014969810265,0.28788755,0.6600919609934408
0.0275,1.7810937500000001,1.0,2634.3108222220035,0.2661019355800279,1.3260799495206819,0.9387577781080776,0.2878589375,0.6609434519151454
0.028,1.7804,1.0,2644.4879454376282,0.2702185250540003,1.3256725711384703,0.940431895732582,0.2878298,0.6617901033420217
0.0285,1.77969375,1.0,2653.918455921077,0.27431202241057195,1.3252666103373651,0.9420288884475057,0.2878001375,0.6626327557386501
0.029,1.778975,1.0,2662.6415491632683,0.27838255727927463,1.3248616687811523,0.9435534133807831,0.28776995,0.6634722453977198
0.029500000000000002,1.7782437500000001,1.0,2670.697012031108,0.2824302592896402,1.3244573481336168,0.9450097800041058,0.2877392375,0.6643094044709853
0.03,1.7775,1.0,2678.116256021408,0.28645525536000654,1.3240533318170224,0.9464019905289835,0.287708,0.6651448920225981
0.0305,1.77674375,1.0,2684.938139412924,0.29045767532995714,1.3236492389950933,0.94773374901994,0.2876762375,0.6659794964856408
0.031,1.775975,1.0,2691.203060958467,0.2944376482918346,1.3232446786413359,0.9490084926604034,0.28764395,0.6668140233739143
0.0315,1.7751937500000001,1.0,2696.935421148298,0.2983952978969268,1.3228394095579101,0.9502294327685648,0.2876111375,0.667648965676977
0.032,1.7744,1.0,2702.1599001537934,0.3023307477965215,1.3224331905469766,0.9513995565560299,0.2875778,0.6684848138829627
0.0325,1.77359375,1.0,2706.9014320742094,0.3062441216419066,1.3220257804106954,0.9525216455119532,0.2875439375,0.6693220559658246
0.033,1.772775,1.0,2711.1851804725197,0.31013554308436997,1.3216169379512268,0.953598292067607,0.28750955,0.6701611773688672
0.0335,1.7719437500000002,1.0,2715.0365152014083,0.31400513577519934,1.3212064219707313,0.9546319147206004,0.2874746375,0.6710026609845678
0.034,1.7711008081031763,1.0,2718.5210597060127,0.31785302336568255,1.3207939912713693,0.9556247717774986,0.2874392339403334,0.6718469871306908
0.0345,1.7702553028311334,1.0,2722.112430770526,0.3216793249257594,1.3203794509193356,0.9565789777612097,0.2874037227189076,0.67269453899434
0.035,1.7694097975590903,1.0,2725.8932869696873,0.3254841673106843,1.3199632086135018,0.957496577475386,0.2873682114974818,0.6735444679009972
0.035500000000000004,1.7685642922870475,1.0,2729.8438208510806,0.32926766989846734,1.3195454479240654,0.9583794587692551,0.287332700276056,0.6743963861958178
0.036000000000000004,1.7677187870150046,1.0,2733.948625991436,0.3330299504838602,1.3191263120701502,0.9592293854777306,0.2872971890546302,0.6752499902567127
0.0365,1.7668732817429615,1.0,2738.192262094533,0.3367711268616144,1.3187059442708795,0.9600480112567095,0.2872616778332044,0.6761049779541042
0.037,1.7660277764709187,1.0,2742.559250852073,0.34049131682648165,1.3182844877453772,0.9608368877131658,0.2872261666117786,0.6769610486628279
0.0375,1.7651822711988756,1.0,2747.0340722590045,0.3441906381732135,1.317862085712767,0.9615974718487973,0.28719065539035277,0.6778179032727347
0.038,1.7643367659268328,1.0,2751.601161383954,0.3478692086965615,1.3174388813921725,0.9623311328820989,0.28715514416892696,0.6786752441979791
0.0385,1.7634912606547897,1.0,2756.246642188847,0.35152714460983286,1.317015002294501,0.9630391567054859,0.28711963294750115,0.6795328071435507
0.039,1.7626457553827468,1.0,2760.9613883771813,0.35516455974464184,1.3165905326054803,0.9637227490891406,0.28708412172607534,0.6803904166600074
0.0395,1.761800250110704,1.0,2765.727716655012,0.35878157714447084,1.3161656335152498,0.9643830545380723,0.2870486105046496,0.681247742933357
0.04,1.7609547448386609,1.0,2770.539613898231,0.3623783085622873,1.315740360384009,0.9650211400983889,0.28701309928322377,0.6821046709967351
0.0405,1.760109239566618,1.0,2775.3910466886005,0.3659548657510588,1.3153147685719557,0.9656380122878785,0.28697758806179796,0.682961086480912
0.041,1.759263734294575,1.0,2780.2759608880565,0.36951136046375266,1.314888913439289,0.9662346211688984,0.28694207684037215,0.6838168756155103
0.0415,1.758418229022532,1.0,2785.188281281699,0.3730479044533366,1.3144628503462075,0.9668118641064102,0.28690656561894634,0.6846719252300342
0.042,1.757572723750489,1.0,2790.1219112886574,0.37656460947277787,1.3140366346529093,0.9673705892385123,0.28687105439752053,0.6855261227547039
0.0425,1.7567272184784462,1.0,2795.0707327405507,0.38006158727504413,1.3136103217195936,0.9679115986841946,0.2868355431760947,0.6863793562210874
0.043000000000000003,1.755881713206403,1.0,2800.028605728418,0.3835389496131028,1.3131839669064589,0.9684356515106931,0.2868000319546689,0.6872315142625449
0.043500000000000004,1.7550362079343602,1.0,2804.991867422678,0.38699680197151215,1.3127576031673347,0.9689434637169911,0.2867645207332431,0.6880825308068368
0.044,1.7541907026623174,1.0,2809.956842455147,0.39043525386684574,1.3123312634518476,0.9694357143534934,0.28672900951181735,0.6889323401485095
0.0445,1.7533451973902743,1.0,2814.9150666256587,0.3938544283617344,1.311905023456416,0.9699130525168005,0.28669349829039154,0.6897807919089687
0.045,1.7524996921182314,1.0,2819.864999774812,0.3972544300411538,1.3114788966910103,0.9703760864106048,0.2866579870689657,0.6906278600642569
0.0455,1.7516541868461883,1.0,2824.8050965159055,0.4006353634900795,1.311052896665601,0.9708253933427589,0.2866224758475399,0.6914735187370502
0.046,1.7508086815741455,1.0,2829.733806271007,0.40399733329348714,1.3106270368901587,0.9712615215942765,0.2865869646261141,0.6923177421965561
0.0465,1.7499631763021024,1.0,2834.6495733109414,0.40734044403635244,1.3102013308746536,0.9716849921579733,0.2865514534046883,0.6931605048583982
0.047,1.7491176710300596,1.0,2839.550836799392,0.41066480030365105,1.3097757921290565,0.9720963003570008,0.2865159421832625,0.6940017812844885
0.0475,1.7482721657580167,1.0,2844.436030840845,0.4139705066803585,1.3093504341633377,0.9724959173526324,0.28648043096183673,0.6948415461828905
0.048,1.7474266604859736,1.0,2849.3035845327177,0.41725766775145057,1.3089252704874679,0.9728842915498521,0.28644491974041086,0.6956797744076684
0.0485,1.7465811552139308,1.0,2854.151922021832,0.42052638810190274,1.3085003146114174,0.9732618499085621,0.2864094085189851,0.6965164409587261
0.049,1.7457356499418877,1.0,2858.9794625641,0.4237767723166908,1.3080755800451567,0.9736289991675665,0.2863738972975593,0.6973515209816334
0.0495,1.7448901446698448,1.0,2863.784620589293,0.42700892498079035,1.3076510802986565,0.9739861269878811,0.2863383860761335,0.6981849897674414
0.05,1.7440446393978017,1.0,2868.566538383148,0.4302229428578424,1.3072268223861239,0.9743336016822821,0.2863028748547077,0.6990168354799908
0.0505,1.7431991341257589,1.0,2873.325758237251,0.43341891774233116,1.3068028008988255,0.9746717732660334,0.28626736363328187,0.6998470706652922
0.051000000000000004,1.7423536288537158,1.0,2878.0594281334666,0.4365969807747876,1.3063790404954296,0.9750009821849382,0.28623185241185606,0.7006756490596298
0.051500000000000004,1.741508123581673,1.0,2882.7675896279866,0.439757228146493,1.305955540164522,0.9753215479468527,0.28619634119043025,0.7015025747533024
0.052000000000000005,1.74066261830963,1.0,2887.450285101837,0.44289975604872844,1.3055322988946882,0.9756337757990658,0.2861608299690045,0.7023278518243843
0.0525,1.739817113037587,1.0,2892.1075577546203,0.44602466067277524,1.305109315674514,0.9759379574892193,0.2861253187475786,0.703151484338743
0.053,1.7389716077655442,1.0,2896.7394515995625,0.44913203820991476,1.304686589492585,0.9762343719792627,0.2860898075261529,0.7039734763500543
0.0535,1.738126102493501,1.0,2901.3460114567533,0.4522219848514281,1.3042641193374866,0.9765232861157173,0.28605429630472706,0.7047938318998205
0.054,1.7372805972214582,1.0,2905.927282948177,0.4552945967885965,1.3038419041978047,0.9768049552592841,0.28601878508330125,0.7056125550173855
0.0545,1.7364350919494151,1.0,2910.4833124915385,0.4583499702127013,1.303419943062125,0.9770796238765775,0.28598327386187544,0.7064296497199518
0.055,1.7355895866773723,1.0,2915.014147294693,0.4613882013150236,1.302998234919033,0.9773475260965682,0.28594776264044963,0.7072451200125973
0.0555,1.7347440814053294,1.0,2919.519835350098,0.4644093862868447,1.3025767787571143,0.9776088862341173,0.2859122514190238,0.7080589698882918
0.056,1.7338985761332864,1.0,2924.00042542881,0.46741362131944586,1.3021555735649546,0.9778639192828066,0.285876740197598,0.7088712033279123
0.0565,1.7330530708612435,1.0,2928.4559670752205,0.47040100260410833,1.3017346183311398,0.9781128313791018,0.28584122897617226,0.7096818243002596
0.057,1.7322075655892004,1.0,2932.8865106010635,0.47337162633211327,1.301313912044255,0.9783558202397402,0.2858057177547464,0.7104908367620759
0.0575,1.7313620603171576,1.0,2937.2921070803695,0.47632558869474195,1.3008934536928864,0.9785930755740919,0.28577020653332064,0.7112982446580574
0.058,1.7305165550451145,1.0,2941.6728146168216,0.47926297441176785,1.3004732422106886,0.9788247784818632,0.28573469531189477,0.7121040520261379
0.0585,1.7296710497730716,1.0,2946.0290404682637,0.4821838304413125,1.3000532734832295,0.9790510995095121,0.285699184090469,0.7129082687244843
0.059000000000000004,1.7288255445010288,1.0,2950.3612224384915,0.485088331528895,1.2996335431446453,0.9792722132113636,0.2856636728690432,0.7137109050465115
0.059500000000000004,1.7279800392289857,1.0,2954.669669019091,0.4879765637700145,1.2992140479749588,0.9794882799282206,0.2856281616476174,0.714511969051145
0.06,1.7271345339569428,1.0,2958.954690148026,0.4908486132601701,1.2987947847541925,0.9796994537939554,0.2855926504261916,0.715311468761785
0.0605,1.7262890286848998,1.0,2963.216597193266,0.49370456609486113,1.298375750262369,0.9799058830238888,0.2855571392047658,0.7161094121663534
0.061,1.725443523412857,1.0,2967.455702936039,0.49654450836958663,1.297956941279511,0.9801077101876293,0.28552162798334,0.7169058072173409
0.0615,1.7245980181408138,1.0,2971.672321554684,0.4993685261798459,1.2975383545856405,0.9803050724673208,0.28548611676191415,0.7177006618318549
0.062,1.723752512868771,1.0,2975.8667686090403,0.502176705621138,1.2971199869607806,0.9804981019021849,0.2854506055404884,0.7184939838916633
0.0625,1.7229070075967279,1.0,2980.0393610239435,0.5049691327889622,1.2967018351849535,0.9806869256201838,0.28541509431906253,0.7192857812432419
0.063,1.722061502324685,1.0,2984.1904170746234,0.5077458937788175,1.296283896038182,0.9808716660575731,0.2853795830976368,0.7200760616978182
0.0635,1.7212159970526422,1.0,2988.320256370449,0.5105070746862033,1.2958661663004887,0.9810524411670626,0.28534407187621097,0.7208648330314145
0.064,1.720370491780599,1.0,2992.429199840723,0.5132527616066186,1.2954486427518959,0.9812293646152557,0.28530856065478516,0.7216521029848936
0.0645,1.7195249865085562,1.0,2996.5175697193645,0.5159830406355628,1.2950313221724261,0.9814025459699979,0.28527304943335935,0.7224378792639992
0.065,1.7186794812365132,1.0,3000.58568953027,0.5186979978685348,1.2946142013421023,0.9815720908782135,0.28523753821193354,0.7232221695393981
0.0655,1.7178339759644703,1.0,3004.6338840732806,0.5213977194010339,1.2941972770409464,0.9817381012347859,0.28520202699050773,0.724004981446724
0.066,1.7169884706924272,1.0,3008.662479409626,0.5240822913285592,1.2937805460489815,0.9819006753429877,0.2851665157690819,0.7247863225866144
0.0665,1.7161429654203844,1.0,3012.6718028484547,0.52675179974661,1.2933640051462298,0.9820599080669471,0.28513100454765616,0.725566200524754
0.067,1.7152974601483413,1.0,3016.6621829325277,0.5294063307506854,1.2929476511127143,0.9822158909765931,0.2850954933262303,0.7263446227919115
0.0675,1.7144519548762984,1.0,3020.6339494256945,0.5320459704362848,1.2925314807284571,0.9823687124855064,0.28505998210480454,0.7271215968839806
0.068,1.7136064496042556,1.0,3024.5874332985645,0.534670804898907,1.2921154907734809,0.9825184579820674,0.28502447088337873,0.7278971302620166
0.0685,1.7127609443322125,1.0,3028.5229667164044,0.5372809202340513,1.291699678027808,0.982665209954274,0.2849889596619529,0.728671230352274
0.069,1.7119154390601696,1.0,3032.440883025928,0.5398764025372169,1.2912840392714615,0.9828090481085738,0.2849534484405271,0.7294439045462426
0.0695,1.7110699337881266,1.0,3036.3407694559146,0.5424572721055262,1.290868577724665,0.9829500457249036,0.2849179372191013,0.7302151482539241
0.07,1.7102244285160837,1.0,3040.2238326351244,0.5450236865334214,1.290453282653895,0.9830882814350266,0.2848824259976755,0.7309849827665069
0.07050000000000001,1.7093789232440406,1.0,3044.09034432868,0.5475757268199917,1.2900381514011916,0.9832238269625394,0.2848469147762497,0.7317534143232763
0.07100000000000001,1.7085334179719978,1.0,3047.9405180060535,0.5501134689470394,1.2896231818183375,0.9833567514114797,0.2848114035548239,0.7325204481933107
