Time [s],Phi [rad],STIM [ ],Fsee [N],Gamma [ ],Lcerel [ ],q [ ],Lmtc [m],fisomrel [ ]
0.0,1.8,1.0,19.355740307819946,0.0012035183581610945,1.3791870734969052,0.0053714355685110645,0.288653,0.5415088115205761
0.0005,1.79999375,1.0,20.008140727832778,0.0068059768807248126,1.379114414400164,0.01658291616491305,0.2886527375,0.5416845050829746
0.001,1.799975,1.0,24.241245127543202,0.012377010040744516,1.3786780821489106,0.04209551097359639,0.28865195,0.54273887149242
0.0015,1.79994375,1.0,35.744556032166095,0.017916794109735356,1.3776618359564095,0.07930422856941709,0.2886506375,0.5451898522386291
0.002,1.7999,1.0,62.24622863688979,0.023425504370250885,1.3758271167309675,0.12491082946450584,0.2886488,0.5495981451839533
0.0025,1.79984375,1.0,110.50494897148909,0.02890331512225731,1.373310942613527,0.17559167835145423,0.28864643749999996,0.555608865194515
0.003,1.7997750000000001,1.0,177.64779498790472,0.03435039968688813,1.3706050401579197,0.22859855567184634,0.28864354999999997,0.5620277557702382
0.0035,1.79969375,1.0,256.1506573480101,0.03976693041324217,1.368026531632725,0.28183650258984805,0.2886401375,0.5681009949438359
0.004,1.7996,1.0,340.8863837773668,0.04515307868251673,1.3656492828225268,0.3337595369853563,0.2886362,0.5736626338372824
0.0045000000000000005,1.7994937500000001,1.0,429.22768118672127,0.0505090149269999,1.3634598559288291,0.38331151504243904,0.2886317375,0.5787529755363354
0.005,1.799375,1.0,519.6645803348976,0.05583490859649715,1.3614322848683984,0.4298512704093088,0.28862675,0.5834397431594672
0.0055,1.79924375,1.0,611.141813321453,0.06113092822777485,1.3595445846223337,0.4730579629779475,0.2886212375,0.5877796290457702
0.006,1.7991000000000001,1.0,702.8117609315074,0.06639724133474646,1.3577802321938242,0.5128400921845528,0.2886152,0.5918153872810372
0.006500000000000001,1.79894375,1.0,793.9977912539267,0.07163401466170832,1.3561260542814029,0.5492591458051408,0.2886086375,0.5955811016006356
0.007,1.798775,1.0,884.1100005506415,0.07684141370373372,1.3545719863050134,0.5824722749339112,0.28860155,0.599103018264405
0.0075,1.79859375,1.0,972.7016874885119,0.08201960352277957,1.3531089997409622,0.6126897498848413,0.2885939375,0.6024044461158711
0.008,1.7984,1.0,1059.3814810891204,0.08716874771953252,1.3517298393336152,0.6401470426413787,0.2885858,0.6055042095738177
0.0085,1.79819375,1.0,1143.8451391023136,0.09228900911838865,1.3504279830873391,0.6650854972262685,0.2885771375,0.6084190965221288
0.009000000000000001,1.797975,1.0,1225.884852198181,0.09738055020670161,1.3491972038598363,0.6877404042454964,0.28856795,0.6111649005627293
0.0095,1.79774375,1.0,1305.3189490631096,0.10244353169056965,1.3480322962350977,0.7083345866004634,0.2885582375,0.6137548494174911
0.01,1.7975,1.0,1382.0216466173192,0.10747811363991823,1.3469284226750453,0.7270744515148727,0.288548,0.616201114605246
0.0105,1.79724375,1.0,1455.929367312766,0.11248445564696259,1.345880888588914,0.7441484474558909,0.2885372375,0.6185153409086201
0.011,1.796975,1.0,1527.0008316692235,0.11746271635839022,1.3448855267059932,0.7597271650707321,0.28852595000000003,0.6207078235610003
0.0115,1.79669375,1.0,1595.2051084146406,0.1224130526705956,1.3439387082979932,0.773964015136142,0.2885141375,0.6227875157344003
0.012,1.7964,1.0,1660.551700506426,0.12733562109722749,1.3430368789979257,0.7869961440101004,0.28850180000000003,0.6247630728551101
0.0125,1.79609375,1.0,1723.0845800059412,0.13223057819390863,1.342176572025785,0.7989458047354505,0.2884889375,0.6266428365965651
0.013000000000000001,1.7957750000000001,1.0,1782.8465959754003,0.13709807910242056,1.3413547577746494,0.8099219173119828,0.28847555,0.6284340859203139
0.0135,1.79544375,1.0,1839.8738904905188,0.14193827682465068,1.3405688327801566,0.8200214313340299,0.2884616375,0.6301430807996229
0.014,1.7951000000000001,1.0,1894.2292668661028,0.1467513243624864,1.3398161935779436,0.8293304687562875,0.2884472,0.6317760031320077
0.0145,1.79474375,1.0,1945.9913527436872,0.15153737408991094,1.339094328363518,0.8379255816142973,0.2884322375,0.6333387642592305
0.015,1.794375,1.0,1995.247945018471,0.15629657853618997,1.3384008589579701,0.845874873320987,0.28841675,0.6348369217363139
0.0155,1.79399375,1.0,2042.0749218376031,0.1610290883519412,1.337733734125405,0.853239046803114,0.2884007375,0.6362752705156578
0.016,1.7936,1.0,2086.539471218641,0.16573505217396864,1.3370911604653346,0.8600722503058703,0.2883842,0.6376580023473661
0.0165,1.7931937500000001,1.0,2128.722485210297,0.17041461863907628,1.336471344577271,0.8664227741640441,0.2883671375,0.6389892674692712
0.017,1.792775,1.0,2168.715941674905,0.17506793622934433,1.335872507879406,0.8723337491206377,0.28834955,0.6402731455701478
0.0175,1.7923437500000001,1.0,2206.60497417206,0.17969515194591226,1.3352930561748968,0.8778438014381932,0.2883314375,0.6415132859722497
0.018000000000000002,1.7919,1.0,2242.4902156755434,0.1842964143044098,1.3347313379986296,0.8829875168739987,0.2883128,0.6427134290868851
0.0185,1.79144375,1.0,2276.4375223281168,0.18887186730705377,1.33418613864058,0.8877960350130747,0.2882936375,0.6438763544021016
0.019,1.790975,1.0,2308.5197939999407,0.1934216549560612,1.3336562433907229,0.8922973361336624,0.28827395,0.6450048190254807
0.0195,1.79049375,1.0,2338.8163937267072,0.197945921253649,1.333140437539033,0.8965166029395213,0.2882537375,0.6461015589167782
0.02,1.79,1.0,2367.408639098259,0.20244480955348504,1.332637545032607,0.9004765460225811,0.288233,0.6471692080187514
0.0205,1.78949375,1.0,2394.375773784523,0.2069184627286869,1.3321464614802891,0.9041976880386448,0.2882117375,0.648210229994014
0.021,1.788975,1.0,2419.7989147069834,0.21136702406058824,1.3316661096359668,0.907698596044705,0.28818995000000003,0.6492270144098944
0.021500000000000002,1.78844375,1.0,2443.7377790084447,0.21579063262844164,1.3311956583248759,0.9109961381714027,0.2881676375,0.6502214155189798
0.022,1.7879,1.0,2466.2554494413175,0.22018942751149964,1.3307342763722532,0.9141056172286047,0.2881448,0.6511952756139097
0.0225,1.78734375,1.0,2487.418095543848,0.22456354778901488,1.3302811326033346,0.917040937612118,0.28812143749999997,0.6521504255301611
0.023,1.786775,1.0,2507.2947101336026,0.22891313254023996,1.3298353958433564,0.9198147524657952,0.28809755,0.6530886851047717
0.0235,1.78619375,1.0,2525.9445479113647,0.23323831789345756,1.3293963512621254,0.9224386136960635,0.28807313749999996,0.6540116191811176
0.024,1.7856,1.0,2543.4384164532516,0.2375392449914698,1.3289631956957162,0.9249230513447094,0.2880482,0.6549209689976465
0.0245,1.78499375,1.0,2559.826366960046,0.24181604865633696,1.3285353405363387,0.9272777246261892,0.2880227375,0.6558180166411733
0.025,1.784375,1.0,2575.1563778702325,0.24606886263684552,1.3281122318311043,0.9295114794278734,0.28799675,0.6567039646773332
0.025500000000000002,1.78374375,1.0,2589.477877926393,0.25029782068178197,1.3276933156271238,0.931632422912579,0.2879702375,0.6575800092260913
0.026000000000000002,1.7831000000000001,1.0,2602.841621947532,0.2545030565399329,1.3272780379715081,0.9336479952333845,0.2879432,0.6584473401196431
0.0265,1.78244375,1.0,2615.299573404685,0.25868470396008475,1.3268658449113682,0.9355650334112443,0.2879156375,0.6593071410407443
0.027,1.781775,1.0,2626.8945605756994,0.26284289360793245,1.3264562773090576,0.9373898416054016,0.28788755,0.6601603922369633
0.0275,1.7810937500000001,1.0,2637.6771373575875,0.2669777606082277,1.3260488130084762,0.9391282198516767,0.2878589375,0.6610082000502671
0.028,1.7804,1.0,2647.693415512171,0.27108943752031095,1.325642978971883,0.9407855241366351,0.2878298,0.6618515632854518
0.0285,1.77969375,1.0,2656.9767877879763,0.2751780521676202,1.3252384263045198,0.9423667164583256,0.2878001375,0.6626912182874982
0.029,1.778975,1.0,2665.5612419028334,0.27924373237359357,1.3248348061116277,0.9438763841709242,0.28776995,0.6635278977628227
0.029500000000000002,1.7782437500000001,1.0,2673.481308312598,0.28328660596166894,1.3244317694984487,0.9453187730997472,0.2877392375,0.6643623308039078
0.03,1.7775,1.0,2680.772010679263,0.28730680075528436,1.3240289675702244,0.9466978173340964,0.287708,0.6651952429061687
0.0305,1.77674375,1.0,2687.46881903806,0.2913044445778779,1.323626051432196,0.9480171660673681,0.2876762375,0.6660273559770588
0.031,1.775975,1.0,2693.6076056630186,0.2952796652528875,1.3232226721896057,0.949280207809157,0.28764395,0.6668593883374067
0.0315,1.7751937500000001,1.0,2699.216924479575,0.2992325852664685,1.3228185511386963,0.9504900993075917,0.2876111375,0.667691910206355
0.032,1.7744,1.0,2704.332793891232,0.30316333661652284,1.3224133440865433,0.9516497726578157,0.2875778,0.6685256235807788
0.0325,1.77359375,1.0,2708.9781160719444,0.3070720416191104,1.3220068291414482,0.952761970356116,0.2875439375,0.6693609757215249
0.033,1.772775,1.0,2713.175381708878,0.3109588220902041,1.3215987901046096,0.9538292495130862,0.28750955,0.6701983998828166
0.0335,1.7719437500000002,1.0,2716.9472719059017,0.31482379984577713,1.3211890107772264,0.9548539961284283,0.2874746375,0.6710383270278915
0.034,1.7711000000000001,1.0,2720.3166389475687,0.3186670967018025,1.320777274960498,0.955838438575418,0.2874392,0.6718811858064957
0.0345,1.7702437500000001,1.0,2723.306488099731,0.3224888344742532,1.320363366455623,0.9567846598711206,0.2874032375,0.6727274025294014
0.035,1.7693750000000001,1.0,2725.93996044574,0.3262891349791024,1.3199470690638,0.9576946088544555,0.28736675,0.6735774011399362
0.035500000000000004,1.76849375,1.0,2728.2328303477666,0.3300681133947092,1.3195282346506416,0.9585701159453202,0.2873297375,0.6744314644803715
0.036000000000000004,1.7676,1.0,2730.2082797607204,0.3338258925508534,1.3191066486101726,0.9594128914563739,0.2872922,0.6752900089693363
0.0365,1.76669375,1.0,2731.896129391683,0.3375626022174635,1.3186820368615424,0.9602245350543117,0.2872541375,0.6761535694572021
0.037,1.765775,1.0,2733.309293305879,0.3412783570479211,1.3182542796751422,0.9610065602797587,0.28721555,0.6770223643764552
0.0375,1.76484375,1.0,2734.4607421216274,0.34497327169560754,1.3178232573213635,0.9617603889080557,0.2871764375,0.6778966106684896
0.038,1.7639,1.0,2735.363496533369,0.34864746081390435,1.3173888500705973,0.9624873575247399,0.28713679999999997,0.6787765237591326
0.0385,1.76294375,1.0,2736.0306211527086,0.3523010390561929,1.3169509381932352,0.9631887235605672,0.28709663750000003,0.6796623175332527
0.039,1.761975,1.0,2736.4752186671412,0.3559341210758548,1.3165094019596684,0.9638656708358811,0.28705595,0.6805542043084601
0.0395,1.7609937500000001,1.0,2736.7104243171234,0.3595468215262714,1.316064121640288,0.9645193146590867,0.2870147375,0.6814523948078867
0.04,1.76,1.0,2736.74940069,0.3631392550608241,1.3156149775054857,0.9651507065194699,0.286973,0.6823570981320528
0.0405,1.7589937500000001,1.0,2736.6053328330436,0.36671153633289455,1.3151618498256523,0.9657608384106118,0.2869307375,0.6832685217298247
0.041,1.757975,1.0,2736.29142368307,0.370263779995864,1.3147046188711795,0.9663506468170507,0.28688795,0.6841868713684491
0.0415,1.75694375,1.0,2735.8198604032227,0.3737960989088769,1.314243174258604,0.9669210168819845,0.2868446375,0.6851123323720556
0.042,1.7559,1.0,2735.1973636082803,0.377308596815777,1.3137774553338362,0.967472787942594,0.28680079999999997,0.6860449889165257
0.0425,1.75484375,1.0,2734.442778491145,0.3808014012533514,1.3133072914238093,0.968006748718111,0.2867564375,0.6869851439434829
0.043000000000000003,1.753775,1.0,2733.5627308617095,0.38427461927489026,1.3128326228439884,0.9685236513627807,0.28671155,0.6879328765451241
0.043500000000000004,1.75269375,1.0,2732.563851260862,0.387728357933684,1.3123533899098387,0.96902420816853,0.28666613750000003,0.6888882647060978
0.044,1.7516,1.0,2731.4527734903763,0.3911627242830228,1.311869532936825,0.9695090940710811,0.2866202,0.6898513852862456
0.0445,1.75049375,1.0,2730.2361332223677,0.3945778253761972,1.3113809922404127,0.9699789489745694,0.2865737375,0.6908223140031124
0.045,1.7493750000000001,1.0,2728.920566687573,0.3979737682664973,1.3108877081360664,0.9704343799094606,0.28652675,0.6918011254142348
0.0455,1.74824375,1.0,2727.5127094422073,0.4013506600072135,1.3103896209392514,0.9708759630372417,0.2864792375,0.692787892899196
0.046,1.7471,1.0,2726.0191952146333,0.404708607651636,1.3098866709654327,0.9713042455141393,0.2864312,0.6937826886414594
0.0465,1.7459437500000001,1.0,2724.4466548303744,0.4080477182530553,1.3093787985300753,0.9717197472250414,0.28638263750000004,0.6947855836099716
0.047,1.744775,1.0,2722.8017152159555,0.4113680988647616,1.3088659439486445,0.9721229623978153,0.28633355,0.6957966475405382
0.0475,1.74359375,1.0,2721.090998482831,0.4146698565400452,1.308348047536605,0.9725143611073229,0.28628393750000003,0.6968159489169758
0.048,1.7424,1.0,2719.317805563164,0.41795307600212633,1.3078250798026545,0.9728943899954312,0.2862338,0.697843495677581
0.0485,1.74119375,1.0,2717.493232178784,0.42121789133723186,1.3072969402295873,0.9732634755281154,0.2861831375,0.6988794340737674
0.049,1.739975,1.0,2715.6205691061627,0.42446440282375436,1.3067635993059166,0.9736220246063776,0.28613195,0.6999237695818847
0.0495,1.73874375,1.0,2713.702904953095,0.4276927096576969,1.3062250293349158,0.973970425009846,0.2860802375,0.7009765032169324
0.05,1.7375,1.0,2711.7433252386413,0.43090291103506256,1.3056812026198588,0.974309046473779,0.286028,0.7020376350920818
0.0505,1.73624375,1.0,2709.7449121460386,0.4340951061518544,1.3051320914640188,0.9746382416875761,0.2859752375,0.7031071644094187
0.051000000000000004,1.734975,1.0,2707.7107442928836,0.4372693942040755,1.3045776681706698,0.9749583472294305,0.28592195,0.7041850894506294
0.051500000000000004,1.73369375,1.0,2705.6438965177967,0.4404258743877289,1.3040179050430853,0.9752696844417367,0.2858681375,0.7052714075676453
0.052000000000000005,1.7324,1.0,2703.5474396847517,0.44356464589881767,1.3034527743845392,0.9755725602514923,0.2858138,0.7063661151732332
0.0525,1.73109375,1.0,2701.4244405039217,0.44668580793334484,1.3028822484983051,0.9758672679396044,0.28575893750000003,0.7074692077315401
0.053,1.729775,1.0,2699.2779613696634,0.44978945968731354,1.3023062996876567,0.9761540878626962,0.28570355000000003,0.7085806797485865
0.0535,1.72844375,1.0,2697.1110602157382,0.4528757003567268,1.3017249002558673,0.9764332881307275,0.2856476375,0.7097005247627135
0.054,1.7271,1.0,2694.926790387149,0.4559446291375877,1.301138022506211,0.9767051252434921,0.2855912,0.7108287353349769
0.0545,1.7257437500000001,1.0,2692.728200529313,0.45899634522589927,1.3005456387419612,0.9769698446888099,0.2855342375,0.711965303039498
0.055,1.724375,1.0,2690.51532637461,0.46203092414488406,1.2999477488064315,0.977227680877365,0.28547675,0.7131101657715366
0.0555,1.72299375,1.0,2688.2910288381727,0.46504847147325573,1.2993443266679328,0.9774788596933346,0.2854187375,0.7142633102414604
0.056,1.7216,1.0,2686.0605293045755,0.4680491120747264,1.2987353246240194,0.9777235980702405,0.2853602,0.7154247634623143
0.0565,1.72019375,1.0,2683.824845417103,0.471032936038994,1.2981207334276188,0.9779621029302337,0.28530113749999997,0.7165944779992942
0.057,1.718775,1.0,2681.584993162049,0.4740000334557566,1.2975005438316585,0.9781945727004241,0.28524155,0.7177724056755979
0.0575,1.71734375,1.0,2679.341986858015,0.47695049441471205,1.296874746589066,0.9784211977280414,0.2851814375,0.7189584975691259
0.058,1.7159,1.0,2677.096839147536,0.4798844090055584,1.296243332452769,0.9786421606720815,0.2851208,0.7201527040091781
0.0585,1.71444375,1.0,2674.8505609904296,0.4828018673179936,1.2956062921756948,0.9788576368729495,0.2850596375,0.7213549745731433
0.059000000000000004,1.7129750000000001,1.0,2672.6041616585635,0.4857029594417157,1.2949636165107712,0.9790677947014963,0.28499795,0.7225652580831847
0.059500000000000004,1.71149375,1.0,2670.358648733322,0.4885877754664227,1.2943152962109254,0.9792727958887528,0.2849357375,0.7237835026029185
0.06,1.71,1.0,2668.115028104227,0.4914564054818124,1.2936613220290853,0.9794727958375705,0.284873,0.7250096554340875
0.0605,1.7084937500000001,1.0,2665.8743039700394,0.494308939577583,1.293001684718178,0.9796679439172893,0.2848097375,0.7262436631132316
0.061,1.7069750000000001,1.0,2663.637478841231,0.4971454678434324,1.2923363750311314,0.9798583837424877,0.28474595,0.7274854714083472
0.0615,1.7054437500000001,1.0,2661.4055535446532,0.49996608036905854,1.291665383720873,0.9800442534367816,0.2846816375,0.7287350253155483
0.062,1.7039,1.0,2659.1795272305826,0.5027708672441595,1.2909887015403299,0.9802256858825876,0.2846168,0.729992269055717
0.0625,1.70234375,1.0,2656.9603973802,0.5055599185584332,1.2903063192424302,0.9804028089576923,0.2845514375,0.7312571460711486
0.063,1.7007750000000001,1.0,2654.7491598167912,0.5083333244015775,1.289618227580101,0.9805757457594196,0.28448555,0.7325295990221967
0.0635,1.69919375,1.0,2652.546808717503,0.5110911748632907,1.2889244173062702,0.9807446148171358,0.28441913750000003,0.7338095697839039
0.064,1.6976,1.0,2650.3543366274575,0.5138335600332704,1.2882248791738649,0.9809095302937743,0.2843522,0.7350969994426372
0.0645,1.69599375,1.0,2648.170204031305,0.5165605364753779,1.2875196272871188,0.9810706009485403,0.2842847375,0.7363917854740953
0.065,1.694375,1.0,2645.995571577665,0.5192722110797071,1.2868086508461183,0.9812279339540201,0.28421675,0.7376938705351703
0.0655,1.69274375,1.0,2643.8325349957677,0.5219686959246882,1.2860919303974123,0.98138163253134,0.2841482375,0.7390032122496244
0.066,1.6911,1.0,2641.681085005946,0.5246500715648009,1.285369465905409,0.9815317949613603,0.2840792,0.7403197319160131
0.0665,1.6894437500000001,1.0,2639.541212387539,0.5273164185545246,1.284641257334516,0.9816785160444373,0.2840096375,0.7416433502009752
0.067,1.687775,1.0,2637.4129079782892,0.5299678174483388,1.2839073046491418,0.9818218872467659,0.28393955,0.74297398713922
0.0675,1.68609375,1.0,2635.2961626752317,0.532604348800723,1.2831676078136942,0.9819619968395604,0.2838689375,0.7443115621335137
0.068,1.6844000000000001,1.0,2633.1909674341873,0.5352260931661568,1.2824221667925813,0.9820989300314836,0.2837978,0.7456559939546665
0.0685,1.68269375,1.0,2631.0973132701,0.5378331310991197,1.281670981550211,0.9822327690946826,0.2837261375,0.74700720074152
0.069,1.680975,1.0,2629.01519125702,0.540425543154091,1.2809140520509912,0.9823635934847922,0.28365395,0.7483651000009344
0.0695,1.67924375,1.0,2626.9445925281475,0.5430034098855504,1.2801513782593303,0.9824914799552277,0.28358123749999997,0.7497296086077729
0.07,1.6775,1.0,2624.8855082761693,0.5455668118479774,1.279382960139636,0.9826165026660771,0.283508,0.7511006428048933
0.07050000000000001,1.67574375,1.0,2622.837929752952,0.5481158295958515,1.2786087976563167,0.982738733287884,0.2834342375,0.7524781182031299
0.07100000000000001,1.673975,1.0,2620.801848269907,0.5506505436836522,1.27782889077378,0.9828582411005913,0.28335995,0.7538619497812851
0.07150000000000001,1.67219375,1.0,2618.77725519788,0.5531710346658588,1.2770432394564342,0.982975093087902,0.2832851375,0.7552520518861126
0.07200000000000001,1.6704,1.0,2616.764141967514,0.5556773830969511,1.276251843668687,0.983089354027301,0.2832098,0.7566483382323066
0.0725,1.66859375,1.0,2614.7625000688818,0.5581696695314085,1.2754547033749468,0.9832010865759598,0.2831339375,0.7580507219024875
0.073,1.6667750000000001,1.0,2612.7723210521076,0.5606479745237104,1.2746518185396214,0.983310351352743,0.28305755,0.7594591153471903
0.0735,1.66494375,1.0,2610.7935965269644,0.5631123786283364,1.273843189127119,0.9834172070165126,0.2829806375,0.7608734303848501
0.074,1.6631,1.0,2608.8263181630828,0.5655629623997661,1.2730288151018474,0.9835217103409251,0.2829032,0.7622935782017897
0.0745,1.6612437500000001,1.0,2606.8704776902186,0.5679998063924788,1.2722086964282149,0.9836239162858944,0.2828252375,0.7637194693522065
0.075,1.6593792097153672,1.0,2605.127672994791,0.5704229856682449,1.2713828584393019,0.9837238788683688,0.2827469268080454,0.7651509698511283
