Time [s],Phi [rad],STIM [ ],Fsee [N],Gamma [ ],Lcerel [ ],q [ ],Lmtc [m],fisomrel [ ]
0.0,1.8,1.0,17.967984017964927,2.8144021653063064e-05,1.3793396536979223,0.005000209388115809,0.288653,0.5411397548862895
0.0005,1.79999375,1.0,18.283365420084273,0.005637195464749318,1.379301652361447,0.012990961845260378,0.2886527375,0.5412316853184822
0.001,1.799975,1.0,21.6384746868609,0.011214784564082068,1.3789362503729454,0.035703184397659626,0.28865195,0.5421151726826927
0.0015,1.79994375,1.0,31.117966166071405,0.0167610877994024,1.3780420537131433,0.0707311738395715,0.2886506375,0.5442736148735616
0.002,1.7999,1.0,53.688217113466074,0.022276280658779107,1.3763612694157132,0.11487114884924834,0.2886488,0.5483169479712784
0.0025,1.79984375,1.0,97.29742443809398,0.02776053764629203,1.3739265703551389,0.16474145605657217,0.28864643749999996,0.5541419642297302
0.003,1.7997750000000001,1.0,161.19092249680514,0.03321403228957907,1.3712056346371528,0.21745228636967642,0.28864354999999997,0.5606070689210096
0.0035,1.79969375,1.0,237.94659571168884,0.03863693713956092,1.3685766272445996,0.2707837948175771,0.2886401375,0.566808896202154
0.004,1.7996,1.0,321.74703621156004,0.04402942378118874,1.3661486708673978,0.32308128626209587,0.2886362,0.572497292162111
0.0045000000000000005,1.7994937500000001,1.0,409.5581075527682,0.04939166283863844,1.3639159995950412,0.37319159667706375,0.2886317375,0.5776949784398661
0.005,1.799375,1.0,499.70984868417577,0.054723823966434,1.3618520459843506,0.4203944304378993,0.28862675,0.5824716097478936
0.0055,1.79924375,1.0,591.0895112494374,0.06002607589622157,1.3599329922037835,0.46430976968197524,0.2886212375,0.5868885239898952
0.006,1.7991000000000001,1.0,682.8176557991318,0.06529858638170316,1.358140970368993,0.5048050111012478,0.2886152,0.590991853772819
0.006500000000000001,1.79894375,1.0,774.1639626076983,0.07054152203369579,1.3564624281024233,0.5419152612910366,0.2886086375,0.5948167645131527
0.007,1.798775,1.0,864.5895969748537,0.07575504947929355,1.3548854883138597,0.5757808834040866,0.28860155,0.598393782475234
0.0075,1.79859375,1.0,953.5480154935354,0.08093933293544306,1.3534020914255738,0.6066045406772784,0.2885939375,0.6017441383164235
0.008,1.7984,1.0,1040.6442093436178,0.08609453642935078,1.3520044394704471,0.6346181485179194,0.2885858,0.6048879929626796
0.0085,1.79819375,1.0,1125.6000985130497,0.09122082346279065,1.3506851948731828,0.6600625869552469,0.2885771375,0.6078440500534368
0.009000000000000001,1.797975,1.0,1208.1602613331204,0.09631835608772824,1.3494384815475395,0.6831753524870655,0.28856795,0.6106273839724168
0.0095,1.79774375,1.0,1288.1240478278635,0.10138729493350906,1.3482590560503986,0.7041823401401698,0.2885582375,0.6132513707872618
0.01,1.7975,1.0,1365.4118218246938,0.10642780205527967,1.347141239431205,0.7232931498159191,0.288548,0.6157301016778278
0.0105,1.79724375,1.0,1439.9169427847432,0.11144003616158284,1.3460807244273536,0.7407002518906263,0.2885372375,0.6180744010836676
0.011,1.796975,1.0,1511.5675430213084,0.1164241550597302,1.3450735569668382,0.7565780803926007,0.28852595000000003,0.6202941335531068
0.0115,1.79669375,1.0,1580.3470341556995,0.12138031655703342,1.3441157829776527,0.7710834358915931,0.2885141375,0.6223990048012662
0.012,1.7964,1.0,1646.2734703791941,0.1263086780190752,1.3432036314189386,0.7843566608519666,0.28850180000000003,0.6243981740460884
0.0125,1.79609375,1.0,1709.3806843802097,0.13120939572122647,1.3423336604589333,0.796523024195529,0.2884889375,0.6262999519030221
0.013000000000000001,1.7957750000000001,1.0,1769.6962722360583,0.13608262414997127,1.3415029310567237,0.8076941882502189,0.28847555,0.6281114415805696
0.0135,1.79544375,1.0,1827.2677023728327,0.14092851742014031,1.3407086378631359,0.8179694426226919,0.2884616375,0.6298393625173678
0.014,1.7951000000000001,1.0,1882.1628015699268,0.14574722887253683,1.3399480631084297,0.8274370234218811,0.2884472,0.6314901606786578
0.0145,1.79474375,1.0,1934.460016176043,0.1505389118565506,1.339218648472141,0.8361753823365585,0.2884322375,0.633069861379892
0.015,1.794375,1.0,1984.2200810566796,0.15530371706179819,1.3385182626306806,0.844254397879511,0.28841675,0.6345835008466376
0.0155,1.79399375,1.0,2031.52145081061,0.16004179511807018,1.3378447816967551,0.8517362344658581,0.2884007375,0.6360360442610711
0.016,1.7936,1.0,2076.443784825095,0.164753295419335,1.3371962443730963,0.8586763009426291,0.2883842,0.6374320560608392
0.0165,1.7931937500000001,1.0,2119.0925383936506,0.1694383692564562,1.3365705747495265,0.8651239678376167,0.2883671375,0.6387763016988949
0.017,1.792775,1.0,2159.5437138887896,0.1740971643011185,1.3359661391243745,0.8711234415587614,0.28834955,0.6400725553630787
0.0175,1.7923437500000001,1.0,2197.867666250734,0.1787298267655195,1.335381472665424,0.8767142923053106,0.2883314375,0.641324195767766
0.018000000000000002,1.7919,1.0,2234.1442816559365,0.18333650286185682,1.3348151105404595,0.8819319521546679,0.2883128,0.6425345719189409
0.0185,1.79144375,1.0,2268.4621759096035,0.18791733880232797,1.3342655879172651,0.8868081983630138,0.2882936375,0.6437070048926183
0.019,1.790975,1.0,2300.903605006984,0.19247247922708635,1.3337315818848816,0.8913716111021761,0.28827395,0.644844487412674
0.0195,1.79049375,1.0,2331.5621948903386,0.19700207045159615,1.3332117254550289,0.8956478959082579,0.2882537375,0.6459500829696507
0.02,1.79,1.0,2360.50814917584,0.2015062549648739,1.3327049431095919,0.8996602849427237,0.288233,0.647026214382791
0.0205,1.78949375,1.0,2387.8079816772956,0.20598517412143855,1.3322102450389102,0.9034297666970985,0.2882117375,0.6480751055203675
0.021,1.788975,1.0,2413.5327125828358,0.21043896927580907,1.3317266414333233,0.9069753160760037,0.28818995000000003,0.6490989648066561
0.021500000000000002,1.78844375,1.0,2437.7574902331185,0.21486778178250449,1.3312531424831704,0.9103141151998339,0.2881676375,0.6500999859535217
0.022,1.7879,1.0,2460.550339863843,0.2192717510829065,1.3307888626797608,0.9134617678187988,0.2881448,0.6510801285938468
0.0225,1.78734375,1.0,2481.990215630909,0.22365101930578965,1.3303328432930452,0.9164324346180363,0.28812143749999997,0.6520414943939172
0.023,1.786775,1.0,2502.137619483642,0.22800572459709426,1.32988433009395,0.9192390357692917,0.28809755,0.6529857422144956
0.0235,1.78619375,1.0,2521.04600611175,0.2323360032471179,1.3294426589395478,0.9218933583070004,0.28807313749999996,0.6539143318585483
0.024,1.7856,1.0,2538.7709604425454,0.2366419915461581,1.329007165686912,0.9244061565115462,0.2880482,0.65482871468962
0.0245,1.78499375,1.0,2555.3700186562255,0.24092382578451244,1.328577186193115,0.926787256621431,0.2880227375,0.6557303339075734
0.025,1.784375,1.0,2570.902498980188,0.2451816422524785,1.3281520563152305,0.9290456496599117,0.28799675,0.6566206247961921
0.025500000000000002,1.78374375,1.0,2585.418782857831,0.24941557372024348,1.3277312105294117,0.9311895886791365,0.2879702375,0.6575008088167298
0.026000000000000002,1.7831000000000001,1.0,2598.9818984129297,0.25362575920470326,1.3273139781969343,0.9332266315140251,0.2879432,0.6583723203982679
0.0265,1.78244375,1.0,2611.6338892704143,0.25781233043173424,1.3268998962317262,0.9351637514202007,0.2879156375,0.6592361538382865
0.027,1.781775,1.0,2623.415263043957,0.2619754182031123,1.3264885252138283,0.937007365898922,0.28788755,0.6600932490551639
0.0275,1.7810937500000001,1.0,2634.3674346526764,0.26611515332061353,1.3260794257232813,0.938763385382188,0.2878589375,0.6609445411989001
0.028,1.7804,1.0,2644.5326470511395,0.27023166658601383,1.3256721583401263,0.9404372600044153,0.2878298,0.6617909607209302
0.0285,1.77969375,1.0,2653.9538962412075,0.27432508880108913,1.3252662836444042,0.9420340214934539,0.2878001375,0.6626334334316262
0.029,1.778975,1.0,2662.671422450144,0.27839554928271126,1.3248613938570488,0.9435583246219965,0.28776995,0.6634728149912481
0.029500000000000002,1.7782437500000001,1.0,2670.719713527148,0.2824431756832104,1.324457139526739,0.9450144841212264,0.2877392375,0.664309836129229
0.03,1.7775,1.0,2678.148197435778,0.28646810293286984,1.3240530387104796,0.9464064818469407,0.287708,0.6651454977758431
0.0305,1.77674375,1.0,2684.9834607385465,0.2904704556819982,1.323648823638597,0.9477380351539048,0.2876762375,0.6659803538180877
0.031,1.775975,1.0,2691.2524490536953,0.29445035858090396,1.323244226541418,0.9490125949593414,0.28764395,0.6668149553815066
0.0315,1.7751937500000001,1.0,2696.9824350140493,0.29840793627989576,1.3228389796492688,0.9502333681615651,0.2876111375,0.6676498508259535
0.032,1.7744,1.0,2702.200987815118,0.3023433134292821,1.3224328151924762,0.9514033379109148,0.2875778,0.6684855857367809
0.0325,1.77359375,1.0,2706.9359443534654,0.3062566146793717,1.322025465401367,0.9525252819618656,0.2875439375,0.6693227029114572
0.033,1.772775,1.0,2711.215381954272,0.310147964680473,1.3216166625062675,0.9536017893085398,0.28750955,0.6701617423416123
0.0335,1.7719437500000002,1.0,2715.067559635215,0.3140174880146656,1.321206139038749,0.9546352752982917,0.2874746375,0.671003240573405
0.034,1.7711000000000001,1.0,2718.5178892152135,0.3178653026396961,1.3207936551982542,0.9556279966771194,0.2874392,0.671847674695611
0.0345,1.7702437500000001,1.0,2721.592697467767,0.32169153914836224,1.3203789643230326,0.9565820651969723,0.2874032375,0.6726955332248119
0.035,1.7693750000000001,1.0,2724.3097047109886,0.32549631592580364,1.3199618993632027,0.9574994616651354,0.28736675,0.6735471395277159
0.035500000000000004,1.76849375,1.0,2726.686741549959,0.32927975135716003,1.319542293268883,0.9583820405213279,0.2873297375,0.6744028150907628
0.036000000000000004,1.7676,1.0,2728.7417370709054,0.33304196382757123,1.3191199789901915,0.9592315393491317,0.2872922,0.6752628794939405
0.0365,1.76669375,1.0,2730.492707654022,0.3367830717221768,1.318694789477247,0.9600495875677365,0.2872541375,0.6761276503828229
0.037,1.765775,1.0,2731.957746404905,0.3405031934261167,1.3182665576801673,0.9608377143830557,0.28721555,0.6769974434388288
0.0375,1.76484375,1.0,2733.155013204896,0.3442024473245304,1.317835116549071,0.96159735606888,0.2871764375,0.6778725723476993
0.038,1.7639,1.0,2734.10272537997,0.34788095180255785,1.3174002990340765,0.9623298626413113,0.28713679999999997,0.6787533487661952
0.0385,1.76294375,1.0,2734.7833737826386,0.35153882198289,1.3169622629530782,0.9630365339894725,0.28709663750000003,0.6796394255856625
0.039,1.761975,1.0,2735.2869906258084,0.35517617680299834,1.3165201899007983,0.9637185036368375,0.28705595,0.6805324278863603
0.0395,1.7609937500000001,1.0,2735.601737085038,0.3587931300895151,1.3160741869233437,0.964376923391128,0.2870147375,0.6814321057421786
0.04,1.7600038571670167,1.0,2735.8948395186185,0.3623897949486359,1.3156244774009596,0.9650128890678885,0.2869731620010147,0.6823379759737601
0.0405,1.7590136770028306,1.0,2736.557348294672,0.3659662844865563,1.3151712847138908,0.9656274340392605,0.2869315744341189,0.6832495576906747
0.041,1.7580234968386446,1.0,2737.5790829141392,0.36952271180947205,1.3147148322423827,0.9662215334539204,0.28688998686722306,0.6841663723426304
0.0415,1.7570333166744587,1.0,2738.935626663898,0.37305919002357857,1.3142553433666806,0.9667961081299612,0.28684839930032724,0.6850879437675054
0.042,1.7560431365102727,1.0,2740.605475034536,0.3765758306638228,1.3137930154132222,0.9673520257002448,0.2868068117334315,0.6860138503758841
0.0425,1.7550529563460866,1.0,2742.5536624948422,0.3800727467243367,1.3133281680414195,0.9678901168890979,0.2867652241665356,0.686943428290204
0.043000000000000003,1.7540627761819008,1.0,2744.752666661714,0.38355004962774253,1.3128610534065581,0.9684111618416591,0.28672363659963984,0.6878761519813099
0.043500000000000004,1.7530725960177147,1.0,2747.184001378633,0.3870078478714596,1.312391841722849,0.9689158920846812,0.286682049032744,0.6888116620695358
0.044,1.7520824158535286,1.0,2749.8291781260355,0.3904462499529071,1.3119207032045022,0.9694050006200422,0.2866404614658482,0.6897496011237528
0.0445,1.7510922356893428,1.0,2752.6696984279088,0.3938653643695047,1.3114478080657281,0.969879144339786,0.2865988738989524,0.6906896136832059
0.045,1.7501020555251567,1.0,2755.68704690135,0.3972652996186716,1.3109733265207375,0.9703389462670506,0.28655728633205657,0.6916313462775089
0.0455,1.7491118753609707,1.0,2758.862968188985,0.40064616400898023,1.3104974262229296,0.9707849974169717,0.28651569876516075,0.692574452515741
0.046,1.7481216951967848,1.0,2762.1840723411765,0.40400806335078615,1.310020230608587,0.9712178553268647,0.28647411119826494,0.6935186754253779
0.0465,1.7471315150325988,1.0,2765.632172800483,0.4073511075370767,1.309541906238336,0.971638053420686,0.2864325236313692,0.6944636743696977
0.047,1.7461413348684127,1.0,2769.1974263693605,0.4106754006442905,1.3090625440496673,0.972046092483974,0.2863909360644733,0.6954092597753427
0.0475,1.7451511547042269,1.0,2772.869971495613,0.4139810467488659,1.3085822349800715,0.9724424488289866,0.28634934849757754,0.6963552431591324
0.048,1.7441609745400408,1.0,2776.6399262705086,0.41726814992724137,1.3081010699670395,0.9728275757221561,0.2863077609306817,0.6973014371338184
0.0485,1.7431707943758548,1.0,2780.4973866121927,0.4205368142558555,1.307619139948062,0.973201904715543,0.2862661733637859,0.6982476554133122
0.049,1.742180614211669,1.0,2784.4324246312603,0.4237871438111467,1.3071365358606295,0.9735658468895723,0.2862245857968901,0.6991937128173861
0.0495,1.7411904340474829,1.0,2788.44142088987,0.4270192338454195,1.3066532916828826,0.9739197891056278,0.28618299822999427,0.7001395366710872
0.05,1.7402002538832968,1.0,2792.509351261532,0.43023319777593066,1.3061695438086833,0.9742641092439435,0.28614141066309845,0.7010848547320878
0.0505,1.739210073719111,1.0,2796.627675198649,0.43342914030365703,1.3056853700311932,0.9745991628568443,0.28609982309620263,0.7020295106788663
0.051000000000000004,1.738219893554925,1.0,2800.792328309638,0.43660715967601477,1.3052008077613888,0.9749252859121312,0.28605823552930687,0.7029734277480733
0.051500000000000004,1.7372297133907388,1.0,2804.999234870524,0.43976735414042023,1.304715894410247,0.975242799220382,0.286016647962411,0.7039165296357244
0.052000000000000005,1.736239533226553,1.0,2809.244307519247,0.44290982194428963,1.3042306673887447,0.9755520092529716,0.28597506039551523,0.7048587404980835
0.0525,1.735249353062367,1.0,2813.523446978739,0.4460346613350392,1.3037451641078586,0.9758532089090636,0.2859334728286194,0.7057999849524557
0.053,1.7342591728981809,1.0,2817.832541813196,0.4491419705600853,1.3032594219785656,0.9761466782351799,0.2858918852617236,0.70674018807789
0.0535,1.733268992733995,1.0,2822.1674682139824,0.45223184786684417,1.3027734784118428,0.9764326851006551,0.2858502976948278,0.7076792754157952
0.054,1.732278812569809,1.0,2826.524089817263,0.45530439150273205,1.3022873708186664,0.9767114858320403,0.28580871012793196,0.7086171729704658
0.0545,1.731288632405623,1.0,2830.898257552236,0.45835969971516527,1.3018011366100137,0.9769833258092797,0.28576712256103615,0.7095538072095148
0.055,1.730298452241437,1.0,2835.285809520795,0.46139787075156,1.3013148131968617,0.977248440026262,0.28572553499414033,0.710489105064223
0.0555,1.729308272077251,1.0,2839.6857991402494,0.46441898994995895,1.300828409221692,0.977507050705547,0.28568394742724457,0.7114230491235531
0.056,1.728318091913065,1.0,2844.0943894170805,0.46742316107520204,1.300341959038628,0.9777593740704164,0.2856423598603487,0.7123555728343083
0.0565,1.7273279117488791,1.0,2848.506478266791,0.4704104925663848,1.2998555081519734,0.9780056184844025,0.28560077229345293,0.713286588746562
0.057,1.726337731584693,1.0,2852.9209748590633,0.4733810752413701,1.2993690662617503,0.9782459801478642,0.2855591847265571,0.714216078334081
0.0575,1.725347551420507,1.0,2857.3367849865194,0.4763349999180209,1.2988826430679816,0.9784806473299874,0.2855175971596613,0.7151440231909997
0.058,1.7243573712563212,1.0,2861.752811067429,0.47927235741420016,1.29839624827069,0.9787098007534613,0.2854760095927655,0.7160704050318139
0.0585,1.723367191092135,1.0,2866.167952150706,0.48219323854777074,1.2979098915698974,0.9789336139575368,0.28543442202586966,0.7169952056913647
0.059000000000000004,1.722377010927949,1.0,2870.5811039231594,0.4850977341365955,1.2974235826656266,0.9791522536408431,0.28539283445897384,0.7179184071248188
0.059500000000000004,1.721386830763763,1.0,2874.991158718699,0.4879859349985374,1.2969373312579004,0.9793658799852389,0.285351246892078,0.71883999140764
0.06,1.7203966505995771,1.0,2879.397005529653,0.49085793195145927,1.2964511470467412,0.9795746469618929,0.28530965932518226,0.7197599407355593
0.0605,1.719406470435391,1.0,2883.7975300200114,0.4937138158132241,1.2959650397321714,0.9797787026206939,0.2852680717582864,0.7206782374245352
0.061,1.7184162902712052,1.0,2888.19161454156,0.4965536774016948,1.2954790190142136,0.9799781893640244,0.28522648419139063,0.7215948639107079
0.0615,1.7174261101070192,1.0,2892.578138150381,0.49937760753473426,1.29499309459289,0.9801732442058546,0.2851848966244948,0.7225098027503516
0.062,1.7164359299428331,1.0,2896.9559766276025,0.5021856970302053,1.2945072761682237,0.9803639990170491,0.285143309057599,0.7234230366198139
0.0625,1.7154457497786473,1.0,2901.3240025004056,0.504978036705971,1.294021573440237,0.980550580757719,0.2851017214907032,0.7243345483154572
0.063,1.7144555696144612,1.0,2905.681844387408,0.5077547044673492,1.293535989419526,0.9807331103998399,0.28506013392380736,0.7252443332764666
0.0635,1.7134653894502752,1.0,2910.029813233668,0.5105157786580398,1.2930505211018406,0.9809117042294464,0.28501854635691154,0.726152398220471
0.064,1.7124752092860893,1.0,2914.365635961606,0.5132613832303909,1.2925651882233387,0.9810864787418541,0.2849769587900157,0.7270587073974567
0.0645,1.7114850291219033,1.0,2918.6892041796837,0.515991600618055,1.2920799914346555,0.9812575422854672,0.28493537122311996,0.7279632608530981
0.065,1.7104948489577172,1.0,2923.000409399679,0.5187065132546843,1.2915949313864257,0.9814249993400748,0.2848937836562241,0.7288660586407708
0.0655,1.7095046687935311,1.0,2927.2991430391653,0.521406203573931,1.2911100087292846,0.9815889506831557,0.2848521960893283,0.729767100821543
0.066,1.7085144886293453,1.0,2931.585296422573,0.5240907540094473,1.2906252241138676,0.981749493547885,0.2848106085224325,0.7306663874641717
0.0665,1.7075243084651592,1.0,2935.8587607840564,0.5267602469948856,1.2901405781908093,0.9819067217733077,0.2847690209555367,0.7315639186450984
0.067,1.7065341283009734,1.0,2940.1194272690163,0.529414764963898,1.2896560716107448,0.9820607259471229,0.28472743338864087,0.732459694448441
0.0675,1.7055439481367873,1.0,2944.36718693607,0.532054390350137,1.2891717050243094,0.9822115935414898,0.28468584582174505,0.7333537149659879
0.068,1.7045537679726013,1.0,2948.6019307594083,0.5346792055872547,1.288687479082138,0.9823594090422464,0.28464425825484924,0.7342459802971941
0.0685,1.7035635878084152,1.0,2952.823549630477,0.5372892931089034,1.288203394434866,0.9825042540719007,0.2846026706879534,0.7351364905491742
0.069,1.7025734076442294,1.0,2957.0319343603182,0.5398847353487354,1.287719451733128,0.9826462075067367,0.28456108312105766,0.736025245836697
0.0695,1.7015832274800433,1.0,2961.226975681066,0.542465614740403,1.2872356516275594,0.9827853455883557,0.2845194955541618,0.7369122462821791
0.07,1.7005930473158575,1.0,2965.4085642488562,0.5450320137175584,1.2867519947687953,0.9829217420299541,0.284477907987266,0.7377974920156786
0.07050000000000001,1.6996028671516714,1.0,2969.5765906450642,0.5475840147138538,1.2862684818074706,0.9830554681176181,0.2844363204203702,0.7386809831748913
0.07100000000000001,1.6986126869874854,1.0,2973.730945378821,0.5501217001629415,1.2857851133942202,0.9831865928069032,0.2843947328534744,0.7395627199051427
0.07150000000000001,1.6976225068232993,1.0,2977.871518889096,0.5526451524984739,1.2853018901796796,0.9833151828149463,0.28435314528657857,0.7404427023593816
