Time [s],Phi [rad],STIM [ ],Fsee [N],Gamma [ ],Lcerel [ ],q [ ],Lmtc [m],fisomrel [ ]
0.0,1.8,1.0,18.05858123000387,0.00030508663906182043,1.3793295167754938,0.005024145530678013,0.288653,0.5411642783892552
0.0005,1.79999375,1.0,18.462895948546592,0.005912584653127122,1.379281762333144,0.013780006926780629,0.2886527375,0.5412797983465069
0.001,1.799975,1.0,22.023496495092072,0.011488629036880018,1.3788971176329468,0.03716282395782051,0.28865195,0.542209739315832
0.0015,1.79994375,1.0,31.95052538249301,0.017033396221313685,1.3779716459174756,0.07271840162809454,0.2886506375,0.5444433510281712
0.002,1.7999,1.0,55.40947332396632,0.022547061645557115,1.3762505933705054,0.117217717391667,0.2886488,0.548582560549562
0.0025,1.79984375,1.0,100.13047145618472,0.028029799765997256,1.3737911565072594,0.1672899328599035,0.28864643749999996,0.55446483200563
0.003,1.7997750000000001,1.0,164.8386355628169,0.033481784061641144,1.3710699591614741,0.22007859839914182,0.28864354999999997,0.5609282060200955
0.0035,1.79969375,1.0,242.04684374628837,0.038903187035757174,1.3684509377975218,0.2733939847190435,0.2886401375,0.567104293482547
0.004,1.7996,1.0,326.0968589226785,0.04429418022591731,1.3660338974813377,0.3256072657201779,0.2886362,0.5727652611435636
0.0045000000000000005,1.7994937500000001,1.0,414.05412775663945,0.04965493420944992,1.3638107862440345,0.3755884423500249,0.2886317375,0.5779391320551577
0.005,1.799375,1.0,504.29073998401543,0.05498561859504702,1.361754953299891,0.42263620788464223,0.28862675,0.5826956433768933
0.0055,1.79924375,1.0,595.7062538567119,0.06028640206087473,1.3598429904720404,0.46638487664961736,0.2886212375,0.5870950963269741
0.006,1.7991000000000001,1.0,687.4347714734531,0.0655574523224818,1.3580572032734404,0.5067117603661814,0.2886152,0.5911831606632724
0.006500000000000001,1.79894375,1.0,778.7639551911695,0.07079893613930507,1.3563840338297959,0.5436583634608749,0.2886086375,0.5949949631097031
0.007,1.798775,1.0,869.1086749847051,0.07601101943281809,1.3548125986705604,0.5773695356183084,0.28860155,0.5985587366857267
0.0075,1.79859375,1.0,957.9780169147283,0.08119386693867209,1.3533340432596124,0.6080494884040273,0.2885939375,0.6018974932200714
0.008,1.7984,1.0,1044.997928468836,0.08634764293827087,1.3519404154232886,0.6359308891472497,0.2885858,0.6050317091571527
0.0085,1.79819375,1.0,1129.8478356658775,0.09147251027028182,1.350625126786274,0.6612551170173546,0.2885771375,0.6079783815883585
0.009000000000000001,1.797975,1.0,1212.2838561618678,0.09656863093698104,1.3493821915811086,0.6842591520103863,0.28856795,0.6107528195343799
0.0095,1.79774375,1.0,1292.1442510540935,0.10163616670772563,1.348205904237488,0.7051679220926326,0.2885582375,0.6133694140757439
0.01,1.7975,1.0,1369.293054304849,0.10667527762306449,1.3470913949695384,0.724190611255046,0.288548,0.6158404449556756
0.0105,1.79724375,1.0,1443.6417016546934,0.1116861228635851,1.3460341404854632,0.7415186638269867,0.2885372375,0.6181772117936439
0.011,1.796975,1.0,1515.1473602836425,0.11666886098234382,1.3450298573577362,0.757325463882901,0.28852595000000003,0.6203902982515952
0.0115,1.79669375,1.0,1583.8077699625137,0.12162365059051111,1.3440744647174947,0.7717669252427007,0.2885141375,0.6224896770706936
0.012,1.7964,1.0,1649.6100307981571,0.1265506476184455,1.3431645998958313,0.7849828026821238,0.28850180000000003,0.6244836013339734
0.0125,1.79609375,1.0,1712.5754592363874,0.1314500076866041,1.3422969824745434,0.797097714608667,0.2884889375,0.6263800248368052
0.013000000000000001,1.7957750000000001,1.0,1772.7508260761238,0.1363218858534652,1.3414684644511645,0.8082225856770817,0.28847555,0.6281865044176141
0.0135,1.79544375,1.0,1830.2042028049827,0.14116643734876716,1.3406760285252652,0.8184560502482396,0.2884616375,0.6299102155237648
0.014,1.7951000000000001,1.0,1884.9898235487635,0.14598381509370628,1.3399171298988894,0.8278859057150846,0.2884472,0.6315572219429257
0.0145,1.79474375,1.0,1937.1632049853838,0.15077417071766208,1.3391894720361426,0.8365902417849382,0.2884322375,0.633132978507152
0.015,1.794375,1.0,1986.8008443495175,0.1555376558500142,1.3384907584011303,0.844638471570043,0.28841675,0.6346428777966443
0.0155,1.79399375,1.0,2033.9834853757015,0.16027442117115012,1.3378188495007652,0.8520923985467284,0.2884007375,0.6360919162052913
0.016,1.7936,1.0,2078.811432547546,0.16498461805052747,1.3371715771292607,0.8590070556707421,0.2883842,0.6374851006893081
0.0165,1.7931937500000001,1.0,2121.358292063212,0.16966839476150408,1.336547207420833,0.8654316444109947,0.2883671375,0.6388264578355827
0.017,1.792775,1.0,2161.697568258724,0.17432589868157183,1.3359441344742884,0.8714101306733467,0.28834955,0.6401197018887794
0.0175,1.7923437500000001,1.0,2199.913686774832,0.1789572771882227,1.3353607523884332,0.8769818262181186,0.2883314375,0.6413685132572193
0.018000000000000002,1.7919,1.0,2236.0933331136575,0.183562676803452,1.3347955328982564,0.8821819559956948,0.2883128,0.642576374844938
0.0185,1.79144375,1.0,2270.329702479686,0.18814224461984608,1.3342469713741716,0.8870421214477648,0.2882936375,0.6437466904566127
0.019,1.790975,1.0,2302.7021566256144,0.19269612557003016,1.3337137795802512,0.8915907655927846,0.28827395,0.6448823766526262
0.0195,1.79049375,1.0,2333.2793847652133,0.1972244625343135,1.3331948404088556,0.8958535214211096,0.2882537375,0.6459859640462923
0.02,1.79,1.0,2362.135798911389,0.2017273983930054,1.3326890367523458,0.8998534901566376,0.288233,0.6470599643647841
0.0205,1.78949375,1.0,2389.3510548825716,0.20620507602641522,1.3321952515030826,0.9036115254142009,0.2882117375,0.6481068714247568
0.021,1.788975,1.0,2414.995808418584,0.21065763631824225,1.3317125008360198,0.9071465103927546,0.28818995000000003,0.6491288800673265
0.021500000000000002,1.78844375,1.0,2439.1590514185705,0.21508522317331225,1.3312396639764252,0.91047551848347,0.2881676375,0.6501284598494417
0.022,1.7879,1.0,2461.902825697602,0.2194879757667063,1.3307759164202433,0.913614094473083,0.2881448,0.6511074397842738
0.0225,1.78734375,1.0,2483.2844403299255,0.2238660320501888,1.3303205082569434,0.9165763732349882,0.28812143749999997,0.6520674803089114
0.023,1.786775,1.0,2503.3639110039267,0.2282195299755239,1.329872689575995,0.9193752141012017,0.28809755,0.6530102317343728
0.0235,1.78619375,1.0,2522.203733740405,0.23254860749447587,1.3294317104668671,0.922022333617697,0.28807313749999996,0.6539373346265123
0.024,1.7856,1.0,2539.8658497132487,0.23685340203821073,1.3289968476043104,0.9245284274699019,0.2880482,0.6548503643699815
0.0245,1.78499375,1.0,2556.403997853907,0.24113404924226733,1.3285674737529458,0.9269032854146487,0.2880227375,0.6557506861977273
0.025,1.784375,1.0,2571.8933873502847,0.24539068816445508,1.3281427767534997,0.9291558353592587,0.28799675,0.6566400448485423
0.025500000000000002,1.78374375,1.0,2586.3767050756464,0.2496234514440853,1.3277222648783764,0.9312943094913237,0.2879702375,0.6575195060681993
0.026000000000000002,1.7831000000000001,1.0,2599.897893240925,0.25383247172046924,1.3273054463999814,0.9333262608637217,0.2879432,0.6583901299646331
0.0265,1.78244375,1.0,2612.5020449021035,0.2580178816329182,1.3268918295907197,0.9352586285848542,0.2879156375,0.6592529711314792
0.027,1.781775,1.0,2624.235304828577,0.26217981382074357,1.326480922722996,0.9370977959569142,0.28788755,0.6601090787561901
0.0275,1.7810937500000001,1.0,2635.1447757324026,0.26631840092325654,1.3260722340692155,0.9388496424006664,0.2878589375,0.6609594967127257
0.028,1.7804,1.0,2645.272082836231,0.2704337719176852,1.3256653305050694,0.9405195970313232,0.2878298,0.6618051419229078
0.0285,1.77969375,1.0,2654.6661607043247,0.2745260620036371,1.3252597183707697,0.9421126662601177,0.2878001375,0.6626470523130343
0.029,1.778975,1.0,2663.3605052635094,0.2785953990305833,1.324855052650314,0.9436334959313855,0.28776995,0.6634859527026841
0.029500000000000002,1.7782437500000001,1.0,2671.3879187934413,0.282641910157558,1.32445099970229,0.945086386526303,0.2877392375,0.6643225407914051
0.03,1.7775,1.0,2678.781691963149,0.28666572254359557,1.3240472258852851,0.9464753220540713,0.287708,0.6651575108292442
0.0305,1.77674375,1.0,2685.575558773332,0.29066696334773023,1.3236433975578865,0.9478039973573951,0.2876762375,0.6659915536262366
0.031,1.775975,1.0,2691.8036539663262,0.2946457597289962,1.3232391810786819,0.9490758427393505,0.28764395,0.666825356554793
0.0315,1.7751937500000001,1.0,2697.4966223546016,0.2986022359853352,1.322834278013295,0.950294049694359,0.2876111375,0.6676595310575084
0.032,1.7744,1.0,2702.68106373972,0.3025365150284511,1.3224284296916937,0.9514615916971816,0.2875778,0.6684946037198614
0.0325,1.77359375,1.0,2707.398796600237,0.3064487334618287,1.3220212409316496,0.9525812253637074,0.2875439375,0.6693313787909454
0.033,1.772775,1.0,2711.6701446486436,0.31033901168789035,1.3216125151438416,0.9536555387336049,0.28750955,0.6701702490524626
0.0335,1.7719437500000002,1.0,2715.5156154584,0.31420747010905825,1.3212020557389492,0.9546869462992138,0.2874746375,0.6710116051947479
0.034,1.7711000000000001,1.0,2718.9558829863286,0.31805422912775466,1.3207896661276517,0.9556777027089113,0.2874392,0.6718558357962684
0.0345,1.7702437500000001,1.0,2722.0117709520628,0.3218794091464018,1.320375149720628,0.9566299152343937,0.2874032375,0.6727033273006544
0.035,1.7693750000000001,1.0,2724.704237073985,0.32568313056742193,1.3199583099285574,0.9575455551263539,0.28736675,0.6735544639912665
0.035500000000000004,1.76849375,1.0,2727.0543581623524,0.3294655137932373,1.3195389501621193,0.9584264679692935,0.2873297375,0.6744096279632993
0.036000000000000004,1.7676,1.0,2729.0833160689726,0.3332266792262701,1.3191168738319927,0.9592743831340845,0.2872922,0.6752691990934185
0.0365,1.76669375,1.0,2730.812384494204,0.33696674726894255,1.3186918843488569,0.9600909224162283,0.2872541375,0.6761335550069352
0.037,1.765775,1.0,2732.2615320852897,0.34068583644273326,1.3182637977022005,0.960877608777708,0.28721555,0.6770030455107552
0.0375,1.76484375,1.0,2733.4436028101763,0.34438405862661886,1.3178324952023588,0.961635877669822,0.2871764375,0.6778778858209267
0.038,1.7639,1.0,2734.3827204086133,0.34806154466624595,1.3173977561933052,0.9623670725443118,0.28713679999999997,0.6787584960569362
0.0385,1.76294375,1.0,2735.0903753698194,0.35171840756410605,1.316959475199733,0.9630724643419839,0.28709663750000003,0.6796450608453756
0.039,1.761975,1.0,2735.5780946236277,0.3553547603226906,1.3165175467463366,0.9637532494692226,0.28705595,0.6805377633982164
0.0395,1.7609937500000001,1.0,2735.857436746522,0.35897071594449115,1.3160718653578096,0.96441055496932,0.2870147375,0.681436785488631
0.04,1.76,1.0,2735.939987412561,0.3625663874319991,1.3156223255588457,0.9650454432817531,0.286973,0.6823423074261034
0.0405,1.7589937500000001,1.0,2735.8373550919086,0.36614188778770607,1.315168821874139,0.9656589166262594,0.2869307375,0.6832545080308265
0.041,1.757975,1.0,2735.561166995632,0.3696973300141035,1.3147112488283832,0.9662519210449391,0.28688795,0.6841735646073963
0.0415,1.75694375,1.0,2735.1230652673567,0.3732328271136828,1.3142495009462722,0.966825350132357,0.2868446375,0.6850996529177897
0.042,1.7559,1.0,2734.5347034215133,0.37674849208893557,1.3137834727525,0.9673800484807062,0.28680079999999997,0.6860329471536388
0.0425,1.75484375,1.0,2733.807743028374,0.3802444379423533,1.3133130587717603,0.9679168148645179,0.2867564375,0.6869736199077917
0.043000000000000003,1.753775,1.0,2732.944791883073,0.38372075974726977,1.3128382358174937,0.968436409030407,0.28671155,0.6879216779674688
0.043500000000000004,1.75269375,1.0,2731.963812007488,0.3871775879808939,1.3123588412806457,0.9689395447740133,0.28666613750000003,0.688877405209861
0.044,1.7516,1.0,2730.874787503653,0.3906150367531059,1.3118747850105714,0.9694269015327326,0.2866202,0.6898409390134244
0.0445,1.75049375,1.0,2729.6832868793394,0.39403321096651533,1.3113860169816445,0.9698991251510929,0.2865737375,0.6908123355494484
0.045,1.7493750000000001,1.0,2728.39487984555,0.39743221552373176,1.3108924871682393,0.9703568282503796,0.28652675,0.691791649943706
0.0455,1.74824375,1.0,2727.015136309051,0.40081215532736475,1.3103941455447297,0.97080059225737,0.2864792375,0.692778936261343
0.046,1.7471,1.0,2725.5496254205505,0.4041731352800239,1.3098909420854896,0.9712309692902469,0.2864312,0.6937742474916062
0.0465,1.7459437500000001,1.0,2724.0039146779095,0.4075152602843187,1.3093828267648933,0.9716484839130238,0.28638263750000004,0.6947776355324109
0.047,1.744775,1.0,2722.3835690849946,0.4108386352428588,1.3088697495573147,0.9720536347688172,0.28633355,0.6957891511747503
0.0475,1.74359375,1.0,2720.6941503664484,0.41414336505825367,1.308351660437128,0.9724468961013982,0.28628393750000003,0.6968088440869458
0.048,1.7424,1.0,2718.9412162371564,0.41742955463311293,1.3078285093787068,0.9728287191736451,0.2862338,0.6978367627987355
0.0485,1.74119375,1.0,2717.130319727987,0.4206973088700462,1.3073002463564256,0.9731995335907775,0.2861831375,0.6988729546852046
0.049,1.739975,1.0,2715.2670085663617,0.4239467326716629,1.3067668213446584,0.9735597485355856,0.28613195,0.6999174659505563
0.0495,1.73874375,1.0,2713.3568246127015,0.4271779309405727,1.306228184317779,0.9739097539222592,0.2860802375,0.7009703416117232
0.05,1.7375,1.0,2711.4020281031894,0.43039100057286045,1.305684315120123,0.9742499225472051,0.286028,0.7020315672498131
0.0505,1.73624375,1.0,2709.403381403451,0.4335860371645694,1.3051352072431257,0.9745806107572557,0.2859752375,0.703101101086399
0.051000000000000004,1.734975,1.0,2707.373934048228,0.4367631653708883,1.3045807420374593,0.9749021545139025,0.28592195,0.7041791185583886
0.051500000000000004,1.73369375,1.0,2705.3157554482073,0.4399224816250714,1.3040209009327708,0.9752148778499138,0.2858681375,0.7052655988393699
0.052000000000000005,1.7324,1.0,2703.230912424885,0.44306408236037315,1.303455665358707,0.9755190902506407,0.2858138,0.7063605202860472
0.0525,1.73109375,1.0,2701.121469103919,0.4461880640100477,1.3028850167449153,0.9758150874311137,0.28575893750000003,0.7074638604318635
0.053,1.729775,1.0,2698.9894868151755,0.4492945230073494,1.3023089365210425,0.9761031520651258,0.28570355000000003,0.7085755959806004
0.0535,1.72844375,1.0,2696.8370240015056,0.45238355578553263,1.3017274061167354,0.9763835544696614,0.2856476375,0.7096957027999573
0.054,1.7271,1.0,2694.6661361343463,0.4554552587778516,1.301140406961641,0.9766565532477589,0.2855912,0.7108241559151061
0.0545,1.7257437500000001,1.0,2692.47887563733,0.4585097284175606,1.3005479204854067,0.9769223958926634,0.2855342375,0.7119609295022247
0.055,1.724375,1.0,2690.277291817408,0.461547061137914,1.299949928117679,0.9771813193559069,0.28547675,0.7131059968820128
0.0555,1.72299375,1.0,2688.063430803848,0.46456735337216604,1.299346411288105,0.977433550581752,0.2854187375,0.7142593305131781
0.056,1.7216,1.0,2685.8393354945206,0.467570701553571,1.2987373514263318,0.9776793070102505,0.2853602,0.7154209019859066
0.0565,1.72019375,1.0,2683.607045510188,0.4705572021153832,1.2981227299620062,0.9779187970510073,0.28530113749999997,0.7165906820153085
0.057,1.718775,1.0,2681.368597156279,0.473526951490857,1.2975025283247754,0.9781522205295768,0.28524155,0.7177686404348412
0.0575,1.71734375,1.0,2679.1260233920784,0.4764800461132466,1.2968767279442863,0.9783797691082818,0.2851814375,0.7189547461897137
0.058,1.7159,1.0,2676.882773397506,0.479416553211509,1.2962452972204526,0.9786016234087769,0.2851208,0.7201489919475947
0.0585,1.71444375,1.0,2674.640291908519,0.4823366023260745,1.295608222905806,0.9788179632086781,0.2850596375,0.7213513346634929
0.059000000000000004,1.7129750000000001,1.0,2672.399241283087,0.485240283666195,1.2949654989177568,0.9790289581314514,0.28499795,0.7225617169904299
0.059500000000000004,1.71149375,1.0,2670.160320387802,0.48812768539650153,1.2943171188279978,0.9792347709153092,0.2849357375,0.7237800815203642
0.06,1.71,1.0,2667.924226916722,0.4909988956816253,1.293663076208222,0.9794355579275976,0.284873,0.7250063701273088
0.0605,1.7084937500000001,1.0,2665.691657394005,0.4938540026861974,1.2930033646301218,0.979631469461633,0.2848097375,0.7262405239650125
0.061,1.7069750000000001,1.0,2663.4633071764542,0.49669309457484906,1.2923379776653898,0.9798226500174909,0.28474595,0.7274824834646366
0.0615,1.7054437500000001,1.0,2661.239870457335,0.4995162595122113,1.2916669088857191,0.9800092385677355,0.2846816375,0.7287321883324287
0.062,1.7039,1.0,2659.022040271498,0.5023235856629154,1.2909901518628024,0.9801913688089972,0.2846168,0.7299895775473955
0.0625,1.70234375,1.0,2656.810508500671,0.5051151611915923,1.2903077001683323,0.980369169400262,0.2845514375,0.7312545893589721
0.063,1.7007750000000001,1.0,2654.605965880253,0.5078910742628733,1.2896195473740013,0.9805427641886606,0.28448555,0.7325271612846895
0.0635,1.69919375,1.0,2652.409102006925,0.5106514130413895,1.2889256870515027,0.9807122724235053,0.28441913750000003,0.7338072301078353
0.064,1.6976,1.0,2650.220605346661,0.513396265691772,1.2882261127725287,0.9808778089592652,0.2843522,0.7350947318751198
0.0645,1.69599375,1.0,2648.0411632447217,0.516125720378652,1.2875208181087723,0.9810394844481332,0.2842847375,0.7363896018943312
0.065,1.694375,1.0,2645.8714619352377,0.5188398652666606,1.2868097966319263,0.9811974055227815,0.28421675,0.7376917747319933
0.0655,1.69274375,1.0,2643.712186552906,0.521538788520429,1.2860930419136833,0.9813516749698823,0.2841482375,0.7390011842110187
0.066,1.6911,1.0,2641.561021658571,0.5242225768712077,1.2853705752400297,0.9815023931582026,0.2840792,0.7403177129693066
0.0665,1.6894437500000001,1.0,2639.4205733019767,0.5268913121743019,1.284642372440518,0.9816496543471248,0.2840096375,0.7416413259293158
0.067,1.687775,1.0,2637.2926513325897,0.5295450780106454,1.2839084166685089,0.9817935499390549,0.28393955,0.7429719736759578
0.0675,1.68609375,1.0,2635.176435065133,0.53218395808622,1.2831687153855451,0.9819341693087368,0.2838689375,0.7443095619480234
0.068,1.6844000000000001,1.0,2633.071584789343,0.5348080359997595,1.2824232716145938,0.9820715985066414,0.2837978,0.7456540039875936
0.0685,1.68269375,1.0,2630.9800688795704,0.5374173950589514,1.2816720670152348,0.9822059195804123,0.2837261375,0.7470052508398121
0.069,1.680975,1.0,2628.9001569974225,0.5400121179339534,1.2809151174757443,0.9823372133287146,0.28365395,0.7483631912423112
0.0695,1.67924375,1.0,2626.8316140995435,0.5425922862848586,1.2801524250554912,0.9824655570920259,0.28358123749999997,0.7497277383148195
0.07,1.6775,1.0,2624.774205557133,0.5451579817717594,1.279383991813844,0.9825910255948647,0.283508,0.7510988045859754
0.07050000000000001,1.67574375,1.0,2622.7252908832843,0.5477092856595985,1.2786098421230134,0.9827136920569222,0.2834342375,0.7524762623475432
0.07100000000000001,1.673975,1.0,2620.6913722396866,0.550246279136738,1.277829915582759,0.9828336233663563,0.28335995,0.7538601339517761
0.07150000000000001,1.67219375,1.0,2618.668933594619,0.5527690420271606,1.2770442446684431,0.9829508883229985,0.2832851375,0.7552502758166193
0.07200000000000001,1.6704001473675483,1.0,2616.6600260050145,0.5552776539950744,1.2762528767771173,0.9830655541382979,0.28320980618943703,0.7566465180879045
0.0725,1.668602066791605,1.0,2615.043576071687,0.5577721941617005,1.27545584908785,0.9831776853486107,0.28313428680524744,0.7580487091941697
0.073,1.6668039862156616,1.0,2613.9893505322298,0.5602527423386838,1.274653603657512,0.9832873625831196,0.2830587674210578,0.7594559885138467
0.0735,1.6650059056397182,1.0,2613.4456000001323,0.5627193773324926,1.2738466180402437,0.9833946655677568,0.28298324803686814,0.7608674419257682
0.074,1.6632078250637745,1.0,2613.375065869625,0.5651721763821853,1.2730352368646927,0.9834996656940094,0.28290772865267855,0.7622823961423507
0.0745,1.661409744487831,1.0,2613.7406270302868,0.5676112167268208,1.2722198047595061,0.9836024322290482,0.2828322092684889,0.7637001846195675
0.075,1.6596116639118876,1.0,2614.5052675975035,0.5700365756054576,1.2714006663533324,0.9837030324019397,0.28275668988429925,0.7651201476497678
