Time [s],Phi [rad],STIM [ ],Fsee [N],Gamma [ ],Lcerel [ ],q [ ],Lmtc [m],fisomrel [ ]
0.0,1.8,1.0,17.973906773525318,8.448050941006032e-05,1.3793389902211453,0.005001870355995229,0.288653,0.5411413600063836
0.0005,1.79999375,1.0,18.30795407546003,0.0056932159493774765,1.3792989224526044,0.013148579757157088,0.2886527375,0.5412382889869043
0.001,1.799975,1.0,21.7049532954387,0.011270490818087163,1.3789294689193166,0.035997741761810094,0.28865195,0.5421315611751425
0.0015,1.79994375,1.0,31.27410293839216,0.016816481585389766,1.3780287784475371,0.07113374179409175,0.2886506375,0.5443056207444608
0.002,1.7999,1.0,54.023143137159614,0.022331363729379952,1.3763395963155054,0.11534751360485326,0.2886488,0.5483689676182476
0.0025,1.79984375,1.0,97.85898572216547,0.027815311744455087,1.3738995737861182,0.1652594537039168,0.28864643749999996,0.5542063415897933
0.003,1.7997750000000001,1.0,161.9206320802865,0.03326849914835196,1.3711783714604517,0.21798652842330396,0.28864354999999997,0.560671608928466
0.0035,1.79969375,1.0,238.7705343426477,0.03869109848228845,1.368551283719341,0.27131505757784075,0.2886401375,0.5668684670562048
0.004,1.7996,1.0,322.62328854645153,0.04408328132158938,1.3661254881736162,0.32359562387414054,0.2886362,0.5725514250944872
0.0045000000000000005,1.7994937500000001,1.0,410.465245079061,0.049445218280917407,1.363894724943021,0.373679789733657,0.2886317375,0.5777443531844484
0.005,1.799375,1.0,500.63530511665215,0.05477707900576929,1.3618323950382494,0.4208511382839082,0.28862675,0.5825169575921054
0.0055,1.79924375,1.0,592.0228582689401,0.06007903221583914,1.3599147686716393,0.46473259075765716,0.2886212375,0.5869303548853329
0.006,1.7991000000000001,1.0,683.7517895472619,0.06535124565798618,1.3581239998309917,0.5051935688754162,0.2886152,0.591030614620701
0.006500000000000001,1.79894375,1.0,775.1072287156669,0.07059388615389638,1.3564463337723571,0.5422703658248277,0.2886086375,0.5948533518502723
0.007,1.798775,1.0,865.4848561875051,0.07580711940247085,1.3548710332906737,0.5761048567181175,0.28860155,0.5984264978673774
0.0075,1.79859375,1.0,954.4343816471262,0.0809911109258907,1.3533884635434097,0.6068991364757758,0.2885939375,0.6017748527883553
0.008,1.7984,1.0,1041.5301454033931,0.08614602421761565,1.35199140041242,0.6348856646264326,0.2885858,0.6049172641444623
0.0085,1.79819375,1.0,1126.4544430560193,0.09127202232946942,1.3506731043253006,0.6603056876705001,0.2885771375,0.6078710902514568
0.009000000000000001,1.797975,1.0,1208.9901820462198,0.09636926771533294,1.3494271448347208,0.6833962813908881,0.28856795,0.6106526481270889
0.0095,1.79774375,1.0,1288.9488600000643,0.10143792175027352,1.348248144308364,0.7043831345781433,0.2885582375,0.6132756058220052
0.01,1.7975,1.0,1366.1946718461957,0.10647814445544575,1.347131180035785,0.7234760757558686,0.288548,0.6157523719609803
0.0105,1.79724375,1.0,1440.6321655008146,0.1114900947276844,1.34607177477765,0.7408672808463936,0.2885372375,0.6180941540250238
0.011,1.796975,1.0,1512.266338767583,0.11647393332832369,1.3450650225536132,0.7567305404368934,0.28852595000000003,0.6203129152106966
0.0115,1.79669375,1.0,1581.0467286504092,0.12142981669184837,1.3441074255709065,0.7712227267049153,0.2885141375,0.6224173458767956
0.012,1.7964,1.0,1646.9580904815903,0.12635790084575707,1.3431956194198553,0.7844842091606854,0.28850180000000003,0.6244157104943298
0.0125,1.79609375,1.0,1710.0268173694774,0.13125834181754845,1.3423262396907842,0.7966401323176089,0.2884889375,0.6263161531223461
0.013000000000000001,1.7957750000000001,1.0,1770.3087249175003,0.13613129529134574,1.341496017954475,0.8078018826503357,0.28847555,0.6281264978355767
0.0135,1.79544375,1.0,1827.8595445728247,0.14097691584176014,1.3407020634490372,0.8180686030744836,0.2884616375,0.6298536478366334
0.014,1.7951000000000001,1.0,1882.7328022996091,0.1457953562703286,1.3399418243047498,0.8275284924977039,0.2884472,0.6315036865062456
0.0145,1.79474375,1.0,1934.9959783298025,0.15058676879107302,1.3392128620309371,0.8362599495489982,0.2884322375,0.6330823795688151
0.015,1.794375,1.0,1984.7207270054741,0.15535130477690265,1.3385129256482635,0.8443327251529634,0.28841675,0.6345950228605013
0.0155,1.79399375,1.0,2032.0084539262268,0.16008911650841218,1.3378396509286516,0.8518088341657915,0.2884007375,0.6360470990446646
0.016,1.7936,1.0,2076.9284717794626,0.16480035300184576,1.3371911935369665,0.8587436663744971,0.2883842,0.6374429177331506
0.0165,1.7931937500000001,1.0,2119.5536870998176,0.16948516265860145,1.3365658177863893,0.8651866391843209,0.2883671375,0.6387865124291423
0.017,1.792775,1.0,2159.9695255138686,0.1741436938800774,1.3359617879901005,0.8711818724000816,0.28834955,0.640081878222241
0.0175,1.7923437500000001,1.0,2198.259649293822,0.17877609397063732,1.3353775022630145,0.876768850945656,0.2883314375,0.6413326880606558
0.018000000000000002,1.7919,1.0,2234.524178435406,0.18338251113823592,1.3348112939204675,0.8819829158207636,0.2883128,0.6425427215028774
0.0185,1.79144375,1.0,2268.8372244887714,0.1879630902688634,1.3342618486097537,0.8868558540768636,0.2882936375,0.6437149762882337
0.019,1.790975,1.0,2301.271625182135,0.19251797545490185,1.3337279386058973,0.8914162405716584,0.28827395,0.6448522416895996
0.0195,1.79049375,1.0,2331.906829176485,0.19704731078873322,1.3332083361839224,0.8956897848682984,0.2882537375,0.6459572853875706
0.02,1.79,1.0,2360.822666432077,0.20155123955583842,1.3327018690333208,0.899699668950191,0.288233,0.6470327370591042
0.0205,1.78949375,1.0,2388.102263303866,0.20602990536984078,1.3322073852271632,0.9034668233581884,0.2882117375,0.6480811645425102
0.021,1.788975,1.0,2413.82327883187,0.21048345079849,1.3317238328139986,0.9070101932659836,0.28818995000000003,0.6491049067066017
0.021500000000000002,1.78844375,1.0,2438.0460956077955,0.21491201527906345,1.3312503667118163,0.9103469764625385,0.2881676375,0.6501058499785946
0.022,1.7879,1.0,2460.8345532166777,0.21931573824883838,1.330786141838605,0.9134927700145242,0.2881448,0.6510858685189103
0.0225,1.78734375,1.0,2482.255661397179,0.22369475914509224,1.330330313112354,0.9164617413893618,0.28812143749999997,0.6520468247420094
0.023,1.786775,1.0,2502.375461729311,0.22804921673174683,1.3298820721640308,0.9192667860189472,0.28809755,0.6529904925534605
0.0235,1.78619375,1.0,2521.2556404820803,0.23237924879243932,1.3294406762694675,0.9219196647650382,0.28807313749999996,0.6539184975099359
0.024,1.7856,1.0,2538.9728253834264,0.23668499528994624,1.329005263172816,0.9244310878519592,0.2880482,0.6548327066472771
0.0245,1.78499375,1.0,2555.5737331522273,0.24096659050876135,1.3285752724935458,0.9268108929183904,0.2880227375,0.6557343440873473
0.025,1.784375,1.0,2571.1066997340117,0.24522416873337832,1.3281501438511265,0.9290680811309043,0.28799675,0.6566246272018016
0.025500000000000002,1.78374375,1.0,2585.621546273029,0.2494578642482909,1.3277293168650275,0.9312108997253106,0.2879702375,0.6575047667958622
0.026000000000000002,1.7831000000000001,1.0,2599.1694520470965,0.25366781133799277,1.3273122311547183,0.9332469153974909,0.2879432,0.6583759672720672
0.0265,1.78244375,1.0,2611.8011239659054,0.25785414378523625,1.3268983422329883,0.9351830819568662,0.2879156375,0.6592393936394263
0.027,1.781775,1.0,2623.560377995653,0.262016993098443,1.3264871797872166,0.9370258065857375,0.28788755,0.6600960504929518
0.0275,1.7810937500000001,1.0,2634.5058898541956,0.2661564951718096,1.3260781447125338,0.9387809727555743,0.2878589375,0.6609472051684689
0.028,1.7804,1.0,2644.6728342340066,0.2702727788553323,1.325670863800155,0.9404540366288009,0.2878298,0.6617936494632042
0.0285,1.77969375,1.0,2654.0970735889973,0.27436597299900745,1.3252649638412954,0.9420500353978918,0.2878001375,0.6626361712287014
0.029,1.778975,1.0,2662.8150984525937,0.2784362064528312,1.3248600716271697,0.9435736249105506,0.28776995,0.663475554408132
0.029500000000000002,1.7782437500000001,1.0,2670.8639708428595,0.28248360806679984,1.3244558139489933,0.9450291134643768,0.2877392375,0.6643125790647203
0.03,1.7775,1.0,2678.2812707569474,0.28650830669090965,1.324051817597981,0.9464204922027076,0.287708,0.665148021401291
0.0305,1.77674375,1.0,2685.09314637486,0.29051042680910877,1.3236478184168063,0.947751475262862,0.2876762375,0.6659824286799807
0.031,1.775975,1.0,2691.343232006254,0.2944901004114233,1.3232433955227116,0.9490254930439836,0.28764395,0.666816668529808
0.0315,1.7751937500000001,1.0,2697.066743490918,0.2984474550509695,1.3228382087170991,0.9502457422848304,0.2876111375,0.6676514381133123
0.032,1.7744,1.0,2702.287186733496,0.30238261348609186,1.3224320277353696,0.9514152087818619,0.2875778,0.6684872050078375
0.0325,1.77359375,1.0,2707.028313823542,0.3062956984751349,1.3220246223129244,0.9525366727369667,0.2875439375,0.6693244343884515
0.033,1.772775,1.0,2711.3140998785625,0.31018683277644316,1.3216157621851645,0.9536127254086312,0.28750955,0.6701635890116573
0.0335,1.7719437500000002,1.0,2715.168721062645,0.3140561391483612,1.321205217087491,0.9546457842243676,0.2874746375,0.6710051291957199
0.034,1.7711000000000001,1.0,2718.6165337806497,0.3179037403492335,1.320792756755305,0.9556381065129594,0.2874392,0.6718495127976138
0.0345,1.7702437500000001,1.0,2721.682055047975,0.32172975913740465,1.3203781509240078,0.9565918019971624,0.2874032375,0.672697195186587
0.035,1.7693750000000001,1.0,2724.387993651045,0.32553431621088424,1.3199611870738828,0.9575088455694704,0.28736675,0.6735485930046932
0.035500000000000004,1.76849375,1.0,2726.7545919532067,0.32931753134041963,1.3195416762201195,0.9583910884438921,0.2873297375,0.6744040725715443
0.036000000000000004,1.7676,1.0,2728.8060972841386,0.33307953051844513,1.3191193939023482,0.9592402629892395,0.2872922,0.6752640702659373
0.0365,1.76669375,1.0,2730.557910564684,0.3368204301335303,1.3186941969187118,0.960057999798414,0.2872541375,0.6761288547523512
0.037,1.765775,1.0,2732.0255043076745,0.34054034657424503,1.3182659420673524,0.9608458291858398,0.28721555,0.6769986929846323
0.0375,1.76484375,1.0,2733.2244141759356,0.3442393962291589,1.3178344861464122,0.9616051884726307,0.2871764375,0.6778738501787185
0.038,1.7639,1.0,2734.1702309945313,0.3479176954868417,1.3173996859540342,0.9623374286648939,0.28713679999999997,0.6787545897840576
0.0385,1.76294375,1.0,2734.8785932188607,0.3515753607358631,1.3169613982883606,0.9630438205818292,0.28709663750000003,0.6796411734537222
0.039,1.761975,1.0,2735.365179855773,0.3552125083647928,1.3165194799475337,0.9637255604844546,0.28705595,0.6805338610132106
0.0395,1.7609937500000001,1.0,2735.645703841128,0.3588292547622005,1.316073787729696,0.9643837752506086,0.2870147375,0.6814329104279435
0.04,1.76,1.0,2735.7551267129484,0.3624257026128651,1.315624003922334,0.9650195089605732,0.286973,0.6823389290434776
0.0405,1.758994741300148,1.0,2735.726955567273,0.36600198164391395,1.3151702718952225,0.9656337922755723,0.2869307791346062,0.6832515934741439
0.041,1.7579872195030068,1.0,2735.9880450184332,0.36955820974078546,1.314712891605895,0.966227609181167,0.2868884632191263,0.6841702674013272
0.0415,1.7569796977058656,1.0,2736.6276583133726,0.3730944957865453,1.3142520751556988,0.9668018797012995,0.2868461473036463,0.6850944938148504
0.042,1.7559721759087243,1.0,2737.622558969544,0.3766109486642592,1.3137880346459814,0.9673574732056004,0.28680383138816645,0.686023817962412
0.0425,1.754964654111583,1.0,2738.9495657875696,0.38010767725699285,1.313320982178091,0.967895211722083,0.28676151547268647,0.6869577873946315
0.043000000000000003,1.753957132314442,1.0,2740.585538190018,0.383584790447812,1.312851129853375,0.9684158730011324,0.2867191995572066,0.6878959520072281
0.043500000000000004,1.7529496105173008,1.0,2742.507362554484,0.3870423971197825,1.3123786897731813,0.9689201933517607,0.2866768836417266,0.6888378640803271
0.044,1.7519420887201596,1.0,2744.6919395469945,0.39048060615596986,1.3119038740388573,0.9694088702691482,0.2866345677262467,0.6897830783148999
0.0445,1.7509345669230183,1.0,2747.116172450667,0.39389952643944,1.3114268947517511,0.9698825648707309,0.28659225181076675,0.6907311518663322
0.045,1.749927045125877,1.0,2749.7569564930227,0.3972992668532585,1.3109479640132105,0.9703419041565184,0.2865499358952868,0.691681644375125
0.0455,1.7489195233287358,1.0,2752.5911691703623,0.4006799362804912,1.3104672939245827,0.9707874831079101,0.2865076199798069,0.6926341179947282
0.046,1.7479120015315945,1.0,2755.5956615694045,0.4040416436042038,1.309985096587216,0.9712198666379768,0.28646530406432696,0.6935881374165
0.0465,1.7469044797344533,1.0,2758.7523557191735,0.40738449392474746,1.309501537946291,0.9716395875060881,0.28642298814884704,0.6945433609977059
0.047,1.745896957937312,1.0,2762.052590205151,0.41070859104748353,1.3090166986011904,0.972047145781971,0.2863806722333671,0.6954996173010874
0.0475,1.7448894361401708,1.0,2765.4738623588582,0.4140140496071251,1.3085307840521716,0.9724430274209936,0.2863383563178872,0.6964564900897712
0.048,1.7438819143430295,1.0,2769.008116359494,0.4173009711894513,1.308043868993894,0.9728276839062223,0.28629604040240725,0.6974138226252318
0.0485,1.7428743925458883,1.0,2772.6472822529727,0.4205694573802411,1.3075560281210177,0.9732015451099895,0.2862537244869273,0.6983714590766065
0.049,1.741866870748747,1.0,2776.3832743569046,0.42381960976527344,1.3070673361282024,0.9735650205292163,0.2862114085714474,0.6993292445252857
0.0495,1.7408593489516058,1.0,2780.2079897892104,0.42705152993032736,1.306577867710108,0.9739185004392662,0.28616909265596746,0.7002870249691437
0.05,1.7398518271544645,1.0,2784.113307120405,0.43026531946118196,1.3060876975613944,0.974262356972393,0.2861267767404875,0.7012446473264169
0.0505,1.7388443053573233,1.0,2788.0910851499143,0.4334610799436161,1.3055969003767216,0.9745969451263524,0.2860844608250076,0.7022019594392223
0.051000000000000004,1.737836783560182,1.0,2792.133161804999,0.43663891296340895,1.305105550850749,0.974922603708275,0.2860421449095276,0.7031588100767252
0.051500000000000004,1.7368292617630408,1.0,2796.2313531653017,0.4397989201063394,1.3046137236781365,0.9752396562185027,0.2859998289940477,0.704115048937946
0.052000000000000005,1.7358217399658997,1.0,2800.377452608908,0.4429412029581865,1.3041214935535443,0.9755484116786994,0.28595751307856776,0.7050705266542139
0.0525,1.7348142181687585,1.0,2804.5679662460675,0.44606585514035935,1.3036288927017419,0.9758491618924543,0.2859151971630879,0.7060251770303385
0.053,1.7338066963716172,1.0,2808.794660469624,0.4491729837992922,1.3031359957296649,0.9761421899132906,0.2858728812476079,0.7069788523373234
0.0535,1.732799174574476,1.0,2813.0520425909644,0.4522626893258514,1.3026428524848694,0.9764277642442462,0.285830565332128,0.7079314535708596
0.054,1.7317916527773347,1.0,2817.3372108065855,0.4553350668842099,1.3021494894880823,0.9767061398707176,0.28578824941664804,0.708882927302587
0.0545,1.7307841309801935,1.0,2821.6472546408954,0.4583902116385408,1.3016559332600297,0.97697756090057,0.2857459335011681,0.7098332204369276
0.055,1.7297766091830522,1.0,2825.9792548246915,0.46142821875301715,1.3011622103214386,0.9772422611202531,0.2857036175856882,0.7107822802114336
0.0555,1.728769087385911,1.0,2830.330283189541,0.464449183391812,1.300668347193035,0.9775004645180181,0.28566130167020826,0.7117300541970938
0.056,1.7277615655887697,1.0,2834.6974025772834,0.46745320071909846,1.3001743703955457,0.9777523857764301,0.2856189857547283,0.7126764902985897
0.0565,1.7267540437916284,1.0,2839.077666765627,0.47044036589904953,1.2996803064496971,0.9779982307362267,0.2855766698392484,0.7136215367545141
0.057,1.7257465219944872,1.0,2843.468120408943,0.47341077409583826,1.2991861818762158,0.9782381968334014,0.28553435392376847,0.7145651421375381
0.0575,1.724739000197346,1.0,2847.8657989950207,0.4763645204736377,1.298692023195828,0.9784724735112696,0.28549203800828854,0.7155072553545373
0.058,1.7237314784002047,1.0,2852.2680315820867,0.47930169842884557,1.2981978542371169,0.9787012423053354,0.2854497220928086,0.7164478307665153
0.0585,1.7227239566030634,1.0,2856.676748066675,0.48222237798627476,1.297703657876759,0.9789246732690914,0.2854074061773286,0.7173869007869824
0.059000000000000004,1.7217164348059222,1.0,2861.0840873710226,0.48512668993517755,1.297209503969878,0.9791429396640624,0.28536509026184875,0.7183243327486576
0.059500000000000004,1.720708913008781,1.0,2865.489325929119,0.48801472200362833,1.2967153988373958,0.9793562008912697,0.28532277434636877,0.7192601150917255
0.06,1.7197013912116397,1.0,2869.891737998308,0.4908865619197014,1.2962213488002337,0.9795646101793597,0.2852804584308889,0.7201942363360023
0.0605,1.7186938694144986,1.0,2874.290595665728,0.4937422974114713,1.295727360179313,0.9797683148717369,0.2852381425154089,0.721126685080915
0.061,1.7176863476173574,1.0,2878.685168857379,0.4965820162070123,1.2952334392955547,0.9799674566982041,0.28519582659992904,0.7220574500054784
0.0615,1.7166788258202161,1.0,2883.074725346303,0.4994058060343989,1.2947395924698804,0.9801621720320616,0.28515351068444905,0.722986519868268
0.062,1.7156713040230749,1.0,2887.45853076319,0.5022137546217054,1.2942458260232115,0.9803525921335501,0.2851111947689691,0.7239138835073915
0.0625,1.7146637822259336,1.0,2891.8358486067987,0.5050059496970062,1.2937521462764692,0.9805388433804545,0.2850688788534892,0.7248395298404589
0.063,1.7136562604287924,1.0,2896.2059402559294,0.5077824789883757,1.2932585595505748,0.980721047486644,0.28502656293800926,0.7257634478645472
0.0635,1.7126487386316511,1.0,2900.5680649816168,0.5105434302238883,1.2927650721664499,0.9808993217092603,0.28498424702252934,0.7266856266561652
0.064,1.7116412168345099,1.0,2904.921479961213,0.5132888911316184,1.2922716904450156,0.9810737790452243,0.2849419311070494,0.7276060553712149
0.0645,1.7106336950373686,1.0,2909.2654402921835,0.5160189494396403,1.2917784207071932,0.9812445284176872,0.2848996151915695,0.7285247232449495
0.065,1.7096261732402274,1.0,2913.599199007656,0.5187336928760287,1.291285269273904,0.9814116748530106,0.28485729927608955,0.7294416195919299
0.0655,1.7086186514430861,1.0,2917.922007092528,0.5214332091688575,1.2907922424660696,0.9815753196488197,0.2848149833606096,0.7303567338059777
0.066,1.7076111296459449,1.0,2922.2331135004215,0.5241175860462015,1.290299346604611,0.9817355605336437,0.2847726674451297,0.7312700553601272
0.0665,1.7066036078488036,1.0,2926.533116562447,0.5267868776963486,1.289806576147528,0.9818924889943937,0.28473035152964976,0.732181595732293
0.067,1.7055960860516624,1.0,2930.8210974963076,0.5294411977857382,1.2893139388779808,0.9820461979629673,0.28468803561416983,0.7330913417439667
0.0675,1.704588564254521,1.0,2935.0962882548183,0.5320806474002306,1.2888214412360928,0.9821967762505507,0.2846457196986899,0.7339992827879662
0.068,1.7035810424573798,1.0,2939.3586614480264,0.5347053056201939,1.2883290831568182,0.9823443078891223,0.2846034037832099,0.7349054202995812
0.0685,1.7025735206602386,1.0,2943.60818983746,0.5373152515259954,1.2878368645751102,0.9824888740676517,0.28456108786773004,0.7358097557129136
0.069,1.7015659988630973,1.0,2947.844846335144,0.5399105641980029,1.287344785425923,0.982630553248115,0.28451877195225006,0.7367122904608746
0.0695,1.700558477065956,1.0,2952.068604004285,0.542491322716584,1.2868528456442105,0.9827694212760045,0.2844764560367702,0.7376130259751872
0.07,1.699550955268815,1.0,2956.2794360581825,0.5450576061621063,1.2863610451649263,0.9829055514856396,0.2844341401212902,0.7385119636863873
0.07050000000000001,1.6985434334716738,1.0,2960.4773158609496,0.5476094936149376,1.2858693839230246,0.9830390148005476,0.28439182420581033,0.7394091050238213
0.07100000000000001,1.6975359116745325,1.0,2964.6622169263574,0.5501470641554455,1.2853778618534588,0.983169879829182,0.28434950829033034,0.7403044514156512
0.07150000000000001,1.6965283898773913,1.0,2968.8341129184864,0.5526703968639975,1.2848864788911831,0.9832982129562255,0.2843071923748504,0.7411980042888504
