Time [s],Phi [rad],STIM [ ],Fsee [N],Gamma [ ],Lcerel [ ],q [ ],Lmtc [m],fisomrel [ ]
0.0,1.8,1.0,17.96615606869482,3.163950393466413e-05,1.3793398584898748,0.005000264385743607,0.288653,0.5411392594415873
0.0005,1.79999375,1.0,18.28288957095835,0.005640671340141446,1.3793017052097942,0.013000702482029482,0.2886527375,0.5412315574774949
0.001,1.799975,1.0,21.6407089454426,0.01121824094256099,1.3789360222881788,0.03572143855918682,0.28865195,0.5421157238916228
0.0015,1.79994375,1.0,31.125755906197476,0.016764524790333045,1.378041390615371,0.07075614926394416,0.2886506375,0.5442752135892746
0.002,1.7999,1.0,53.707037391201915,0.022279698370904582,1.3763600497639163,0.11490071888352191,0.2886488,0.5483198754518572
0.0025,1.79984375,1.0,97.33034379390446,0.027763936187757365,1.3739249856396447,0.16477361770983107,0.28864643749999996,0.5541457433494628
0.003,1.7997750000000001,1.0,161.23443941758987,0.033217411767913305,1.3712040070436915,0.21748545916730724,0.28864354999999997,0.5606109220494484
0.0035,1.79969375,1.0,237.9961567921736,0.03864029766169105,1.3685751015564134,0.2708167837339414,0.2886401375,0.566812482502167
0.004,1.7996,1.0,321.80002358851107,0.04403276545344531,1.3661472681033,0.32311322485679783,0.2886362,0.5725005677949304
0.0045000000000000005,1.7994937500000001,1.0,409.61316567772604,0.04939498576676317,1.3639147076726175,0.3732219121416759,0.2886317375,0.5776979768480657
0.005,1.799375,1.0,499.76618738402055,0.054727128255630204,1.3618508491804293,0.4204227907057858,0.28862675,0.5824743716435019
0.0055,1.79924375,1.0,591.1464494425061,0.060029361650857906,1.3599318800778346,0.46433602563818993,0.2886212375,0.586891076861082
0.006,1.7991000000000001,1.0,682.8747775241579,0.06530185370582324,1.3581399322975625,0.5048291387725726,0.2886152,0.5909942247892137
0.006500000000000001,1.79894375,1.0,774.2309535011785,0.07054477116136905,1.3564612847574735,0.5419372117601522,0.2886086375,0.5948193637405976
0.007,1.798775,1.0,864.6459589904664,0.07575828024690054,1.3548845780615,0.5758009849889274,0.28860155,0.598395842647038
0.0075,1.79859375,1.0,953.5937843965158,0.08094254545790572,1.353401387573513,0.6066229137183501,0.2885939375,0.6017457246846802
0.008,1.7984,1.0,1040.6991685039623,0.08609773102879978,1.352003630429324,0.6346347539343614,0.2885858,0.6048898091982652
0.0085,1.79819375,1.0,1125.6511437159663,0.09122400019886687,1.350684472360745,0.6600776932046374,0.2885771375,0.6078456659600316
0.009000000000000001,1.797975,1.0,1208.2011953281794,0.09632151486215798,1.3494379222980983,0.6831891465169224,0.28856795,0.6106286302933297
0.0095,1.79774375,1.0,1288.183896779019,0.10139043661912689,1.348258264169197,0.7041947439367441,0.2885582375,0.6132531295850059
0.01,1.7975,1.0,1365.4694239548362,0.1064309260112773,1.3471404991622908,0.7233044456402612,0.288548,0.6157317405655471
0.0105,1.79724375,1.0,1439.9543483657058,0.11144314193136454,1.346080256312695,0.7407106625515277,0.2885372375,0.6180754342810566
0.011,1.796975,1.0,1511.5924397152144,0.11642724295337961,1.3450732528688893,0.756587649601292,0.28852595000000003,0.6202948027885318
0.0115,1.79669375,1.0,1580.3832355822335,0.12138338752788712,1.3441153505292047,0.7710921203705787,0.2885141375,0.6223999538589368
0.012,1.7964,1.0,1646.3283579825372,0.12631173245268457,1.343202989016714,0.7843645147779554,0.28850180000000003,0.6243995801339071
0.0125,1.79609375,1.0,1709.433201706051,0.13121243287477521,1.3423330572507146,0.7965302333840668,0.2884889375,0.626301268856438
0.013000000000000001,1.7957750000000001,1.0,1769.739405265266,0.13608564394116232,1.341502444150503,0.8077008491428428,0.28847555,0.6281125020383691
0.0135,1.79544375,1.0,1827.2998233101612,0.14093151984294044,1.3407082810239084,0.817975616136971,0.2884616375,0.6298401378881808
0.014,1.7951000000000001,1.0,1882.2032683983823,0.14575021520306317,1.3399476201574985,0.8274426803447953,0.2884472,0.6314911210116491
0.0145,1.79474375,1.0,1934.501156475236,0.1505418814916664,1.3392182042781942,0.8361806013093306,0.2884322375,0.6330708223414456
0.015,1.794375,1.0,1984.2575515038568,0.15530666979833482,1.3385178631651748,0.8442592361404293,0.28841675,0.6345843632591963
0.0155,1.79399375,1.0,2031.5551542904402,0.1600447312126532,1.3378444265976206,0.8517407283373677,0.2884007375,0.6360368093651945
0.016,1.7936,1.0,2076.478139465144,0.16475621553047406,1.3371958863501228,0.8586804684408734,0.2883842,0.6374328259839129
0.0165,1.7931937500000001,1.0,2119.1279704935127,0.169441273282144,1.3365702092326002,0.8651278370329545,0.2883671375,0.6387770862790936
0.017,1.792775,1.0,2159.572276703736,0.174100051493201,1.3359658472432918,0.8711270619221929,0.28834955,0.6400731807592382
0.0175,1.7923437500000001,1.0,2197.888060072651,0.17873269708126904,1.3353812660873505,0.8767176892704839,0.2883314375,0.641324637620044
0.018000000000000002,1.7919,1.0,2234.162105165248,0.18333935696397216,1.3348149314699287,0.8819351303292947,0.2883128,0.6425349542882237
0.0185,1.79144375,1.0,2268.472894048909,0.18792017632745306,1.3342654810510344,0.8868111877314642,0.2882936375,0.6437072327095682
0.019,1.790975,1.0,2300.924560590415,0.19247530264436333,1.3337313744236587,0.8913743862411124,0.28827395,0.6448449289709685
0.0195,1.79049375,1.0,2331.584137929388,0.19700487864891608,1.3332115096509598,0.8956504954650869,0.2882537375,0.6459505415692868
0.02,1.79,1.0,2360.520998700573,0.20150904672033337,1.3327048175149536,0.8996627452192142,0.288233,0.6470264808748132
0.0205,1.78949375,1.0,2387.809652890831,0.20598794923783723,1.3322102287976565,0.9034321031899827,0.2882117375,0.6480751399305125
0.021,1.788975,1.0,2413.5293144148873,0.21044172858064966,1.3317266742810845,0.9069775260177504,0.28818995000000003,0.6490988953138115
0.021500000000000002,1.78844375,1.0,2437.7464758126125,0.21487052465797918,1.331253248421781,0.9103162130188056,0.2881676375,0.6500997621492917
0.022,1.7879,1.0,2460.5490635361452,0.219274480933903,1.3307888748986998,0.9134637298941122,0.2881448,0.6510801028164934
0.0225,1.78734375,1.0,2481.9928084211547,0.22365373502727104,1.3303328185783865,0.9164342812976493,0.28812143749999997,0.6520415464606467
0.023,1.786775,1.0,2502.1351231890258,0.2280084243954763,1.3298843537928253,0.9192407907637681,0.28809755,0.6529856923555168
0.0235,1.78619375,1.0,2521.0358628607987,0.23233868649591172,1.329442754874,0.9218950323698438,0.28807313749999996,0.6539141302966505
0.024,1.7856,1.0,2538.7571176277365,0.23664465878597024,1.3290072961538946,0.9244077488544643,0.2880482,0.6548284409359169
0.0245,1.78499375,1.0,2555.3516629187584,0.24092647679488932,1.328577358631163,0.9267887741331546,0.2880227375,0.6557299725604848
0.025,1.784375,1.0,2570.8881789374173,0.24518427850623098,1.3281521904339795,0.9290470843420549,0.28799675,0.6566203441115475
0.025500000000000002,1.78374375,1.0,2585.4235294224363,0.24941819933321085,1.3277311661990652,0.931190924415469,0.2879702375,0.6575009014725789
0.026000000000000002,1.7831000000000001,1.0,2598.9971162399074,0.25362837143899347,1.3273138364421397,0.9332278863412417,0.2879432,0.6583726163058935
0.0265,1.78244375,1.0,2611.6494451987655,0.25781492698674324,1.3268997516789232,0.9351649443966811,0.2879156375,0.6592364552049056
0.027,1.781775,1.0,2623.4220352141765,0.26197799813962486,1.3264884624251354,0.9370085136904069,0.28788755,0.6600933797935936
0.0275,1.7810941045693107,1.0,2634.3746388055074,0.2661177170608028,1.3260795191964965,0.9387645024439206,0.28785895239191106,0.6609443468130793
0.028,1.7804095818554515,1.0,2644.9673887675995,0.27023421516382023,1.3256724711766654,0.9404383582437605,0.28783020243792895,0.6617903109620027
0.0285,1.7797250591415923,1.0,2655.3847389018592,0.27432762231134117,1.325267235405271,0.9420351628440541,0.28780145248394684,0.6626314590937883
0.029,1.779040536427733,1.0,2665.6104695984304,0.2783980715717695,1.3248639504141448,0.9435596446163149,0.2877727025299648,0.6634675182439925
0.029500000000000002,1.7783560137138739,1.0,2675.6455228834116,0.28244568967741873,1.324462596339899,0.9450161532543079,0.28774395257598273,0.6642985445675119
0.03,1.7776714910000146,1.0,2685.4908819980656,0.2864706033606023,1.3240631533191451,0.9464087173416925,0.2877152026220006,0.6651245939440441
0.0305,1.7769869682861557,1.0,2695.147570552681,0.2904729393536338,1.3236656014884958,0.9477410721311056,0.2876864526680185,0.6659457219805174
0.031,1.7763024455722964,1.0,2704.616651689608,0.29445282438882653,1.3232699209845626,0.9490166845940856,0.28765770271403646,0.6667619840135033
0.0315,1.7756179228584372,1.0,2713.899227254069,0.29841038519849405,1.322876091943958,0.9502387760394133,0.28762895276005435,0.667573435111597
0.032,1.774933400144578,1.0,2722.9976783110005,0.3023457388989531,1.322484083206557,0.9514103382542196,0.2876002028060723,0.6683801533113088
0.0325,1.7742488774307188,1.0,2731.914078256043,0.30625902145820066,1.3220938668182074,0.9525341627721071,0.2875714528520902,0.6691822096878026
0.033,1.7735643547168596,1.0,2740.6513558699853,0.3101503612132341,1.3217054074436583,0.9536128478475535,0.2875427028981081,0.6699796901196104
0.0335,1.7728798320030004,1.0,2749.2133072267293,0.31401987783615415,1.3213186623062227,0.9546488138836359,0.287513952944126,0.6707726953244247
0.034,1.7721953092891414,1.0,2757.6037777169004,0.3178676909990615,1.3209335886292148,0.9556443208718839,0.2874852029901439,0.6715613255407331
0.0345,1.7715107865752822,1.0,2765.826660442217,0.321693920374057,1.3205501436359477,0.9566014809242758,0.28745645303616185,0.6723456805324404
0.035,1.770826263861423,1.0,2773.885894650023,0.32549868563324125,1.3201682845497351,0.9575222696865806,0.28742770308217974,0.6731258595933669
0.035500000000000004,1.7701417411475637,1.0,2781.785464209819,0.3292821064487151,1.3197879685938902,0.9584085367445947,0.2873989531281977,0.6739019615516362
0.036000000000000004,1.7694572184337045,1.0,2789.529396128376,0.33304430249257927,1.319409152991727,0.9592620151226153,0.2873702031742156,0.6746740847739401
0.0365,1.7687726957198453,1.0,2797.12175910747,0.3367853934369344,1.3190317949665582,0.9600843299627195,0.2873414532202335,0.6754423271696939
0.037,1.7680881730059863,1.0,2804.56666214034,0.34050549895388144,1.3186558517416982,0.9608770064639269,0.2873127032662514,0.6762067861950665
0.0375,1.767403650292127,1.0,2811.868253150232,0.34420473871552093,1.31828128054046,0.9616414771519161,0.2872839533122693,0.6769675588569037
0.038,1.7667191275782679,1.0,2819.023643472675,0.3478831823065517,1.3179081018586332,0.9623790842306816,0.28725520335828725,0.6777246134331663
0.0385,1.7660346048644087,1.0,2826.0442156129084,0.3515409916887967,1.3175362087174305,0.9630910973460612,0.2872264534043052,0.6784781765094401
0.039,1.7653500821505494,1.0,2832.9381675666546,0.35517831118844606,1.3171655231856296,0.9637787105191638,0.2871977034503231,0.6792284148673018
0.0395,1.7646655594366902,1.0,2839.708446998327,0.35879524948359814,1.3167960145896314,0.9644430458495633,0.287168953496341,0.6799753990437694
0.04,1.7639810367228312,1.0,2846.358027370167,0.3623919152523512,1.3164276522558371,0.9650851612346008,0.2871402035423589,0.6807191992597545
0.0405,1.763296514008972,1.0,2852.889907152397,0.36596841717280365,1.316060405510648,0.9657060547254019,0.2871114535883768,0.6814598854223367
0.041,1.7626119912951128,1.0,2859.3071090542367,0.3695248639230538,1.315694243680465,0.9663066685432405,0.28708270363439475,0.6821975271269743
0.0415,1.7619274685812536,1.0,2865.612679275474,0.37306136418119995,1.3153291360916892,0.9668878927860117,0.28705395368041264,0.6829321936596586
0.042,1.7612429458673944,1.0,2871.809686779271,0.37657802662534046,1.314965052070722,0.967450568851697,0.2870252037264306,0.6836639539990034
0.0425,1.7605584231535352,1.0,2877.9012225851498,0.38007495993357365,1.314601960943964,0.967995492603125,0.2869964537724485,0.6843928768182796
0.043000000000000003,1.7598739004396762,1.0,2883.8903990840595,0.3835522727839978,1.314239832037817,0.9685234172960223,0.28696770381846637,0.685119030487387
0.043500000000000004,1.759189377725817,1.0,2889.7803493730203,0.3870100738547113,1.3138786346786815,0.9690350562902859,0.2869389538644843,0.6858424830747667
0.044,1.7585048550119577,1.0,2895.574226611028,0.3904484718238124,1.3135183381929592,0.9695310855625412,0.2869102039105022,0.6865633023492516
0.0445,1.7578203322980985,1.0,2901.2752033967035,0.3938675753693996,1.3131589119070506,0.9700121460363945,0.28688145395652015,0.6872815557818627
0.045,1.7571358095842393,1.0,2906.886471165179,0.3972674931695711,1.312800325147357,0.9704788457452806,0.28685270400253804,0.6879973105475374
0.0455,1.75645128687038,1.0,2912.4112396073956,0.40064833390242527,1.3124425472402799,0.9709317618414564,0.286823954048556,0.6887106335268032
0.046,1.755766764156521,1.0,2917.8527361090523,0.4040102062460604,1.3120855475122202,0.9713714424634861,0.2867952040945739,0.6894215913073909
0.0465,1.755082241442662,1.0,2923.2142052114887,0.4073532188785748,1.3117292952895787,0.9717984084734486,0.28676645414059176,0.6901302501857864
0.047,1.7543977187288027,1.0,2928.4989080925898,0.41067748047806685,1.311373759898757,0.9722131550741268,0.2867377041866097,0.6908366761687221
0.0475,1.7537131960149435,1.0,2933.7101220687155,0.4139830997226349,1.3110189106661558,0.9726161533155304,0.28670895423262766,0.6915409349746102
0.048,1.7530286733010843,1.0,2938.851140117796,0.4172701852903773,1.3106647169181767,0.9730078514992986,0.28668020427864555,0.6922430920349145
0.0485,1.752344150587225,1.0,2943.918389918268,0.42053878807127293,1.3103112082017487,0.9733886735535855,0.28665145432466344,0.6929430933175094
0.049,1.7516596278733658,1.0,2948.921163223133,0.42378907998821685,1.30995830149324,0.9737590304414208,0.2866227043706814,0.6936411075746992
0.0495,1.7509751051595068,1.0,2953.8611153692054,0.42702115950948116,1.3096059807976643,0.9741193094504269,0.28659395441669927,0.6943371704538148
0.05,1.7502905824456476,1.0,2958.7397691126516,0.4302351238185697,1.3092542313513063,0.974469879848803,0.2865652044627172,0.6950313150233187
0.0505,1.7496060597317884,1.0,2963.558654996746,0.43343107009898657,1.308903038390451,0.974811093952948,0.2865364545087351,0.6957235742128431
0.051000000000000004,1.7489215370179292,1.0,2968.319311167985,0.43660909553423566,1.3085523871513838,0.9751432880566555,0.28650770455475305,0.69641398081372
0.051500000000000004,1.74823701430407,1.0,2973.023283195933,0.439769297307821,1.3082022628703895,0.9754667833014173,0.28647895460077094,0.6971025674795004
0.052000000000000005,1.7475524915902108,1.0,2977.6721238984865,0.4429117726032466,1.3078526507837538,0.9757818864920631,0.28645020464678883,0.6977893667264545
0.0525,1.7468679688763518,1.0,2982.267393171904,0.4460366186040164,1.3075035361277614,0.9760888908616159,0.2864214546928068,0.6984744109340643
0.053,1.7461834461624925,1.0,2986.810657825151,0.4491439324936344,1.3071549041386974,0.9763880767889419,0.28639270473882467,0.6991577323454963
0.0535,1.7454989234486333,1.0,2991.303491420038,0.4522338114556046,1.3068067400528471,0.9766797124724866,0.2863639547848426,0.6998393630680635
0.054,1.7448144007347741,1.0,2995.7474741151327,0.455306352673431,1.306459029106496,0.9769640545631433,0.2863352048308605,0.7005193350736731
0.0545,1.744129878020915,1.0,3000.144192515526,0.4583616533306175,1.3061117565359284,0.977241348759053,0.28630645487687845,0.7011976801992619
0.055,1.7434453553070557,1.0,3004.4952395262712,0.4613998106106682,1.30576490757743,0.9775118303649357,0.28627770492289634,0.701874430147212
0.0555,1.7427608325931967,1.0,3008.802214212095,0.464420921697087,1.3054184674672857,0.977775724818339,0.2862489549689142,0.7025496164857606
0.056,1.7420763098793375,1.0,3013.0667216604957,0.4674250837733779,1.3050724214417808,0.9780332481850273,0.28622020501493217,0.7032232706493893
0.0565,1.7413917871654783,1.0,3017.290372850609,0.4704123940230449,1.3047267547372006,0.9782846076255576,0.2861914550609501,0.7038954239392028
0.057,1.740707264451619,1.0,3021.4747845265533,0.473382949629592,1.3043814525898298,0.9785300018349381,0.286162705106968,0.7045661075232945
0.0575,1.7400227417377598,1.0,3025.621579075789,0.47633684777652313,1.3040365002359537,0.9787696214571364,0.2861339551529859,0.7052353524370947
0.058,1.7393382190239006,1.0,3029.72993901097,0.47927414492820813,1.3036919040095742,0.9790036471575356,0.28610520519900384,0.7059031487214271
0.0585,1.7386536963100416,1.0,3033.8025079017452,0.4821949666152908,1.303347640394447,0.9792322566715034,0.28607645524502173,0.7065695442191366
0.059000000000000004,1.7379691735961824,1.0,3037.8414788010136,0.4850994262652887,1.3030036898257396,0.9794556198591846,0.2860477052910397,0.70723457892853
0.059500000000000004,1.7372846508823232,1.0,3041.84756683183,0.48798761072039537,1.3026600455219064,0.9796738984090597,0.28601895533705757,0.7078982679996095
0.06,1.736600128168464,1.0,3045.8214898261363,0.49085960682280455,1.3023167007014016,0.9798872477454917,0.2859902053830755,0.7085606265211071
0.0605,1.7359156054546048,1.0,3049.763968278352,0.49371550141471,1.3019736485826796,0.9800958173198732,0.2859614554290934,0.7092216695206133
0.061,1.7352310827407456,1.0,3053.675725301587,0.49655538133830535,1.3016308823841949,0.9802997508860749,0.2859327054751113,0.7098814119647067
0.0615,1.7345465600268866,1.0,3057.557486583793,0.4993793334357842,1.3012883953244014,0.9804991867611612,0.28590395552112924,0.7105398687590792
0.062,1.7338620373130273,1.0,3061.409980345004,0.5021874445493404,1.300946180621754,0.9806942580722646,0.28587520556714713,0.7111970547486565
0.0625,1.7331775145991681,1.0,3065.233937296677,0.5049798015211675,1.3006042314947066,0.9808850929904513,0.2858464556131651,0.7118529847177195
0.063,1.732492991885309,1.0,3069.0300906003476,0.5077564911934592,1.3002625411617137,0.9810718149523585,0.28581770565918296,0.7125076733900197
0.0635,1.7318084691714497,1.0,3072.7991758288313,0.5105176004084092,1.2999211028412296,0.9812545428703275,0.2857889557052009,0.713161135428892
0.064,1.7311239464575905,1.0,3076.541930927546,0.5132632160082111,1.299579909751709,0.9814333913317106,0.2857602057512188,0.7138133854373659
0.0645,1.7304394237437315,1.0,3080.25909617727,0.5159934248350587,1.2992389551116053,0.9816084707879849,0.2857314557972367,0.7144644379582739
0.065,1.7297549010298723,1.0,3083.951414157707,0.5187083137311457,1.2988982321393736,0.9817798877342652,0.28570270584325463,0.7151143074743531
0.0655,1.729070378316013,1.0,3087.619629712007,0.5214079695386656,1.2985577340534682,0.9819477448797701,0.2856739558892726,0.71576300840835
0.066,1.7283858556021539,1.0,3091.264489912649,0.5240924790998123,1.298217454072343,0.9821121413097565,0.28564520593529047,0.7164105551231186
0.0665,1.7277013328882946,1.0,3094.886744028143,0.5267619292567792,1.2978773854144527,0.9822731726394115,0.28561645598130836,0.7170569619217142
0.067,1.7270168101744354,1.0,3098.48714349074,0.5294164068517603,1.2975375212982516,0.9824309311601513,0.2855877060273263,0.7177022430474888
0.0675,1.7263322874605764,1.0,3102.066441864822,0.5320559987269491,1.2971978549421939,0.9825855059787566,0.2855589560733442,0.7183464126841795
0.068,1.7256477647467172,1.0,3105.625076087714,0.5346807805235074,1.2968583822807673,0.9827369825656201,0.28553020611936214,0.7189894798139216
0.0685,1.724963242032858,1.0,3109.162711764776,0.5372908087377664,1.296519105829044,0.9828854426019015,0.28550145616538003,0.7196314409385978
0.069,1.7242787193189988,1.0,3112.681199753989,0.5398862180286169,1.296180009498159,0.9830309690231254,0.285472706211398,0.7202723277221634
0.0695,1.7235941966051396,1.0,3116.1808783006777,0.5424670858000872,1.29584109010534,0.9831736390250444,0.28544395625741587,0.7209121473382782
0.07,1.7229096738912804,1.0,3119.6620867019415,0.5450334894562054,1.2955023444678144,0.9833135272453847,0.28541520630343375,0.7215509069324781
0.07050000000000001,1.7222251511774211,1.0,3123.1251652935425,0.5475855064009995,1.29516376940281,0.983450705866024,0.2853864563494517,0.7221886136222093
