Time [s],Phi [rad],STIM [ ],Fsee [N],Gamma [ ],Lcerel [ ],q [ ],Lmtc [m],fisomrel [ ]
0.0,1.8,1.0,17.971419518302355,6.771749171862609e-05,1.3793392688342325,0.0050012038477043235,0.288653,0.5411406859703758
0.0005,1.79999375,1.0,18.29994911281143,0.00567654695895478,1.379299810987035,0.013101525681505445,0.2886527375,0.5412361396211722
0.001,1.799975,1.0,21.684493398514793,0.011253915327519997,1.3789315549167673,0.03590996921073757,0.28865195,0.5421265200521714
0.0015,1.79994375,1.0,31.226893503249684,0.016799999070212776,1.3780327888479875,0.07101386738263857,0.2886506375,0.5442959520274646
0.002,1.7999,1.0,53.92262657433159,0.022314973668094033,1.376346093680117,0.11520571836871807,0.2886488,0.5483533729965451
0.0025,1.79984375,1.0,97.69105622426626,0.02779901361844321,1.373907638713266,0.16510530058669745,0.28864643749999996,0.554187110050605
0.003,1.7997750000000001,1.0,161.7028015881314,0.03325229244194306,1.3711865035301543,0.21782756371488127,0.28864354999999997,0.5606523584089884
0.0035,1.79969375,1.0,238.5247863776322,0.03867498268269785,1.3685588380976932,0.27115699537487264,0.2886401375,0.5668507106507601
0.004,1.7996,1.0,322.3620621336175,0.04406725591889732,1.3661323960498228,0.3234426086972757,0.2886362,0.5725352951620398
0.0045000000000000005,1.7994937500000001,1.0,410.1948947859165,0.04942928276803583,1.3639010628747488,0.373534560505301,0.2886317375,0.5777296442558295
0.005,1.799375,1.0,500.35956185414705,0.054761232878309855,1.361838248211302,0.4207152806910299,0.28862675,0.5825034506740312
0.0055,1.79924375,1.0,591.7448318999999,0.0600632749728887,1.359920195612958,0.4646068167791009,0.2886212375,0.5869178979270728
0.006,1.7991000000000001,1.0,683.4736733703185,0.06533557680075386,1.3581290511937727,0.5050779879549467,0.2886152,0.5910190774586994
0.006500000000000001,1.79894375,1.0,774.832570405905,0.07057830518918506,1.3564510190756112,0.5421646707957299,0.2886086375,0.5948427008927242
0.007,1.798775,1.0,865.2159003874539,0.07579162581231016,1.3548753751155216,0.5760085134853556,0.28860155,0.598416671354011
0.0075,1.79859375,1.0,954.1635432271877,0.08097570408347828,1.353392627013267,0.6068115727627195,0.2885939375,0.6017654693005803
0.008,1.7984,1.0,1041.277717680649,0.0861307040348067,1.35199511503609,0.6348059921596303,0.2885858,0.6049089253530924
0.0085,1.79819375,1.0,1126.2146544097006,0.09125678815157956,1.3506764973130516,0.6602332580108948,0.2885771375,0.6078635020161012
0.009000000000000001,1.797975,1.0,1208.74699346191,0.09635411883890552,1.3494304663864223,0.6833305356341507,0.28856795,0.6106452460490033
0.0095,1.79774375,1.0,1288.713648869893,0.10142285778322252,1.3482512556465385,0.7043233342644523,0.2885582375,0.6132686956014328
0.01,1.7975,1.0,1365.9742357014397,0.1064631651283636,1.3471340122846462,0.7234215798884693,0.288548,0.6157461017702904
0.0105,1.79724375,1.0,1440.4366990999988,0.1114752001058122,1.346074220446617,0.7408174894225058,0.2885372375,0.6180887561934515
0.011,1.796975,1.0,1512.0633717160704,0.11645912148491647,1.345067501193025,0.7566851596131627,0.28852595000000003,0.6203074605242399
0.0115,1.79669375,1.0,1580.8445289951696,0.12141508762547601,1.3441098405274603,0.7711812592203995,0.2885141375,0.6224120460847126
0.012,1.7964,1.0,1646.7629211638325,0.12634325441609584,1.3431979032853072,0.7844462236789506,0.28850180000000003,0.6244107116727327
0.0125,1.79609375,1.0,1709.8426838253947,0.131243777745381,1.3423283543019509,0.7966052568943718,0.2884889375,0.6263115364825191
0.013000000000000001,1.7957750000000001,1.0,1770.1242550169836,0.13611681260855768,1.3414981000454458,0.8077698559351179,0.28847555,0.6281219632185928
0.0135,1.79544375,1.0,1827.6875276820583,0.14096251462235343,1.3407039741700475,0.8180390876908472,0.2884616375,0.6298494961247947
0.014,1.7951000000000001,1.0,1882.5789119936248,0.14578103623203706,1.3399435085804055,0.8275012195510529,0.2884472,0.6315000349937622
0.0145,1.79474375,1.0,1934.8545384264612,0.15057252921744688,1.3392143889894308,0.8362347239411495,0.2884322375,0.6330790762197932
0.015,1.794375,1.0,1984.591693115589,0.15533714535842116,1.3385143011100347,0.8443093523285681,0.28841675,0.6345920533928087
0.0155,1.79399375,1.0,2031.8699770131338,0.1600750354715771,1.3378411097744733,0.8517872142388179,0.2884007375,0.6360439558238273
0.016,1.7936,1.0,2076.7913687636074,0.16478635079435897,1.3371926222032107,0.8587236027834787,0.2883842,0.6374398454455448
0.0165,1.7931937500000001,1.0,2119.4279977078386,0.1694712395202068,1.3365671142795532,0.8651679597763952,0.2883671375,0.6387837295457084
0.017,1.792775,1.0,2159.854073418455,0.17412984920652635,1.3359629676890405,0.8711644568167007,0.28834955,0.6400793505789946
0.0175,1.7923437500000001,1.0,2198.154812959711,0.17876232741072343,1.3353785641172125,0.8767525871753977,0.2883314375,0.6413304168707807
0.018000000000000002,1.7919,1.0,2234.40966778339,0.18336882056606454,1.3348124443136533,0.8819677580444895,0.2883128,0.6425402650915715
0.0185,1.79144712780741,1.0,2268.8695402227336,0.1879494761486231,1.334263051891455,0.8868417002006839,0.28829377936791123,0.6437124111613852
0.019,1.7909938172135527,1.0,2301.972903751534,0.19250443827145594,1.3337294950809664,0.8914030839696381,0.2882747403229692,0.6448489289317705
0.0195,1.790540506619695,1.0,2333.7808278196485,0.19703385015398592,1.3332110268081616,0.8956777361217034,0.2882557012780272,0.6459515676449318
0.02,1.7900871960258375,1.0,2364.3383185569783,0.20153785501563584,1.332706899999015,0.8996889276180572,0.2882366622330852,0.6470220621589459
0.0205,1.78963388543198,1.0,2393.6923117606952,0.20601659567871447,1.3322163818559871,0.903457663739779,0.28821762318814315,0.6480621034008831
0.021,1.7891805748381224,1.0,2421.8896433083924,0.21047021431174026,1.3317387707933879,0.9070029391588428,0.28819858414320115,0.6490733034199365
0.021500000000000002,1.7887272642442649,1.0,2448.9782909368205,0.2148988529031991,1.3312733815908695,0.910341955461603,0.2881795450982591,0.650057227835938
0.022,1.7882739536504073,1.0,2474.9968253185243,0.21930265022899365,1.3308196437925384,0.9134903335455902,0.2881605060533171,0.651015189033731
0.0225,1.7878206430565498,1.0,2499.9860101026165,0.22368174506502658,1.3303769869425013,0.9164622610222342,0.28814146700837506,0.6519484901109514
0.023,1.7873673324626924,1.0,2523.9886581578785,0.22803627618720057,1.3299448405848644,0.9192706435634997,0.28812242796343307,0.6528584252915448
0.0235,1.7869140218688349,1.0,2547.039525874746,0.232366378878703,1.3295227280690458,0.9219272540802967,0.2881033889184911,0.6537460831821866
0.024,1.7864607112749773,1.0,2569.1913045856822,0.2366721947261217,1.3291100198003636,0.9244428091319824,0.28808434987354903,0.6546128662850903
0.0245,1.7860074006811197,1.0,2590.4874973205647,0.24095386204344205,1.3287061884911333,0.9268271169623464,0.28806531082860704,0.655459954233519
0.025,1.7855540900872622,1.0,2610.957752077777,0.24521151382555137,1.3283108493407492,0.9290891737421092,0.28804627178366504,0.6562882213174615
0.025500000000000002,1.7851007794934046,1.0,2630.6328618677685,0.24944528306733696,1.3279236175486044,0.9312372218026453,0.288027232738723,0.6570985365237136
0.026000000000000002,1.784647468899547,1.0,2649.5446939028157,0.2536553027636861,1.3275441083140933,0.933278823056904,0.28800819369378095,0.6578917637395585
0.0265,1.7841941583056895,1.0,2667.72612206962,0.257841705909486,1.327171936836609,0.9352209243746308,0.28798915464883895,0.6586687619470086
0.027,1.7837408477118322,1.0,2685.210962684947,0.2620046254996241,1.3268067183155456,0.9370699158792348,0.28797011560389696,0.6594303854076008
0.0275,1.7832875371179746,1.0,2702.0339135340632,0.26614419452898763,1.3264480679502966,0.9388316830087516,0.2879510765589549,0.6601774838377505
0.028,1.782834226524117,1.0,2718.2202480431515,0.2702605410225238,1.3260956942850504,0.9405116647895213,0.2879320375140129,0.6609107084462722
0.0285,1.7823809159302595,1.0,2733.808400601218,0.27435380120018305,1.3257491922517586,0.9421148696808489,0.2879129984690709,0.661630943071833
0.029,1.781927605336402,1.0,2748.825329082505,0.27842410481565505,1.3254082675213066,0.9436459403271775,0.2878939594241289,0.6623388374642276
0.029500000000000002,1.7814742947425444,1.0,2763.2922486630937,0.2824715783038198,1.325072682791799,0.9451091795372125,0.2878749203791868,0.6630349199698422
0.03,1.7810209841486868,1.0,2777.23084534093,0.2864963480995574,1.3247422007613394,0.9465085734395784,0.28785588133424483,0.6637197163414603
0.0305,1.7805676735548293,1.0,2790.6632484643887,0.2904985406377477,1.3244165841280324,0.9478478188244134,0.28783684228930284,0.6643937498172808
0.031,1.780114362960972,1.0,2803.6120045096272,0.2944782823532708,1.324095595589982,0.9491303478012972,0.2878178032443608,0.6650575411963484
0.0315,1.7796610523671144,1.0,2816.100052106503,0.2984356996810067,1.3237789978452923,0.9503593500660827,0.2877987641994188,0.6657116089103897
0.032,1.7792077417732568,1.0,2828.1506983125482,0.3023709190558353,1.3234665535920673,0.9515377930344247,0.2877797251544768,0.6663564690920607
0.0325,1.7787544311793992,1.0,2839.7802541074716,0.3062840611360775,1.3231580909559808,0.9526684461661096,0.28776068610953476,0.6669925007961928
0.033,1.7783011205855417,1.0,2851.0144892588387,0.3101752559970133,1.3228533563098108,0.9537538840916517,0.28774164706459276,0.6676202497432728
0.0335,1.7778478099916841,1.0,2861.873975853866,0.3140446292610914,1.3225521450217361,0.9547965133185257,0.2877226080196507,0.668240158615679
0.034,1.7773944993978266,1.0,2872.3724038375053,0.31789230060575285,1.3222543157527413,0.9557985866751212,0.2877035689747087,0.6688525381974888
0.0345,1.776941188803969,1.0,2882.5236581074078,0.32171838970843875,1.3219597271638115,0.9567622098596116,0.2876845299297667,0.6694576979738651
0.035,1.7764878782101117,1.0,2892.341808137963,0.3255230162465902,1.321668237915931,0.9576893527784429,0.2876654908848247,0.6700559461609057
0.035500000000000004,1.7760345676162541,1.0,2901.84109804556,0.3293062998976481,1.321379706670085,0.9585818598853246,0.2876464518398827,0.670647589734216
0.036000000000000004,1.7755812570223966,1.0,2911.035937098113,0.3330683603390537,1.3210939920872582,0.9594414596192452,0.28762741279494064,0.6712329344562111
0.0365,1.775127946428539,1.0,2919.9408906672384,0.3368093172482479,1.320810952828435,0.9602697730293601,0.28760837374999865,0.6718122849021416
0.037,1.7746746358346814,1.0,2928.570671622519,0.340529290302672,1.3205304475546007,0.9610683216651839,0.2875893347050566,0.672385944484845
0.0375,1.7742213252408239,1.0,2936.936120918762,0.34422839372439434,1.3202523700762943,0.9618385370571767,0.2875702956601146,0.6729541436878708
0.038,1.7737680146469663,1.0,2945.050005627755,0.3479067464393721,1.319976598307068,0.9625817644219299,0.28755125661517256,0.6735171445658077
0.0385,1.7733147040531088,1.0,2952.9296618222493,0.3515644740924717,1.3197029712245467,0.9632992669935344,0.28753221757023056,0.6740752875962903
0.039,1.7728613934592514,1.0,2960.583213419516,0.3552016891151534,1.3194314093467192,0.9639922389444503,0.28751317852528857,0.6746287459271962
0.0395,1.7724080828653939,1.0,2968.018860563516,0.3588185039388772,1.3191618331915742,0.9646618053552128,0.2874941394803465,0.6751776920720465
0.04,1.7719547722715363,1.0,2975.2448760557245,0.36241503099510336,1.3188941632771,0.9653090269530836,0.28747510043540453,0.675722297920275
0.0405,1.7715014616776787,1.0,2982.2696019252717,0.365991382715292,1.3186283201212858,0.9659349044772595,0.28745606139046254,0.67626273474709
0.041,1.7710481510838212,1.0,2989.1014461401714,0.3695476715309033,1.31836422424212,0.9665403827037022,0.2874370223455205,0.6767991732229371
0.0415,1.7705948404899636,1.0,2995.748879458283,0.3730840098733974,1.3181017961575912,0.9671263541594223,0.28741798330057844,0.6773317834225585
0.042,1.770141529896106,1.0,3002.220432417847,0.37660051017423446,1.3178409563856883,0.9676936625531585,0.28739894425563645,0.6778607348336447
0.0425,1.7696882193022485,1.0,3008.5246924686444,0.3800972848648746,1.3175816254443997,0.9682431059468155,0.28737990521069445,0.6783861963650926
0.043000000000000003,1.7692349087083912,1.0,3014.670301242911,0.383574446376778,1.3173237238517144,0.9687754396896969,0.2873608661657524,0.6789083363548499
0.043500000000000004,1.7687815981145336,1.0,3020.660174995687,0.3870320931933771,1.3170672220412378,0.9692913809384548,0.2873418271208104,0.6794272216423864
0.044,1.768328287520676,1.0,3026.5060741864813,0.39047034930748864,1.31681201433374,0.9697916072336555,0.2873227880758684,0.6799430726205296
0.0445,1.7678749769268185,1.0,3032.2161016596574,0.39388932881748906,1.3165580271027233,0.9702767619399014,0.28730374903092637,0.6804560442501004
0.045,1.767421666332961,1.0,3037.7946940526563,0.3972891363106125,1.3163052186759732,0.9707474564526196,0.2872847099859844,0.6809662265253342
0.0455,1.7669683557391034,1.0,3043.2463152389546,0.40066987637409324,1.316053547381276,0.971204271144875,0.28726567094104233,0.6814737091444882
0.046,1.7665150451452458,1.0,3048.575455258868,0.4040316535951653,1.3158029715464172,0.9716477572409736,0.28724663189610034,0.6819785815129235
0.0465,1.7660617345513883,1.0,3053.7866292872627,0.407374572561063,1.3155534494991832,0.9720784385595503,0.2872275928511583,0.6824809327460666
0.047,1.765608423957531,1.0,3058.884376641612,0.4106987378590205,1.3153049395673595,0.9724968131363941,0.2872085538062163,0.6829808516722697
0.0475,1.7651551133636734,1.0,3063.873259826884,0.414004254076272,1.315057400078732,0.9729033547363738,0.2871895147612743,0.683478426835554
0.048,1.7647018027698158,1.0,3068.7578636199405,0.4172912258000516,1.314810789361087,0.973298514263015,0.28717047571633225,0.683973746498244
0.0485,1.7642484921759582,1.0,3073.5427941923713,0.4205597576175936,1.3145650657422099,0.9736827210735479,0.28715143667139026,0.6844668986434923
0.049,1.7637951815821007,1.0,3078.232678271098,0.42380995411613215,1.3143201875498867,0.9740563842065875,0.2871323976264482,0.6849579709776916
0.0495,1.7633418709882431,1.0,3082.832162338733,0.4270419198829014,1.3140761131119034,0.9744198935289946,0.2871133585815062,0.685447050932777
0.05,1.7628885603943856,1.0,3087.345815515725,0.430255759004636,1.313832801579557,0.9747736208047711,0.28709431953656417,0.6859342240201733
0.0505,1.762435249800528,1.0,3091.770644209612,0.43345153897226657,1.3135902768471974,0.9751179207974124,0.2870752804916222,0.6864194460041393
0.051000000000000004,1.7619819392066707,1.0,3096.1193805131493,0.43662941184785786,1.313348428564075,0.9754531329221046,0.2870562414466802,0.6869029410600279
0.051500000000000004,1.7615286286128131,1.0,3100.3941525349824,0.43978947332546653,1.3131072371556447,0.9757795807842817,0.28703720240173813,0.6873847514054812
0.052000000000000005,1.7610753180189556,1.0,3104.5970976429244,0.44293181909914914,1.3128666830473616,0.9760975735429573,0.28701816335679614,0.6878649191292785
0.0525,1.760622007425098,1.0,3108.730362182917,0.44605654486296237,1.3126267466646808,0.9764074066810781,0.2869991243118541,0.6883434861921476
0.053,1.7601686968312404,1.0,3112.796101207039,0.44916374631096284,1.3123874084330571,0.9767093627283564,0.2869800852669121,0.6888204944275458
0.0535,1.7597153862373829,1.0,3116.7964782092085,0.4522535191372072,1.312148648777946,0.977003711939906,0.28696104622197005,0.689295985542419
0.054,1.7592620756435253,1.0,3120.73366487029,0.455325959035752,1.311910448124802,0.9772907129337312,0.28694200717702806,0.6897700011179374
0.0545,1.7588087650496678,1.0,3124.6098408109947,0.458381161700654,1.3116727868990805,0.9775706132898981,0.28692296813208606,0.6902425826102052
0.055,1.7583554544558104,1.0,3128.427193353351,0.46141922282596975,1.3114356455262366,0.9778436501139905,0.286903929087144,0.6907137713509448
0.0555,1.7579021438619529,1.0,3132.187917291329,0.4644402381057559,1.311199004431725,0.9781100505672626,0.286884890042202,0.6911836085481609
0.056,1.7574488332680953,1.0,3135.894214669056,0.4674443032340691,1.3109628440410013,0.9783700323657165,0.28686585099726003,0.6916521352867727
0.0565,1.7569955226742378,1.0,3139.548294567977,0.47043151390496596,1.31072714477952,0.9786238042501665,0.286846811952318,0.6921193925292324
0.057,1.7565422120803802,1.0,3143.1523729028663,0.47340196581250316,1.3104918870727364,0.9788715664292037,0.28682777290737593,0.6925854211161068
0.0575,1.7560889014865226,1.0,3146.7086722254894,0.4763557546507372,1.3102570513461056,0.9791135109968254,0.28680873386243394,0.6930502617666454
0.058,1.755635590892665,1.0,3150.2194215373934,0.4792929761137249,1.3100226180250825,0.9793498223263756,0.28678969481749195,0.693513955079317
0.0585,1.7551822802988075,1.0,3153.6868561109436,0.48221372589552275,1.3097885675351222,0.9795806774423175,0.2867706557725499,0.6939765415323247
0.059000000000000004,1.7547289697049502,1.0,3157.1097458855033,0.4851180620924126,1.3095549096410846,0.9798062448637067,0.2867516167276079,0.6944380035621811
0.059500000000000004,1.7542756591110926,1.0,3160.4924592944935,0.48800611466892413,1.30932160680386,0.9800266898544687,0.2867325776826659,0.694898416977928
0.06,1.753822348517235,1.0,3163.8372456642583,0.4908779852885294,1.3090886394632189,0.9802421698832336,0.28671353863772386,0.6953578219221184
0.0605,1.7533690379233775,1.0,3167.1450550029813,0.49373376024016125,1.3088559990708473,0.980452835705764,0.28669449959278187,0.6958162367281531
0.061,1.75291572732952,1.0,3170.416840158572,0.49657352581275255,1.308623677078432,0.9806588323264781,0.2866754605478398,0.6962736796766189
0.0615,1.7524624167356624,1.0,3173.65355675832,0.499397368295236,1.3083916649376592,0.9808602992616587,0.28665642150289783,0.6967301689954672
0.062,1.7520091061418048,1.0,3176.8561631488674,0.5022053739765446,1.3081599541002151,0.9810573707886904,0.2866373824579558,0.6971857228601828
0.0625,1.7515557955479473,1.0,3180.0256203385356,0.5049976291456111,1.307928536017786,0.9812501761821618,0.2866183434130138,0.6976403593939513
0.063,1.75110248495409,1.0,3183.1628919407167,0.5077742200913682,1.3076974021420582,0.9814388399376264,0.2865993043680718,0.6980940966678206
0.0635,1.7506491743602324,1.0,3186.268944119547,0.5105352331027488,1.307466543924718,0.981623481983747,0.28658026532312975,0.6985469527008594
0.064,1.7501958637663748,1.0,3189.344745536786,0.5132807544686858,1.3072359528174518,0.9818042178835104,0.28656122627818775,0.6989989454603079
0.0645,1.7497425531725173,1.0,3192.391267300163,0.516010870478112,1.307005620271946,0.981981159025152,0.2865421872332457,0.6994500928617273
0.065,1.7492892425786597,1.0,3195.4094829137794,0.5187256674199602,1.3067755377398866,0.9821544128033887,0.2865231481883037,0.6999004127691435
0.0655,1.7488359319848021,1.0,3198.4003682298408,0.5214252315831632,1.3065456966729603,0.9823240827915138,0.28650410914336166,0.7003499229951832
0.066,1.7483826213909446,1.0,3201.3649014020825,0.5241096492566538,1.306316088522853,0.9824902689048856,0.28648507009841967,0.7007986413012106
0.0665,1.747929310797087,1.0,3204.3040628408144,0.526779006729365,1.3060867047412514,0.9826530675562873,0.2864660310534777,0.7012465853974552
0.067,1.7474760002032297,1.0,3207.2188351694103,0.5294333902902293,1.3058575367798417,0.9828125718036285,0.28644699200853563,0.7016937729431371
0.0675,1.7470226896093721,1.0,3210.1102031831974,0.5320728862281797,1.3056285760903101,0.9829688714904086,0.28642795296359363,0.7021402215465865
0.068,1.7465693790155146,1.0,3212.979153808507,0.5346975808321492,1.3053998141243428,0.9831220533793502,0.28640891391865164,0.70258594876536
0.0685,1.746116068421657,1.0,3215.8249305671457,0.5373075137191875,1.3051712569506986,0.9832721990762056,0.2863898748737096,0.7030309436579423
0.069,1.7456627578277994,1.0,3218.649119037038,0.5399027990109334,1.3049428910255405,0.983419391112386,0.28637083582876754,0.7034752334597747
0.0695,1.745209447233942,1.0,3221.4534850458954,0.5424835520366347,1.304714701322809,0.9835637092233133,0.28635179678382555,0.703918848207115
0.07,1.7447561366400843,1.0,3224.2384293305945,0.5450498492851161,1.3044866842609901,0.9837052286693703,0.28633275773888356,0.7043617956241968
