Time [s],Phi [rad],STIM [ ],Fsee [N],Gamma [ ],Lcerel [ ],q [ ],Lmtc [m],fisomrel [ ]
0.0,1.8,1.0,18.157184071099376,0.0004454550552224984,1.3793185129581322,0.005051318858210787,0.288653,0.5411908983648956
0.0005,1.79999375,1.0,18.604471807870944,0.00605216571348282,1.3792661453730417,0.014193531848731875,0.2886527375,0.5413175732585294
0.001,1.799975,1.0,22.26933862202888,0.011627427157860403,1.378872309526707,0.03791376797114663,0.28865195,0.5422696845468722
0.0015,1.79994375,1.0,32.428292293469184,0.01717141579451249,1.3779316560526895,0.07373355947331565,0.2886506375,0.5445397428356875
0.002,1.7999,1.0,56.347699694755555,0.022684307038017618,1.3761909892706086,0.11841173363281392,0.2886488,0.5487255726772987
0.0025,1.79984375,1.0,101.62953266872957,0.028166275320686784,1.3737202792014305,0.1685836690091855,0.28864643749999996,0.5546337784234849
0.003,1.7997750000000001,1.0,166.7418495015462,0.033617494095886644,1.3709997655976212,0.22140981409042998,0.28864354999999997,0.5610943046125962
0.0035,1.79969375,1.0,244.16739611597572,0.03903813584454258,1.3683863517699124,0.27471564925269165,0.2886401375,0.5672560453751734
0.004,1.7996,1.0,328.3374097757235,0.0444283720788286,1.365975077510979,0.3268852754244397,0.2886362,0.5729025594414318
0.0045000000000000005,1.7994937500000001,1.0,416.3633438312523,0.049788373346350175,1.3637569692881355,0.3768004197031985,0.2886317375,0.5780639900966533
0.005,1.799375,1.0,506.64195686822893,0.05511830925049492,1.3617052901524684,0.42376925966468587,0.28862675,0.5828102138894089
0.0055,1.79924375,1.0,598.0754207132841,0.06041834843098681,1.3597969398199585,0.46743333856965963,0.2886212375,0.5872007719904119
0.006,1.7991000000000001,1.0,689.801216291574,0.06568865857431354,1.358014378533259,0.5076749618606351,0.2886152,0.5912809463120037
0.006500000000000001,1.79894375,1.0,781.1139170633619,0.07092940643286554,1.356344074516488,0.5445388374900862,0.2886086375,0.5950857798373329
0.007,1.798775,1.0,871.4311713905395,0.07614075789369364,1.3547752121078696,0.5781717730280628,0.28860155,0.5986433318680363
0.0075,1.79859375,1.0,960.2572869874781,0.08132287762805444,1.3532990932498905,0.6087790912676566,0.2885939375,0.6019762458826696
0.008,1.7984,1.0,1047.2277636753693,0.08647593000799167,1.3519076760063804,0.6365938070756044,0.2885858,0.6051051899483049
0.0085,1.79819375,1.0,1132.0215113290199,0.09160007778273402,1.350594432084974,0.6618573459422221,0.2885771375,0.6080470159152248
0.009000000000000001,1.797975,1.0,1214.3954344793503,0.09669548293032991,1.3493534041163768,0.6848064729087872,0.28856795,0.6108169611999347
0.0095,1.79774375,1.0,1294.1902010199362,0.1017623070446726,1.3481788861206083,0.7056657477885965,0.2885582375,0.6134294109050142
0.01,1.7975,1.0,1371.2760015230183,0.10680071046617438,1.3470659563708651,0.7246438962447922,0.288548,0.6158967535981401
0.0105,1.79724375,1.0,1445.5586234499349,0.11181085215745201,1.3460101897988845,0.7419319604119766,0.2885372375,0.6182300655463645
0.011,1.796975,1.0,1516.9914052931902,0.11679289051258303,1.3450073668439577,0.757702905161152,0.28852595000000003,0.6204397857888992
0.0115,1.79669375,1.0,1585.583633304434,0.12174698432693873,1.3440532799355782,0.7721121571045576,0.2885141375,0.6225361625177637
0.012,1.7964,1.0,1651.3276021137308,0.12667328976718953,1.3431445229101324,0.7852990613254138,0.28850180000000003,0.6245275395305409
0.0125,1.79609375,1.0,1714.2320553006782,0.1315719620611007,1.342277977199524,0.797387949231511,0.2884889375,0.6264215125133998
0.013000000000000001,1.7957750000000001,1.0,1774.3417944014207,0.13644315643643756,1.3414505242356554,0.8084894306115382,0.28847555,0.6282255723826408
0.0135,1.79544375,1.0,1831.7166158908437,0.1412870270870849,1.34065924364155,0.8187018811452603,0.2884616375,0.6299466827856091
0.014,1.7951000000000001,1.0,1886.4334040326994,0.14610372833926838,1.3399013432209101,0.8281127433784682,0.2884472,0.6315914441218784
0.0145,1.79474375,1.0,1938.544617726569,0.1508934115628257,1.3391745698382822,0.8367998969646748,0.2884322375,0.6331652142060467
0.015,1.794375,1.0,1988.1210278105286,0.15565622797507245,1.338476695582647,0.8448325773536355,0.28841675,0.6346732351640691
0.0155,1.79399375,1.0,2035.2464750477952,0.1603923283040458,1.3378055527336132,0.8522723993403318,0.2884007375,0.6361205629538842
0.016,1.7936,1.0,2080.01281151716,0.16510186318805656,1.3371590659823962,0.8591742670521066,0.2883842,0.6375120032712953
0.0165,1.7931937500000001,1.0,2122.5082847654853,0.169784982366654,1.3365353520101368,0.8655871967113545,0.2883671375,0.6388519032124148
0.017,1.792775,1.0,2162.8008611236937,0.17444183272890154,1.3359328670326522,0.871555051467087,0.28834955,0.6401438419873163
0.0175,1.7923437500000001,1.0,2200.9691595542026,0.17907256116386258,1.3353500672657599,0.8771170520403233,0.2883314375,0.6413913660231196
0.018000000000000002,1.7919,1.0,2237.1015582222794,0.18367731456060057,1.3347854089252775,0.8823083224399143,0.2883128,0.6425979909781081
0.0185,1.79144375,1.0,2271.27984470372,0.18825623818157738,1.33423750276699,0.8871604069464226,0.2882936375,0.6437668741839491
0.019,1.790975,1.0,2303.602623720985,0.19280947928550748,1.3337048692481626,0.8917016239439838,0.28827395,0.6449013400512332
0.0195,1.79049375,1.0,2334.139991727518,0.1973371809043747,1.3331863804389035,0.8959575388605552,0.2882537375,0.6460039409758365
0.02,1.79,1.0,2362.960467352095,0.2018394851991377,1.3326809796956094,0.8999512091176073,0.288233,0.6470770591478621
0.0205,1.78949375,1.0,2390.137640207794,0.2063165343307552,1.3321876103746775,0.9037034492084491,0.2882117375,0.6481230596733465
0.021,1.788975,1.0,2415.749744398951,0.21076847046018587,1.3317052158325047,0.9072330794326208,0.28818995000000003,0.6491442914206362
0.021500000000000002,1.78844375,1.0,2439.865402942344,0.21519543367876715,1.3312328726162128,0.9105571712784017,0.2881676375,0.650142806436262
0.022,1.7879,1.0,2462.569303015508,0.21959756706402264,1.3307695380766753,0.9136911867687553,0.2881448,0.6511208950272412
0.0225,1.78734375,1.0,2483.9213847502488,0.22397500899588163,1.330314438827932,0.9166492239813444,0.28812143749999997,0.6520802662684579
0.023,1.786775,1.0,2503.976836695627,0.22832789660827987,1.3298668724746572,0.9194441223883837,0.28809755,0.6530224695273861
0.0235,1.78619375,1.0,2522.7932326311625,0.23265636703515322,1.3294261366215252,0.9220875806492217,0.28807313749999996,0.6539490449955874
0.024,1.7856,1.0,2540.4303318119923,0.2369605574104375,1.3289915288732104,0.9245902737293742,0.2880482,0.6548615240104196
0.0245,1.78499375,1.0,2556.9485896318083,0.24124060456401916,1.3285623590479863,0.9269619585900504,0.2880227375,0.6557614037526218
0.025,1.784375,1.0,2572.3991789321035,0.24549664268888,1.328138040759501,0.9292115804524748,0.28799675,0.6566499560156764
0.025500000000000002,1.78374375,1.0,2586.8537488459156,0.2497288108173649,1.327717810576031,0.9313473088111612,0.2879702375,0.6575288157884333
0.026000000000000002,1.7831000000000001,1.0,2600.353227396104,0.25393724073340546,1.327301205866987,0.9333766860710834,0.2879432,0.658398981626327
0.0265,1.78244375,1.0,2612.9396502221434,0.2581220642209332,1.3268877640017793,0.9353066416980884,0.2879156375,0.659261446893868
0.027,1.781775,1.0,2624.6560678619635,0.26228341306387987,1.3264770223498188,0.9371435502450881,0.28788755,0.660117199864783
0.0275,1.7810937500000001,1.0,2635.546457778913,0.26642141904617694,1.3260685182805156,0.9388932831790314,0.2878589375,0.6609672238085109
0.028,1.7804,1.0,2645.6556411339507,0.2705362139517561,1.3256617891632807,0.9405612552378424,0.2878298,0.661812497063045
0.0285,1.779696390945349,1.0,2655.155917805504,0.2746279268677006,1.3252563972472289,0.9421524684635605,0.28780024841970464,0.6626539414851813
0.029,1.7789920164381785,1.0,2664.4965595657145,0.27869669072208525,1.3248522848727755,0.9436716015035367,0.28777066469040347,0.6634916869034985
0.029500000000000002,1.7782876419310083,1.0,2673.710662631945,0.28274263354087004,1.3244494852338466,0.9451229936358658,0.28774108096110235,0.6643256745264412
0.03,1.7775832674238379,1.0,2682.7954942706983,0.28676588176412365,1.3240480166049915,0.9465106613328635,0.28771149723180117,0.6651558767039897
0.0305,1.7768788929166675,1.0,2691.748319914634,0.2907665618319148,1.3236478972607584,0.9478383287723028,0.28768191350250005,0.665982265939699
0.031,1.776174518409497,1.0,2700.566403704614,0.2947448001843122,1.3232491454756965,0.9491094527821801,0.2876523297731989,0.6668048148891327
0.0315,1.7754701439023266,1.0,2709.247009041013,0.2987007232613846,1.3228517795243548,0.9503272453660883,0.2876227460438977,0.6676234963582824
0.032,1.7747657693951562,1.0,2717.789432482498,0.3026344515097143,1.3224557991591968,0.9514946899911289,0.28759316231459653,0.6684383213922314
0.0325,1.774061394887986,1.0,2726.192533392405,0.306546111899092,1.3220612082267476,0.9526145669523337,0.2875635785852954,0.6692492925877792
0.033,1.7733570203808156,1.0,2734.453306931203,0.31043583963740895,1.3216680275957762,0.9536894716543756,0.28753399485599423,0.6700563776232238
0.0335,1.7726526458736451,1.0,2742.5737752379778,0.3143037541563346,1.3212762325435274,0.9547218154391989,0.2875044111266931,0.6708596377635118
0.034,1.7719482713664747,1.0,2750.5559895316146,0.3181499748875382,1.3208857983472455,0.9557138499406261,0.28747482739739194,0.6716591339893205
0.0345,1.7712438968593043,1.0,2758.4020293583744,0.32197462126268916,1.3204967002841752,0.9566676795527139,0.28744524366809077,0.6724549269992206
0.035,1.7705395223521339,1.0,2766.114001852699,0.3257778127134568,1.320108913631561,0.9575852727859914,0.2874156599387896,0.6732470772118044
0.035500000000000004,1.7698351478449634,1.0,2773.694041011496,0.3295596686715104,1.319722413666647,0.9584684726223935,0.2873860762094885,0.6740356447677726
0.036000000000000004,1.7691307733377932,1.0,2781.144306981914,0.3333203085685193,1.319337175666678,0.9593190059675737,0.2873564924801873,0.6748206895319808
0.0365,1.7684263988306228,1.0,2788.466985363426,0.33705985183615284,1.3189531749088985,0.9601384922885995,0.2873269087508862,0.6756022710954515
0.037,1.7677220243234524,1.0,2795.6642865220438,0.3407784179060804,1.318570386670553,0.9609284515156021,0.287297325021585,0.6763804487773419
0.0375,1.767017649816282,1.0,2802.738444919609,0.34447612620997126,1.318188786228886,0.9616903112776083,0.28726774129228383,0.6771552816268762
0.038,1.7663132753091115,1.0,2809.6909268700856,0.34815308311372006,1.3178083559529326,0.9624254115120114,0.28723815756298265,0.6779268140513206
0.0385,1.765608900801941,1.0,2816.5250257093703,0.3518094039790007,1.317429062032885,0.9631350131176988,0.28720857383368154,0.6786951230131468
0.039,1.764904526294771,1.0,2823.2457626931264,0.3554452323125773,1.317050855458044,0.9638203072300605,0.28717899010438036,0.6794603158588091
0.0395,1.7642001517876005,1.0,2829.85570438548,0.35906067824563315,1.3166737094362897,0.9644824114223555,0.28714940637507924,0.6802224545658813
0.04,1.76349577728043,1.0,2836.357438988201,0.3626558519093517,1.316297597175501,0.9651223793520699,0.28711982264577807,0.6809816008322847
0.0405,1.7627914027732596,1.0,2842.7535757187425,0.3662308634349162,1.3159224918835581,0.9657412050958553,0.2870902389164769,0.6817378160780713
0.041,1.7620870282660892,1.0,2849.0467442042186,0.36978582295350987,1.3155483667683399,0.9663398271465796,0.2870606551871757,0.6824911614471725
0.0415,1.7613826537589188,1.0,2855.239593891101,0.3733208405963162,1.3151751950377262,0.9669191321020896,0.2870310714578746,0.683241697809092
0.042,1.7606782792517484,1.0,2861.3347934706608,0.37683602649451836,1.3148029498995966,0.9674799580724183,0.2870014877285734,0.6839894857605615
0.0425,1.7599739047445782,1.0,2867.33503032127,0.3803314907792998,1.3144316045618303,0.9680230978296089,0.2869719039992723,0.6847345856271454
0.043000000000000003,1.7592695302374077,1.0,2873.2430099651315,0.3838073435818437,1.3140611322323072,0.9685493017220314,0.28694232026997113,0.6854770574647999
0.043500000000000004,1.7585651557302373,1.0,2879.0614555424795,0.3872636950333335,1.3136915061189065,0.9690592803730108,0.28691273654066995,0.6862169610613904
0.044,1.7578607812230669,1.0,2884.7931073004097,0.3907006552649524,1.313322699429508,0.9695537071817424,0.2868831528113688,0.6869543559381576
0.0445,1.7571564067158965,1.0,2890.4407220985736,0.39411833440788385,1.312954685371991,0.9700332206428043,0.28685356908206766,0.6876893013511423
0.045,1.756452032208726,1.0,2896.007072929872,0.39751684259331105,1.312587437154235,0.9704984264990975,0.2868239853527665,0.6884218562925613
0.0455,1.7557476577015556,1.0,2901.494948458146,0.4008962899524174,1.3122209279841197,0.9709498997416912,0.28679440162346537,0.6891520794921401
0.046,1.7550432831943854,1.0,2906.9046753213806,0.4042567603807034,1.3118551528888651,0.9713881844896514,0.2867648178941642,0.689879986022521
0.0465,1.754338908687215,1.0,2912.2370202517222,0.4075983418186045,1.3114901030731243,0.9718137981933773,0.286735234164863,0.6906055984932857
0.047,1.7536345341800446,1.0,2917.5008703278245,0.41092121030101625,1.3111256984115733,0.972227239329704,0.28670565043556184,0.6913290809563479
0.0475,1.7529301596728741,1.0,2922.6977370859927,0.4142254645379302,1.3107619238815347,0.9726289764701636,0.2866760667062607,0.6920504676831865
0.048,1.7522257851657037,1.0,2927.8291408304817,0.4175112032393377,1.3103987644603303,0.9730194556213015,0.28664648297695955,0.6927697927981518
0.0485,1.7515214106585333,1.0,2932.896610426384,0.4207785251152304,1.3100362051252825,0.9733991015203912,0.2866168992476584,0.6934870902790617
0.049,1.7508170361513629,1.0,2937.901683097291,0.4240275288755996,1.309674230853714,0.9737683188452313,0.28658731551835726,0.6942023939577828
0.0495,1.7501126616441927,1.0,2942.8459042276468,0.42725831323043684,1.3093128266229463,0.9741274933444519,0.2865577317890561,0.6949157375208008
0.05,1.7494082871370222,1.0,2947.7308271706875,0.43047097688973357,1.3089519774103022,0.9744769928942355,0.2865281480597549,0.6956271545097708
0.0505,1.7487039126298518,1.0,2952.558013060939,0.4336656185634813,1.308591668193104,0.9748171684868608,0.2864985643304538,0.6963366783220575
0.051000000000000004,1.7479995381226814,1.0,2957.3290306317203,0.43684233696167146,1.3082318839486735,0.9751483551560443,0.2864689806011526,0.6970443422112611
0.051500000000000004,1.747295163615511,1.0,2962.0454560380945,0.4400012307942956,1.3078726096543334,0.9754708728436421,0.28643939687185144,0.6977501792877248
0.052000000000000005,1.7465907891083405,1.0,2966.7088726842035,0.4431423987713451,1.3075138302874059,0.9757850272119222,0.2864098131425503,0.6984542225190323
0.0525,1.7458864146011703,1.0,2971.3208710561285,0.44626593960281136,1.307155530825213,0.9760911104052605,0.28638022941324914,0.69915650473049
0.053,1.745182040094,1.0,2975.883048559471,0.44937195199868607,1.306797696245077,0.9763894017648361,0.28635064568394797,0.6998570586055917
0.0535,1.7444776655868295,1.0,2980.3970093620815,0.4524605346689606,1.3064403115243204,0.9766801684995947,0.28632106195464685,0.7005559166864715
0.054,1.743773291079659,1.0,2984.8643642413754,0.4555317863236264,1.3060833616402652,0.9769636663165179,0.2862914782253457,0.7012531113743452
0.0545,1.7430689165724886,1.0,2989.2867304375836,0.45858580567267493,1.305726831570234,0.9772401400129854,0.2862618944960445,0.7019486749299293
0.055,1.7423645420653182,1.0,2993.66573151111,0.4616226914260977,1.3053707062915485,0.9775098240338145,0.2862323107667434,0.7026426394738547
0.0555,1.7416601675581478,1.0,2998.0029972048596,0.46464254229388613,1.3050149707815315,0.9777729429953584,0.2862027270374422,0.7033350369870583
0.056,1.7409557930509776,1.0,3002.300163312603,0.46764545698603177,1.304659610017505,0.9780297121788746,0.28617314330814103,0.7040258993111664
0.0565,1.7402514185438072,1.0,3006.5588715512795,0.470631534212526,1.3043046089767913,0.9782803379951981,0.2861435595788399,0.7047152581488588
0.057,1.7395470440366367,1.0,3010.778888400723,0.4736008398281664,1.3039499689163747,0.9785250164338318,0.28611397584953874,0.7054031135068075
0.0575,1.7388426695294663,1.0,3014.961499396751,0.4765534783645757,1.3035956779594684,0.9787639382529775,0.28608439212023756,0.7060894908301363
0.058,1.7381382950222959,1.0,3019.1095474407625,0.4794895779855712,1.3032417108095957,0.978997287812201,0.28605480839093644,0.7067744414071094
0.0585,1.7374339205151255,1.0,3023.223751645168,0.4824092263387534,1.3028880605888256,0.9792252396591244,0.28602522466163527,0.7074579807166452
0.059000000000000004,1.7367295460079553,1.0,3027.3048339688553,0.48531251107172263,1.3025347204192268,0.9794479614698683,0.2859956409323341,0.7081401241736616
0.059500000000000004,1.7360251715007848,1.0,3031.3535191686674,0.4881995198320793,1.302181683422869,0.9796656143734502,0.285966057203033,0.7088208871292123
0.06,1.7353207969936144,1.0,3035.3705347529863,0.49107034026742374,1.301828942721821,0.9798783532584247,0.2859364734737318,0.709500284870624
0.0605,1.734616422486444,1.0,3039.3566109360618,0.4939250600253564,1.301476491438152,0.9800863270628687,0.2859068897444306,0.7101783326216258
0.061,1.7339120479792736,1.0,3043.3124805933853,0.49676376675347766,1.301124322693931,0.9802896790487378,0.2858773060151295,0.7108550455424785
0.0615,1.7332076734721031,1.0,3047.2388792177726,0.49958654809938785,1.300772429611227,0.9804885470615454,0.28584772228582833,0.7115304387301002
0.062,1.7325032989649327,1.0,3051.136544877109,0.5023934917106874,1.3004208053121091,0.980683063776261,0.28581813855652716,0.7122045272181883
0.0625,1.7317989244577625,1.0,3055.0062181727358,0.5051846852349765,1.3000694429186466,0.980873356930254,0.28578855482722604,0.7128773259773378
0.063,1.731094549950592,1.0,3058.8486421989187,0.5079602163198558,1.2997183355529085,0.9810595495440572,0.28575897109792486,0.7135488499151599
0.0635,1.7303901754434217,1.0,3062.664562503603,0.5107201726129256,1.2993674763369638,0.9812417601306753,0.2857293873686237,0.7142191138763948
0.064,1.7296858009362512,1.0,3066.454727050018,0.5134646417617862,1.2990168583928814,0.9814201028941112,0.28569980363932257,0.7148881326430214
0.0645,1.7289814264290808,1.0,3070.219886178902,0.5161937114140379,1.2986664748427308,0.9815946879177403,0.2856702199100214,0.7155559209343637
0.065,1.7282770519219104,1.0,3073.9607925730757,0.5189074692172814,1.298316318808581,0.9817656213431241,0.2856406361807202,0.7162224934071975
0.0655,1.72757267741474,1.0,3077.6782012215212,0.5216060028191167,1.2979663834125008,0.9819330055398126,0.28561105245141905,0.7168878646558501
0.066,1.7268683029075698,1.0,3081.372869385598,0.5242893998671444,1.2976166617765597,0.9820969392666512,0.2855814687221179,0.7175520492122989
0.0665,1.7261639284003993,1.0,3085.045556565606,0.5269577480089649,1.2972671470228263,0.9822575178250769,0.28555188499281675,0.7182150615462672
0.067,1.725459553893229,1.0,3088.697024469064,0.5296111348921785,1.29691783227337,0.9824148332048529,0.28552230126351563,0.7188769160653152
0.0675,1.7247551793860585,1.0,3092.326604961772,0.5322496007299379,1.2965687228793172,0.9825689717451266,0.28549271753421446,0.7195376039851108
0.068,1.724050804878888,1.0,3095.9360086367833,0.5348732783490796,1.2962198038797172,0.982720021817561,0.2854631338049133,0.7201971549408861
0.0685,1.7233464303717176,1.0,3099.525918188198,0.5374822581655108,1.2958710691184518,0.9828680664856806,0.2854335500756121,0.7208555818198479
0.069,1.7226420558645472,1.0,3103.09667835487,0.5400766182076653,1.2955225153366654,0.9830131853738844,0.285403966346311,0.7215128919932728
0.0695,1.721937681357377,1.0,3106.648634975863,0.5426564365039769,1.2951741392755023,0.9831554554499575,0.2853743826170098,0.7221690928028265
0.07,1.7212333068502066,1.0,3110.1821349782945,0.5452217910828795,1.2948259376761064,0.9832949511319008,0.2853447988877087,0.7228241915606015
0.07050000000000001,1.7205289323430362,1.0,3113.6975263636696,0.5477727599728066,1.2944779072796222,0.9834317443897683,0.2853152151584075,0.7234781955491525
