Time [s],Phi [rad],STIM [ ],Fsee [N],Gamma [ ],Lcerel [ ],q [ ],Lmtc [m],fisomrel [ ]
0.0,1.8,1.0,17.967600427175345,1.0000028449513576e-05,1.3793396966721607,0.0050000266519203175,0.288653,0.5411396509205137
0.0005,1.79999375,1.0,18.276891458773413,0.005619153244992549,1.3793023714259631,0.012940513701433735,0.2886527375,0.5412299458885227
0.001,1.799975,1.0,21.618486556255846,0.011196843546913365,1.3789382913896646,0.035608575556752654,0.28865195,0.5421102401743674
0.0015,1.79994375,1.0,31.069246661048037,0.01674324741714653,1.3780462028210547,0.07060170330113825,0.2886506375,0.544263611392162
0.002,1.7999,1.0,53.582137348210395,0.02225854034697718,1.3763681479375627,0.11471783431901628,0.2886488,0.548300437557554
0.0025,1.79984375,1.0,97.11830842913511,0.027742896843601105,1.3739351975800926,0.16457467172264958,0.28864643749999996,0.5541213903403606
0.003,1.7997750000000001,1.0,160.9573809618072,0.033196490437845255,1.37121437317176,0.21728022556590632,0.28864354999999997,0.5605863812203356
0.0035,1.79969375,1.0,237.6824567745171,0.038619493683756785,1.3685847611783615,0.27061266096582665,0.2886401375,0.5667897762343439
0.004,1.7996,1.0,321.46586641674645,0.044012078169385876,1.366156116364114,0.32291558120504654,0.2886362,0.5724799057689713
0.0045000000000000005,1.7994937500000001,1.0,409.2668526327614,0.04937441452197014,1.3639228352497466,0.37303429847246394,0.2886317375,0.5776791134687048
0.005,1.799375,1.0,499.41260852018553,0.054706672399022584,1.3618583613792585,0.42024726564574294,0.28862675,0.5824570353951466
0.0055,1.79924375,1.0,590.789537619901,0.06000902053581505,1.3599388522216518,0.46417351828590636,0.2886212375,0.5868750722619895
0.006,1.7991000000000001,1.0,682.5172435514446,0.0652816266884926,1.3581464304667399,0.5046797975946606,0.2886152,0.5909793824742751
0.006500000000000001,1.79894375,1.0,773.8804928732372,0.07052465768971411,1.356467266676123,0.541800610107853,0.2886086375,0.594805764631549
0.007,1.798775,1.0,864.2850111268737,0.07573827943224032,1.3548904079201758,0.5756766459115782,0.28860155,0.5983826478515666
0.0075,1.79859375,1.0,953.2425213587844,0.08092265687867042,1.3534067898663817,0.6065097935616436,0.2885939375,0.601733548712816
0.008,1.7984,1.0,1040.343901677468,0.08607795365316442,1.3520088606076868,0.6345320692354696,0.2885858,0.6048780677732084
0.0085,1.79819375,1.0,1125.31396328023,0.09120433387481079,1.3506892452390722,0.6599843346863641,0.2885771375,0.6078349913062815
0.009000000000000001,1.797975,1.0,1207.8998728536094,0.09630195948316612,1.349442039255311,0.6831041046720059,0.28856795,0.6106194553606176
0.0095,1.79774375,1.0,1287.8920423804973,0.10137099099131797,1.3482621259648457,0.7041173974271068,0.2885582375,0.6132445523547383
0.01,1.7975,1.0,1365.166784974062,0.10641158891235386,1.347144388676119,0.7232341553923697,0.288548,0.6157231294983535
0.0105,1.79724375,1.0,1439.6588838983778,0.11142391320902836,1.3460839540883265,0.7406465967957924,0.2885372375,0.6180672727123377
0.011,1.796975,1.0,1511.3217299475812,0.11640812265331632,1.345076559558221,0.7565290701069499,0.28852595000000003,0.6202875256487932
0.0115,1.79669375,1.0,1580.1205971495178,0.12136437442265885,1.3441184880202408,0.7710385566272835,0.2885141375,0.6223930682482889
0.012,1.7964,1.0,1646.0568869548902,0.12629282516505,1.3432061664068276,0.7843155397693572,0.28850180000000003,0.6243926254474776
0.0125,1.79609375,1.0,1709.1737610865357,0.1311936316987871,1.342336037247273,0.7964852814961348,0.2884889375,0.6262947627609493
0.013000000000000001,1.7957750000000001,1.0,1769.5064546187975,0.1360669489039996,1.341505073879104,0.8076594516607866,0.28847555,0.628106774600854
0.0135,1.79544375,1.0,1827.0913349262603,0.14091293024688273,1.3407105972274602,0.8179374293341732,0.2884616375,0.6298351050284037
0.014,1.7951000000000001,1.0,1881.9924148997973,0.14573172919363178,1.3399499282174818,0.8274074968707532,0.2884472,0.6314861170437787
0.0145,1.79474375,1.0,1934.2792529090436,0.15052349814493035,1.3392206002384948,0.8361481631850823,0.2884322375,0.6330656389471789
0.015,1.794375,1.0,1984.0519838966568,0.15528839013144333,1.3385200547298244,0.8442291835002252,0.28841675,0.634579631842209
0.0155,1.79399375,1.0,2031.372141119751,0.16002655483377848,1.33784635485586,0.8517128159903605,0.2884007375,0.63603265468944
0.016,1.7936,1.0,2076.3118312313413,0.16473814163442532,1.33719761954,0.8586545178390312,0.2883842,0.6374290987772878
0.0165,1.7931937500000001,1.0,2118.957512176971,0.16942329991587335,1.3365719677056425,0.8651037337423402,0.2883671375,0.638773311717959
0.017,1.792775,1.0,2159.39093724673,0.17408217771486564,1.3359677003692279,0.871104660478518,0.28834955,0.6400692101677703
0.0175,1.7923437500000001,1.0,2197.719234960907,0.17871492419622637,1.3353829762207108,0.8766967751869467,0.2883314375,0.6413209797874304
0.018000000000000002,1.7919,1.0,2234.012284741345,0.18332168473225924,1.3348164367189035,0.8819155576228561,0.2883128,0.6425317401239047
0.0185,1.79144375,1.0,2268.34446933651,0.18790260440050083,1.334266761538494,0.8867928363878944,0.2882936375,0.6437045029673711
0.019,1.790975,1.0,2300.797700961327,0.19245782827848776,1.333732630354171,0.8913572018850111,0.28827395,0.644842255857418
0.0195,1.79049375,1.0,2331.4522350889056,0.1969875003281616,1.3332128068963092,0.8956343974022984,0.2882537375,0.645947784822331
0.02,1.79,1.0,2360.3974764608765,0.20149176562247148,1.3327060248680025,0.8996476163886258,0.288233,0.6470239190578193
0.0205,1.78949375,1.0,2387.705884389429,0.20597076640223222,1.332211237255596,0.9034178427533405,0.2882117375,0.6480730033198534
0.021,1.788975,1.0,2413.441998079083,0.2104246431818335,1.3317275183162078,0.9069640730067055,0.28818995000000003,0.6490971096676339
0.021500000000000002,1.78844375,1.0,2437.674333296431,0.21485353647566496,1.3312539423069547,0.9103035083442147,0.2881676375,0.6500982962566988
0.022,1.7879,1.0,2460.475048817255,0.21925758679811627,1.3307895834849544,0.913451749073982,0.2881448,0.6510786079650843
0.0225,1.78734375,1.0,2481.909835182885,0.22363693264593726,1.3303336094915221,0.9164229831859371,0.28812143749999997,0.6520398802305567
0.023,1.786775,1.0,2502.054348336395,0.22799171559524117,1.3298851206450428,0.9192301066440048,0.28809755,0.6529840790083086
0.0235,1.78619375,1.0,2520.966974682322,0.23232207308190528,1.3294434064206773,0.9218849023457949,0.28807313749999996,0.6539127613709836
0.024,1.7856,1.0,2538.699609600042,0.2366281405603702,1.3290078381644368,0.9243981348155035,0.2880482,0.6548273036554968
0.0245,1.78499375,1.0,2555.3060404020093,0.2409100534850766,1.328577787222332,0.9267796394672965,0.2880227375,0.6557290744390174
0.025,1.784375,1.0,2570.8417863677287,0.24516794731046515,1.3281526249403743,0.929038415547523,0.28799675,0.6566194347727743
0.025500000000000002,1.78374375,1.0,2585.363947540113,0.2494019574909765,1.3277317226645746,0.9311827086489807,0.2879702375,0.657499738390658
0.026000000000000002,1.7831000000000001,1.0,2598.9192108884013,0.25361221613400825,1.3273145621386344,0.9332201005530297,0.2879432,0.6583711014413075
0.0265,1.78244375,1.0,2611.5687820693515,0.257798861133584,1.3269005012422967,0.9351575393504675,0.2879156375,0.6592348924985176
0.027,1.781775,1.0,2623.3564537348493,0.26196202457538176,1.3264890704722334,0.9370014407968232,0.28788755,0.6600921137186767
0.0275,1.7810937500000001,1.0,2634.319725750606,0.2661018362624928,1.326079867141844,0.9387577228950547,0.2878589375,0.6609436232294561
0.028,1.7804,1.0,2644.496887275836,0.2702184259980083,1.3256724885645277,0.9404318426427875,0.2878298,0.661790274847537
0.0285,1.77969375,1.0,2653.9269482732293,0.2743119235850198,1.3252665320536843,0.9420288379936889,0.2878001375,0.6626329181306427
0.029,1.778975,1.0,2662.649574613882,0.27838245882661855,1.3248615949227132,0.9435533654933842,0.28776995,0.6634723984192317
0.029500000000000002,1.7782437500000001,1.0,2670.70502677726,0.2824301615258959,1.3244572744850138,0.9450097340828971,0.2877392375,0.6643095568678457
0.03,1.7775,1.0,2678.1255460466327,0.2864551571013936,1.3240532465680446,0.9464019444654265,0.287708,0.6651450682037949
0.0305,1.77674375,1.0,2684.953248997395,0.2904575785559874,1.3236491005198472,0.947733698045296,0.2876762375,0.665979782310886
0.031,1.775975,1.0,2691.2190755053716,0.2944375526069131,1.3232445320432997,0.949008442609636,0.28764395,0.6668143255870796
0.0315,1.7751937500000001,1.0,2696.9490773170287,0.2983952029895947,1.3228392846814934,0.9502293872127504,0.2876111375,0.6676492227880794
0.032,1.7744,1.0,2702.169595258841,0.3023306534394559,1.3224331019775188,0.9513995169960594,0.2875778,0.6684849960113359
0.0325,1.77359375,1.0,2706.9072317280106,0.3062440276919207,1.3220257274744671,0.9525216115541109,0.2875439375,0.6693221646828451
0.033,1.772775,1.0,2711.188824641145,0.3101354494824129,1.3216169047154291,0.9535982615827838,0.28750955,0.6701612455397532
0.0335,1.7719437500000002,1.0,2715.041422841586,0.31400504254635636,1.3212063772434959,0.9546318839887119,0.2874746375,0.6710027526087661
0.034,1.7711000000000001,1.0,2718.492262964632,0.31785293061917497,1.3207938886017585,0.955624735618523,0.2874392,0.6718471971803652
0.0345,1.7702437500000001,1.0,2721.5521467699923,0.32167922744934846,1.3203793334499894,0.956578939785649,0.2874032375,0.6726947790119278
0.035,1.7693750000000001,1.0,2724.2613326854803,0.3254840678885265,1.3199623394672275,0.9574964591132232,0.28736675,0.6735462414625595
0.035500000000000004,1.76849375,1.0,2726.639268329876,0.32926757160481457,1.3195427250069431,0.9583791475518172,0.2873297375,0.6744019352523505
0.036000000000000004,1.7676,1.0,2728.701237252122,0.33302985540493046,1.3191203471707504,0.9592287455679457,0.2872922,0.6752621301709812
0.0365,1.76669375,1.0,2730.4626038714164,0.33677103609559206,1.3186950630602634,0.9600468852670394,0.2872541375,0.6761270943272153
0.037,1.765775,1.0,2731.938804573042,0.3404912304835173,1.3182667297770956,0.9608350983599564,0.28721555,0.6769970941230652
0.0375,1.76484375,1.0,2733.145339257357,0.34419055537542403,1.317835204422861,0.9615948234582983,0.2871764375,0.6778723942266525
0.038,1.7639,1.0,2734.097763341269,0.34786912757803007,1.3174003440991735,0.9623274127618775,0.28713679999999997,0.67875325754377
0.0385,1.76294375,1.0,2734.811680212641,0.3515270638980532,1.3169620059076472,0.9630341381951015,0.28709663750000003,0.6796399451881397
0.039,1.761975,1.0,2735.302734137021,0.35516448114221144,1.316520046949896,0.9637161970431942,0.28705595,0.6805327164503685
0.0395,1.7609937500000001,1.0,2735.5866036180887,0.3587814961172226,1.3160743243275337,0.9643747171339897,0.2870147375,0.6814318287656029
0.04,1.76,1.0,2735.6695366494296,0.36237821769713097,1.3156247810198358,0.9650107678299111,0.286973,0.6823373648156272
0.0405,1.7589937500000001,1.0,2735.571528484536,0.3659547678402266,1.3151712353960117,0.9656253492237646,0.2869307375,0.6832496568206372
0.041,1.757975,1.0,2735.3073669194127,0.36951126203398166,1.31471355327146,0.9662194082763661,0.28688795,0.6841689393726145
0.0415,1.75694375,1.0,2734.8854926143426,0.3730478099607087,1.3142516582178452,0.9667938433526411,0.2868446375,0.6850953294238986
0.042,1.7559,1.0,2734.3143577755345,0.3765645213027204,1.3137854738068322,0.9673495035311646,0.28680079999999997,0.6860289426907584
0.0425,1.75484375,1.0,2733.6024237931197,0.3800615057423294,1.3133149236100854,0.9678871918090546,0.2867564375,0.6869698936326734
0.043000000000000003,1.753775,1.0,2732.758159007726,0.3835388729618483,1.3128399311992696,0.9684076680670188,0.28671155,0.6879182954312382
0.043500000000000004,1.75269375,1.0,2731.790036608148,0.3869967326435898,1.312360420146049,0.9689116518147507,0.28666613750000003,0.6888742599686981
0.044,1.7516,1.0,2730.706532657078,0.39043519446986646,1.3118763140220884,0.969399824734984,0.2866202,0.6898378978061088
0.0445,1.75049375,1.0,2729.5161242471695,0.393854368122991,1.3113875363990524,0.9698728330428336,0.2865737375,0.6908093181611251
0.045,1.7493750000000001,1.0,2728.2272877864125,0.3972543632852761,1.3108940108486054,0.9703312896755235,0.28652675,0.6917886288854186
0.0455,1.74824375,1.0,2726.845695826409,0.40063528419636535,1.3103956864201587,0.9707757774835742,0.2864792375,0.6927758860068831
0.046,1.7471,1.0,2725.379048387704,0.40399724134038284,1.3098924937137537,0.9712068494118553,0.2864312,0.6937711809307114
0.0465,1.7459437500000001,1.0,2723.836093808332,0.40734034644789685,1.3093843537548149,0.9716250302370099,0.28638263750000004,0.6947746226138889
0.047,1.744775,1.0,2722.22145935471,0.4106647025113544,1.308871225020131,0.9720308203284033,0.28633355,0.6957862447530726
0.0475,1.74359375,1.0,2720.5397698728384,0.41397041252320266,1.3083530659864913,0.97242469556653,0.28628393750000003,0.6968060800278398
0.048,1.7424,1.0,2718.7956472026026,0.4172575794758886,1.3078298351306843,0.972807108767078,0.2862338,0.6978341600874226
0.0485,1.74119375,1.0,2716.993709631476,0.4205263063618594,1.307301490929499,0.9731784910093859,0.2861831375,0.6988705155373309
0.049,1.739975,1.0,2715.1385713851173,0.42377669617356195,1.3067679918597248,0.9735392528765443,0.28613195,0.6999151759258668
0.0495,1.73874375,1.0,2713.2348421573297,0.42700885190344345,1.3062292963981499,0.9738897856137709,0.2860802375,0.7009681697305297
0.05,1.7375,1.0,2711.2871266777347,0.4302228765439509,1.3056853630215637,0.9742304622111372,0.286028,0.7020295243443075
0.0505,1.73624375,1.0,2709.3000243174706,0.43341887308753146,1.305136150206755,0.9745616384162308,0.2859752375,0.7030992660618641
0.051000000000000004,1.734975,1.0,2707.274943578548,0.43659693694349766,1.304581645500958,0.9748836547377571,0.28592195,0.7041773635967116
0.051500000000000004,1.73369375,1.0,2705.212573286942,0.4397571641146427,1.304021843011414,0.9751968367420041,0.2858681375,0.7052637722319615
0.052000000000000005,1.7324,1.0,2703.125658831277,0.44289967766327343,1.3034566267207381,0.9755014912381674,0.2858138,0.7063586597553271
0.0525,1.73109375,1.0,2701.016003566054,0.4460245730272848,1.302885980418893,0.9757979146926283,0.28575893750000003,0.7074619989339476
0.053,1.729775,1.0,2698.8854083988836,0.44913194564457226,1.3023098878958428,0.9760863904948419,0.28570355000000003,0.7085737617359789
0.0535,1.72844375,1.0,2696.7356717162343,0.4522218909530309,1.3017283329415503,0.9763671896437914,0.2856476375,0.7096939193249776
0.054,1.7271,1.0,2694.568589314914,0.45529450439055585,1.3011412993459794,0.9766405713927502,0.2855912,0.7108224420542577
0.0545,1.7257437500000001,1.0,2692.3859543391773,0.4583498813950424,1.3005487708990937,0.9769067838552122,0.2855342375,0.7119592994612376
0.055,1.724375,1.0,2690.1895572236954,0.4613881174043857,1.299950731390856,0.9771660645746418,0.28547675,0.7131044602617683
0.0555,1.72299375,1.0,2687.981185642737,0.464409307856481,1.2993471646112302,0.9774186410604812,0.2854187375,0.714257892344442
0.056,1.7216,1.0,2685.7626244645967,0.4674135481892234,1.2987380543501799,0.9776647312926781,0.2853602,0.7154195627648883
0.0565,1.72019375,1.0,2683.535655712298,0.4704009338405083,1.298123384397668,0.9779045441968304,0.28530113749999997,0.7165894377400519
0.057,1.718775,1.0,2681.302058530128,0.4733715602482307,1.2975031385436584,0.9781382800918776,0.28524155,0.7177674826424516
0.0575,1.71734375,1.0,2679.063609155308,0.47632552285028584,1.2968773005781145,0.9783661311121382,0.2851814375,0.7189536619944257
0.058,1.7159,1.0,2676.822080896505,0.479262917084569,1.2962458542909996,0.9785882816053592,0.2851208,0.7201479394623592
0.0585,1.71444375,1.0,2674.5791801019363,0.4821838343272856,1.2956087840600992,0.9788049081930231,0.2850596375,0.7213502767426967
0.059000000000000004,1.7129750000000001,1.0,2672.337211284339,0.48508834918995186,1.294966068742103,0.9790161787414814,0.28499795,0.7225606450600415
0.059500000000000004,1.71149375,1.0,2670.0983197204087,0.4879765865394111,1.2943176886216339,0.9792222587654569,0.2849357375,0.723779012003887
0.06,1.71,1.0,2667.8630535126626,0.4908486336812945,1.2936636386347151,0.9794233049496641,0.284873,0.7250053167851387
0.0605,1.7084937500000001,1.0,2665.6319598444443,0.4937045779212333,1.2930039137173697,0.9796194678920802,0.2848097375,0.7262394979155109
0.061,1.7069750000000001,1.0,2663.4055849829874,0.49654450656485855,1.2923385088056207,0.9798108923853537,0.28474595,0.7274814932056952
0.0615,1.7054437500000001,1.0,2661.184474282813,0.49936850691780155,1.2916674188354913,0.9799977176831179,0.2846816375,0.728731239763527
0.062,1.7039,1.0,2658.969172190409,0.5021766662856934,1.2909906387430048,0.9801800777521267,0.2846168,0.7299886739921495
0.0625,1.70234375,1.0,2656.7602222485134,0.5049690719741653,1.2903081634641842,0.9803581015110652,0.2845514375,0.7312537315881777
0.063,1.7007750000000001,1.0,2654.5581671016016,0.5077458112888483,1.2896199879350525,0.9805319130568378,0.28448555,0.7325263475398598
0.0635,1.69919375,1.0,2652.363548502149,0.5105069715353738,1.288926107091633,0.9807016318790761,0.28441913750000003,0.7338064561252369
0.064,1.6976,1.0,2650.176907316191,0.5132526400193728,1.2882265158699489,0.9808673730635601,0.2843522,0.7350939909103001
0.0645,1.69599375,1.0,2647.9987835314955,0.5159829040464765,1.287521209206023,0.9810292474852086,0.2842847375,0.7363888847471503
0.065,1.694375,1.0,2645.829716264425,0.5186978509223162,1.2868101820358788,0.9811873619912362,0.28421675,0.7376910697721495
0.0655,1.69274375,1.0,2643.6702437681743,0.5213975679525229,1.2860934292955395,0.9813418195750564,0.2841482375,0.7390004774040757
0.066,1.6911,1.0,2641.520903441776,0.5240821424427279,1.2853709459210279,0.9814927195414496,0.2840792,0.7403170383422761
0.0665,1.6894437500000001,1.0,2639.3822318394436,0.5267516616985622,1.2846427268483671,0.9816401576635037,0.2840096375,0.7416406825648147
0.067,1.687775,1.0,2637.2541783140528,0.5294061568764988,1.2839087724358362,0.981784222816308,0.28393955,0.7429713295088538
0.0675,1.68609375,1.0,2635.138408917783,0.5320457748375552,1.2831690671617204,0.981925007740067,0.2838689375,0.7443089266669678
0.068,1.6844000000000001,1.0,2633.0350781579664,0.5346706088445834,1.2824236094687849,0.9820625990306437,0.2837978,0.7456533954547937
0.0685,1.68269375,1.0,2630.944097615662,0.5372807370381256,1.2816724000470936,0.9821970794094889,0.2837261375,0.7470046525883612
0.069,1.680975,1.0,2628.8653790662784,0.5398762375587243,1.2809154395867113,0.982328528765266,0.28365395,0.7483626141639184
0.0695,1.67924375,1.0,2626.7988344778514,0.5424571885469217,1.2801527287777024,0.982457024268794,0.28358123749999997,0.7497271956581861
0.07,1.6775,1.0,2624.7443760095252,0.5450236681432605,1.2793842683101313,0.9825826404825644,0.283508,0.7510983119286115
0.07050000000000001,1.67574375,1.0,2622.7019160100467,0.547575754488283,1.2786100588740623,0.9827054494651144,0.2834342375,0.752475877213621
0.07100000000000001,1.673975,1.0,2620.6713670157837,0.5501135257225316,1.2778301011595599,0.9828255208705376,0.28335995,0.7538598051328723
0.07150000000000001,1.67219375,1.0,2618.6526417495606,0.5526370599865486,1.2770443958566884,0.982942922043384,0.2832851375,0.7552500086875081
0.07200000000000001,1.6704,1.0,2616.645653118927,0.5551464354208765,1.2762529436555126,0.9830577181091954,0.2832098,0.7566464002604089
0.0725,1.66859375,1.0,2614.6503142145293,0.5576417301660576,1.2754557452460966,0.9831699720609041,0.2831339375,0.7580488916164462
0.073,1.6667750000000001,1.0,2612.6665383087534,0.5601230223626346,1.2746528013185048,0.9832797448413054,0.28305755,0.7594573939027358
0.0735,1.66494375,1.0,2610.694238853927,0.5625903901511495,1.2738441125628017,0.9833870954218134,0.2829806375,0.760871817648889
0.074,1.6631,1.0,2608.733329480918,0.565043911672145,1.273029679669052,0.9834920808776835,0.2829032,0.762292072767267
0.0745,1.6612437500000001,1.0,2606.783723997646,0.5674836650661634,1.2722095033273195,0.9835947564598861,0.2828252375,0.7637180685532335
0.075,1.659375,1.0,2604.8453363876056,0.5699097284737471,1.2713835842276693,0.9836951756638,0.28274675,0.7651497136854066
0.0755,1.65749375,1.0,2602.918080808242,0.5723221800354386,1.2705519230601654,0.9837933902948832,0.2826677375,0.7665869162259131
