Time [s],Phi [rad],STIM [ ],Fsee [N],Gamma [ ],Lcerel [ ],q [ ],Lmtc [m],fisomrel [ ]
0.0,1.8,1.0,17.968346458145714,1.0796214085518183e-05,1.379339613093639,0.005000031046051534,0.288653,0.5411398531185212
0.0005,1.79999375,1.0,18.27783668795168,0.005619944964656807,1.3793022664311811,0.012942722715234906,0.2886527375,0.5412301998729888
0.001,1.799975,1.0,21.619984471461333,0.011197630825656467,1.3789381384026953,0.03561271960006296,0.28865195,0.5421106098976396
0.0015,1.79994375,1.0,31.07199917131366,0.01674403027987846,1.3780459683218655,0.07060737441499933,0.2886506375,0.5442641767716296
0.002,1.7999,1.0,53.58741682931272,0.022259318818467745,1.3763678054396702,0.11472455053339786,0.2886488,0.5483012596572914
0.0025,1.79984375,1.0,97.12678185745133,0.02774367094848248,1.3739347892733889,0.16458197960893894,0.28864643749999996,0.5541223640659001
0.003,1.7997750000000001,1.0,160.96819776478685,0.033197260200610285,1.3712139682943438,0.217287766523814,0.28864354999999997,0.5605873397422383
0.0035,1.79969375,1.0,237.6945575817041,0.038620259128761034,1.368584388445548,0.2706201628831688,0.2886401375,0.5667906524050428
0.004,1.7996,1.0,321.47865815310513,0.04401283932084871,1.3661557775627697,0.3229228463282949,0.2886362,0.5724806969304959
0.0045000000000000005,1.7994937500000001,1.0,409.28003749421924,0.04937517140397612,1.363922525752945,0.3730411958698893,0.2886317375,0.577679831790807
0.005,1.799375,1.0,499.4260101804527,0.05470742503552061,1.3618580765967458,0.42025371937571715,0.28862675,0.5824576926074734
0.0055,1.79924375,1.0,590.8030242792787,0.060009768950613815,1.3599385887263413,0.46417949386975493,0.2886212375,0.5868756771227351
0.006,1.7991000000000001,1.0,682.5307129726754,0.06528237090527468,1.358146185629567,0.5046852894960598,0.2886152,0.5909799417059687
0.006500000000000001,1.79894375,1.0,773.8938594462334,0.07052539773202839,1.3564670385008246,0.5418056317987636,0.2886086375,0.5948062833624095
0.007,1.798775,1.0,864.2981935208913,0.07573901532350548,1.354890194982985,0.5756812224746104,0.28860155,0.5983831297989122
0.0075,1.79859375,1.0,953.255462194876,0.08092338864217324,1.353406590823552,0.6065139561457865,0.2885939375,0.6017339973293192
0.008,1.7984,1.0,1040.3570977935326,0.08607868133648416,1.3520086663207216,0.6345358469257931,0.2885858,0.6048785039384786
0.0085,1.79819375,1.0,1125.326988151162,0.0912050574823538,1.3506890608552997,0.6599877652389139,0.2885771375,0.607835403687589
0.009000000000000001,1.797975,1.0,1207.9116179065973,0.09630267899710646,1.3494418787734932,0.6831072291559417,0.28856795,0.6106198130078166
0.0095,1.79774375,1.0,1287.9024467273005,0.10137170643956926,1.3482619882877835,0.7041202460350925,0.2885582375,0.6132448581436216
0.01,1.7975,1.0,1365.176982494136,0.10641230036856944,1.347144257610652,0.7232367482106744,0.288548,0.6157234196682055
0.0105,1.79724375,1.0,1439.6703013504,0.11142462069727944,1.3460838111904052,0.7406489509561135,0.2885372375,0.6180675881120025
0.011,1.796975,1.0,1511.332797757144,0.11640882617382409,1.3450764243603672,0.7565312193737331,0.28852595000000003,0.6202878231845146
0.0115,1.79669375,1.0,1580.1303941574354,0.12136507397939944,1.344118370980043,0.7710405269926883,0.2885141375,0.6223933251085506
0.012,1.7964,1.0,1646.064624569249,0.12629352069736327,1.343206075839505,0.7843173532496728,0.28850180000000003,0.6243928236825509
0.0125,1.79609375,1.0,1709.1817689354798,0.1311943233753411,1.3423359452638357,0.7964869429294493,0.2884889375,0.6262949635851915
0.013000000000000001,1.7957750000000001,1.0,1769.5150250151255,0.13606763679323958,1.341504977126718,0.8076609751202138,0.28847555,0.6281069853242341
0.0135,1.79544375,1.0,1827.100225100845,0.14091361433806737,1.3407104984592895,0.8179388295429862,0.2884616375,0.6298353196416534
0.014,1.7951000000000001,1.0,1882.0008124905196,0.14573240939683318,1.339949836292688,0.8274087890405601,0.2884472,0.631486316341118
0.0145,1.79474375,1.0,1934.2886223377764,0.15052417448146083,1.3392204990711438,0.8361493521143332,0.2884322375,0.6330658578122581
0.015,1.794375,1.0,1984.059130502715,0.15528906254159097,1.3385199785376607,0.84423029064182,0.28841675,0.6345797963356561
0.0155,1.79399375,1.0,2031.3799722061046,0.16002722356269192,1.3378462723444087,0.8517138392322535,0.2884007375,0.6360328324712616
0.016,1.7936,1.0,2076.3214303320033,0.16473880673951027,1.3371975195005874,0.858655461417009,0.2883842,0.6374293139115146
0.0165,1.7931937500000001,1.0,2118.96804791234,0.16942396126679266,1.3365718590153974,0.8651046073350543,0.2883671375,0.6387735450220646
0.017,1.792775,1.0,2159.405142637556,0.17408283532782273,1.3359675552001185,0.8711054621526517,0.28834955,0.6400695212144623
0.0175,1.7923437500000001,1.0,2197.731764611848,0.178715577902347,1.335382849297916,0.8766975264028356,0.2883314375,0.6413212512653422
0.018000000000000002,1.7919,1.0,2234.0236565618466,0.18332233485130298,1.3348163224642116,0.8819162616799601,0.2883128,0.6425319840929244
0.0185,1.79144375,1.0,2268.354342112521,0.18790325104413194,1.3342666630984756,0.8867934982921781,0.2882936375,0.6437047128220988
0.019,1.790975,1.0,2300.804847621352,0.1924584713502752,1.3337325596001794,0.8913578281270023,0.28827395,0.6448424064499767
0.0195,1.79049375,1.0,2331.457979801227,0.19698813995271053,1.3332127503971303,0.8956349878250263,0.2882537375,0.6459479048876906
0.02,1.79,1.0,2360.3977072628613,0.2014924010129935,1.3327060226120273,0.899648182682419,0.288233,0.6470239238446593
0.0205,1.78949375,1.0,2387.7062162823863,0.2059713982277439,1.3322112340301113,0.9034183749263338,0.2882117375,0.6480730101536691
0.021,1.788975,1.0,2413.4450916543583,0.21042527178891088,1.3317274884121932,0.9069645682759497,0.28818995000000003,0.6490971729328388
0.021500000000000002,1.78844375,1.0,2437.6798215586955,0.21485416188844347,1.3312538895190835,0.910303970267424,0.2881676375,0.6500984077757616
0.022,1.7879,1.0,2460.4794748560566,0.21925820871829071,1.330789541111593,0.9134521867821193,0.2881448,0.6510786973570843
0.0225,1.78734375,1.0,2481.913722493321,0.22363755202518845,1.3303335724368108,0.9164233981137241,0.28812143749999997,0.6520399582944332
0.023,1.786775,1.0,2502.0443332892287,0.2279923299415418,1.3298852157257586,0.919230523569237,0.28809755,0.6529838789718423
0.0235,1.78619375,1.0,2520.952890464394,0.23232268350214116,1.329443539630774,0.9218853043371222,0.28807313749999996,0.6539124814909013
0.024,1.7856,1.0,2538.687949142623,0.23662874777167173,1.3290079480644654,0.9243985121215026,0.2880482,0.6548270730561544
0.0245,1.78499375,1.0,2555.2998965832953,0.24091065781481885,1.3285778449394412,0.9267799887450054,0.2880227375,0.6557289534915578
0.025,1.784375,1.0,2570.840801098745,0.24516854869626778,1.32815263416831,0.9290387391747298,0.28799675,0.6566194154604568
0.025500000000000002,1.78374375,1.0,2585.364268850037,0.2494025554807038,1.3277317196636804,0.9311830141112519,0.2879702375,0.6574997446629043
0.026000000000000002,1.7831000000000001,1.0,2598.921833017866,0.2536128124648711,1.3273145377130473,0.9332203883565013,0.2879432,0.6583711524288716
0.0265,1.78244375,1.0,2611.55994554035,0.2577994526703754,1.3269005833565823,0.9351578295448884,0.2879156375,0.6592347213046115
0.027,1.781775,1.0,2623.3409120395895,0.26196261192657205,1.3264892145701688,0.9370017267760388,0.28788755,0.660091813677788
0.0275,1.7810937500000001,1.0,2634.3012276010063,0.26610241991436967,1.3260800382939255,0.9387579999451616,0.2878589375,0.660943267303036
0.028,1.7804,1.0,2644.478163776178,0.27021900631467705,1.3256726614679715,0.9404321077633774,0.2878298,0.6617899157282146
0.0285,1.77969375,1.0,2653.909701992419,0.27431250080840286,1.3252666910324258,0.9420290897368444,0.2878001375,0.6626325883444403
0.029,1.778975,1.0,2662.634470387726,0.27838303307645584,1.3248617339274071,0.943553603818631,0.28776995,0.6634721104262709
0.029500000000000002,1.7782437500000001,1.0,2670.6916840709896,0.28243073279974473,1.3244573970930351,0.9450099602265004,0.2877392375,0.6643093031620297
0.03,1.7775,1.0,2678.1171484211955,0.28645572680734216,1.3240533236279997,0.9464021556933115,0.287708,0.6651449089465782
0.0305,1.77674375,1.0,2684.9478184377076,0.29045814612381704,1.3236491502894099,0.9477338973207963,0.2876762375,0.6659796795820886
0.031,1.775975,1.0,2691.2128350416497,0.29443811650467294,1.3232445891687932,0.9490086344825623,0.28764395,0.6668142078223793
0.0315,1.7751937500000001,1.0,2696.9400268504714,0.2983957623267664,1.3228393674418466,0.9502295741055616,0.2876111375,0.6676490523907792
0.032,1.7744,1.0,2702.157520720809,0.302331207966954,1.322433212284268,0.9513996993765603,0.2875778,0.6684847691838273
0.0325,1.77359375,1.0,2706.893712422657,0.3062445778020923,1.3220258508717542,0.9525217880928163,0.2875439375,0.6693219112574067
0.033,1.772775,1.0,2711.177238963274,0.31013599620903776,1.3216170103800033,0.9535984292963261,0.28750955,0.6701610288081277
0.0335,1.7719437500000002,1.0,2715.028853209064,0.3140055817242936,1.3212064918006539,0.9546320452191407,0.2874746375,0.6710025179372338
0.034,1.7711000000000001,1.0,2718.4732756102903,0.31785345810197385,1.3207940615390052,0.9556248951733963,0.2874392,0.6718468433715208
0.0345,1.7702437500000001,1.0,2721.549393860994,0.32167976007034377,1.320379358509409,0.9565790795105434,0.2874032375,0.6726947278096287
0.035,1.7693750000000001,1.0,2724.2730748717927,0.3254846049892176,1.3199622326327343,0.9574965813605925,0.28736675,0.6735464594664415
0.035500000000000004,1.76849375,1.0,2726.6602898034257,0.3292681102184097,1.3195425338298499,0.9583792573214734,0.2873297375,0.6744023248520384
0.036000000000000004,1.7676,1.0,2728.727103593998,0.3330303931177342,1.3191201120216247,0.9592288469836865,0.2872922,0.675262608747786
0.0365,1.76669375,1.0,2730.4896649861967,0.33677157104700534,1.3186948171289274,0.960046981634172,0.2872541375,0.6761275941809933
0.037,1.765775,1.0,2731.9641970531407,0.3404917613660375,1.3182664990726272,0.9608351922185487,0.28721555,0.6769975623981295
0.0375,1.76484375,1.0,2733.1669882244655,0.34419108143464483,1.3178350077735925,0.9615949166324762,0.2871764375,0.6778727928366084
0.038,1.7639,1.0,2734.1143838109792,0.34786964861264164,1.3174001931526929,0.9623275064054624,0.28713679999999997,0.6787535630951316
0.0385,1.76294375,1.0,2734.8227780296147,0.35152758025984215,1.3169619051307964,0.9630342328338612,0.28709663750000003,0.6796401489026023
0.039,1.761975,1.0,2735.3086065264592,0.35516499373606064,1.3165199936287724,0.9637162926139581,0.28705595,0.6805328240855928
0.0395,1.7609937500000001,1.0,2735.588062142556,0.3587820058898488,1.3160743110848558,0.9643748131528196,0.2870147375,0.6814318554599292
0.04,1.76,1.0,2735.6708301333406,0.362378721966213,1.3156247692758223,0.9650108603611398,0.286973,0.682337388455306
0.0405,1.7589937500000001,1.0,2735.577258591836,0.3659552715262864,1.3151711833693611,0.9656254356334141,0.2869307375,0.6832497613952696
0.041,1.757975,1.0,2735.316011083525,0.3695117643806374,1.3147134747827895,0.9662194898533426,0.28688795,0.6841690969073422
0.0415,1.75694375,1.0,2734.8957654827013,0.3730483103398343,1.3142515649334243,0.9667939211651658,0.2868446375,0.6850955163804011
0.042,1.7559,1.0,2734.3252113882127,0.3765650192144457,1.3137853752385826,0.967349578439708,0.28680079999999997,0.6860291399438199
0.0425,1.75484375,1.0,2733.6130476765816,0.3800620008150398,1.3133148271155815,0.9678872644783566,0.2867564375,0.6869700864462159
0.043000000000000003,1.753775,1.0,2732.767980191018,0.3835393649521852,1.3128398419817378,0.968407738977261,0.28671155,0.6879184734338053
0.043500000000000004,1.75269375,1.0,2731.7987195687956,0.3869972214364501,1.3123603412543687,0.9689117212719416,0.28666613750000003,0.6888744171283621
0.044,1.7516,1.0,2730.7139792040307,0.39043568007840296,1.3118762463507916,0.9693998928806145,0.2866202,0.6898380324047844
0.0445,1.75049375,1.0,2729.5224733486866,0.39385485068861226,1.3113874786883228,0.9698728998628549,0.2865737375,0.6908094327682694
0.045,1.7493750000000001,1.0,2728.232915349509,0.3972548430776463,1.31089395968428,0.9703313550086945,0.28652675,0.6917887303310885
0.0455,1.74824375,1.0,2726.8439896417467,0.40063575010727426,1.3103957019362809,0.9707758443705611,0.2864792375,0.6927758552917204
0.046,1.7471,1.0,2725.368649680793,0.40399769199451363,1.3098925883055939,0.9712069185906312,0.2864312,0.6937709939836088
0.0465,1.7459437500000001,1.0,2723.8214548297265,0.40734078943471325,1.3093844869560503,0.9716250997432887,0.28638263750000004,0.6947743597925433
0.047,1.744775,1.0,2722.2062129141596,0.410665143949762,1.3088713637898548,0.9720308885953848,0.28633355,0.6957859713985816
0.0475,1.74359375,1.0,2720.5267299961715,0.41397085706154885,1.3083531847092127,0.9724247614108529,0.28628393750000003,0.6968058465551217
0.048,1.7424,1.0,2718.7868099152292,0.41725803029196257,1.3078299156163289,0.9728071713753833,0.2862338,0.6978340020779459
0.0485,1.74119375,1.0,2716.9902538565243,0.4205267651628922,1.3073015224134086,0.9731785499254859,0.2861831375,0.698870453834188
0.049,1.739975,1.0,2715.140859943349,0.4237771631962266,1.306767971002657,0.9735393079891784,0.28613195,0.6999152167312277
0.0495,1.73874375,1.0,2713.2424228566274,0.4270093259138547,1.3062292272862788,0.9738898371449367,0.2860802375,0.7009683047055122
0.05,1.7375,1.0,2711.298733479409,0.4302233548376654,1.3056852571664794,0.9742305107049811,0.286028,0.7020297307112989
0.0505,1.73624375,1.0,2709.3135785674917,0.4334193514895476,1.305136026545464,0.9745616847284818,0.2859752375,0.7030995067093302
0.051000000000000004,1.734975,1.0,2707.2907404457346,0.43659741739139013,1.3045815013254372,0.9748836989697985,0.28592195,0.7041776436554297
0.051500000000000004,1.73369375,1.0,2705.233996729979,0.43975765406508205,1.3040216474086044,0.9751968777664661,0.2858681375,0.705264151489025
0.052000000000000005,1.7324,1.0,2703.1471200751744,0.4429001630325122,1.3034564306971705,0.975501530871246,0.2858138,0.7063590391215986
0.0525,1.73109375,1.0,2701.033877948855,0.4460250458155694,1.3028858170933408,0.9757979542322309,0.28575893750000003,0.7074623144250615
0.053,1.729775,1.0,2698.8980324304976,0.4491324039361427,1.3023097724993202,0.9760864307246643,0.28570355000000003,0.708573984220055
0.0535,1.72844375,1.0,2696.742028508578,0.45222231592283274,1.3017282748107961,0.9763672292422177,0.2856476375,0.7096940311852701
0.054,1.7271,1.0,2694.570974024942,0.45529490678954593,1.3011412775298232,0.9766406102217275,0.2855912,0.7108224839531441
0.0545,1.7257437500000001,1.0,2692.386467619859,0.45835027232588754,1.3005487662015198,0.9769068218978229,0.2855342375,0.7119593084653832
0.055,1.724375,1.0,2690.1899027468125,0.46138850573897894,1.2999507282273182,0.9771661017921381,0.28547675,0.7131044663134615
0.0555,1.72299375,1.0,2687.98267071327,0.46440970023594164,1.2993471510086505,0.9774186773998789,0.2854187375,0.7142579183131512
0.056,1.7216,1.0,2685.7661606488814,0.46741394902389705,1.298738021946949,0.9776647666936573,0.2853602,0.715419624500077
0.0565,1.72019375,1.0,2683.5417594781093,0.4704013453099667,1.2981233284436462,0.9779045785980036,0.28530113749999997,0.716589544125261
0.057,1.718775,1.0,2681.3108518957583,0.473371982301272,1.2975030579001743,0.9781383134364834,0.28524155,0.7177676356506555
0.0575,1.71734375,1.0,2679.0748203459925,0.4763259532049344,1.2968771977179652,0.9783661633532167,0.2851814375,0.7189538567446692
0.058,1.7159,1.0,2676.8350450052303,0.4792633512280755,1.2962457352984516,0.9785883127104503,0.2851208,0.7201481642776779
0.0585,1.71444375,1.0,2674.5929037686205,0.4821842695778167,1.2956086580430655,0.978804938463731,0.2850596375,0.7213505143175318
0.059000000000000004,1.7129750000000001,1.0,2672.3497722393276,0.4850888014612793,1.2949659533532392,0.9790162105161038,0.28499795,0.722560862125047
0.059500000000000004,1.71149375,1.0,2670.107023722238,0.487977040085585,1.294317608630405,0.9792222920526673,0.2849357375,0.7237791621494891
0.06,1.71,1.0,2667.8660292204813,0.4908490786578551,1.293663611275995,0.9794233398567161,0.284873,0.7250053680240476
0.0605,1.7084937500000001,1.0,2665.6281320864614,0.49370500966535724,1.2930039489246041,0.9796195045631777,0.2848097375,0.7262394321255994
0.061,1.7069750000000001,1.0,2663.393664563693,0.4965448660258425,1.2923386184940313,0.979810926757572,0.28474595,0.7274812887021722
0.0615,1.7054437500000001,1.0,2661.16723169515,0.4993688186024312,1.2916675775633049,0.9799977504425891,0.2846816375,0.728730944510056
0.062,1.7039,1.0,2658.9490334860493,0.5021769513663799,1.2909908242084798,0.9801801094386307,0.2846168,0.7299883298037935
0.0625,1.70234375,1.0,2656.7392696223556,0.504969348288945,1.2903083565056108,0.9803581325303826,0.2845514375,0.7312533741805203
0.063,1.7007750000000001,1.0,2654.5381394740452,0.5077460933413833,1.2896201725307528,0.9805319436922291,0.28448555,0.7325260065792634
0.0635,1.69919375,1.0,2652.3458420982292,0.5105072704949513,1.2889262703599607,0.9807016623019519,0.28441913750000003,0.7338061552802388
0.064,1.6976,1.0,2650.1625762416134,0.5132529637209056,1.2882266480692894,0.9808674033434028,0.2843522,0.7350937479041517
0.0645,1.69599375,1.0,2647.988540344493,0.5159832569905027,1.2875213037347937,0.9810292775987973,0.2842847375,0.736388711411494
0.065,1.694375,1.0,2645.8239325433806,0.5186982342749994,1.2868102354325284,0.9811873918312307,0.28421675,0.7376909721018421
0.0655,1.69274375,1.0,2643.668950674551,0.5213979795456521,1.2860934412385485,0.9813418489579808,0.2841482375,0.7390004556131544
0.066,1.6911,1.0,2641.5237922773463,0.5240825767737174,1.285370919228909,0.9814927482151248,0.2840792,0.74031708692107
0.0665,1.6894437500000001,1.0,2639.388654597921,0.526752109930452,1.284642667479664,0.9816401853139649,0.2840096375,0.7416407903382061
0.067,1.687775,1.0,2637.2637345923226,0.5294066629871124,1.2839086840668694,0.9817842525897237,0.28393955,0.7429714895134519
0.0675,1.68609375,1.0,2635.149228930723,0.5320463199149551,1.2831689670665793,0.981925039142945,0.2838689375,0.7443091074312707
0.068,1.6844000000000001,1.0,2633.0453340006634,0.5346711646852368,1.282423514554849,0.9820626309740038,0.2837978,0.7456535664109916
0.0685,1.68269375,1.0,2630.9522459110635,0.537281281269214,1.2816723246077333,0.9821971111111084,0.2837261375,0.7470047881061088
0.069,1.680975,1.0,2628.870160496308,0.5398767536381435,1.2809153953012868,0.9823285597321512,0.28365395,0.748362693503577
0.0695,1.67924375,1.0,2626.799273319774,0.5424576657632816,1.2801527247115645,0.982457054280743,0.28358123749999997,0.749727202923107
0.07,1.6775,1.0,2624.739779678404,0.545024101615885,1.2793843109146212,0.9825826695767501,0.283508,0.7510982360164613
0.07050000000000001,1.67574375,1.0,2622.6918746063966,0.5475761451672103,1.278610151986512,0.9827054779216214,0.2834342375,0.7524757117667495
0.07100000000000001,1.673975,1.0,2620.6557528795934,0.5501138803885142,1.2778302460032918,0.9828255491987954,0.28335995,0.7538595484877244
0.07150000000000001,1.67219375,1.0,2618.6364852818015,0.552637385617251,1.2770445457890973,0.9829429485639504,0.2832851375,0.7552497437771453
0.07200000000000001,1.6704,1.0,2616.626608043001,0.5551467363747412,1.2762531204620908,0.9830577441136387,0.2832098,0.756646088759431
0.0725,1.66859375,1.0,2614.6278979236804,0.5576420115423366,1.2754559534290928,0.9831699980775319,0.2831339375,0.7580485258943542
0.073,1.6667750000000001,1.0,2612.6423886963057,0.5601232899838684,1.2746530256842519,0.9832797705437999,0.28305755,0.7594570009007835
0.0735,1.66494375,1.0,2610.669232772381,0.562590650302753,1.273844344973468,0.9833871208254831,0.2829806375,0.7608714117539932
0.074,1.6631,1.0,2608.7085527755034,0.565044171020204,1.2730299100343845,0.983492105927363,0.2829032,0.7622916716409947
0.0745,1.6612437500000001,1.0,2606.7609553778607,0.56748392948931,1.2722097151012666,0.9835947807666773,0.2828252375,0.7637177009071661
0.075,1.659375,1.0,2604.8244318983443,0.5699100026274574,1.2713837787353877,0.9836951995548101,0.28274675,0.7651493770385911
0.0755,1.65749375,1.0,2602.895375293139,0.5723224673061805,1.2705521344039274,0.9837934154460509,0.2826677375,0.7665865515608392
