Time [s],Phi [rad],STIM [ ],Fsee [N],Gamma [ ],Lcerel [ ],q [ ],Lmtc [m],fisomrel [ ]
0.0,1.8,1.0,19.20332014347746,0.0011346544891481388,1.3792035582492936,0.0053303264936389975,0.288653,0.5414689458261307
0.0005,1.79999375,1.0,19.83860178269987,0.006737499283562969,1.3791324519034664,0.016355065101353924,0.2886527375,0.5416408925818421
0.001,1.799975,1.0,24.01931618529428,0.012308916548688148,1.3786995367914334,0.041706947266369435,0.28865195,0.54268705623072
0.0015,1.79994375,1.0,35.391004892680954,0.01784908256798258,1.3776899881718907,0.07879217208429833,0.2886506375,0.5451220434780519
0.002,1.7999,1.0,61.656074514279965,0.02335817263724257,1.375862723237286,0.12431695164880607,0.2886488,0.5495127974510566
0.0025,1.79984375,1.0,109.64927111849829,0.02883636106670978,1.3733496728349737,0.17495359072589245,0.28864643749999996,0.5555166511288844
0.003,1.7997750000000001,1.0,176.61655468244516,0.03428382119074738,1.3706418360206,0.22794557016179234,0.28864354999999997,0.5619407824976996
0.0035,1.79969375,1.0,255.0278529960374,0.03970072537019243,1.368059883521291,0.28119080924205364,0.2886401375,0.5680227109129266
0.004,1.7996,1.0,339.71817799971495,0.04508724499853285,1.3656793556635076,0.33313698053717145,0.2886362,0.5735925026834244
0.0045000000000000005,1.7994937500000001,1.0,428.03362520728376,0.05044355051878471,1.3634872445745354,0.3827224095926045,0.2886317375,0.5786894867079461
0.005,1.799375,1.0,518.4437290594738,0.05576981132160852,1.361457732295479,0.4293015577664507,0.28862675,0.583381083430516
0.0055,1.79924375,1.0,609.9398930367045,0.061066196204304944,1.359567684289951,0.4725495853403276,0.2886212375,0.5877266594845734
0.006,1.7991000000000001,1.0,701.6131469519783,0.06633287240153718,1.3578017121055592,0.5123734411286158,0.2886152,0.5917663737701866
0.006500000000000001,1.79894375,1.0,792.8088861575104,0.07157000673108888,1.3561460984286937,0.5488328114432894,0.2886086375,0.5955355758100103
0.007,1.798775,1.0,882.9494142035707,0.07677776489373901,1.3545905282069761,0.5820838256556684,0.28860155,0.599061088347888
0.0075,1.79859375,1.0,971.5598992218656,0.08195631160251202,1.35312639018305,0.6123365691876892,0.2885939375,0.6023652823861236
0.008,1.7984,1.0,1058.2677166072197,0.08710581091088383,1.3517460936513874,0.6398261415156834,0.2885858,0.6054677474521346
0.0085,1.79819375,1.0,1142.7619504445363,0.09222642543657897,1.3504431959421008,0.6647939512563307,0.2885771375,0.608385096995811
0.009000000000000001,1.797975,1.0,1224.8233256779608,0.0973183171795722,1.3492116046868892,0.6874754867614234,0.28856795,0.6111328289285964
0.0095,1.79774375,1.0,1304.3005523045097,0.10238164800976024,1.3480456847004167,0.7080935228057595,0.2885582375,0.6137251318922772
0.01,1.7975,1.0,1381.0466613979306,0.10741657731764989,1.3469408794208948,0.7268548398357103,0.288548,0.616173552891123
0.0105,1.79724375,1.0,1454.9824889482995,0.11242326438520665,1.3458926750125693,0.7439481966693932,0.2885372375,0.6184893411117638
0.011,1.796975,1.0,1526.0729916124174,0.11740186771592871,1.3448968040504572,0.7595443424776454,0.28852595000000003,0.6206830183538921
0.0115,1.79669375,1.0,1594.31909708858,0.12235254576528143,1.3439492443693308,0.7737967143854445,0.2885141375,0.6227644046484897
0.012,1.7964,1.0,1659.7094024936048,0.12727545426285752,1.3430466960712923,0.7868427744223477,0.28850180000000003,0.6247415953908495
0.0125,1.79609375,1.0,1722.2683412801227,0.1321707487261033,1.342185911076141,0.7988050396366848,0.2884889375,0.6266224561893858
0.013000000000000001,1.7957750000000001,1.0,1782.0445624854012,0.13703858405433544,1.3413637791290554,0.8097925438931383,0.28847555,0.6284144461056427
0.0135,1.79544375,1.0,1839.108070277134,0.14187911543535256,1.340577312185065,0.8199022282244873,0.2884616375,0.6301246633443773
0.014,1.7951000000000001,1.0,1893.514232719944,0.14669249567719175,1.3398239961695986,0.8292203840432626,0.2884472,0.6317590931993771
0.0145,1.79474375,1.0,1945.3189783437701,0.15147887621780262,1.3391015671474495,0.8378237671284137,0.2884322375,0.6333231095604075
0.015,1.794375,1.0,1994.5987654123323,0.15623840849513482,1.3384077611834118,0.8457806118329084,0.28841675,0.6348220254171906
0.0155,1.79399375,1.0,2041.4380594659135,0.1609712431280063,1.3377404272821662,0.8531516669089331,0.2884007375,0.6362608538879457
0.016,1.7936,1.0,2085.9319692733884,0.16567753123155277,1.3370974766288342,0.8599910640784327,0.2883842,0.6376444236303336
0.0165,1.7931937500000001,1.0,2128.1571054899514,0.17035742130606282,1.3364771642279951,0.8663471822180014,0.2883671375,0.638976779187139
0.017,1.792775,1.0,2168.186348904766,0.1750110604573616,1.335877908636011,0.8722632716287297,0.28834955,0.6402615768185568
0.0175,1.7923437500000001,1.0,2206.1032678879455,0.17963859579127414,1.3352981284092427,0.8777780126655564,0.2883314375,0.6415024396851372
0.018000000000000002,1.7919,1.0,2241.9965450593486,0.18424017387519542,1.334736288888682,0.8829260645684897,0.2883128,0.6427028600160485
0.0185,1.79144375,1.0,2275.9542247009113,0.18881594090520237,1.334190949218192,0.8877385461277197,0.2882936375,0.6438661015964406
0.019,1.790975,1.0,2308.0656636444032,0.19336604297637514,1.333660732110245,0.8922434362362928,0.28827395,0.64499526737135
0.0195,1.79049375,1.0,2338.3962272549343,0.19789062254399634,1.3331445635484391,0.8964659875201588,0.2882537375,0.6460927926598214
0.02,1.79,1.0,2367.016803322038,0.2023898220633485,1.3326413695163728,0.9004289635749273,0.288233,0.647161094662857
0.0205,1.78949375,1.0,2394.0033458895473,0.20686378398971428,1.3321500759976443,0.9041529178627561,0.2882117375,0.6482025733889002
0.021,1.788975,1.0,2419.432500902421,0.2113126500331847,1.3316696470509253,0.9076564462348454,0.28818995000000003,0.6492195319678401
0.021500000000000002,1.78844375,1.0,2443.3785712328963,0.2157365615331453,1.3311991091405808,0.910956406182813,0.2881676375,0.6502141266086915
0.022,1.7879,1.0,2465.9176077069224,0.22013566035514642,1.3307375070714291,0.9140680955273055,0.2881448,0.6511884611485216
0.0225,1.78734375,1.0,2487.1059126305618,0.22451008394336322,1.3302841051983119,0.9170054553838258,0.28812143749999997,0.652144164073184
0.023,1.786775,1.0,2507.0024288484556,0.22885996974197093,1.3298381678760711,0.9197811716008913,0.28809755,0.6530828539928467
0.0235,1.78619375,1.0,2525.6685199203953,0.2331854551951446,1.3293989594595488,0.9224068051476945,0.28807313749999996,0.6540061400094597
0.024,1.7856,1.0,2543.1677622966718,0.23748667774705953,1.328965744303587,0.9248929073984458,0.2880482,0.6549156220497037
0.0245,1.78499375,1.0,2559.5539840962365,0.2417637722108414,1.3285378971991781,0.9272491403472798,0.2880227375,0.6558126597702241
0.025,1.784375,1.0,2574.893075862712,0.24601687755715962,1.328114695888653,0.9294843325149069,0.28799675,0.6566988084881913
0.025500000000000002,1.78374375,1.0,2589.2361176950276,0.2502461283965985,1.3276955718202679,0.931606599100043,0.2879702375,0.6575752940350372
0.026000000000000002,1.7831000000000001,1.0,2602.6252154999584,0.25445165669951586,1.3272800523576727,0.9336234018999009,0.2879432,0.6584431356146654
0.0265,1.78244375,1.0,2615.103587239689,0.2586335944362697,1.3268676648645166,0.9355415974516377,0.2879156375,0.6593033471492924
0.027,1.781775,1.0,2626.715468479431,0.262792073577218,1.3264579367044493,0.937367494235272,0.28788755,0.660156937380975
0.0275,1.7810937500000001,1.0,2637.506022887661,0.2669272260927187,1.3260503952411204,0.9391069037743052,0.2878589375,0.6610049099588939
0.028,1.7804,1.0,2647.5212576890185,0.27103918395312965,1.3256445678381794,0.9407651863509483,0.2878298,0.6618482635123896
0.0285,1.77969375,1.0,2656.799133416179,0.2751280741339058,1.3252400630330659,0.9423473016263009,0.2878001375,0.6626878233362479
0.029,1.778975,1.0,2665.3910997053863,0.27919403295252787,1.3248363711032376,0.943857821894043,0.28776995,0.6635246556392849
0.029500000000000002,1.7782437500000001,1.0,2673.3271909338328,0.2832371867654018,1.324433184988023,0.9453010032326431,0.2877392375,0.6643594020361199
0.03,1.7775,1.0,2680.6374890720476,0.2872576617120187,1.3240302013991108,0.9466807895259208,0.287708,0.6651926931800118
0.0305,1.77674375,1.0,2687.352492080584,0.29125558393186973,1.3236271170481893,0.9480008389250039,0.2876762375,0.6660251566042017
0.031,1.775975,1.0,2693.5030756081037,0.295231079564446,1.3232236286469474,0.9492645481389835,0.28764395,0.6668574167228962
0.0315,1.7751937500000001,1.0,2699.120456728192,0.29918427474923864,1.3228194329070737,0.9504750743756631,0.2876111375,0.6676900948263882
0.032,1.7744,1.0,2704.236159715922,0.3031152956257388,1.322414226540257,0.9516353551851309,0.2875778,0.6685238090703056
0.0325,1.77359375,1.0,2708.864930884404,0.30702426039383474,1.3220078618523485,0.9527481426214862,0.2875439375,0.6693588549275473
0.033,1.772775,1.0,2713.051564639166,0.3109113027850728,1.321599918948588,0.9538159747705499,0.28750955,0.670196084605426
0.0335,1.7719437500000002,1.0,2716.8253418371987,0.31477654763831053,1.3211901216452462,0.9548412339858299,0.2874746375,0.6710360515226785
0.034,1.7711000000000001,1.0,2720.204629617319,0.3186201142731877,1.3207782948105449,0.9558261550955804,0.2874392,0.6718790994210433
0.0345,1.7702437500000001,1.0,2723.2079327517963,0.3224421220093439,1.3203642633127062,0.9567728270977546,0.2874032375,0.6727255701278925
0.035,1.7693750000000001,1.0,2725.853879946482,0.3262426901664188,1.319947852019952,0.9576832043774154,0.28736675,0.673575803532586
0.035500000000000004,1.76849375,1.0,2728.1612108221143,0.3300219380640521,1.3195288858005043,0.9585591169372195,0.2873297375,0.6744301375608682
0.036000000000000004,1.7676,1.0,2730.148763574764,0.33377998502188344,1.319107189522585,0.9594022797380471,0.2872922,0.6752889081473119
0.0365,1.76669375,1.0,2731.8354633169224,0.3375169503595524,1.318682588054416,0.9602143012363582,0.2872541375,0.6761524492058018
0.037,1.765775,1.0,2733.2403110979694,0.3412329533966988,1.3182549062642195,0.9609966911956003,0.28721555,0.677021092598064
0.0375,1.76484375,1.0,2734.3823736056734,0.34492811345296226,1.3178239690202171,0.9617508678407928,0.2871764375,0.6778951681002425
0.038,1.7639,1.0,2735.267925968856,0.34860254141830666,1.317389717846926,0.9624781738467031,0.28713679999999997,0.6787747672354869
0.0385,1.76294375,1.0,2735.9244531571326,0.35225636310545455,1.3169519020771492,0.9631798572537582,0.28709663750000003,0.6796603691635117
0.039,1.761975,1.0,2736.3683102710233,0.3558896949357071,1.3165103724867853,0.9638571005940436,0.28705595,0.6805522452432284
0.0395,1.7609937500000001,1.0,2736.609889326265,0.3595026491029687,1.3160650342691222,0.9645110221049137,0.2870147375,0.681450555205544
0.04,1.76,1.0,2736.659607408702,0.3630953378011436,1.315615792617448,0.9651426760283839,0.286973,0.6823554574313138
0.0405,1.7589937500000001,1.0,2736.5279029138487,0.36666787322413635,1.315162552725051,0.9657530569471189,0.2869307375,0.6832671089280276
0.041,1.757975,1.0,2736.2252319852428,0.3702203675658512,1.3147052197852191,0.9663431037827468,0.28688795,0.6841856653059213
0.0415,1.75694375,1.0,2735.762065152249,0.3737529330201925,1.3142436989912407,0.9669137034860481,0.2868446375,0.6851112807535156
0.042,1.7559,1.0,2735.1488841673076,0.37726568178106473,1.3137778955364035,0.967465694445712,0.28680079999999997,0.6860441080125825
0.0425,1.75484375,1.0,2734.3961790424055,0.38075872604237215,1.3133077146139955,0.9679998696397905,0.2867564375,0.6869842983525355
0.043000000000000003,1.753775,1.0,2733.5144452839786,0.3842321779980192,1.3128330614173054,0.9685169795517018,0.28671155,0.6879320015442489
0.043500000000000004,1.75269375,1.0,2732.5062287875935,0.3876861414046992,1.3123539133853905,0.9690177393382032,0.28666613750000003,0.6888872219159182
0.044,1.7516,1.0,2731.388635869732,0.39112073551084764,1.3118701157185495,0.9695028185755002,0.2866202,0.6898502261533754
0.0445,1.75049375,1.0,2730.170176185039,0.3945360689922263,1.3113815916877507,0.9699728565512888,0.2865737375,0.6908211235905706
0.045,1.7493750000000001,1.0,2728.8564769886143,0.3979322473425512,1.310888290752476,0.9704284612497072,0.28652675,0.6917999702583035
0.0455,1.74824375,1.0,2727.453165397795,0.4013093760555383,1.310390162372207,0.9708702097388126,0.2864792375,0.6927868211178412
0.046,1.7471,1.0,2725.9658674479065,0.4046675606249035,1.3098871560064254,0.9712986500371772,0.2864312,0.6937817300454381
0.0465,1.7459437500000001,1.0,2724.4002072037483,0.4080069065443628,1.3093792211146127,0.9717143028505084,0.28638263750000004,0.6947847498166952
0.047,1.744775,1.0,2722.7618059285783,0.41132751930763223,1.308866307156251,0.9721176631884973,0.28633355,0.695795932090754
0.0475,1.74359375,1.0,2721.056281309459,0.4146295044084277,1.3083483635908215,0.9725092018712082,0.28628393750000003,0.696815327394332
0.048,1.7424,1.0,2719.2892467387837,0.41791296734046524,1.3078253398778064,0.9728893669335241,0.2862338,0.69784298510559
0.0485,1.74119375,1.0,2717.4663106534836,0.42117801359746077,1.307297185476687,0.9732585849354306,0.2861831375,0.6988789534378399
0.049,1.739975,1.0,2715.5903508432934,0.4244247319903542,1.3067638746802992,0.9736172618771007,0.28613195,0.6999232308390615
0.0495,1.73874375,1.0,2713.670033232383,0.42765324669614496,1.3062253289957484,0.9739657853302557,0.2860802375,0.7009759179893038
0.05,1.7375,1.0,2711.709016355103,0.4308636605012314,1.305681515494992,0.9743045253094532,0.286028,0.7020370251424906
0.0505,1.73624375,1.0,2709.7101150908743,0.43405607162965926,1.3051324089079726,0.9746338347443895,0.2859752375,0.7031065466645977
0.051000000000000004,1.734975,1.0,2707.6761410984113,0.4372305783054743,1.3045779839646339,0.9749540504446248,0.28592195,0.7041844760332884
0.051500000000000004,1.73369375,1.0,2705.6099026257702,0.4403872787527223,1.3040182153949185,0.9752654939753876,0.2858681375,0.7052708058293653
0.052000000000000005,1.7324,1.0,2703.5142043339324,0.4435262711954492,1.3034530779287699,0.9755684724783625,0.2858138,0.7063655277281758
0.0525,1.73109375,1.0,2701.391847135371,0.44664765385770056,1.302882546296131,0.9758632794413636,0.28575893750000003,0.7074686324909822
0.053,1.729775,1.0,2699.2456280460437,0.44975152496352233,1.302306595226945,0.9761501954204955,0.28570355000000003,0.7085801099562883
0.0535,1.72844375,1.0,2697.0783400519854,0.45283798273696024,1.301725199451155,0.9764294887181144,0.2856476375,0.7096999490311249
0.054,1.7271,1.0,2694.892771989847,0.45590712540206013,1.301138333698704,0.9767014160196501,0.2855912,0.710828137682296
0.0545,1.7257437500000001,1.0,2692.6917084418315,0.4589590511828678,1.300545972699535,0.9769662229921111,0.2855342375,0.7119646629275842
0.055,1.724375,1.0,2690.477929644294,0.461993858303429,1.2999480911835912,0.9772241448468815,0.28547675,0.7131095108269134
0.0555,1.72299375,1.0,2688.2542114111197,0.46501164498778946,1.299344663880816,0.9774754068692209,0.2854187375,0.7142626664734737
0.056,1.7216,1.0,2686.013775673663,0.4680124642330401,1.2987357530213093,0.9777202258390039,0.2853602,0.715423947279309
0.0565,1.72019375,1.0,2683.7703857868605,0.47099646995517486,1.2981212326421117,0.9779588079610321,0.28530113749999997,0.7165935288518748
0.057,1.718775,1.0,2681.525400226576,0.4739637546566402,1.297501090329922,0.9781913518154328,0.28524155,0.7177713687898839
0.0575,1.71734375,1.0,2679.2795228581945,0.4769144076582035,1.2968753196563618,0.9784180479488589,0.2851814375,0.718957412560373
0.058,1.7159,1.0,2677.033456375369,0.47984851828063213,1.2962439141930522,0.9786390792130311,0.2851208,0.7201516049221286
0.0585,1.71444375,1.0,2674.78790229773,0.4827661758446935,1.2956068675116144,0.9788546211346963,0.2850596375,0.7213538899233765
0.059000000000000004,1.7129750000000001,1.0,2672.5435609699935,0.4856674696711551,1.2949641731836699,0.9790648422649674,0.28499795,0.7225642108994708
0.059500000000000004,1.71149375,1.0,2670.3011315618883,0.48855248908078425,1.2943158247808395,0.979269904509344,0.2849357375,0.723782510470581
0.06,1.71,1.0,2668.0613120687776,0.4914213233943483,1.293661815874745,0.979469963439629,0.284873,0.7250087305393729
0.0605,1.7084937500000001,1.0,2665.824799313643,0.4942740619326148,1.2930021400370073,0.9796651685888613,0.2848097375,0.7262428122886926
0.061,1.7069750000000001,1.0,2663.59228894947,0.4971107940163511,1.2923367908392478,0.9798556637303162,0.28474595,0.7274846961792407
0.0615,1.7054437500000001,1.0,2661.364475463009,0.49993160896632466,1.2916657618530878,0.9800415871415473,0.2846816375,0.7287343219472509
0.062,1.7039,1.0,2659.1420521792443,0.5027365961033028,1.2909890466501484,0.9802230718543781,0.2846168,0.7299916286021613
0.0625,1.70234375,1.0,2656.9257112665996,0.505525844748053,1.290306638802051,0.9804002458916937,0.2845514375,0.7312565544242842
0.063,1.7007750000000001,1.0,2654.716143743438,0.5082994442213424,1.2896185318804168,0.9805732324918197,0.28448555,0.7325290369624746
0.0635,1.69919375,1.0,2652.514039485355,0.5110574838439389,1.2889247194568672,0.9807421503212267,0.28441913750000003,0.733809013031794
0.064,1.6976,1.0,2650.320087232802,0.5138000529366096,1.2882251951030232,0.9809071136762518,0.2843522,0.7350964187111741
0.0645,1.69599375,1.0,2648.13497460105,0.5165272408201218,1.2875199523905063,0.9810682326744771,0.2842847375,0.7363911893410746
0.065,1.694375,1.0,2645.959388089258,0.5192391368152431,1.2868089848909376,0.9812256134363673,0.28421675,0.7376932595211413
0.0655,1.69274375,1.0,2643.789996264404,0.5219357833393,1.2860923232744867,0.9813793568211034,0.2841482375,0.7390024954190261
0.066,1.6911,1.0,2641.6335354833454,0.5246173237358698,1.2853699052399004,0.9815295625265171,0.2840792,0.7403189323449308
0.0665,1.6894437500000001,1.0,2639.4899296494846,0.5272838383961439,1.2846417313543008,0.9816763254154808,0.2840096375,0.7416424897054402
0.067,1.687775,1.0,2637.359084650483,0.5299354075270433,1.2839078023530786,0.9818197370103886,0.28393955,0.7429730859790985
0.0675,1.68609375,1.0,2635.240906583708,0.5325721113354889,1.2831681189716235,0.9819598856370494,0.2838689375,0.7443106390244658
0.068,1.6844000000000001,1.0,2633.1353017536753,0.5351940300284015,1.2824226819453255,0.9820968565571723,0.2837978,0.7456550660803876
0.0685,1.68269375,1.0,2631.0421766707254,0.537801243812702,1.2816714920095746,0.9822307320944703,0.2837261375,0.7470062837662632
0.069,1.680975,1.0,2628.961438049066,0.5403938328953113,1.2809145498997607,0.9823615917547203,0.28365395,0.7483642080823177
0.0695,1.67924375,1.0,2626.8929928050547,0.5429718774831502,1.280151856351274,0.9824895123401137,0.28358123749999997,0.7497287544098699
0.07,1.6775,1.0,2624.836748055685,0.5455354577831398,1.2793834120995038,0.9826145680582044,0.283508,0.7510998375116035
0.07050000000000001,1.67574375,1.0,2622.7926111165043,0.5480846540022009,1.278609217879841,0.9827368306257447,0.2834342375,0.7524773715318346
0.07100000000000001,1.673975,1.0,2620.7604895000636,0.5506195463472542,1.2778292744276747,0.9828563693676797,0.28335995,0.7538612699967853
0.07150000000000001,1.67219375,1.0,2618.740290914145,0.5531402150252207,1.2770435824783954,0.9829732513115592,0.2832851375,0.7552514458148485
0.07200000000000001,1.6704,1.0,2616.7319232603663,0.5556467402430214,1.276252142767393,0.9830875412776046,0.2832098,0.7566478112768621
0.0725,1.66859375,1.0,2614.73529463211,0.558139202207577,1.2754549560300572,0.9831993019646614,0.2831339375,0.7580502780563751
0.073,1.6667750000000001,1.0,2612.750313313022,0.5606176811258085,1.2746520230017784,0.9833085940322491,0.28305755,0.759458757209919
0.0735,1.66494375,1.0,2610.776887775452,0.5630822572046366,1.273843344417946,0.9834154761789096,0.2829806375,0.7608731591772775
0.074,1.6631,1.0,2608.814926678583,0.5655330106509824,1.2730289210139505,0.9835200052170424,0.2829032,0.7622933937817538
0.0745,1.6612437500000001,1.0,2606.8643388669334,0.5679700216717668,1.2722087535251816,0.9836222361444109,0.2828252375,0.763719370230443
0.075,1.659375,1.0,2604.901899335461,0.570393367194741,1.271383057936498,0.9837222314446797,0.28274675,0.7651506245696281
0.0755,1.65749375,1.0,2602.982749723107,0.5728031209266576,1.2705513211246002,0.9838200198255369,0.2826677375,0.7665879548397112
