Time [s],Phi [rad],STIM [ ],Fsee [N],Gamma [ ],Lcerel [ ],q [ ],Lmtc [m],fisomrel [ ]
0.0,1.8,1.0,17.991024363260927,0.00015874390722718,1.379337073294982,0.005006571121052318,0.288653,0.5411459975255024
0.0005,1.79999375,1.0,18.349265706751506,0.005767062788275134,1.3792943400311708,0.013358614487781747,0.2886527375,0.5412493737892812
0.001,1.799975,1.0,21.8014250732092,0.011343923434614236,1.3789196463193303,0.0363878856928323,0.28865195,0.5421552985753624
0.0015,1.79994375,1.0,31.489828700900343,0.016889502303024048,1.378010491131952,0.07166573301564998,0.2886506375,0.5443497085273612
0.002,1.7999,1.0,54.476105331702726,0.022403974858468102,1.376310391671737,0.11597623971048215,0.2886488,0.5484390596934436
0.0025,1.79984375,1.0,98.61036858943719,0.02788751558256738,1.3738635725801327,0.1659426222539343,0.28864643749999996,0.5542921846225124
0.003,1.7997750000000001,1.0,162.8918188043477,0.03334029798000902,1.3711421814037108,0.21869078820057156,0.28864354999999997,0.56075727418015
0.0035,1.79969375,1.0,239.86427910708767,0.03876249457923003,1.3685177086819784,0.2720151541029827,0.2886401375,0.5669473800630883
0.004,1.7996,1.0,323.78481782003706,0.04415427694285737,1.3660948064810636,0.32427324808594915,0.2886362,0.5726230633532927
0.0045000000000000005,1.7994937500000001,1.0,411.6666138021096,0.04951581567299987,1.3638665859809613,0.37432285197560505,0.2886317375,0.5778096543576521
0.005,1.799375,1.0,501.8600757590083,0.05484728040306186,1.361806416420806,0.42145264857268844,0.28862675,0.5825769038161174
0.0055,1.79924375,1.0,593.2575684378245,0.060148839837427324,1.3598906831030375,0.4652894167500948,0.2886212375,0.5869856384426947
0.006,1.7991000000000001,1.0,684.986387077565,0.06542066171376067,1.3581015885008327,0.5057052473031473,0.2886152,0.5910817994680493
0.006500000000000001,1.79894375,1.0,776.3340478455468,0.07066291283010963,1.3564254160074214,0.5427381804011101,0.2886086375,0.5949009018620427
0.007,1.798775,1.0,866.708050443494,0.0758757590855815,1.3548512954468603,0.5765310487664966,0.28860155,0.5984711674734855
0.0075,1.79859375,1.0,955.6171284972057,0.0810593652781356,1.353370288659016,0.607286933784432,0.2885939375,0.6018158134344507
0.008,1.7984,1.0,1042.6883492160825,0.0862138957720645,1.3519743625243736,0.6352380189871494,0.2885858,0.6049555106044668
0.0085,1.79819375,1.0,1127.5952732954524,0.09133951330412073,1.3506569666241481,0.6606256879223984,0.2885771375,0.6079071803506093
0.009000000000000001,1.797975,1.0,1210.0937280578387,0.09643638002134673,1.349412076426881,0.6836871339783496,0.28856795,0.6106862271908655
0.0095,1.79774375,1.0,1290.0209455503232,0.10150465760532754,1.3482339665131486,0.7046476534927605,0.2885582375,0.6133070936432375
0.01,1.7975,1.0,1367.2401621400597,0.10654450608835944,1.3471177502827358,0.7237168723579868,0.288548,0.6157821028018249
0.0105,1.79724375,1.0,1441.6607861211623,0.11155608476010226,1.3460589074443914,0.74108671094741,0.2885372375,0.6181225528647774
0.011,1.796975,1.0,1513.2487320739579,0.11653955266219891,1.3450530278888069,0.7569309614817867,0.28852595000000003,0.6203393110483619
0.0115,1.79669375,1.0,1581.98280107308,0.12149506749507323,1.3440962476712093,0.7714060852145062,0.2885141375,0.6224418760796997
0.012,1.7964,1.0,1647.8539181492617,0.1264227854872564,1.3431851382072297,0.7846522148740117,0.28850180000000003,0.6244386508727189
0.0125,1.79609375,1.0,1710.8887006716684,0.13132286248721783,1.3423163432353855,0.7967943108222681,0.2884889375,0.6263377587817403
0.013000000000000001,1.7957750000000001,1.0,1771.1430451343517,0.13619545435122876,1.3414866024307852,0.8079435943236308,0.28847555,0.6281470036998688
0.0135,1.79544375,1.0,1828.6684524481311,0.14104071540584728,1.3406930795059786,0.8181990774234061,0.2884616375,0.6298731682931535
0.014,1.7951000000000001,1.0,1883.5104914753272,0.14585879800900292,1.339933313821,0.8276488549726043,0.2884472,0.6315221369728112
0.0145,1.79474375,1.0,1935.7386933215241,0.1506498545186252,1.339204844735884,0.8363711925413084,0.2884322375,0.6330997235577324
0.015,1.794375,1.0,1985.4341343189158,0.15541403651724092,1.3385053217515137,0.844435697231799,0.28841675,0.6346114386030108
0.0155,1.79399375,1.0,2032.6887951452184,0.1601514960898756,1.3378324842973937,0.8519043246141854,0.2884007375,0.6360625400301381
0.016,1.7936,1.0,2077.5779576317336,0.1648623828813104,1.3371844262848778,0.8588323597536895,0.2883842,0.6374574702517151
0.0165,1.7931937500000001,1.0,2120.1723060905747,0.16954684491033872,1.3365594372567517,0.8652691533748793,0.2883671375,0.6388002078871766
0.017,1.792775,1.0,2160.5549308436484,0.17420503019575395,1.3359558067558013,0.8712587663470507,0.28834955,0.6400946935811822
0.0175,1.7923437500000001,1.0,2198.8174562499826,0.17883708644762192,1.3353718528378258,0.8768406026158694,0.2883314375,0.6413447714417211
0.018000000000000002,1.7919,1.0,2235.046009617839,0.18344316030809468,1.3348060518902154,0.8820499908261042,0.2883128,0.6425539145972143
0.0185,1.79144375,1.0,2269.3366591697113,0.18802339936283777,1.3342568696283168,0.8869186154243119,0.2882936375,0.6437255902623675
0.019,1.790975,1.0,2301.755055550034,0.19257794695734312,1.3337231532465197,0.8914750328544027,0.28827395,0.6448624266173468
0.0195,1.79049375,1.0,2332.3732169493273,0.19710694643710258,1.3332037499392142,0.8957449360610876,0.2882537375,0.6459670313343291
0.02,1.79,1.0,2361.26900425085,0.201610541147608,1.3326975069007907,0.8997514795742508,0.288233,0.6470419926721886
0.0205,1.78949375,1.0,2388.5225156498536,0.20608887386944616,1.3322033015447552,0.9035155709278881,0.2882117375,0.6480898164628969
0.021,1.788975,1.0,2414.209735221914,0.210542086563182,1.3317200975805203,0.9070561318955457,0.28818995000000003,0.649112808868527
0.021500000000000002,1.78844375,1.0,2438.4106665716763,0.21497032221288656,1.3312468605475136,0.9103902985773147,0.2881676375,0.650113256943291
0.022,1.7879,1.0,2461.183782051796,0.21937371919567433,1.3307827988041097,0.9135336605199891,0.2881448,0.6510929209672192
0.0225,1.78734375,1.0,2482.590602409034,0.22375241588865977,1.3303271207086829,0.9165003783804999,0.28812143749999997,0.6520535501412987
0.023,1.786775,1.0,2502.6954436044357,0.2281065506689573,1.329879034619608,0.9193033346710898,0.28809755,0.6529968830307251
0.0235,1.78619375,1.0,2521.565177528687,0.23243626191368136,1.3294377488952596,0.9219542668211493,0.28807313749999996,0.6539246479681885
0.024,1.7856,1.0,2539.2567731316426,0.2367416852025772,1.3290025871818754,0.9244639043251778,0.2880482,0.6548383215166853
0.0245,1.78499375,1.0,2555.8386863954584,0.24102296079013585,1.328572783629614,0.9268420378577273,0.2880227375,0.6557395594958129
0.025,1.784375,1.0,2571.3617450382458,0.2452802235891135,1.3281477553035832,0.9290976553275703,0.28799675,0.6566296259222566
0.025500000000000002,1.78374375,1.0,2585.8711453407345,0.24951360655514868,1.3277269858913072,0.9312390022756125,0.2879702375,0.6575096387710425
0.026000000000000002,1.7831000000000001,1.0,2599.4133806105724,0.2537232426438799,1.3273099590803097,0.933273643842712,0.2879432,0.658380710098361
0.0265,1.78244375,1.0,2612.0361307611224,0.2579092648109457,1.3268961585581147,0.9352085300998745,0.2879156375,0.6592439461733034
0.027,1.781775,1.0,2623.78815780125,0.2620718060119847,1.3264850680122462,0.9370500543089766,0.28788755,0.6601004475925989
0.0275,1.7810937500000001,1.0,2634.716040685351,0.26621099811093923,1.3260762004261148,0.938804108921092,0.2878589375,0.6609512484555746
0.028,1.7804,1.0,2644.8596344305824,0.2703269712487919,1.3256691388718003,0.9404761374058809,0.2878298,0.6617972320998089
0.0285,1.77969375,1.0,2654.273407191137,0.2744198609740996,1.3252633384540682,0.9420711491484763,0.2878001375,0.6626395429136298
0.029,1.778975,1.0,2662.988695535854,0.27848979434812404,1.3248584740854128,0.9435938023249472,0.28776995,0.663478864205667
0.029500000000000002,1.7782437500000001,1.0,2671.0373652620883,0.2825368984321269,1.3244542206783279,0.9450484073585694,0.2877392375,0.6643158759056726
0.03,1.7775,1.0,2678.451765131944,0.28656130028737,1.3240502531453078,0.946438957331674,0.287708,0.6651512545805547
0.0305,1.77674375,1.0,2685.2646829518017,0.290563126975115,1.3236462463988468,0.9477691553767552,0.2876762375,0.6659856734436767
0.031,1.775975,1.0,2691.5093039950034,0.2945425055566237,1.3232418753514388,0.9490424393796961,0.28764395,0.6668198023574137
0.0315,1.7751937500000001,1.0,2697.2191717674077,0.2984995630931577,1.322836814915578,0.9502620042880227,0.2876111375,0.6676543078289694
0.032,1.7744,1.0,2702.4214293392083,0.3024344225438744,1.3224308014074753,0.951430828530266,0.2875778,0.6684897267338432
0.0325,1.77359375,1.0,2707.15061191122,0.3063472135232999,1.3220235060776568,0.9525516797369793,0.2875439375,0.6693267268286139
0.033,1.772775,1.0,2711.431047707267,0.3102380591955027,1.3216146956260246,0.9536271468744274,0.28750955,0.6701657766498073
0.0335,1.7719437500000002,1.0,2715.2842814837995,0.3141070807389158,1.3212041639296583,0.9546596478250338,0.2874746375,0.6710072865888048
0.034,1.7711000000000001,1.0,2718.7320283065983,0.31795439933197245,1.3207917048656368,0.955651440352834,0.2874392,0.671851664825887
0.0345,1.7702437500000001,1.0,2721.7961560896747,0.32178013615310563,1.3203771123110397,0.9566046345961999,0.2874032375,0.6726993173062483
0.035,1.7693750000000001,1.0,2724.4986690752876,0.3255844123807486,1.3199601801429466,0.9575212044462799,0.28736675,0.6735506477133073
0.035500000000000004,1.76849375,1.0,2726.8616922569263,0.32936734919333444,1.3195407022384367,0.958402997922192,0.2873297375,0.6744060574393074
0.036000000000000004,1.7676,1.0,2728.9028825977525,0.3331290629574352,1.3191185140563753,0.9592517498209236,0.2872922,0.6752658609261832
0.0365,1.76669375,1.0,2730.641883459015,0.3368696735406684,1.318693433790576,0.9600690860428193,0.2872541375,0.6761304057996549
0.037,1.765775,1.0,2732.1055732891114,0.3405893101546537,1.318265214612366,0.9608565280940143,0.28721555,0.6770001695400022
0.0375,1.76484375,1.0,2733.3067553574824,0.3442880871010019,1.3178337382119298,0.961615514395084,0.2871764375,0.6778753662443573
0.038,1.7639,1.0,2734.2582835947514,0.34796611868132366,1.3173988862794528,0.9623473969946891,0.28713679999999997,0.6787562085094483
0.0385,1.76294375,1.0,2734.9730564844344,0.35162351919722973,1.3169605405051192,0.9630534477009667,0.28709663750000003,0.6796429074065775
0.039,1.761975,1.0,2735.464011264004,0.3552604029503308,1.3165185825791141,0.9637348637134596,0.28705595,0.6805356724557032
0.0395,1.7609937500000001,1.0,2735.74411843751,0.3588768842422376,1.3160728941916224,0.9643927728012244,0.2870147375,0.6814347115986334
0.04,1.76,1.0,2735.8263765976535,0.36247307737456086,1.3156233570328288,0.9650282380681581,0.286973,0.6823402311713248
0.0405,1.7589937500000001,1.0,2735.7238075585865,0.36604909664891133,1.3151698527929185,0.965642262342488,0.2869307375,0.6832524358752872
0.041,1.757975,1.0,2735.4494517989983,0.3696050563668997,1.3147122631620758,0.966235792223718,0.28688795,0.6841715287481007
0.0415,1.75694375,1.0,2735.0163642151665,0.3731410708301367,1.3142504698304858,0.966809721817068,0.2868446375,0.6850977111330324
0.042,1.7559,1.0,2734.43189491723,0.3766572459031046,1.3137844063910626,0.9673648991280984,0.28680079999999997,0.6860310787812769
0.0425,1.75484375,1.0,2733.708498917129,0.38015370080754846,1.3133139601604031,0.9679021245269072,0.2867564375,0.6869718187774405
0.043000000000000003,1.753775,1.0,2732.8571920696736,0.3836305497922979,1.3128390315710898,0.9684221556500342,0.28671155,0.6879200903241794
0.043500000000000004,1.75269375,1.0,2731.884932877219,0.38708789987210945,1.3123595579439296,0.9689257117096188,0.28666613750000003,0.6888759775544417
0.044,1.7516,1.0,2730.7986832964357,0.3905258580617399,1.3118754765997294,0.9694134741281906,0.2866202,0.6898395634428944
0.0445,1.75049375,1.0,2729.605407253555,0.39394453137594587,1.3113867248592959,0.969886088894478,0.2865737375,0.6908109297876313
0.045,1.7493750000000001,1.0,2728.3120692459615,0.39734402682948405,1.3108932400434359,0.9703441687499834,0.28652675,0.6917901571916281
0.0455,1.74824375,1.0,2726.9256330307962,0.4007244514371111,1.3103949594729563,0.9707882952200181,0.2864792375,0.6927773250439473
0.046,1.7471,1.0,2725.4530604015777,0.4040859122135837,1.3098918204686638,0.9712190205016646,0.2864312,0.6937725115006934
0.0465,1.7459437500000001,1.0,2723.9013100509183,0.40742851617365844,1.3093837603513652,0.9716368692200268,0.28638263750000004,0.6947757934657177
0.047,1.744775,1.0,2722.277336520796,0.41075237033209205,1.3088707164418671,0.9720423400631226,0.28633355,0.6957872465710705
0.0475,1.74359375,1.0,2720.5880892402984,0.4140575817036412,1.3083526260609766,0.9724359073048829,0.28628393750000003,0.6968069451572052
0.048,1.7424,1.0,2718.83779500085,0.41734423265222637,1.3078294512711743,0.9728180208592431,0.2862338,0.6978349136801266
0.0485,1.74119375,1.0,2717.033667309822,0.42061245957788373,1.307301126895697,0.9731891139204923,0.2861831375,0.6988712289816157
0.049,1.739975,1.0,2715.179360593913,0.4238623654120662,1.3067676201233764,0.9735495971233867,0.28613195,0.6999159032010198
0.0495,1.73874375,1.0,2713.2781639909867,0.42709404912193305,1.3062289014420894,0.9738998615210716,0.2860802375,0.7009689410764386
0.05,1.7375,1.0,2711.3333634105325,0.4303076096746439,1.3056849413397134,0.9742402799403619,0.286028,0.7020303464226276
0.0505,1.73624375,1.0,2709.348241259342,0.43350314603735807,1.3051357103041261,0.974571207991879,0.2859752375,0.7031001221211621
0.051000000000000004,1.734975,1.0,2707.3260761875417,0.4366807571772349,1.3045811788232047,0.9748929850154883,0.28592195,0.7041782701105453
0.051500000000000004,1.73369375,1.0,2705.2701428530204,0.43984054206143397,1.3040213173848265,0.9752059349657106,0.2858681375,0.7052647913762582
0.052000000000000005,1.7324,1.0,2703.1837117054934,0.4429825996571146,1.303456096476869,0.9755103672414203,0.2858138,0.7063596859407562
0.0525,1.73109375,1.0,2701.0700487903046,0.4461070289314362,1.3028854865872097,0.9758065774637867,0.28575893750000003,0.7074629528534095
0.053,1.729775,1.0,2698.932415570558,0.4492139288515583,1.302309458203726,0.976094848206113,0.28570355000000003,0.7085745901803879
0.0535,1.72844375,1.0,2696.7740687697988,0.4523033983846402,1.3017279818142948,0.9763754496789293,0.2856476375,0.7096945949944916
0.054,1.7271,1.0,2694.5982602328327,0.45537553649784135,1.301141027906794,0.976648640373448,0.2855912,0.7108229633649218
0.0545,1.7257437500000001,1.0,2692.4082368066697,0.4584304421583212,1.300548566969101,0.9769146676662391,0.2855342375,0.7119596903470019
0.055,1.724375,1.0,2690.207240240325,0.46146821433323915,1.299950569489093,0.9771737683877719,0.28547675,0.7131047699718394
0.0555,1.72299375,1.0,2687.993074489837,0.4644889189247396,1.299347055714829,0.9774261691740554,0.2854187375,0.7142581002387216
0.056,1.7216,1.0,2685.768512087413,0.4674926692213663,1.298738000399949,0.9776720889873999,0.2853602,0.7154196655517862
0.0565,1.72019375,1.0,2683.5400184306627,0.4704795937446259,1.2981233444040499,0.9779117370793081,0.28530113749999997,0.7165895137797968
0.057,1.718775,1.0,2681.3084001473044,0.4734497817219549,1.2975030803850143,0.978145313443463,0.28524155,0.7177675929892466
0.0575,1.71734375,1.0,2679.0744625428774,0.47640332238078986,1.2968772010007248,0.978373009920123,0.2851814375,0.7189538505292579
0.058,1.7159,1.0,2676.8390095957498,0.47934030494856716,1.2962456989090638,0.978595010591833,0.2851208,0.720148233028955
0.0585,1.71444375,1.0,2674.6028439528354,0.4822608186527234,1.2956085667679138,0.9788114921568781,0.2850596375,0.7213506863948337
0.059000000000000004,1.7129750000000001,1.0,2672.3667669262713,0.48516495272069515,1.2949657972351574,0.9790226242818968,0.28499795,0.7225611558081251
0.059500000000000004,1.71149375,1.0,2670.1315784918543,0.4880527963799188,1.2943173829686772,0.9792285699349704,0.2849357375,0.723779585722159
0.06,1.71,1.0,2667.8980772881723,0.49092443885783077,1.2936633166263551,0.979429485700414,0.284873,0.725005919859723
0.0605,1.7084937500000001,1.0,2665.6670606172343,0.4937799693818678,1.2930035908660744,0.9796255220764077,0.2848097375,0.7262401012104148
0.061,1.7069750000000001,1.0,2663.4393244461917,0.4966194771794663,1.2923381983457172,0.9798168237565288,0.28474595,0.7274820720279979
0.0615,1.7054437500000001,1.0,2661.21566341003,0.4994430514780627,1.2916671317231658,0.9800035298961672,0.2846816375,0.728731773827747
0.062,1.7039,1.0,2658.9968708162023,0.5022507815050936,1.290990383656303,0.9801857743647541,0.2846168,0.7299891473837934
0.0625,1.70234375,1.0,2656.783738649286,0.5050427564879955,1.2903079468030114,0.980363685984648,0.2845514375,0.7312541327264666
0.063,1.7007750000000001,1.0,2654.5770575779775,0.5078190656542049,1.2896198138211732,0.980537388757487,0.28448555,0.7325266691396333
0.0635,1.69919375,1.0,2652.377616962725,0.5105797982311582,1.2889259773686712,0.9807070020787502,0.28441913750000003,0.7338066951580297
0.064,1.6976,1.0,2650.1862048642643,0.513325043446292,1.2882264301033874,0.9808726409412236,0.2843522,0.7350941485645954
0.0645,1.69599375,1.0,2648.0036080542286,0.5160548905270429,1.287521164683205,0.9810344161280239,0.2842847375,0.7363889663877976
0.065,1.694375,1.0,2645.830612026013,0.5187694287008472,1.286810173766006,0.981192434395784,0.28421675,0.7376910848989586
0.0655,1.69274375,1.0,2643.6679792917735,0.5214687466397371,1.2860934502102388,0.9813467986196732,0.2841482375,0.7390004392436276
0.066,1.6911,1.0,2641.514751608664,0.5241528826680426,1.2853710027624783,0.9814976052956658,0.2840792,0.7403169348926582
0.0665,1.6894437500000001,1.0,2639.3739196531083,0.526821984198843,1.2846428036820847,0.9816449531976646,0.2840096375,0.7416405430867417
0.067,1.687775,1.0,2637.245428051373,0.5294761309069297,1.2839088533515435,0.9817889343461544,0.28393955,0.7429711829993999
0.0675,1.68609375,1.0,2635.129221572035,0.5321154024670943,1.2831691521533393,0.9819296375445331,0.2838689375,0.7443087731784407
0.068,1.6844000000000001,1.0,2633.025245124276,0.5347398785541284,1.2824237004699575,0.9820671485125562,0.2837978,0.7456532315460962
0.0685,1.68269375,1.0,2630.9334437572784,0.5373496388428234,1.281672498683883,0.9822015500133423,0.2837261375,0.7470044753991644
0.069,1.680975,1.0,2628.8537626594316,0.5399447630079709,1.280915547177601,0.9823329219742903,0.28365395,0.7483624214091487
0.0695,1.67924375,1.0,2626.7861471572483,0.5425253307243625,1.2801528463335965,0.9824613416022394,0.28358123749999997,0.7497269856223989
0.07,1.6775,1.0,2624.7305427147376,0.5450914216667895,1.2793843965343543,0.9825868834931848,0.283508,0.7510980834602509
0.07050000000000001,1.67574375,1.0,2622.686894932203,0.5476431155100436,1.2786101981623599,0.9827096197368407,0.2834342375,0.7524756297191664
0.07100000000000001,1.673975,1.0,2620.6551495455215,0.5501804919289164,1.2778302516000979,0.9828296200163238,0.28335995,0.7538595385708747
0.07150000000000001,1.67219375,1.0,2618.63525242537,0.5527036305981993,1.2770445572300537,0.9829469517032177,0.2832851375,0.7552497235625111
0.07200000000000001,1.6704,1.0,2616.6271495762494,0.5552126111926837,1.276253115434712,0.9830616799482608,0.2832098,0.756646097616759
0.0725,1.66859375,1.0,2614.6307871355275,0.5577075133871614,1.2754559265965584,0.9831738677678866,0.2831339375,0.758048573031988
0.073,1.6667750000000001,1.0,2612.646111372726,0.5601884168564238,1.2746529910980775,0.9832835761268316,0.28305755,0.7594570614823959
0.0735,1.66494375,1.0,2610.673068688632,0.5626554012752626,1.2738443093217544,0.983390864017012,0.2829806375,0.7608714740181483
0.074,1.6631,1.0,2608.711605614277,0.565108546318469,1.2730298816500745,0.9834957885328656,0.2829032,0.7622917210655176
0.0745,1.6612437500000001,1.0,2606.7616688103344,0.5675479316608347,1.2722097084655224,0.9835984049433324,0.2828252375,0.7637177124270258
0.075,1.659375,1.0,2604.823205066144,0.5699736369771514,1.2713837901505833,0.9836987667606499,0.28274675,0.7651493572815822
0.0755,1.65749375,1.0,2602.8964008263674,0.5723857326452882,1.270552124858207,0.9837969251932438,0.2826677375,0.7665865680315981
