Time [s],Phi [rad],STIM [ ],Fsee [N],Gamma [ ],Lcerel [ ],q [ ],Lmtc [m],fisomrel [ ]
0.0,1.8,1.0,17.96790070202251,1.0414067908150519e-05,1.3793396630318906,0.005000028895337468,0.288653,0.5411397323050118
0.0005,1.79999375,1.0,18.27730342167571,0.0056195649620173005,1.3793023256653458,0.012941662592129824,0.2886527375,0.5412300565843748
0.001,1.799975,1.0,21.619190702195528,0.011197252954531204,1.3789382194722812,0.03561073112385978,0.28865195,0.5421104139769682
0.0015,1.79994375,1.0,31.07060377080487,0.01674365452831142,1.3780460872012459,0.07060465340681482,0.2886506375,0.5442638901525128
0.002,1.7999,1.0,53.58480709771692,0.022258945174570076,1.3763679747397246,0.114721328150237,0.2886488,0.548300853285453
0.0025,1.79984375,1.0,97.12264047063124,0.027743299400431493,1.373934988831004,0.16457847325113387,0.28864643749999996,0.554121888163128
0.003,1.7997750000000001,1.0,160.9629372579284,0.033196890736650095,1.3712141651955956,0.21728414817733313,0.28864354999999997,0.5605868735909983
0.0035,1.79969375,1.0,237.68868801149986,0.03861989173720166,1.3685845692406835,0.27061656312585897,0.2886401375,0.566790227416007
0.004,1.7996,1.0,321.4724638256513,0.04401247399006556,1.3661559416246019,0.32291936008667815,0.2886362,0.572480313816968
0.0045000000000000005,1.7994937500000001,1.0,409.2736604668032,0.04937480812240937,1.3639226754444218,0.37303788600519605,0.2886317375,0.5776794843666264
0.005,1.799375,1.0,499.41953463483503,0.054707063791676065,1.3618582142002755,0.4202506223494579,0.28862675,0.5824573750503429
0.0055,1.79924375,1.0,590.7965121908608,0.0600094097330623,1.3599387159557499,0.4641766262535482,0.2886212375,0.5868753850641774
0.006,1.7991000000000001,1.0,682.5242136099587,0.06528201370264988,1.358146303769872,0.504682653951071,0.2886152,0.5909796718621765
0.006500000000000001,1.79894375,1.0,773.8874138099343,0.07052504253302788,1.3564671485313984,0.5418032218670571,0.2886086375,0.5948060332203252
0.007,1.798775,1.0,864.2918375288208,0.07573866211688994,1.3548902976520771,0.5756790261562912,0.28860155,0.598382897424809
0.0075,1.79859375,1.0,953.2492233757488,0.08092303741676643,1.3534066867825782,0.6065119584931973,0.2885939375,0.6017337810502572
0.008,1.7984,1.0,1040.3508988903013,0.086078332076705,1.3520087575872781,0.6345340325987415,0.2885858,0.6048782990493012
0.0085,1.79819375,1.0,1125.3209201028733,0.09120471018062794,1.3506891467561821,0.6599861172144785,0.2885771375,0.6078352115670311
0.009000000000000001,1.797975,1.0,1207.9058958278733,0.09630233364987971,1.3494419569586193,0.6831057301423803,0.28856795,0.6106196387657221
0.0095,1.79774375,1.0,1287.8970921527396,0.10137136303481105,1.348262059142916,0.7041188813260404,0.2885582375,0.6132447007702044
0.01,1.7975,1.0,1365.1717970538355,0.10641195888577279,1.347144324257398,0.7232355056622083,0.288548,0.615723272116947
0.0105,1.79724375,1.0,1439.6650168278954,0.1114242811259268,1.3460838773300723,0.7406478198190377,0.2885372375,0.6180674421306871
0.011,1.796975,1.0,1511.3277319598144,0.11640848850736848,1.3450764862411073,0.7565301863597672,0.28852595000000003,0.6202876870009275
0.0115,1.79669375,1.0,1580.1256927850643,0.12136473821020125,1.3441184271450595,0.771039581265868,0.2885141375,0.622393201846972
0.012,1.7964,1.0,1646.0604621047448,0.12629318683325325,1.3432061245603437,0.7843164850695765,0.28850180000000003,0.6243927170416768
0.0125,1.79609375,1.0,1709.1776619945897,0.13119399137530324,1.342335992438842,0.7964861467315594,0.2884889375,0.6262948605896463
0.013000000000000001,1.7957750000000001,1.0,1769.5108942123438,0.13606730663531183,1.341505023759891,0.8076602440052256,0.28847555,0.6281068837587894
0.0135,1.79544375,1.0,1827.0961508760206,0.1409132860177454,1.3407105437231326,0.817938156703147,0.2884616375,0.6298352212879061
0.014,1.7951000000000001,1.0,1881.9970455064438,0.1457320829270703,1.3399498775282084,0.8274081677787445,0.2884472,0.6314862269405489
0.0145,1.79474375,1.0,1934.2841437439054,0.1505238498514401,1.3392205474291818,0.8361487813783498,0.2884322375,0.6330657531946626
0.015,1.794375,1.0,1984.0548713052385,0.1552887397663918,1.3385200239462574,0.844229762219548,0.28841675,0.6345796983017391
0.0155,1.79399375,1.0,2031.3756976708278,0.1600269025806463,1.3378463173825987,0.8517133498827818,0.2884007375,0.6360327354305368
0.016,1.7936,1.0,2076.317131653823,0.1647384875293374,1.3371975643003013,0.8586550075382713,0.2883842,0.637429217569975
0.0165,1.7931937500000001,1.0,2118.963952846671,0.16942364384759884,1.3365719012614614,0.8651041850219713,0.2883671375,0.638773454340705
0.017,1.792775,1.0,2159.400228573603,0.17408251971643288,1.3359676054183438,0.8711050716862282,0.28834955,0.6400694136143624
0.0175,1.7923437500000001,1.0,2197.7271298515634,0.17871526411617927,1.335382896247045,0.8766971618566852,0.2883314375,0.6413211508448463
0.018000000000000002,1.7919,1.0,2234.01942510471,0.18332202278553344,1.334816364978376,0.8819159203610435,0.2883128,0.6425318933120757
0.0185,1.79144375,1.0,2268.35089343044,0.18790294066503266,1.3342666974847603,0.8867931772053355,0.2882936375,0.6437046395173205
0.019,1.790975,1.0,2300.802823593888,0.1924581626952144,1.3337325796386228,0.8913575240167388,0.28827395,0.6448423638002242
0.0195,1.79049375,1.0,2331.456824707125,0.1969878329429067,1.3332127617574618,0.8956347005695742,0.2882537375,0.6459478807460618
0.02,1.79,1.0,2360.3997202675973,0.20149209604563068,1.332706002935906,0.89964790596383,0.288233,0.6470239655944292
0.0205,1.78949375,1.0,2387.7087943414085,0.20597109497748725,1.3322112089753846,0.903418113414863,0.2882117375,0.6480730632369687
0.021,1.788975,1.0,2413.447014200136,0.21042497008268934,1.3317274698279336,0.9069643232717975,0.28818995000000003,0.6490972122498643
0.021500000000000002,1.78844375,1.0,2437.6812847563683,0.21485386170544984,1.3312538754455878,0.9103037401063676,0.2881676375,0.6500984375072671
0.022,1.7879,1.0,2460.482120787219,0.2192579101899817,1.3307895157803833,0.9134519671940706,0.2881448,0.651078750796491
0.0225,1.78734375,1.0,2481.9171647852386,0.2236372545830023,1.3303335396241398,0.9164231886703971,0.28812143749999997,0.6520400274215142
0.023,1.786775,1.0,2502.057145228405,0.2279920350122843,1.3298850940919822,0.9192303085876792,0.28809755,0.6529841348722069
0.0235,1.78619375,1.0,2520.9679279182706,0.23232239052053852,1.3294433974048794,0.9218850965721213,0.28807313749999996,0.6539127803135546
0.024,1.7856,1.0,2538.7004789144717,0.23662845636240995,1.329007829971142,0.9243983190360944,0.2880482,0.6548273208471942
0.0245,1.78499375,1.0,2555.3076395846297,0.24091036779254363,1.3285777721990815,0.9267798130835849,0.2880227375,0.655729105920563
0.025,1.784375,1.0,2570.843969111704,0.24516826006558456,1.328152604497008,0.9290385794733154,0.28799675,0.6566194775568567
0.025500000000000002,1.78374375,1.0,2585.3655955128243,0.2494022684361778,1.3277317072732329,0.9311828651517691,0.2879702375,0.6574997705604975
0.026000000000000002,1.7831000000000001,1.0,2598.9215244234792,0.2536125260024263,1.3273145405876565,0.9332202486494681,0.2879432,0.658371146428225
0.0265,1.78244375,1.0,2611.565636543057,0.2577991683275633,1.326900530472383,0.9351576879108564,0.2879156375,0.6592348315589112
0.027,1.781775,1.0,2623.350082408905,0.26196232965848465,1.3264891295452041,0.9370015868877076,0.28788755,0.6600919907168843
0.0275,1.7810937500000001,1.0,2634.3118670827475,0.26610213963464585,1.326079939853225,0.938757864439054,0.2878589375,0.6609434720195062
0.028,1.7804,1.0,2644.4887787110097,0.2702187278955024,1.3256725634435513,0.9404319783409439,0.2878298,0.6617901193243177
0.0285,1.77969375,1.0,2653.919320962355,0.27431222408050976,1.325266602363289,0.9420289672551683,0.2878001375,0.6626327722801084
0.029,1.778975,1.0,2662.6426489755167,0.27838275782912336,1.3248616586595434,0.9435534883718332,0.28776995,0.66347226636789
0.029500000000000002,1.7782437500000001,1.0,2670.698508818872,0.28243045878079864,1.3244573343794201,0.9450098512188283,0.2877392375,0.6643094329317639
0.03,1.7775,1.0,2678.12080779006,0.28645545419184426,1.3240532900481587,0.9464020550578196,0.287708,0.6651449783449104
0.0305,1.77674375,1.0,2684.9476945256183,0.2904578739421676,1.3236491514250301,0.9477338050260664,0.2876762375,0.6659796772380673
0.031,1.775975,1.0,2691.213832335899,0.29443784578071563,1.323244580039511,0.9490085447034208,0.28764395,0.6668142266424751
0.0315,1.7751937500000001,1.0,2696.94521223643,0.29839549368481616,1.3228393200250064,0.9502294833858176,0.2876111375,0.6676491500184679
0.032,1.7744,1.0,2702.1681134089213,0.3023309416317968,1.3224331155149216,0.9513996064315837,0.2875778,0.6684849681739198
0.0325,1.77359375,1.0,2706.909075809422,0.30624431359898546,1.3220257106426616,0.952521693630116,0.2875439375,0.6693221992509208
0.033,1.772775,1.0,2711.194874226701,0.3101357335637097,1.3216168495416316,0.9535983358524467,0.28750955,0.6701613587082764
0.0335,1.7719437500000002,1.0,2715.0524937936007,0.31400532550329735,1.3212062763452366,0.954631950162763,0.2874746375,0.6710029592998327
0.034,1.7711000000000001,1.0,2718.4987327208964,0.3178532090586319,1.3207938296752118,0.9556248029946488,0.2874392,0.6718473177369619
0.0345,1.7702437500000001,1.0,2721.5654493163497,0.32167951092516817,1.3203792123585898,0.956578999379646,0.2874032375,0.6726950264301328
0.035,1.7693750000000001,1.0,2724.2803646082702,0.32548435432675515,1.3199621663082932,0.9574965117958937,0.28736675,0.6735465948064545
0.035500000000000004,1.76849375,1.0,2726.6596985225065,0.32926785718453067,1.3195425392071682,0.9583791968379366,0.2873297375,0.6744023138936076
0.036000000000000004,1.7676,1.0,2728.7197647911084,0.33303013741963255,1.3191201787380613,0.9592287940870142,0.2872922,0.67526247296616
0.0365,1.76669375,1.0,2730.4769608622382,0.33677131295319873,1.3186949325838189,0.9600469348158809,0.2872541375,0.676127359519755
0.037,1.765775,1.0,2731.9477583236157,0.34049150170636705,1.3182666484272878,0.9608351499518559,0.28721555,0.6769972592438176
0.0375,1.76484375,1.0,2733.1486938409794,0.3441908216002754,1.317835173951314,0.9615948773688757,0.2871764375,0.6778724559927867
0.038,1.7639,1.0,2734.0963606103137,0.34786939055606164,1.3174003568387442,0.9623274685718907,0.28713679999999997,0.6787532317558604
0.0385,1.76294375,1.0,2734.807400325125,0.3515273264948636,1.316962044772425,0.9630341948303645,0.28709663750000003,0.6796398666252653
0.039,1.761975,1.0,2735.2994823635368,0.3551647400994297,1.3165200764759284,0.9637162505614374,0.28705595,0.6805326568484453
0.0395,1.7609937500000001,1.0,2735.586843477007,0.3587817559390629,1.3160743221497335,0.9643747664898201,0.2870147375,0.6814318331555691
0.04,1.76,1.0,2735.680063662012,0.36237848592086996,1.3156246854413194,0.9650108090426908,0.286973,0.6823375572068502
0.0405,1.7589937500000001,1.0,2735.5897401367315,0.36595504179577426,1.315171070043055,0.9656253841447322,0.2869307375,0.6832499891834047
0.041,1.757975,1.0,2735.326488623072,0.36951153531469927,1.314713379647309,0.9662194413066694,0.28688795,0.6841692878538546
0.0415,1.75694375,1.0,2734.900939890994,0.37304807822856834,1.3142515179464502,0.9667938773729441,0.2868446375,0.6850956105495914
0.042,1.7559,1.0,2734.3237365087543,0.3765647822883049,1.3137853886328474,0.9673495399830128,0.28680079999999997,0.6860291131394545
0.0425,1.75484375,1.0,2733.6055297986572,0.38006175924483254,1.3133148953988696,0.9678872307708699,0.2867564375,0.6869699500038119
0.043000000000000003,1.753775,1.0,2732.756976998052,0.38353912084907454,1.3128399419368852,0.9684077083250657,0.28671155,0.6879182740080557
0.043500000000000004,1.75269375,1.0,2731.786231025927,0.3869969729298676,1.3123604547228638,0.9689116918366381,0.28666613750000003,0.6888741910884113
0.044,1.7516,1.0,2730.7018861882893,0.3904354289704939,1.31187635624742,0.969399863554275,0.2866202,0.6898378138196184
0.0445,1.75049375,1.0,2729.5136320684182,0.3938546047648047,1.3113875590519537,0.9698728697727225,0.2865737375,0.6908092731749556
0.045,1.7493750000000001,1.0,2728.2274089024995,0.3972546054732363,1.3108940097474495,0.9703313245492815,0.28652675,0.6917886310687269
0.0455,1.74824375,1.0,2726.849156912912,0.4006355362562251,1.3103956549448923,0.9707758106573695,0.2864792375,0.6927759483141944
0.046,1.7471,1.0,2725.3848152829732,0.40399750227420744,1.3098924412552673,0.9712068814787297,0.2864312,0.6937712846073046
0.0465,1.7459437500000001,1.0,2723.840321194288,0.4073406086876197,1.3093843152895592,0.9716250627636425,0.28638263750000004,0.6947746985102379
0.047,1.744775,1.0,2722.2216089276194,0.41066496065689817,1.3088712236587534,0.9720308542695241,0.28633355,0.6957862474347715
0.0475,1.74359375,1.0,2720.534609027489,0.4139706633424793,1.3083531129738346,0.972424731287382,0.28628393750000003,0.6968059876254643
0.048,1.7424,1.0,2718.7852475285567,0.4172578219047994,1.3078299298457878,0.9728071460647897,0.2862338,0.6978339741426574
0.0485,1.74119375,1.0,2716.979445247042,0.4205265415042948,1.307301620885598,0.9731785291332871,0.2861831375,0.6988702608452939
0.049,1.739975,1.0,2715.123117133661,0.4237769273014019,1.3067681327042502,0.973539290547461,0.28613195,0.6999149003735572
0.0495,1.73874375,1.0,2713.217101480932,0.42700907300692803,1.3062294581370812,0.9738898228232586,0.2860802375,0.7009678538554516
0.05,1.7375,1.0,2711.2691870103417,0.43022309449708546,1.3056855266334029,0.9742304985179143,0.286028,0.7020292053790151
0.0505,1.73624375,1.0,2709.2836533272402,0.4334190941867977,1.3051362995667992,0.9745616735022946,0.2859752375,0.7030989754039558
0.051000000000000004,1.734975,1.0,2707.263290368745,0.43659717032394263,1.3045817518582397,0.9748836877705295,0.28592195,0.704177156999253
0.051500000000000004,1.73369375,1.0,2705.2108847094446,0.4397574211563982,1.3040218584286938,0.9751968659002882,0.2858681375,0.7052637423391687
0.052000000000000005,1.7324,1.0,2703.1292193877916,0.44289994493204227,1.3034565941991307,0.9755015178843286,0.2858138,0.7063587226947197
0.0525,1.73109375,1.0,2701.0210737469033,0.4460248398987527,1.3028859340905201,0.9757979399101753,0.28575893750000003,0.7074620884251056
0.053,1.729775,1.0,2698.889223288684,0.44913220430440753,1.3023098530238313,0.9760864150915824,0.28570355000000003,0.7085738289690993
0.0535,1.72844375,1.0,2696.736439542154,0.4522221363968846,1.3017283259200338,0.9763672141551492,0.2856476375,0.7096939328363963
0.054,1.7271,1.0,2694.5654899461133,0.4552947344240618,1.3011413277000972,0.9766405960852012,0.2855912,0.7108223875989245
0.0545,1.7257437500000001,1.0,2692.3791377451685,0.4583500966338171,1.3005488332849904,0.9769068087298046,0.2855342375,0.7119591798821143
0.055,1.724375,1.0,2690.1801418996965,0.4613883212740284,1.2999508175956833,0.9771660893705633,0.28547675,0.713104295356126
0.0555,1.72299375,1.0,2687.967723679871,0.46440950429480965,1.299347287916943,0.9774186669573958,0.2854187375,0.7142576569412336
0.056,1.7216,1.0,2685.7432870608445,0.4674137417724848,1.2987382315456075,0.9776647596908983,0.2853602,0.7154192251690146
0.0565,1.72019375,1.0,2683.5139314004873,0.47040113069479816,1.2981235835478004,0.9779045737608906,0.28530113749999997,0.7165890590963573
0.057,1.718775,1.0,2681.2806982605566,0.473371763781647,1.2975033344380948,0.978138309656987,0.28524155,0.717767110963696
0.0575,1.71734375,1.0,2679.0446274949254,0.4763257337529288,1.2968774747310639,0.9783661596838447,0.2851814375,0.7189533322618193
0.058,1.7159,1.0,2676.8067572417717,0.47926313332854087,1.2962459949412808,0.9785883083590217,0.2851208,0.7201476737284778
0.0585,1.71444375,1.0,2674.568123917239,0.4821840552283805,1.2956088855833188,0.978804932788419,0.2850596375,0.7213500853449883
0.059000000000000004,1.7129750000000001,1.0,2672.329762210967,0.485088592172345,1.2949661371717505,0.9790162030207378,0.28499795,0.7225605163328319
0.059500000000000004,1.71149375,1.0,2670.092705083907,0.4879768368803319,1.2943177402211496,0.9792222823822799,0.2849357375,0.723778915150242
0.06,1.71,1.0,2667.855853798328,0.4908488795165292,1.293663704829103,0.9794233286469971,0.284873,0.7250051928126449
0.0605,1.7084937500000001,1.0,2665.6209915908935,0.4937048135088336,1.293004014602048,0.9796194922947951,0.2848097375,0.7262393093975855
0.061,1.7069750000000001,1.0,2663.3911239300883,0.4965447304478559,1.2923386418722727,0.9798109172452342,0.28474595,0.7274812451156731
0.0615,1.7054437500000001,1.0,2661.1669362604957,0.4993687185344802,1.2916675802829531,0.979997742762012,0.2846816375,0.7287309394511705
0.062,1.7039,1.0,2658.9491128845266,0.5021768659695905,1.2909908234772658,0.9801801028197832,0.2846168,0.7299883311607869
0.0625,1.70234375,1.0,2656.738336968309,0.5049692609540709,1.2903083650983873,0.9803581263431324,0.2845514375,0.7312533582713694
0.063,1.7007750000000001,1.0,2654.5352905499076,0.5077459916888054,1.2896201987894937,0.9805319374330116,0.28448555,0.732525958077596
0.0635,1.69919375,1.0,2652.3406545472662,0.510507146374678,1.2889263181937614,0.9807016555813821,0.28441913750000003,0.73380606713966
0.064,1.6976,1.0,2650.1551087675048,0.5132528132125728,1.2882267169543669,0.9808673958747651,0.2843522,0.7350936212809545
0.0645,1.69599375,1.0,2647.97959478399,0.5159830665583115,1.2875213862886281,0.9810292680705824,0.2842847375,0.7363885600340099
0.065,1.694375,1.0,2645.8133461635534,0.5186980077815079,1.2868103331685856,0.9811873806555681,0.28421675,0.7376907933282044
0.0655,1.69274375,1.0,2643.656296269129,0.5213977297865272,1.286093558114755,0.9813418372778951,0.2841482375,0.7390002423636457
0.066,1.6911,1.0,2641.5088006901647,0.5240823147726266,1.2853710577475892,0.9814927369382759,0.2840792,0.740316834821499
0.0665,1.6894437500000001,1.0,2639.3712144631695,0.5267518449390629,1.2846428286875413,0.9816401751231573,0.2840096375,0.7416404976937341
0.067,1.687775,1.0,2637.2438920774243,0.5294064024850932,1.2839088675550645,0.9817842439527747,0.28393955,0.7429711572818904
0.0675,1.68609375,1.0,2635.1271874820163,0.5320460696099742,1.2831691709706117,0.9819250323219506,0.2838689375,0.7443087391958434
0.068,1.6844000000000001,1.0,2633.0214540920215,0.5346709285129632,1.282423735554636,0.9820626260340379,0.2837978,0.7456531683525671
0.0685,1.68269375,1.0,2630.9270447954646,0.5372810613933169,1.2816725579275905,0.9821971079283911,0.2837261375,0.7470043689748986
0.069,1.680975,1.0,2628.8443119606245,0.5398765504502923,1.2809156347099284,0.9823285580017159,0.28365395,0.7483622645902999
0.0695,1.67924375,1.0,2626.773607443272,0.5424574778831464,1.2801529625221026,0.9824570535236345,0.28358123749999997,0.7497267780296217
0.07,1.6775,1.0,2624.715282594514,0.5450239258911361,1.279384537984566,0.9825826691467769,0.283508,0.7510978314258627
0.07050000000000001,1.67574375,1.0,2622.6696882683777,0.5475759766735184,1.2786103577177723,0.9827054770116946,0.2834342375,0.7524753462129303
0.07100000000000001,1.673975,1.0,2620.6371748302577,0.5501137124295502,1.277830418342174,0.9828255468468713,0.28335995,0.7538592431244023
0.07150000000000001,1.67219375,1.0,2618.6180921652303,0.5526372153584885,1.2770447164782244,0.982942946064093,0.2832851375,0.7552494421922841
0.07200000000000001,1.6704,1.0,2616.608869013991,0.5551465663250611,1.2762532851444506,0.9830577414205113,0.2832098,0.7566457986189378
0.0725,1.66859375,1.0,2614.611906851713,0.5576418425038197,1.2754561019407946,0.9831699947816661,0.2831339375,0.7580482649986688
0.073,1.6667750000000001,1.0,2612.6285435603795,0.5601231221708857,1.2746531543151174,0.9832797664971239,0.28305755,0.7594567755891464
0.0735,1.66494375,1.0,2610.6574837328576,0.5625904835966837,1.273844454171373,0.9833871160482269,0.2829806375,0.7608712210445882
0.074,1.6631,1.0,2608.6980129073586,0.5650440049528422,1.273030008030805,0.9834921007642148,0.2829032,0.7622915010035031
0.0745,1.6612437500000001,1.0,2606.7518019122463,0.5674837641238685,1.2722098002391227,0.9835947751512488,0.2828252375,0.7637175531051561
0.075,1.659375,1.0,2604.816339196353,0.5699098384364073,1.2713838540348776,0.9836951936495657,0.28274675,0.7651492467129344
0.0755,1.65749375,1.0,2602.891683518261,0.5723223042243197,1.2705521687671897,0.9837934078937518,0.2826677375,0.7665864922683996
