Time [s],Phi [rad],STIM [ ],Fsee [N],Gamma [ ],Lcerel [ ],q [ ],Lmtc [m],fisomrel [ ]
0.0,1.8,1.0,18.39179598376813,0.0006638825082990768,1.3792924503999433,0.005113613053299495,0.288653,0.5412539447372657
0.0005,1.79999375,1.0,18.902328477931587,0.006269367961279155,1.379233482218812,0.014855072729397841,0.2886527375,0.5413965751409249
0.001,1.799975,1.0,22.72945522280786,0.011843411072802007,1.3788262440554846,0.03909695217350377,0.28865195,0.5423809847411174
0.0015,1.79994375,1.0,33.26070466814371,0.01738618821037809,1.3778626792107804,0.07532349143402264,0.2886506375,0.5447059810575601
0.002,1.7999,1.0,57.90833509141171,0.0228978747505069,1.3760929332230174,0.12027562558932516,0.2886488,0.5489607958536574
0.0025,1.79984375,1.0,104.06386902074729,0.028378645086352402,1.3736062856237816,0.17059918636558594,0.28864643749999996,0.5549054315765348
0.003,1.7997750000000001,1.0,169.77905840795955,0.03382867263584664,1.3708885731124705,0.2234812790494357,0.28864354999999997,0.561357354383277
0.0035,1.79969375,1.0,247.53232507787348,0.03924812983981226,1.3682844384762511,0.2767703467025269,0.2886401375,0.5674954476282921
0.004,1.7996,1.0,331.878311590288,0.044637188173889356,1.3658825278374789,0.3288707979864455,0.2886362,0.573118545354772
0.0045000000000000005,1.7994937500000001,1.0,420.0068201050779,0.04999601815216384,1.363672359601608,0.378682392813066,0.2886317375,0.5782602514725723
0.005,1.799375,1.0,510.3311791603717,0.055324789298782845,1.3616275969230112,0.4255282359781452,0.28862675,0.5829894169122709
0.0055,1.79924375,1.0,601.7910649439154,0.060623670330392704,1.359724900341657,0.4690605511441348,0.2886212375,0.5873660589100287
0.006,1.7991000000000001,1.0,693.5070638699625,0.06589282877483806,1.3579474624011267,0.5091696137788131,0.2886152,0.591433718624343
0.006500000000000001,1.79894375,1.0,784.7868016732574,0.07113243139770434,1.3562817401073393,0.5459050084598224,0.2886086375,0.5952274287821632
0.007,1.798775,1.0,875.0520432143974,0.07634264403529425,1.3547170240914617,0.5794165340453051,0.28860155,0.598774977103627
0.0075,1.79859375,1.0,963.8102770288197,0.08152363136098645,1.3532446948165817,0.60991110228817,0.2885939375,0.6020988060712374
0.008,1.7984,1.0,1050.7012787154415,0.08667555769303924,1.3518567456974104,0.6376223539950594,0.2885858,0.605219485035803
0.0085,1.79819375,1.0,1135.4050489229103,0.09179858566894114,1.3505467113758949,0.6627917523182068,0.2885771375,0.6081537090036513
0.009000000000000001,1.797975,1.0,1217.682890634886,0.0968928773265898,1.3493086355006605,0.6856556950684519,0.28856795,0.6109167001424322
0.0095,1.79774375,1.0,1297.3773189769802,0.10195859432839686,1.3481368406390344,0.7064381840359562,0.2885582375,0.6135227684626008
0.01,1.7975,1.0,1374.3548514862514,0.1069958966333463,1.347026495206417,0.7253473154605067,0.288548,0.6159840931911691
0.0105,1.79724375,1.0,1448.528086211755,0.11200494346992587,1.345973119631498,0.7425733950506783,0.2885372375,0.6183118638152081
0.011,1.796975,1.0,1519.8604921394797,0.11698589337579396,1.3449724017811695,0.7582886488107924,0.28852595000000003,0.6205167155909801
0.0115,1.79669375,1.0,1588.3475872011825,0.12193890466207173,1.344020331525996,0.7726479387598465,0.2885141375,0.6226084550278821
0.012,1.7964,1.0,1653.9747861736475,0.126864133207703,1.3431135999577952,0.78579003596029,0.28850180000000003,0.6245952089413331
0.0125,1.79609375,1.0,1716.7676607992992,0.1317617348616032,1.3422489052772142,0.7978386302387173,0.2884889375,0.6264849707798101
0.013000000000000001,1.7957750000000001,1.0,1776.7669633561818,0.13663186441979933,1.3414231928018974,0.8089038553717366,0.28847555,0.6282850874265256
0.0135,1.79544375,1.0,1834.0565240829833,0.1414746775142324,1.3406332887975112,0.819083541685977,0.2884616375,0.6300030693972938
0.014,1.7951000000000001,1.0,1888.6773497573795,0.14629032623197413,1.3398768159123533,0.8284648920296755,0.2884472,0.6316446109862255
0.0145,1.79474375,1.0,1940.688540385962,0.15107896240711424,1.339151452460767,0.8371254002139408,0.2884322375,0.633215217773444
0.015,1.794375,1.0,1990.1701943958114,0.1558407378737425,1.338454876757096,0.845133953174946,0.28841675,0.6347203329060552
0.0155,1.79399375,1.0,2037.2018051824482,0.16057580321336612,1.3377849751349284,0.8525519066244147,0.2884007375,0.6361648934091064
0.016,1.7936,1.0,2081.887936143819,0.1652843097505415,1.3371395456744353,0.859433879824889,0.2883842,0.6375539755817454
0.0165,1.7931937500000001,1.0,2124.2958943608114,0.1699664053090701,1.336516929706137,0.8658287422159426,0.2883671375,0.6388914413939888
0.017,1.792775,1.0,2164.5009939553524,0.1746222374471556,1.3359155099535365,0.8717801417802646,0.28834955,0.640181027336274
0.0175,1.7923437500000001,1.0,2202.5894531541207,0.17925195372300184,1.3353336691401363,0.8773271098911323,0.2883314375,0.6414264360363955
0.018000000000000002,1.7919,1.0,2238.643400870236,0.1838557003860026,1.3347699311060157,0.882504640702847,0.2883128,0.6426310370767649
0.0185,1.79144375,1.0,2272.762812643851,0.1884336250319452,1.3342227282618289,0.8873441020266539,0.2882936375,0.6437983670702159
0.019,1.790975,1.0,2305.0194058351135,0.19298587151425267,1.3336908533833207,0.8918737651916507,0.28827395,0.6449311682662984
0.0195,1.79049375,1.0,2335.4841924028397,0.1975125829598901,1.3331731697481952,0.8961190873346668,0.2882537375,0.6460320119896056
0.02,1.79,1.0,2364.2339322098346,0.20201390249582257,1.3326685406341565,0.9001030137347062,0.288233,0.6471034504857799
0.0205,1.78949375,1.0,2391.348526362218,0.2064899728633933,1.3321758499165237,0.9038462638992313,0.2882117375,0.648147974273709
0.021,1.788975,1.0,2416.9022340148495,0.2109409356577944,1.331694081949853,0.9073675950884396,0.28818995000000003,0.6491678443859827
0.021500000000000002,1.78844375,1.0,2440.9759169971126,0.21536693400308904,1.3312221973406644,0.9106839916525282,0.2881676375,0.650165357107213
0.022,1.7879,1.0,2463.627825685194,0.21976810623021173,1.3307594095413182,0.9138109095131189,0.2881448,0.6511422608414494
0.0225,1.78734375,1.0,2484.919224033662,0.22414459067009693,1.330304932004176,0.9167623898686125,0.28812143749999997,0.6521002930284333
0.023,1.786775,1.0,2504.914139349407,0.22849652565367912,1.329857978181598,0.9195512082693565,0.28809755,0.6530411805801927
0.0235,1.78619375,1.0,2523.679125781733,0.23282404951189284,1.3294177615259455,0.9221890062218776,0.28807313749999996,0.6539666402781739
0.024,1.7856,1.0,2541.270943928947,0.2371272975338804,1.328983609451728,0.9246864266277396,0.2880482,0.6548781400258703
0.0245,1.78499375,1.0,2557.757952827728,0.2414064103803697,1.3285547586651483,0.927053182487229,0.2880227375,0.6557773295870095
0.025,1.784375,1.0,2573.1889620186184,0.2456615223858657,1.32813064653393,0.9292981941881217,0.28799675,0.6566654298636005
0.025500000000000002,1.78374375,1.0,2587.6097438503,0.2498927665060806,1.3277107524625107,0.9314296424782218,0.2879702375,0.6575435673483898
0.026000000000000002,1.7831000000000001,1.0,2601.0673635432095,0.2541002756967266,1.3272945558553277,0.9334550339708532,0.2879432,0.6584128625875758
0.0265,1.78244375,1.0,2613.610068348637,0.25828418291351585,1.326881536116819,0.9353812657934787,0.2879156375,0.6592744303122092
0.027,1.781775,1.0,2625.287182717226,0.2624446211121606,1.3264711726514218,0.9372146832481801,0.28788755,0.6601293795523137
0.0275,1.7810937500000001,1.0,2636.1429322902527,0.266581721427292,1.3260630010724828,0.938961139024466,0.2878589375,0.6609786968482338
0.028,1.7804,1.0,2646.218460348196,0.27069561523779334,1.3256565931944122,0.9406260362557837,0.2878298,0.6618232886129118
0.0285,1.77969375,1.0,2655.5680538181846,0.2747864373760979,1.3252514064650174,0.9422143488286466,0.2878001375,0.6626642939812757
0.029,1.778975,1.0,2664.222761862979,0.27885431479490114,1.3248471189867237,0.9437307028889078,0.28776995,0.6635023893049279
0.029500000000000002,1.7782437500000001,1.0,2672.2141555934772,0.2828993744468983,1.3244434088619557,0.9451793796466217,0.2877392375,0.6643382475957713
0.03,1.7775,1.0,2679.5742825100597,0.28692174328478476,1.3240399541931382,0.9465643455063127,0.287708,0.6651725385411635
0.0305,1.77674375,1.0,2686.3356232414694,0.29092154826125594,1.3236364330826964,0.9478892792077478,0.2876762375,0.6660059285124662
0.031,1.775975,1.0,2692.5310505813777,0.29489891632900717,1.3232325236330549,0.9491575963063041,0.28764395,0.6668390805669855
0.0315,1.7751937500000001,1.0,2698.1937908214472,0.2988539744407338,1.322827903946639,0.9503724712825468,0.2876111375,0.6676726544433023
0.032,1.7744,1.0,2703.350731012303,0.3027868459559688,1.3224223129216477,0.9515368638530939,0.2875778,0.6685071815378033
0.0325,1.77359375,1.0,2708.0340112177805,0.30669765926411346,1.3220154438919531,0.9526535263088389,0.2875439375,0.6693432841041722
0.033,1.772775,1.0,2712.270834395311,0.3105865390266585,1.3216070374832618,0.9537250286521032,0.28750955,0.670181484187627
0.0335,1.7719437500000002,1.0,2716.0825781339563,0.3144536061409237,1.3211968892794632,0.9547537739780644,0.2874746375,0.6710221885114677
0.034,1.7711000000000001,1.0,2719.4907879853176,0.31829898150422864,1.320784794864448,0.9557420064271198,0.2874392,0.6718658016064223
0.0345,1.7702437500000001,1.0,2722.5171602363976,0.3221227860138931,1.320370549822106,0.956691823572962,0.2874032375,0.6727127257866117
0.035,1.7693750000000001,1.0,2725.183525607971,0.3259251405672367,1.3199539497363277,0.9576051877068879,0.28736675,0.6735633611228427
0.035500000000000004,1.76849375,1.0,2727.5118338800044,0.32970616606157915,1.319534790191003,0.9584839361282231,0.2873297375,0.6744181054132388
0.036000000000000004,1.7676,1.0,2729.524139443432,0.33346598339424016,1.3191128667700223,0.9593297905387357,0.2872922,0.6752773541512054
0.0365,1.76669375,1.0,2731.223572780459,0.33720471154473003,1.3186881478415748,0.9601443827069875,0.2872541375,0.6761411493153908
0.037,1.765775,1.0,2732.6704889359116,0.3409224694992727,1.3182600824569999,0.9609291923391244,0.28721555,0.6770105864619376
0.0375,1.76484375,1.0,2733.8571879523543,0.3446193738697657,1.3178287387246084,0.9616856697575432,0.2871764375,0.6778855001298617
0.038,1.7639046422846107,1.0,2735.001449577508,0.34829554105309124,1.3173942340359999,0.9624151827117704,0.28713699497595363,0.6787656256399903
0.0385,1.7629654152654082,1.0,2736.4752726771335,0.3519510874461312,1.3169566857827741,0.9631190175755941,0.2870975474411471,0.6796506994183666
0.039,1.7620261882462058,1.0,2738.271485428283,0.3555861288225915,1.3165162153435224,0.9637983853237466,0.2870580999063406,0.6805404509713424
0.0395,1.7610869612270035,1.0,2740.3549032559417,0.35920078117056986,1.3160731447723117,0.9644544448334755,0.2870186523715341,0.6814342064851444
0.04,1.7601477342078011,1.0,2742.697613929761,0.3627951587127279,1.315627730133467,0.9650882819731113,0.2869792048367277,0.6823314284783016
0.0405,1.7592085071885988,1.0,2745.2781500701144,0.3663693743413589,1.3151801689979639,0.9657009154378511,0.2869397573019211,0.6832316998418844
0.041,1.7582692801693964,1.0,2748.0750359203944,0.3699235409487562,1.3147306589367787,0.9662933066666228,0.28690030976711467,0.6841346056288939
0.0415,1.7573300531501939,1.0,2751.0668672625216,0.37345777137627406,1.3142793967161186,0.9668663635846358,0.2868608622323081,0.6850397346930885
0.042,1.7563908261309915,1.0,2754.238699557733,0.37697217509495523,1.3138265204219526,0.9674209387374353,0.28682141469750166,0.6859467955352353
0.0425,1.7554515991117892,1.0,2757.563873682878,0.3804668691214162,1.3133722739261422,0.9679578483353464,0.28678196716269516,0.6868552867804811
0.043000000000000003,1.7545123720925868,1.0,2761.0306691950263,0.38394196198211916,1.312916765630467,0.9684778522951376,0.28674251962788866,0.6877649801893093
0.043500000000000004,1.7535731450733845,1.0,2764.6273467431865,0.3873975622035262,1.3124601039367065,0.9689816701949571,0.28670307209308216,0.6886756487495618
0.044,1.752633918054182,1.0,2768.3421451660192,0.39083377831209953,1.3120023972466401,0.9694699838214114,0.28666362455827565,0.6895870666847888
0.0445,1.7516946910349795,1.0,2772.1632788499323,0.39425071883430135,1.3115437539620474,0.969943439531608,0.28662417702346915,0.6904990094618473
0.045,1.7507554640157772,1.0,2776.0789353477326,0.3976484922965938,1.311084282484708,0.9704026504452915,0.28658472948866265,0.69141125379775
0.0455,1.7498162369965748,1.0,2780.0772732580576,0.401027207225439,1.3106240912164009,0.9708481984808333,0.28654528195385615,0.6923235776657687
0.046,1.7488770099773725,1.0,2784.1557441036207,0.404386961488286,1.3101632046455536,0.9712806285482525,0.28650583441904964,0.6932359262882668
0.0465,1.7479377829581701,1.0,2788.2937567984673,0.40772787740439975,1.3097018094804533,0.9717004736560492,0.28646638688424314,0.6941479247593527
0.047,1.7469985559389676,1.0,2792.4858069510547,0.4110500584271022,1.3092399563181905,0.9721082280888265,0.28642693934943664,0.6950594688020525
0.0475,1.7460593289197652,1.0,2796.727157085594,0.41435360703804575,1.3087776887308216,0.9725043614059876,0.28638749181463014,0.6959704685652164
0.048,1.7451201019005629,1.0,2801.013056230014,0.41763862571888294,1.3083150502904033,0.9728893205065999,0.28634804427982363,0.6968808347079913
0.0485,1.7441808748813605,1.0,2805.338739536748,0.4209052169512663,1.3078520845689925,0.9732635309344081,0.28630859674501713,0.6977904784009117
0.049,1.7432416478621582,1.0,2809.699427945282,0.42415348321684837,1.3073888351386458,0.9736273980961124,0.2862691492102106,0.69869931132687
0.0495,1.7423024208429556,1.0,2814.0903278872943,0.42738352699728166,1.3069253455714198,0.9739813083994215,0.2862297016754041,0.699607245681966
0.05,1.7413631938237533,1.0,2818.506631033359,0.4305954507742186,1.3064616594393712,0.9743256303168444,0.2861902541405976,0.7005141941762336
0.0505,1.740423966804551,1.0,2822.9435140822366,0.4337893570293119,1.3059978203145566,0.9746607153806949,0.2861508066057911,0.7014200700342486
0.051000000000000004,1.7394847397853486,1.0,2827.3961385919283,0.43696534824421385,1.3055338717690326,0.9749868991143338,0.2861113590709846,0.7023247869956134
0.051500000000000004,1.7385455127661462,1.0,2831.86163540761,0.4401235203623825,1.3050698396650209,0.9753045000515645,0.28607191153617817,0.7032282937715513
0.052000000000000005,1.7376062857469439,1.0,2836.3375294349617,0.4432639730745697,1.3046057462699692,0.9756138226875796,0.2860324640013716,0.7041305463626122
0.0525,1.7366670587277413,1.0,2840.817477102164,0.44638681981514555,1.3041416482485366,0.9759151616493553,0.28599301646656516,0.7050314343133399
0.053,1.735727831708539,1.0,2845.300120907233,0.44949215596732595,1.303677557697136,0.9762087939704208,0.2859535689317586,0.7059309341553017
0.0535,1.7347886046893366,1.0,2849.7840990660598,0.45258007691432683,1.30321348671218,0.9764949846659541,0.28591412139695216,0.7068290225632736
0.054,1.7338493776701343,1.0,2854.2680455150908,0.45565067803936404,1.302749447390082,0.9767739873569192,0.28587467386214566,0.7077256763552295
0.0545,1.732910150650932,1.0,2858.750589918907,0.4587040547256535,1.3022854518272546,0.9770460448566953,0.28583522632733915,0.7086208724923231
0.055,1.7319709236317293,1.0,2863.2303576799322,0.4617403023564111,1.3018215121201107,0.9773113897227498,0.2857957787925326,0.7095145880788581
0.0555,1.731031696612527,1.0,2867.705969952229,0.4647595163148528,1.301357640365063,0.9775702447757105,0.28575633125772615,0.710406800362249
0.056,1.7300924695933246,1.0,2872.1760436573636,0.46776179198419443,1.3008938486585249,0.9778228235880224,0.28571688372291965,0.7112974867329743
0.0565,1.7291532425741223,1.0,2876.6391915048866,0.4707472247476519,1.3004301490969088,0.9780693309442032,0.28567743618811314,0.712186624724519
0.057,1.72821401555492,1.0,2881.0940220152256,0.47371590998844115,1.2999665537766278,0.9783099632745719,0.28563798865330664,0.7130741920133081
0.0575,1.7272747885357176,1.0,2885.539139546121,0.4766679430897781,1.2995030747940948,0.9785449090641769,0.28559854111850014,0.7139601664186317
0.058,1.726335561516515,1.0,2889.9731443219,0.4796034194348786,1.2990397242457226,0.978774349238537,0.28555909358369364,0.7148445259025581
0.0585,1.7253963344973127,1.0,2894.397505097832,0.4825223980445903,1.2985764888714848,0.9789984530421085,0.28551964604888713,0.7157272968532402
0.059000000000000004,1.7244571074781103,1.0,2898.8090182093742,0.485425012943041,1.2981133966642981,0.9792173916393389,0.28548019851408063,0.7166084270703916
0.059500000000000004,1.723517880458908,1.0,2903.2066968025247,0.488311363273845,1.2976504559951072,0.9794313254898289,0.2854407509792741,0.7174879019320942
0.06,1.7225786534397056,1.0,2907.5904152926937,0.49118153589031777,1.29718766762573,0.9796404074195532,0.2854013034444676,0.7183657213366668
0.0605,1.721639426420503,1.0,2911.960047988023,0.4940356176457749,1.2967250323179844,0.9798447843910618,0.2853618559096611,0.7192418851909793
0.061,1.7207001994013007,1.0,2916.3154690921338,0.4968736953935321,1.2962625508336882,0.980044597773684,0.2853224083748546,0.7201163934104473
0.0615,1.7197609723820984,1.0,2920.656552706687,0.49969585598690486,1.2958002239346593,0.9802399835992891,0.2852829608400481,0.7209892459190224
0.062,1.718821745362896,1.0,2924.9831728338468,0.5025021862792087,1.2953380523827154,0.9804310728044776,0.2852435133052416,0.7218604426491853
0.0625,1.7178825183436937,1.0,2929.2952033790734,0.5052927731237594,1.2948760369396746,0.980617991460023,0.2852040657704351,0.7227299835419378
0.063,1.7169432913244913,1.0,2933.5925181537173,0.5080677033738724,1.2944141783673546,0.9808008609883224,0.28516461823562866,0.723597868546797
0.0635,1.7160040643052887,1.0,2937.8749908773875,0.5108270638828633,1.2939524774275735,0.9809797983695697,0.2851251707008221,0.7244640976217855
0.064,1.7150648372860864,1.0,2942.142495181327,0.5135709415040477,1.2934909348821488,0.9811549163373157,0.28508572316601566,0.7253286707334257
0.0645,1.714125610266884,1.0,2946.394904610059,0.5162994230907411,1.2930295514928984,0.981326323564031,0.2850462756312091,0.7261915878567309
0.065,1.7131863832476817,1.0,2950.6320926250537,0.5190125954962592,1.2925683280216407,0.981494124837261,0.28500682809640265,0.7270528489751966
0.0655,1.7122471562284793,1.0,2954.8539326066425,0.5217105455739176,1.2921072652301928,0.9816584212269023,0.2849673805615961,0.7279124540807965
0.066,1.7113079292092768,1.0,2959.060297857406,0.5243933601770318,1.291646363880373,0.9818193102441212,0.28492793302678965,0.7287704031739702
0.0665,1.7103687021900744,1.0,2963.251061604179,0.5270611261589174,1.291185624733999,0.9819768859923796,0.2848884854919831,0.7296266962636183
0.067,1.709429475170872,1.0,2967.426097001532,0.52971393037289,1.2907250485528887,0.9821312393110196,0.28484903795717664,0.7304813333670934
0.0675,1.7084902481516697,1.0,2971.5852773233596,0.532351859639643,1.2902646360972088,0.9822824579096157,0.28480959042237014,0.7313343145132493
0.068,1.7075510211324674,1.0,2975.729097726371,0.5349749372146225,1.2898043827127843,0.9824306221626851,0.28477014288756364,0.7321856497463713
0.0685,1.706611794113265,1.0,2979.8573697012193,0.5375833264354654,1.28934428970738,0.9825758189521339,0.28473069535275713,0.7330353380539918
0.069,1.7056725670940625,1.0,2983.9702173984288,0.540177104713669,1.2888843556685368,0.9827181266408163,0.28469124781795063,0.7338833834501733
0.0695,1.70473334007486,1.0,2988.0677655856443,0.5427563494607309,1.288424579183796,0.9828576209818309,0.28465180028314413,0.7347297899319203
0.07,1.7037941130556578,1.0,2992.150139642641,0.5453211380881485,1.2879649588406992,0.9829943752233602,0.2846123527483376,0.7355745614791915
0.07050000000000001,1.7028548860364554,1.0,2996.2174655564845,0.547871548007419,1.287505493226787,0.9831284602086127,0.2845729052135311,0.7364177020549167
0.07100000000000001,1.701915659017253,1.0,3000.2698699166226,0.55040765663004,1.2870461809296012,0.9832599444711323,0.2845334576787246,0.7372592156050084
0.07150000000000001,1.7009764319980505,1.0,3004.307479910067,0.5529295413675088,1.2865870205366827,0.9833888943257173,0.2844940101439181,0.7380991060583769
