Time [s],Phi [rad],STIM [ ],Fsee [N],Gamma [ ],Lcerel [ ],q [ ],Lmtc [m],fisomrel [ ]
0.0,1.8,1.0,17.966230670889367,1.0129003033402636e-05,1.3793398501317096,0.005000027341081432,0.288653,0.5411392796621561
0.0005,1.79999375,1.0,18.275691801548014,0.005619281496131569,1.3793025046861789,0.012940874530857498,0.2886527375,0.5412296235293088
0.001,1.799975,1.0,21.617457651606717,0.011196971078664488,1.3789383964781254,0.035609256636100296,0.28865195,0.542109986207229
0.0015,1.79994375,1.0,31.068430419906175,0.016743374233545907,1.3780462723624418,0.07060263872551005,0.2886506375,0.54426344372724
0.002,1.7999,1.0,53.58170604958602,0.02225866645203626,1.3763681759181168,0.114718943035035,0.2886488,0.5483003703956297
0.0025,1.79984375,1.0,97.11841738970237,0.027743022241310842,1.3739351923295275,0.1645758763503889,0.28864643749999996,0.55412140286186
0.003,1.7997750000000001,1.0,160.95796491253375,0.033196615132172855,1.3712143513138952,0.2172814658018485,0.28864354999999997,0.5605864329674872
0.0035,1.79969375,1.0,237.68337122060706,0.03861961767864733,1.3685847330109782,0.2706138922739862,0.2886401375,0.5667898424465113
0.004,1.7996,1.0,321.4670094338602,0.04401220146876289,1.3661560860899409,0.3229167717500289,0.2886362,0.5724799764645911
0.0045000000000000005,1.7994937500000001,1.0,409.26816109848323,0.049374537129736155,1.3639228045350595,0.37303542736396,0.2886317375,0.5776791847555385
0.005,1.799375,1.0,499.4140461882443,0.05470679431906722,1.3618583308289263,0.4202483207958017,0.28862675,0.5824571058982888
0.0055,1.79924375,1.0,590.7910613907018,0.06000914177196666,1.3599388224508628,0.4641744945067078,0.2886212375,0.5868751406016781
0.006,1.7991000000000001,1.0,682.5188400768166,0.06528174724459813,1.3581464014461568,0.5046806940641752,0.2886152,0.590979448760103
0.006500000000000001,1.79894375,1.0,773.8821094840745,0.07052477757044927,1.356467239079516,0.5418014295645891,0.2886086375,0.5948058273693468
0.007,1.798775,1.0,864.2867516052946,0.07573839863874969,1.3548903798058733,0.5756773912840958,0.28860155,0.5983827114835554
0.0075,1.79859375,1.0,953.243683593735,0.08092277541427179,1.353406771990006,0.6065104766915861,0.2885939375,0.601733589003839
0.008,1.7984,1.0,1040.3599717068867,0.08607807194052285,1.3520086240081393,0.6345325604974293,0.2885858,0.6048785989282413
0.0085,1.79819375,1.0,1125.3221220930861,0.09120445133391351,1.3506891297404753,0.6599848418883959,0.2885771375,0.6078352496233039
0.009000000000000001,1.797975,1.0,1207.8820821454708,0.09630207558921192,1.3494422823451158,0.6831047596286122,0.28856795,0.6106189136142742
0.0095,1.79774375,1.0,1287.8706576853533,0.1013711062446548,1.3482624089427426,0.7041180210945829,0.2885582375,0.6132439238437433
0.01,1.7975,1.0,1365.1715355790636,0.10641170429553941,1.34714432761805,0.7232345552263817,0.288548,0.6157232646766966
0.0105,1.79724375,1.0,1439.671232185743,0.11142402824880611,1.346083799540332,0.7406469140970038,0.2885372375,0.6180676138256609
0.011,1.796975,1.0,1511.3195752428924,0.1164082366113953,1.3450765858788842,0.7565294413336181,0.28852595000000003,0.6202874677237661
0.0115,1.79669375,1.0,1580.1059173739145,0.12136448728816035,1.344118663393223,0.7710389637115553,0.2885141375,0.6223926833688194
0.012,1.7964,1.0,1646.055722362301,0.12629293806218736,1.3432061800381834,0.7843158466040873,0.28850180000000003,0.6243925956109633
0.0125,1.79609375,1.0,1709.1787255149313,0.13119374423934435,1.3423359802225472,0.7964855340689827,0.2884889375,0.6262948872610581
0.013000000000000001,1.7957750000000001,1.0,1769.5001306314218,0.13606706031778928,1.3415051452716193,0.8076597336547008,0.28847555,0.6281066191103641
0.0135,1.79544375,1.0,1827.0765266057542,0.14091304074717673,1.3407107617456546,0.8179377255890197,0.2884616375,0.6298347475468615
0.014,1.7951000000000001,1.0,1881.9799855109582,0.14573183895917569,1.339950064277002,0.8274077616135187,0.2884472,0.6314858220601476
0.0145,1.79474375,1.0,1934.285073469636,0.150523608367233,1.3392205373903765,0.8361483403638296,0.2884322375,0.6330657749125771
0.015,1.794375,1.0,1984.0515308407678,0.1552884995058859,1.3385200595599969,0.8442293695050868,0.28841675,0.6345796214142098
0.0155,1.79399375,1.0,2031.3574867970042,0.16002666290967174,1.3378465092600806,0.8517130367235309,0.2884007375,0.6360323220050328
0.016,1.7936,1.0,2076.2870742430728,0.16473824820378455,1.3371978775521716,0.8586547559864419,0.2883842,0.6374285439231847
0.0165,1.7931937500000001,1.0,2118.9376298363736,0.16942340589062657,1.3365721728193958,0.8651039416554935,0.2883671375,0.6387728714401493
0.017,1.792775,1.0,2159.3976429664713,0.17408228489333227,1.335967631841426,0.8711047779532456,0.28834955,0.6400693569989289
0.0175,1.7923437500000001,1.0,2197.733603577118,0.17871503112751608,1.3353828306696054,0.8766968627528637,0.2883314375,0.6413212911098304
0.018000000000000002,1.7919,1.0,2234.0213782015358,0.18332179050879238,1.3348163453552773,0.8819156523263196,0.2883128,0.6425319352134429
0.0185,1.79144375,1.0,2268.3454310092457,0.18790270895277555,1.334266751949785,0.8867929450723561,0.2882936375,0.6437045234086125
0.019,1.790975,1.0,2300.793214840617,0.19245793174847486,1.333732674768114,0.8913573168107696,0.28827395,0.6448421613269142
0.0195,1.79049375,1.0,2331.450475931171,0.19698760368377652,1.3332128241976187,0.8956344992860257,0.2882537375,0.6459477480556342
0.02,1.79,1.0,2360.401622326914,0.20149186921761872,1.332705984344229,0.8996476992088414,0.288233,0.6470240050431685
0.0205,1.78949375,1.0,2387.709847493207,0.20597086935472114,1.3322111987403897,0.9034179207703525,0.2882117375,0.6480730849217898
0.021,1.788975,1.0,2413.442763368258,0.2104247450998035,1.331727510918546,0.9069641527418386,0.28818995000000003,0.649097125318195
0.021500000000000002,1.78844375,1.0,2437.6720351645986,0.21485363745758546,1.3312539644111432,0.9103035894951406,0.2881676375,0.6500982495596336
0.022,1.7879,1.0,2460.469412090864,0.219257686792983,1.3307896374490742,0.9134518320715252,0.2881448,0.6510784941208867
0.0225,1.78734375,1.0,2481.902637267892,0.22363703259988574,1.3303336781037316,0.9164230651575134,0.28812143749999997,0.6520397356838656
0.023,1.786775,1.0,2502.049610668669,0.22799181600367557,1.329885165623423,0.9192301805309742,0.28809755,0.6529839843801237
0.0235,1.78619375,1.0,2520.961804174978,0.23232217292889107,1.3294434553238663,0.9218849732336352,0.28807313749999996,0.6539126586233154
0.024,1.7856,1.0,2538.6927813512502,0.23662823930007082,1.3290079025207784,0.92439820471395,0.2880482,0.6548271686188711
0.0245,1.78499375,1.0,2555.29802413392,0.24091015104175337,1.3285778625298772,0.926779707631771,0.2880227375,0.6557289166304118
0.025,1.784375,1.0,2570.8347687364903,0.2451680440784773,1.3281526906668797,0.929038478766999,0.28799675,0.6566192972196658
0.025500000000000002,1.78374375,1.0,2585.3593805712844,0.24940205395454157,1.327731765318084,0.9311827652006641,0.2879702375,0.6574996492394525
0.026000000000000002,1.7831000000000001,1.0,2598.9250687835965,0.25361231501574655,1.3273145075713497,0.9332201399863541,0.2879432,0.6583712153486124
0.0265,1.78244375,1.0,2611.5783236187403,0.257798960136343,1.3269004125766983,0.9351575715635557,0.2879156375,0.6592350773507156
0.027,1.781775,1.0,2623.3592103467117,0.2619621211487794,1.3264890449138,0.9370014801587817,0.28788755,0.6600921669364626
0.0275,1.7810943476169396,1.0,2634.3378693475765,0.26610192988550413,1.3260799691623253,0.9387577786338296,0.28785896259991145,0.660943411068549
0.028,1.7804107129013393,1.0,2644.984277343826,0.2702185156210841,1.325672826027262,0.9404319294775487,0.28783024994185624,0.6617895739394664
0.0285,1.779727078185739,1.0,2655.438331556083,0.27431201313806075,1.3252676533456487,0.9420290349592243,0.28780153728380103,0.6626305921142057
0.029,1.7790434434701388,1.0,2665.699531786662,0.27838255056378763,1.3248644440930832,0.9435538006804928,0.2877728246257458,0.6634664954212117
0.029500000000000002,1.7783598087545387,1.0,2675.7684395593124,0.28243025524377446,1.3244631817880963,0.9450105783033457,0.2877441119676906,0.6642973331120688
0.03,1.7776761740389384,1.0,2685.6456552776563,0.28645525452353093,1.3240638499492177,0.9464033981887886,0.2877153993096354,0.6651231541967186
0.0305,1.7769925393233381,1.0,2695.331817516819,0.2904576757485668,1.3236664320949774,0.9477359971963156,0.2876866866515802,0.6659440074454956
0.031,1.7763089046077378,1.0,2704.8276023210406,0.29443764626439173,1.3232709117439059,0.9490118437518715,0.287657973993525,0.6667599413911474
0.0315,1.7756252698921375,1.0,2714.135128083673,0.29839528571759566,1.3228772596022607,0.950234156452013,0.2876292613354698,0.6675710307134388
0.032,1.7749416351765372,1.0,2723.255936158216,0.30233072837776515,1.3224854520416134,0.9514059341847606,0.2876005486774146,0.6683773380788147
0.0325,1.774258000460937,1.0,2732.192588631424,0.3062441029534725,1.3220954565255525,0.9525299660765838,0.2875718360193593,0.6691789441504973
0.033,1.7735743657453367,1.0,2740.948862288048,0.3101355300449228,1.3217072299127797,0.953608847782771,0.28754312336130416,0.6699759509625189
0.0335,1.7728907310297364,1.0,2749.5285854798126,0.31400513025232135,1.321320729061997,0.9546450006694909,0.2875144107032489,0.6707684600607995
0.034,1.772207096314136,1.0,2757.9356364551913,0.31785302417587336,1.3209359108319063,0.9556406856004442,0.2874856980451937,0.671556572507955
0.0345,1.771523461598536,1.0,2766.173941728449,0.321679332415784,1.3205527320812092,0.9565980154782379,0.2874569853871385,0.6723403888879864
0.035,1.7708398268829357,1.0,2774.2474744912624,0.3254841755722586,1.320171149668608,0.9575189666660561,0.2874282727290833,0.6731200093108478
0.035500000000000004,1.7701561921673354,1.0,2782.160253065146,0.32926767424550235,1.319791120452804,0.9584053894013028,0.28739956007102807,0.6738955334169014
0.036000000000000004,1.7694725574517352,1.0,2789.9163393949752,0.3330299490357204,1.3194126012924994,0.9592590173006683,0.28737084741297286,0.6746670603812464
0.0365,1.7687889227361349,1.0,2797.519837584106,0.336771120543118,1.319035549046396,0.960081476045287,0.28734213475491766,0.6754346889179357
0.037,1.7681052880205346,1.0,2804.9720135681246,0.340491289196701,1.3186599463868798,0.9608742894596559,0.28731342209686245,0.6761984648236955
0.0375,1.7674216533049343,1.0,2812.2755767944745,0.3441905589157371,1.3182857632780718,0.9616388884841826,0.28728470943880724,0.6769584594849977
0.038,1.766738018589334,1.0,2819.4434711575877,0.3478691056466935,1.317912878430115,0.9623766244789381,0.28725599678075203,0.6777149289804811
0.0385,1.7660543838737337,1.0,2826.4788488807408,0.3515270394511134,1.317541258738466,0.9630887631015428,0.2872272841226968,0.6784679496134902
0.039,1.7653707491581336,1.0,2833.3848914832733,0.35516447039053994,1.3171708710985808,0.96377649588529,0.2871985714646416,0.6792175973423707
0.0395,1.7646871144425333,1.0,2840.1648088642382,0.35878150852651625,1.3168016824059152,0.9644409453826487,0.2871698588065864,0.6799639477831048
0.04,1.764003479726933,1.0,2846.821838409952,0.3623782639205856,1.3164336595559254,0.9650831698989276,0.2871411461485312,0.6807070762118773
0.0405,1.7633198450113328,1.0,2853.3592441263445,0.36595484663429095,1.3160667694440678,0.965704167852757,0.287112433490476,0.6814470575675718
0.041,1.7626362102957325,1.0,2859.780315795405,0.3695113667291756,1.315700978965798,0.9663048817964548,0.28708372083242073,0.6821839664541988
0.0415,1.7619525755801322,1.0,2866.0883681560936,0.3730479342667826,1.3153362550165728,0.966886202126079,0.2870550081743656,0.6829178771432493
0.042,1.761268940864532,1.0,2872.2867401086796,0.37656465930865524,1.3149725644918475,0.9674489705081047,0.2870262955163103,0.6836488635759852
0.0425,1.7605853061489316,1.0,2878.3787939450913,0.38006165191633656,1.3146098742870789,0.9679939830470652,0.2869975828582551,0.6843769993656519
0.043000000000000003,1.7599016714333313,1.0,2884.3679146018117,0.38353902215136976,1.3142481512977224,0.968521993216189,0.2869688702001999,0.6851023577996294
0.043500000000000004,1.759218036717731,1.0,2890.257508938053,0.3869968800752979,1.3138873624192349,0.9690337145709956,0.2869401575421447,0.6858250118415048
0.044,1.7585344020021307,1.0,2896.051005038057,0.3904353357496642,1.3135274745470717,0.9695298232639448,0.2869114448840895,0.6865450341330845
0.0445,1.7578507672865307,1.0,2901.7518515374936,0.3938544992360119,1.3131684545766895,0.9700109603765682,0.2868827322260343,0.6872624969963264
0.045,1.7571671325709304,1.0,2907.3635169743916,0.39725448059588403,1.3128102694035442,0.9704777340840104,0.28685401956797907,0.6879774724352108
0.0455,1.75648349785533,1.0,2912.889489164302,0.4006353898908238,1.3124528859230917,0.9709307216655505,0.28682530690992386,0.6886900321375364
0.046,1.7557998631397298,1.0,2918.333274599487,0.40399733718237435,1.3120962710307882,0.9713704713734599,0.28679659425186865,0.689400247476648
0.0465,1.7551162284241295,1.0,2923.6983978730173,0.4073404325320788,1.31174039162209,0.971797504171455,0.28676788159381345,0.690108189513093
0.047,1.7544325937085292,1.0,2928.9836119332736,0.41066474727151814,1.3113852566158426,0.9722123132997226,0.28673916893575824,0.6908138455430034
0.0475,1.753748958992929,1.0,2934.1946374611803,0.4139704170053328,1.3110308138457665,0.9726153720196395,0.28671045627770303,0.6915173241021689
0.048,1.7530653242773286,1.0,2939.336109495271,0.4172575656381916,1.310677020869487,0.9730071298219246,0.2866817436196478,0.692218713978509
0.0485,1.7523816895617284,1.0,2944.4097143917925,0.420526291847944,1.3103238612244577,0.9733880133313374,0.28665303096159256,0.6929180521516057
0.049,1.7516980548461283,1.0,2949.4171477076675,0.4237766943124396,1.3099713184481325,0.9737584290097147,0.2866243183035374,0.6936153754449185
0.0495,1.751014420130528,1.0,2954.360113971414,0.42700887170952795,1.3096193760779653,0.9741187642928424,0.28659560564548214,0.6943107205264397
0.05,1.7503307854149277,1.0,2959.240326462084,0.43022292271705864,1.3092680176514098,0.9744693886532722,0.286566892987427,0.6950041239093345
0.0505,1.7496471506993274,1.0,2964.059506992026,0.4334189460128811,1.30891722670592,0.9748106545945214,0.28653818032937173,0.6956956219525614
0.051000000000000004,1.7489635159837271,1.0,2968.81938569788,0.436597040274845,1.3085669867789491,0.9751428985816721,0.2865094676713165,0.6963852508614792
0.051500000000000004,1.7482798812681268,1.0,2973.5217008354257,0.4397573041807999,1.3082172814079513,0.9754664419129585,0.2864807550132613,0.6970730466884303
0.052000000000000005,1.7475962465525265,1.0,2978.1681985820796,0.44289983640859526,1.3078680941303806,0.9757815915365843,0.2864520423552061,0.6977590453333135
0.0525,1.7469126118369263,1.0,2982.7606328445822,0.44602473563608064,1.3075194084836905,0.9760886408166515,0.2864233296971509,0.6984432825441361
0.053,1.746228977121326,1.0,2987.3007650730024,0.44913210054110564,1.3071712080053348,0.9763878702517966,0.2863946170390957,0.6991257939175489
0.0535,1.7455453424057257,1.0,2991.790364080439,0.4522220298015198,1.3068234762327673,0.9766795481498282,0.2863659043810405,0.6998066148993638
0.054,1.7448617076901254,1.0,2996.23120586925,0.45529462209517274,1.3064761967034417,0.9769639312614224,0.2863371917229853,0.7004857807850551
0.0545,1.7441780729745253,1.0,3000.6250734627038,0.45834997609991385,1.306129352954812,0.9772412653756837,0.28630847906493007,0.701163326720243
0.055,1.743494438258925,1.0,3004.973756742949,0.4613881904935928,1.3057829285243319,0.9775117858801683,0.28627976640687486,0.7018392877011587
0.0555,1.7428108035433247,1.0,3009.2790522951996,0.4644093639540591,1.3054369069494551,0.9777757182877761,0.28625105374881965,0.7025136985750953
0.056,1.7421271688277244,1.0,3013.5427632573824,0.46741359515916225,1.3050912717676355,0.9780332787327242,0.28622234109076444,0.7031865940408379
0.0565,1.7414435341121242,1.0,3017.765086102691,0.4704009580023013,1.3047460204606933,0.978284673000054,0.28619362843270924,0.7038579815477382
0.057,1.7407598993965239,1.0,3021.9469168269247,0.4733715459783946,1.3044011444830925,0.978530099917258,0.28616491577465397,0.7045278802212482
0.0575,1.7400762646809236,1.0,3026.091889648465,0.4763254938694822,1.3040566116829129,0.9787697525378695,0.2861362031165988,0.7051963548849054
0.058,1.7393926299653233,1.0,3030.2008028423675,0.4792628899396905,1.3037124144687007,0.9790038134463249,0.28610749045854356,0.705863422505077
0.0585,1.738708995249723,1.0,3034.274457831757,0.482183822453146,1.3033685452490025,0.9792324579725812,0.28607877780048835,0.7065290999792855
0.059000000000000004,1.738025360534123,1.0,3038.313659131638,0.48508837967397506,1.3030249964323646,0.9794558545376606,0.28605006514243314,0.7071934041363694
0.059500000000000004,1.7373417258185226,1.0,3042.319214294325,0.4879766498663041,1.3026817604273337,0.9796741649801151,0.28602135248437793,0.7078563517366395
0.06,1.7366580911029224,1.0,3046.2919338562224,0.4908487212942595,1.3023388296424565,0.9798875448646014,0.2859926398263227,0.7085179594720334
0.0605,1.735974456387322,1.0,3050.232631285921,0.49370468222196773,1.3019961964862792,0.9800961437736823,0.2859639271682675,0.7091782439662648
0.061,1.7352908216717218,1.0,3054.142122933285,0.49654462091355517,1.301653853367348,0.9803001055838844,0.2859352145102123,0.7098372217749696
0.0615,1.7346071869561215,1.0,3058.021227980069,0.49936862563314827,1.30131179269421,0.9804995687269795,0.2859065018521571,0.7104949093858466
0.062,1.7339235522405212,1.0,3061.8707683917373,0.5021767846448734,1.3009700068754113,0.9806946664373829,0.2858777891941019,0.7111513232187974
0.0625,1.733239917524921,1.0,3065.6915688705312,0.504969186212857,1.3006284883194985,0.9808855269865093,0.2858490765360467,0.7118064796260624
0.063,1.7325562828093206,1.0,3069.4844568100166,0.5077459186012254,1.300287229435018,0.9810722739048641,0.2858203638779915,0.7124603948923496
0.0635,1.7318726480937203,1.0,3073.2502622504285,0.5105070700741051,1.2999462226305163,0.9812550261925995,0.28579165121993627,0.7131130852349642
0.064,1.73118901337812,1.0,3076.989817835845,0.5132527288956226,1.2996054603145402,0.9814338985192158,0.28576293856188106,0.7137645668039302
0.0645,1.73050537866252,1.0,3080.7039587724335,0.5159829833299041,1.2992649348956355,0.9816090014130427,0.28573422590382586,0.7144148556821143
0.065,1.7298217439469197,1.0,3084.3935227876264,0.5186979216410762,1.2989246387823494,0.9817804414410934,0.28570551324577065,0.7150639678853378
0.0655,1.7291381092313194,1.0,3088.059350091232,0.5213976320932652,1.298584564383228,0.9819483213798491,0.2856768005877154,0.7157119193624938
0.066,1.728454474515719,1.0,3091.7022833374117,0.5240822029505976,1.298244704106818,0.9821127403774923,0.28564808792966023,0.7163587259956525
0.0665,1.7277708398001188,1.0,3095.322856774498,0.5267517126773706,1.2979050530146443,0.9822737935868561,0.28561937527160497,0.717004398559764
0.067,1.7270872050845185,1.0,3098.9206457266346,0.5294062171435158,1.2975656143625542,0.9824315717769249,0.28559066261354976,0.7176489322354453
0.0675,1.7264035703689182,1.0,3102.497738904915,0.5320458531267238,1.2972263699729016,0.9825861668222463,0.28556194995549455,0.7182923628594764
0.068,1.725719935653318,1.0,3106.054514590741,0.5346706994026117,1.2968873162865349,0.9827376643870267,0.28553323729743935,0.7189346984316933
0.0685,1.7250363009377176,1.0,3109.591352267347,0.5372808347467964,1.2965484497443025,0.982886147232873,0.28550452463938414,0.719575946920443
0.069,1.7243526662221174,1.0,3113.1086326047885,0.5398763379348951,1.2962097667870534,0.9830316953372618,0.28547581198132893,0.7202161162626259
0.0695,1.7236690315065173,1.0,3116.6067374454888,0.5424572877425246,1.2958712638556358,0.983174386006385,0.2854470993232737,0.7208552143637397
0.07,1.722985396790917,1.0,3120.0860497898216,0.5450237629453019,1.2955329373908984,0.9833142939826875,0.2854183866652185,0.7214932490979189
0.07050000000000001,1.7223017620753167,1.0,3123.546953782083,0.5475758423188438,1.29519478383369,0.9834514915473666,0.2853896740071633,0.7221302283079754
