Time [s],Phi [rad],STIM [ ],Fsee [N],Gamma [ ],Lcerel [ ],q [ ],Lmtc [m],fisomrel [ ]
0.0,1.8,1.0,18.006727285580737,0.00020184233576250044,1.3793353155932513,0.00501060334735774,0.288653,0.5411502498206902
0.0005,1.79999375,1.0,18.37871440324034,0.005809919468714472,1.379291076633761,0.013481682449917126,0.2886527375,0.541257267812508
0.001,1.799975,1.0,21.862815256634395,0.01138653972296673,1.3789134069820945,0.03661526218256928,0.28865195,0.5421703763049158
0.0015,1.79994375,1.0,31.6209877558578,0.016931879547707012,1.3779994032398823,0.07197514709563618,0.2886506375,0.5443764386170052
0.002,1.7999,1.0,54.745764567068676,0.022446114400285298,1.3762930630827148,0.11634150741269877,0.2886488,0.5484806462877169
0.0025,1.79984375,1.0,99.0530082687222,0.027929418754899533,1.3738424284469628,0.16633925758340623,0.28864643749999996,0.5543425978726961
0.003,1.7997750000000001,1.0,163.46098783808728,0.03338196610866771,1.3711210221605825,0.21909949757342043,0.28864354999999997,0.560807356219657
0.0035,1.79969375,1.0,240.5036336761748,0.03880392898261304,1.3684981176528563,0.272421326387272,0.2886401375,0.5669934224690741
0.004,1.7996,1.0,324.4628296467147,0.044195478931988406,1.3660769222929217,0.3246662963043303,0.2886362,0.572664818126729
0.0045000000000000005,1.7994937500000001,1.0,412.36723442635605,0.0495567865516101,1.3638501947033024,0.37469579274470344,0.2886317375,0.5778476907345949
0.005,1.799375,1.0,502.57378833105105,0.05488802146772672,1.3617912924762337,0.4218014518667292,0.28862675,0.5826118006644655
0.0055,1.79924375,1.0,593.976759328322,0.060189352376535124,1.3598766653517234,0.46561228131379634,0.2886212375,0.5870178116560067
0.006,1.7991000000000001,1.0,685.7057091626082,0.06546094700981904,1.358088540143813,0.5060019115503654,0.2886152,0.5911115989083956
0.006500000000000001,1.79894375,1.0,777.0474469028915,0.07070297215138438,1.3564132598628926,0.5430094155487049,0.2886086375,0.5949285337815886
0.007,1.798775,1.0,867.4124323669158,0.0759155937158358,1.3548399356398582,0.5767782136337342,0.28860155,0.5984968752394813
0.0075,1.79859375,1.0,956.3116165991281,0.0810989764992752,1.3533596219280521,0.607511702568991,0.2885939375,0.6018398520116839
0.008,1.7984,1.0,1043.366651197039,0.08625328476124688,1.3519643886799486,0.6354422584413488,0.2885858,0.6049778989194836
0.0085,1.79819375,1.0,1128.2559572884484,0.09137868133326732,1.3506476246010277,0.6608112336680269,0.2885771375,0.6079280719440585
0.009000000000000001,1.797975,1.0,1210.7352392710422,0.09647532835179834,1.3494033200473328,0.6838557616300635,0.28856795,0.6107057396042767
0.0095,1.79774375,1.0,1290.6453706022824,0.10154338752149565,1.3482257115189746,0.7048010067934449,0.2885582375,0.6133254267764792
0.01,1.7975,1.0,1367.8441879154757,0.10658301873329122,1.3471099936632338,0.7238565068477858,0.288548,0.6157992739129776
0.0105,1.79724375,1.0,1442.2440202854102,0.11159438134981654,1.3460516136272112,0.7412140247656577,0.2885372375,0.61813865021047
0.011,1.796975,1.0,1513.81161269514,0.11657763449126958,1.3450461570756997,0.7570472134203974,0.28852595000000003,0.6203544307630471
0.0115,1.79669375,1.0,1582.5230009661725,0.12153293569312576,1.3440897984997517,0.7715124207003277,0.2885141375,0.622456028598215
0.012,1.7964,1.0,1648.3719541396476,0.12646044125075379,1.3431790784694917,0.7847496429227214,0.28850180000000003,0.6244519135868318
0.0125,1.79609375,1.0,1711.385432722624,0.13136030699563636,1.3423106407108465,0.79688372987935,0.2884889375,0.6263502080871486
0.013000000000000001,1.7957750000000001,1.0,1771.6214530996424,0.13623268895111135,1.3414812044710995,0.8080257953743575,0.28847555,0.6281587595439002
0.0135,1.79544375,1.0,1829.1276373994613,0.1410777411208522,1.3406879805615621,0.818274780900217,0.2884616375,0.6298842471329231
0.014,1.7951000000000001,1.0,1883.9506046825386,0.1458956159645035,1.339928498309883,0.8277186973283617,0.2884472,0.6315325766479207
0.0145,1.79474375,1.0,1936.1609773546509,0.15068646594170976,1.33920028704371,0.8364357359634645,0.2884322375,0.6331095831296706
0.015,1.794375,1.0,1985.8365255656058,0.15545044261556437,1.3385010334416625,0.8444954543844171,0.28841675,0.6346206962975973
0.0155,1.79399375,1.0,2033.0746652325147,0.16018769817124648,1.3378284201220625,0.8519597331858031,0.2884007375,0.6360712964216557
0.016,1.7936,1.0,2077.947455836747,0.1648983818055866,1.3371805768077991,0.8588838204847369,0.2883842,0.637465748161862
0.0165,1.7931937500000001,1.0,2120.5268812557624,0.1695826417325833,1.3365557805346504,0.8653170203075179,0.2883671375,0.6388080567242099
0.017,1.792775,1.0,2160.8973705460144,0.17424062616623515,1.335952308338394,0.8713033524303471,0.28834955,0.6401021891648746
0.0175,1.7923437500000001,1.0,2199.1467787529655,0.17887248249512838,1.3353685178217085,0.8768821987178106,0.2883314375,0.641351904509153
0.018000000000000002,1.7919,1.0,2235.3695437189003,0.18347835861379447,1.334802802151149,0.88208883639019,0.2883128,0.6425608535450846
0.0185,1.79144375,1.0,2269.6458437900637,0.18805840024810822,1.3342537875689162,0.8869549655915516,0.2882936375,0.6437321603821232
0.019,1.790975,1.0,2302.04566781336,0.1926127511378827,1.3337202767884047,0.8915091061282464,0.28827395,0.6448685486615772
0.0195,1.79049375,1.0,2332.6455122883367,0.19714155502293085,1.3332010725230092,0.8957769186697715,0.2882537375,0.6459727208849373
0.02,1.79,1.0,2361.5278358456394,0.20164495564306562,1.3326949774861248,0.8997815293004904,0.288233,0.6470473595519992
0.0205,1.78949375,1.0,2388.7650051623737,0.2061230946644633,1.332200945385473,0.9035438468183835,0.2882117375,0.6480948083067537
0.021,1.788975,1.0,2414.449785774576,0.21057611687489192,1.3317177775601698,0.9070827442166987,0.28818995000000003,0.6491177169979008
0.021500000000000002,1.78844375,1.0,2438.6443440745247,0.21500416193944308,1.3312446133541074,0.91041538193071,0.2881676375,0.6501180042215814
0.022,1.7879,1.0,2461.408853260676,0.21940736871997277,1.3307806444089196,0.9135573340229316,0.2881448,0.6510974658304205
0.0225,1.78734375,1.0,2482.806571822827,0.22378587607833705,1.3303250623662406,0.9165227473225004,0.28812143749999997,0.6520578863926635
0.023,1.786775,1.0,2502.903584808137,0.2281398228763919,1.3298770588677047,0.9193244919800568,0.28809755,0.6530010396453856
0.0235,1.78619375,1.0,2521.762508782444,0.2324693467364765,1.329435882774872,0.9219743044207048,0.28807313749999996,0.6539285686873112
0.024,1.7856,1.0,2539.4477865376157,0.2367745858629534,1.329000787110401,0.9244828947411236,0.2880482,0.6548420984717366
0.0245,1.78499375,1.0,2556.0239132278903,0.24105567818916712,1.3285710437600542,0.9268600527763305,0.2880227375,0.6557432053648871
0.025,1.784375,1.0,2571.5369707586956,0.2453127573236202,1.3281461143501965,0.9291147674255158,0.28799675,0.6566330600665427
0.025500000000000002,1.78374375,1.0,2586.034488946928,0.2495459568748153,1.3277254605071926,0.9312552748503324,0.2879702375,0.6575128269622084
0.026000000000000002,1.7831000000000001,1.0,2599.5653238885243,0.2537554104512549,1.3273085438574075,0.933289131730567,0.2879432,0.6583836642791567
0.0265,1.78244375,1.0,2612.1795427518878,0.25794125166144155,1.326894826027206,0.9352232804972149,0.2879156375,0.6592467242239883
0.027,1.781775,1.0,2623.924239860029,0.26210361298471846,1.3264838064222566,0.9370641128708362,0.28788755,0.6601030744388855
0.0275,1.7810937500000001,1.0,2634.8421423686973,0.2662426261858981,1.326075033788008,0.9388175230928747,0.2878589375,0.6609536745540479
0.028,1.7804,1.0,2644.9885652487314,0.2703584259979577,1.3256679483495688,0.9404889317912835,0.2878298,0.6617997047760924
0.0285,1.77969375,1.0,2654.397163391255,0.2744511404496663,1.3252621977409027,0.9420833710924725,0.2878001375,0.6626419091860902
0.029,1.778975,1.0,2663.102198176091,0.27852089756979315,1.324857429595974,0.9436054922330535,0.28776995,0.6634810281769667
0.029500000000000002,1.7782437500000001,1.0,2671.138484316843,0.28256782538710745,1.3244532915487466,0.9450595993061628,0.2877392375,0.664317798479541
0.03,1.7775,1.0,2678.541339459026,0.2865920519303784,1.3240494312331843,0.9464496796148945,0.287708,0.6651529531806434
0.0305,1.77674375,1.0,2685.346536531341,0.29059370522837524,1.3236454962832513,0.9477794310108755,0.2876762375,0.6659872217333161
0.031,1.775975,1.0,2691.5859158524718,0.2945729117647334,1.3232411740861594,0.9490522911203997,0.28764395,0.6668212480082947
0.0315,1.7751937500000001,1.0,2697.2894587914993,0.2985297983644694,1.3228361722255142,0.9502714572853451,0.2876111375,0.6676556310675323
0.032,1.7744,1.0,2702.4930924336227,0.3024644927934912,1.3224301467659982,0.9514398978635236,0.2875778,0.6684910728841098
0.0325,1.77359375,1.0,2707.22024631491,0.30637711751267527,1.3220228705239776,0.9525603894026556,0.2875439375,0.6693280320774795
0.033,1.772775,1.0,2711.49456992157,0.3102677949828982,1.3216141163158173,0.9536355198062544,0.28750955,0.6701669648800892
0.0335,1.7719437500000002,1.0,2715.339911127805,0.3141366476650366,1.3212036569578829,0.9546677034180101,0.2874746375,0.6710083251176107
0.034,1.7711000000000001,1.0,2718.780295777403,0.31798379801996685,1.3207912652665403,0.9556591947289333,0.2874392,0.6718525641858806
0.0345,1.7702437500000001,1.0,2721.8399084106027,0.3218093685085657,1.3203767140581546,0.9566121008475725,0.2874032375,0.6727001310245518
0.035,1.7693750000000001,1.0,2724.5425338626483,0.32561348103212245,1.3199597810644215,0.9575283932477229,0.28736675,0.6735514620574219
0.035500000000000004,1.76849375,1.0,2726.9069434440034,0.32939625624674496,1.3195402907250215,0.9584099223391671,0.2873297375,0.6744068960566605
0.036000000000000004,1.7676,1.0,2728.951222847156,0.3331578134798473,1.3191180746156514,0.9592584223801287,0.2872922,0.6752667552729577
0.0365,1.76669375,1.0,2730.6938077265418,0.3368982710278897,1.3186929619195422,0.9600755192241267,0.2872541375,0.6761313648690983
0.037,1.765775,1.0,2732.1532101265634,0.3406177471873326,1.318264781819924,0.9608627387740694,0.28721555,0.6770010480010082
0.0375,1.76484375,1.0,2733.342675852938,0.34431636001324833,1.3178334119367168,0.9616215189268772,0.2871764375,0.6778760276041623
0.038,1.7639008633996371,1.0,2734.327301306107,0.3479942269147446,1.3173986494070145,0.9623532033428855,0.28713683626278474,0.6787566879929947
0.0385,1.7629555093646532,1.0,2735.5525377497083,0.35165146390681823,1.3169605894718002,0.963059083848004,0.28709713139331544,0.6796428084237531
0.039,1.762010155329669,1.0,2737.112363226215,0.3552881864641008,1.31651949487932,0.9637403916674023,0.2870574265238461,0.6805338308716204
0.0395,1.7610648012946848,1.0,2738.978605237265,0.35890450978551225,1.3160756238563605,0.9643982857817262,0.2870177216543768,0.6814292091958308
0.04,1.7601194472597006,1.0,2741.122233464008,0.3625005487441108,1.3156292425538485,0.9650338590332825,0.2869780167849074,0.682328384071696
0.0405,1.7591740932247166,1.0,2743.519237429455,0.3660764167009348,1.315180571603075,0.9656481377179823,0.2869383119154381,0.6832308905738484
0.041,1.7582287391897324,1.0,2746.1468058843193,0.369632226665146,1.314729820719733,0.9662420893599574,0.28689860704596876,0.6841362881049894
0.0415,1.7572833851547482,1.0,2748.9830715414955,0.37316809129091816,1.3142771909475355,0.9668166268456312,0.28685890217649945,0.6850441557720865
0.042,1.7563380311197643,1.0,2752.0076548933416,0.3766841228560647,1.313822869676053,0.9673726116265893,0.2868191973070301,0.6859541022585685
0.0425,1.75539267708478,1.0,2755.203745301156,0.38018043213527736,1.3133670117806724,0.9679108553603497,0.28677949243756073,0.6868658033407269
0.043000000000000003,1.754447323049796,1.0,2758.5549179314107,0.3836571297248878,1.3129097684412954,0.9684321257310939,0.28673978756809143,0.6877789439222415
0.043500000000000004,1.7535019690148117,1.0,2762.054247139765,0.38711431891232073,1.3124512047610712,0.9689371415680914,0.28670008269862207,0.6886933821535559
0.044,1.7525566149798277,1.0,2765.6714188722835,0.3905521217791234,1.3119915969830493,0.9694266034620463,0.28666037782915277,0.6896085567983626
0.0445,1.7516112609448435,1.0,2769.396768724129,0.3939706451533582,1.3115310343655011,0.9699011586036048,0.2866206729596834,0.6905242813366103
0.045,1.7506659069098593,1.0,2773.2219396693204,0.3973699948504294,1.311069594195368,0.9703614198347535,0.2865809680902141,0.691440394027835
0.0455,1.7497205528748754,1.0,2777.1385564665316,0.4007502766857411,1.3106073537595915,0.9708079688160575,0.28654126322074475,0.6923567340257143
0.046,1.7487751988398912,1.0,2781.138224222027,0.40411159647469763,1.3101443903451129,0.9712413579167234,0.28650155835127544,0.6932731413822011
0.0465,1.747829844804907,1.0,2785.2125270839397,0.4074540600327033,1.3096807812388738,0.9716621119726707,0.2864618534818061,0.6941894570512781
0.047,1.746884490769923,1.0,2789.3530270703777,0.41077777317516223,1.3092166037278155,0.9720707299229947,0.2864221486123368,0.6951055228923315
0.0475,1.7459391367349388,1.0,2793.5512630284798,0.4140828417174787,1.3087519350988794,0.9724676863343087,0.2863824437428674,0.6960211816731421
0.048,1.7449937826999546,1.0,2797.7987497271592,0.41736937147505704,1.3082868526390072,0.9728534328216258,0.2863427388733981,0.696936277072497
0.0485,1.7440484286649705,1.0,2802.0898094706836,0.4206374632621018,1.3078214082254487,0.9732283969904828,0.28630303400392876,0.6978507035653753
0.049,1.7431030746299865,1.0,2806.418563746893,0.42388722200956397,1.3073556553853962,0.9735929868105783,0.2862633291344594,0.698764353005783
0.0495,1.7421577205950023,1.0,2810.7758189026445,0.4271187591235341,1.3068896771818719,0.9739475938702891,0.2862236242649901,0.6996770600740002
0.05,1.741212366560018,1.0,2815.1586209082607,0.43033217388214623,1.3064235005780505,0.9742925863631392,0.2861839193955208,0.700588770068538
0.0505,1.7402670125250341,1.0,2819.5640066371884,0.4335275655635345,1.305957152537108,0.9746283155607438,0.28614421452605143,0.7014994286077321
0.051000000000000004,1.73932165849005,1.0,2823.989003755916,0.43670503344583306,1.3054906600222196,0.9749551167423078,0.2861045096565821,0.7024089816300658
0.051500000000000004,1.7383763044550657,1.0,2828.4306306290796,0.439864676807176,1.3050240499965606,0.9752733100651264,0.28606480478711277,0.7033173753944377
0.052000000000000005,1.7374309504200816,1.0,2832.885896241119,0.44300659492569744,1.3045573494233065,0.97558320138032,0.2860250999176434,0.7042245564803891
0.0525,1.7364855963850976,1.0,2837.35180013449,0.44613088707953147,1.3040905852656328,0.9758850829976972,0.2859853950481741,0.7051304717882809
0.053,1.7355402423501134,1.0,2841.8253323631584,0.4492376525468123,1.303623784486715,0.9761792344033383,0.28594569017870475,0.706035068539429
0.0535,1.7345948883151292,1.0,2846.303473463114,0.45232699060567405,1.3031569740497282,0.9764659229331974,0.28590598530923544,0.7069382942761876
0.054,1.7336495342801452,1.0,2850.7831944378727,0.4553990005342508,1.3026901809178482,0.9767454044057796,0.2858662804397661,0.7078400968619909
0.0545,1.732704180245161,1.0,2855.2642882610285,0.45845376580368663,1.302223406890185,0.977017920661678,0.2858265755702968,0.7087404729837044
0.055,1.7317588262101768,1.0,2859.743618880226,0.4614913935319235,1.3017566797706144,0.9772837071661234,0.2857868707008274,0.7096393693042566
0.0555,1.7308134721751927,1.0,2864.2171430048975,0.4645119957502394,1.3012900353262247,0.9775429904149903,0.28574716583135806,0.7105367175163338
0.056,1.7298681181402087,1.0,2868.68420639352,0.46751566402025596,1.300823479164149,0.9777959838028761,0.28570746096188876,0.7114325076006912
0.0565,1.7289227641052245,1.0,2873.1441528839177,0.4705024899035948,1.300357016891521,0.9780428919494724,0.28566775609241946,0.7123267296046765
0.057,1.7279774100702403,1.0,2877.5963244045097,0.4734725649618774,1.2998906541154742,0.9782839111321491,0.2856280512229501,0.7132193736421971
0.0575,1.7270320560352563,1.0,2882.040060986809,0.4764259807567254,1.2994243964431416,0.9785192296938302,0.28558834635348074,0.7141104298936876
0.058,1.7260867020002721,1.0,2886.4747007776623,0.4793628288497602,1.2989582494816565,0.9787490284277649,0.28554864148401143,0.7149998886060702
0.0585,1.725141347965288,1.0,2890.8995800526054,0.4822832008026036,1.2984922188381525,0.9789734809406746,0.2855089366145421,0.7158877400927184
0.059000000000000004,1.7241959939303038,1.0,2895.3140332305065,0.48518718817687706,1.2980263101197629,0.979192753995653,0.28546923174507277,0.716773974733415
0.059500000000000004,1.7232506398953198,1.0,2899.717392887706,0.48807488253420217,1.2975605289336212,0.9794070078361012,0.2854295268756034,0.71765858297431
0.06,1.7223052858603356,1.0,2904.108989774161,0.4909463754362004,1.2970948808868605,0.9796163964918858,0.2853898220061341,0.7185415553278768
0.0605,1.7213599318253516,1.0,2908.4881528291103,0.4938017584444934,1.2966293715866144,0.9798210680688251,0.28535011713666475,0.7194228823728643
0.061,1.7204145777903674,1.0,2912.8542091983786,0.4966411231207028,1.2961640066400162,0.9800211650225352,0.28531041226719545,0.7203025547542489
0.0615,1.7194692237553832,1.0,2917.206484251704,0.49946456102645004,1.295698791654199,0.9802168244175948,0.2852707073977261,0.7211805631831842
0.062,1.718523869720399,1.0,2921.5443016011322,0.5022721637233568,1.2952337322362966,0.9804081781729189,0.2852310025282567,0.7220568984369475
0.0625,1.717578515685415,1.0,2925.8677331873187,0.5050640013379377,1.2947688274083746,0.9805953513484367,0.2851912976587874,0.7229315637381756
0.063,1.716633161650431,1.0,2930.1768360950678,0.5078401641623732,1.2943040763271154,0.9807784659154702,0.2851515927893181,0.7238045620447814
0.0635,1.7156878076154467,1.0,2934.470478931773,0.5106007745631169,1.2938394885717603,0.9809576422355468,0.28511188791984876,0.7246758767725967
0.064,1.7147424535804627,1.0,2938.7487000375518,0.5133459151970166,1.2933750634481174,0.9811329928794826,0.2850721830503794,0.7255455106722357
0.0645,1.7137970995454785,1.0,2943.0115381596956,0.5160756687209204,1.2929108002619953,0.9813046263677875,0.2850324781809101,0.7264134664855787
0.065,1.7128517455104944,1.0,2947.2590324500325,0.5187901177916763,1.2924466983192027,0.9814726473460367,0.28499277331144074,0.7272797469457821
0.0655,1.7119063914755102,1.0,2951.491222462886,0.5214893450661322,1.291982756925548,0.9816371567514234,0.28495306844197144,0.7281443547772843
0.066,1.7109610374405262,1.0,2955.7081481522205,0.5241734332011362,1.2915189753868395,0.9817982519709987,0.2849133635725021,0.7290072926958141
0.0665,1.710015683405542,1.0,2959.909849869384,0.5268424648535361,1.2910553530088857,0.9819560269920706,0.2848736587030328,0.7298685634083957
0.067,1.7090703293705578,1.0,2964.096368360548,0.5294965226801802,1.2905918890974952,0.9821105725452012,0.2848339538335634,0.730728169613358
0.0675,1.7081249753355738,1.0,2968.2677447643655,0.5321356893379163,1.2901285829584765,0.9822619762402177,0.2847942489640941,0.7315861140003392
0.068,1.7071796213005896,1.0,2972.424020609267,0.5347600474835924,1.2896654338976383,0.9824103226956263,0.28475454409462475,0.7324423992502963
0.0685,1.7062342672656055,1.0,2976.5652378115115,0.5373696797740565,1.2892024412207888,0.9825556936617892,0.2847148392251554,0.7332970280355109
0.069,1.7052889132306213,1.0,2980.6914386724025,0.5399646688661566,1.2887396042337365,0.982698168138208,0.2846751343556861,0.7341500030195958
0.0695,1.7043435591956373,1.0,2984.802665875918,0.5425450974167407,1.2882769222422898,0.9828378224852371,0.2846354294862168,0.7350013268575024
0.07,1.703398205160653,1.0,2988.898962486354,0.5451110480826569,1.2878143945522573,0.9829747305305229,0.2845957246167474,0.7358510021955279
0.07050000000000001,1.702452851125669,1.0,2992.980371946115,0.5476626035207529,1.2873520204694477,0.9831089636704525,0.28455601974727807,0.7366990316713204
0.07100000000000001,1.701507497090685,1.0,2997.046938073246,0.550199846387877,1.2868897992996693,0.983240590966885,0.28451631487780876,0.7375454179138886
0.07150000000000001,1.7005621430557007,1.0,3001.0987050588606,0.5527228593408771,1.2864277303487304,0.9833696792394034,0.28447661000833946,0.7383901635436065
