Time [s],Phi [rad],STIM [ ],Fsee [N],Gamma [ ],Lcerel [ ],q [ ],Lmtc [m],fisomrel [ ]
0.0,1.8,1.0,18.337017819620545,0.0006195979582935353,1.379298520649116,0.005099018284613551,0.288653,0.5412392609483168
0.0005,1.79999375,1.0,18.835009246080777,0.0062253318125797714,1.3792408418503395,0.01471917746066356,0.2886527375,0.5413787751041002
0.001,1.799975,1.0,22.629180692168443,0.011799621932071616,1.378836243210157,0.03885563265945941,0.28865195,0.542356826627598
0.0015,1.79994375,1.0,33.08399173566017,0.017342644692124855,1.377877249493854,0.07500013390049819,0.2886506375,0.5446708683512742
0.002,1.7999,1.0,57.58286186889206,0.02285457547694851,1.3761132728802445,0.11989714984457368,0.2886488,0.5489120088115775
0.0025,1.79984375,1.0,103.56316536615239,0.028335588687454505,1.3736296224344338,0.17019028434236103,0.28864643749999996,0.5548498253810665
0.003,1.7997750000000001,1.0,169.15628928373704,0.03378585774932916,1.3709112911702674,0.22306130608732022,0.28864354999999997,0.5613036163342
0.0035,1.79969375,1.0,246.84423296077802,0.039205555110956664,1.368305222045308,0.2763539583734413,0.2886401375,0.5674466307849374
0.004,1.7996,1.0,331.1552460426601,0.04459485225558931,1.3659013865636491,0.3284685612018311,0.2886362,0.5730745386186193
0.0045000000000000005,1.7994937500000001,1.0,419.264042267583,0.04995391970495862,1.3636895786950451,0.37830121834959074,0.2886317375,0.5782203136116727
0.005,1.799375,1.0,509.5776878597412,0.05528292698920993,1.3616434422047032,0.4251720602190264,0.28862675,0.5829528721630532
0.0055,1.79924375,1.0,601.0344837166182,0.06058204283703684,1.3597395509829915,0.46873107413872295,0.2886212375,0.5873324472530475
0.006,1.7991000000000001,1.0,692.7526640006041,0.06585143477866982,1.3579610700060947,0.5088670048008569,0.2886152,0.5914026542094765
0.006500000000000001,1.79894375,1.0,784.0392019645092,0.07109126958869502,1.3562944161625505,0.5456284290817898,0.2886086375,0.5951986256740666
0.007,1.798775,1.0,874.3151801482172,0.07630171311149819,1.3547288558332127,0.5791645429418358,0.28860155,0.5987482105843744
0.0075,1.79859375,1.0,963.0873481474925,0.08148293002827468,1.3532557551606705,0.6096819407266542,0.2885939375,0.6020738885391084
0.008,1.7984,1.0,1049.9947309315921,0.08663508466190169,1.3518670986044714,0.6374141376387106,0.2885858,0.605196252932625
0.0085,1.79819375,1.0,1134.7167718674064,0.09175833965842872,1.3505564129251149,0.6626025935604107,0.2885771375,0.6081320196335344
0.009000000000000001,1.797975,1.0,1217.0142779532812,0.09685285706466168,1.3493177357756156,0.6854837783329626,0.28856795,0.6108964268896594
0.0095,1.79774375,1.0,1296.7295785673346,0.10191879855080291,1.3481453816530915,0.7062818063530448,0.2885582375,0.6135038049541559
0.01,1.7975,1.0,1373.7286824496666,0.10695632407624507,1.3470345171388955,0.7252049101553047,0.288548,0.6159663390120332
0.0105,1.79724375,1.0,1447.923799403716,0.11196559288415961,1.3459806603431186,0.7424435376837364,0.2885372375,0.6182952253461085
0.011,1.796975,1.0,1519.2785889646357,0.11694676352484927,1.3449794906643069,0.7581700518836192,0.28852595000000003,0.6205011193271537
0.0115,1.79669375,1.0,1587.7879106575797,0.12189999429281646,1.34402700097525,0.7725394501070834,0.2885141375,0.6225938220662479
0.012,1.7964,1.0,1653.4369297147152,0.12682544108417984,1.3431198808976599,0.7856906267141145,0.28850180000000003,0.6245814647091062
0.0125,1.79609375,1.0,1716.251226650008,0.13172325977532162,1.342254824698271,0.7977473827949546,0.2884889375,0.6264720502893997
0.013000000000000001,1.7957750000000001,1.0,1776.2724637868935,0.1365936051535355,1.34142876425246,0.8088199485095344,0.28847555,0.6282729558068816
0.0135,1.79544375,1.0,1833.5834574589833,0.14143663286979846,1.3406385348343526,0.8190062493316209,0.2884616375,0.6299916727866888
0.014,1.7951000000000001,1.0,1888.224207218532,0.14625249497573592,1.3398817677839823,0.8283935723650637,0.2884472,0.6316338773215406
0.0145,1.79474375,1.0,1940.2543299609952,0.15104134333792185,1.3391561334107214,0.8370594800728072,0.2884322375,0.6332050930162276
0.015,1.794375,1.0,1989.7544996695574,0.15580332982293008,1.3384593020239417,0.8450729201375807,0.28841675,0.6347107808465122
0.0155,1.79399375,1.0,2036.8045669094479,0.16053860496605832,1.3377891548108525,0.8524953027905648,0.2884007375,0.6361558893245215
0.016,1.7936,1.0,2081.509039916067,0.16524732018344543,1.337143489327908,0.859381297080962,0.2883842,0.6375454961855958
0.0165,1.7931937500000001,1.0,2123.934368040169,0.16992962324456262,1.3365206548090323,0.8657798187318385,0.2883671375,0.6388834467056765
0.017,1.792775,1.0,2164.15595653181,0.1745856617070127,1.3359190319749648,0.8717345536405205,0.28834955,0.6401734820057481
0.0175,1.7923437500000001,1.0,2202.26013087445,0.1792155831283984,1.3353370015464445,0.8772845666403635,0.2883314375,0.6414193092915812
0.018000000000000002,1.7919,1.0,2238.3299567170375,0.18381953375885235,1.3347730771898734,0.882464879233318,0.2883128,0.6426243201174207
0.0185,1.79144375,1.0,2272.4638602305236,0.18839766123244603,1.3342257062753584,0.8873068900897194,0.2882936375,0.6437920193390876
0.019,1.790975,1.0,2304.7340611108616,0.19295010948811686,1.3336936758795706,0.8918388925935968,0.28827395,0.6449251616007019
0.0195,1.79049375,1.0,2335.2113167331,0.1974770215971098,1.3331758512396221,0.8960863651850538,0.2882537375,0.6460263142562284
0.02,1.79,1.0,2363.9721322980276,0.2019785406306698,1.3326710975926253,0.9000722720385126,0.288233,0.647098025594764
0.0205,1.78949375,1.0,2391.097902179277,0.20645480960165954,1.3321782838028633,0.9038173458489784,0.2882117375,0.6481428181434452
0.021,1.788975,1.0,2416.657170653389,0.21090596918848584,1.3316964492167878,0.907340370166474,0.28818995000000003,0.6491628366612722
0.021500000000000002,1.78844375,1.0,2440.7408870590625,0.21533216356961002,1.3312244564605127,0.9106583214166633,0.2881676375,0.6501605849567537
0.022,1.7879,1.0,2463.4056407190265,0.21973353094334575,1.3307615353505542,0.9137866715648202,0.2881448,0.6511377765706126
0.0225,1.78734375,1.0,2484.7109977772952,0.22411020950800664,1.3303069157034282,0.9167394761131679,0.28812143749999997,0.6520961142808941
0.023,1.786775,1.0,2504.7192564687384,0.22846233746190636,1.329859827335651,0.9195295233790683,0.28809755,0.6530372905296381
0.0235,1.78619375,1.0,2523.495215540842,0.23279005300335853,1.3294195000637385,0.9221684662773929,0.28807313749999996,0.6539629878117238
0.024,1.7856,1.0,2541.0977361078203,0.23709349228361157,1.328985241138495,0.9246669518100585,0.2880482,0.6548747165594588
0.0245,1.78499375,1.0,2557.5913150343076,0.24137279424557773,1.3285563233909217,0.9270347052459668,0.2880227375,0.6557740508923473
0.025,1.784375,1.0,2573.029502598381,0.2456280945076514,1.3281321393573757,0.9292806456240266,0.28799675,0.6566623058697441
0.025500000000000002,1.78374375,1.0,2587.4578831546264,0.24985952599244066,1.3277121701801609,0.9314129596748635,0.2879702375,0.6575406043233716
0.026000000000000002,1.7831000000000001,1.0,2600.9233316894465,0.25406722162255346,1.3272958970015811,0.9334391594164053,0.2879432,0.6584100631566658
0.0265,1.78244375,1.0,2613.4739033772207,0.2582513143205979,1.3268828009639402,0.9353661468650769,0.2879156375,0.6592717934756667
0.027,1.781775,1.0,2625.1587291054548,0.2624119370091819,1.3264723632095419,0.9372002717514599,0.28788755,0.6601269007027327
0.0275,1.7810937500000001,1.0,2636.020001574414,0.2665492205349888,1.326064138093192,0.9389473932429311,0.2878589375,0.6609763324283926
0.028,1.7804,1.0,2646.1011160527555,0.2706632972582137,1.325657676475914,0.9406129150174232,0.2878298,0.6618210387509851
0.0285,1.77969375,1.0,2655.4548797610755,0.2747543008479403,1.3252524494070541,0.9422018155682857,0.2878001375,0.6626621305953817
0.029,1.778975,1.0,2664.1126993152484,0.2788223583953906,1.3248481316059242,0.9437187233728869,0.28776995,0.6635002914290185
0.029500000000000002,1.7782437500000001,1.0,2672.1065067477275,0.28286759699178693,1.3244443977918363,0.9451679217671555,0.2877392375,0.6643362013440456
0.03,1.7775,1.0,2679.4687134103247,0.28689014372835137,1.3240409226841023,0.9465533790967298,0.287708,0.6651705370728176
0.0305,1.77674375,1.0,2686.2321662227746,0.29089012569630607,1.3236373810020348,0.947878775876225,0.2876762375,0.666003971996632
0.031,1.775975,1.0,2692.4301062672794,0.29486766998687325,1.3232334474649452,0.9491475292860029,0.28764395,0.6668371761477249
0.0315,1.7751937500000001,1.0,2698.0961297287995,0.298822903691275,1.3228287967921462,0.9503628152963233,0.2876111375,0.6676708162045129
0.032,1.7744,1.0,2703.257417226981,0.30275594920981885,1.322423165208396,0.9515275947456113,0.2875778,0.6685054290082889
0.0325,1.77359375,1.0,2707.9487294912606,0.30666693699033487,1.322016222143019,0.952644619326425,0.2875439375,0.6693416858314346
0.033,1.772775,1.0,2712.192999327686,0.31055598941316687,1.3216077472232484,0.9537164645834075,0.28750955,0.6701800284629693
0.0335,1.7719437500000002,1.0,2716.0117340511215,0.3144232276450236,1.3211975348181988,0.9547455348357707,0.2874746375,0.671020866156607
0.034,1.7711000000000001,1.0,2719.4266096803785,0.318268772852614,1.3207853792969857,0.9557340753479109,0.2874392,0.6718646059607432
0.0345,1.7702437500000001,1.0,2722.4594535917586,0.322092746202647,1.3203710750287236,0.956684184726796,0.2874032375,0.6727116526943238
0.035,1.7693750000000001,1.0,2725.13222810924,0.3258952688618314,1.3199544163825276,0.957597826214614,0.28736675,0.6735624089200132
0.035500000000000004,1.76849375,1.0,2727.4670150328925,0.32967646199687606,1.3195351977275127,0.9584768379866813,0.2873297375,0.6744172749146663
0.036000000000000004,1.7676,1.0,2729.47979891281,0.3334364408402612,1.3191132698085448,0.95932294699431,0.2872922,0.6752765339033766
0.0365,1.76669375,1.0,2731.191626176235,0.337175326632005,1.3186884381333448,0.9601377696129109,0.2872541375,0.6761405593116367
0.037,1.765775,1.0,2732.6306623853843,0.34089324864546305,1.318260444256548,0.9609228183301218,0.28721555,0.6770098521097727
0.0375,1.76484375,1.0,2733.809370789996,0.3445903210091376,1.3178291730199438,0.9616795245793629,0.2871764375,0.6778846198260797
0.038,1.7639,1.0,2734.7402641042745,0.34826665785153077,1.3173945092653216,0.9624092339223403,0.28713679999999997,0.6787650685211277
0.0385,1.76294375,1.0,2735.435898608359,0.3519223733011449,1.3169563378344706,0.9631132121393836,0.28709663750000003,0.6796514027632683
0.039,1.761975,1.0,2735.908868543685,0.3555575814864821,1.3165145435691799,0.963792650824115,0.28705595,0.6805438256032964
0.0395,1.7609937500000001,1.0,2736.1718008028324,0.3591723965360446,1.316069011311239,0.9644486725277014,0.2870147375,0.681442538548265
0.04,1.76,1.0,2736.237349912744,0.36276693257833464,1.3156196259024369,0.9650823354933866,0.286973,0.6823477415344573
0.0405,1.7589937500000001,1.0,2736.118193312552,0.3663413037418545,1.315166272184563,0.965694638017944,0.2869307375,0.6832596328995089
0.041,1.757975,1.0,2735.8270269249197,0.36989562415510624,1.3147088349994067,0.9662865224730682,0.28688795,0.6841784093536869
0.0415,1.75694375,1.0,2735.376561021785,0.37343000794659226,1.314247199188757,0.9668588790165014,0.2868446375,0.6851042659503244
0.042,1.7559,1.0,2734.7770476009405,0.3769445650035335,1.313781272013043,0.9674125501913228,0.28680079999999997,0.6860373511922089
0.0425,1.75484375,1.0,2734.0371263375223,0.38043940426544715,1.3133109754512122,0.9679483339363643,0.2867564375,0.686977782722608
0.043000000000000003,1.753775,1.0,2733.1724229986658,0.3839146484392483,1.3128361680841427,0.9684669824342267,0.28671155,0.6879258033750957
0.043500000000000004,1.75269375,1.0,2732.1893554387484,0.3873704041474917,1.3123567921430248,0.9689692121019641,0.28666613750000003,0.6888814872516557
0.044,1.7516,1.0,2731.094344928749,0.39080677801273195,1.3118727898590479,0.9694557017456698,0.2866202,0.6898449073518309
0.0445,1.75049375,1.0,2729.893814815409,0.39422387665752395,1.3113841034634015,0.9699270949032903,0.2865737375,0.6908161355557834
0.045,1.7493750000000001,1.0,2728.594189252419,0.3976218067044223,1.3108906751872755,0.9703840020192817,0.28652675,0.6917952426071428
0.0455,1.74824375,1.0,2727.201892006742,0.40100067477598184,1.3103924472618595,0.9708270024647012,0.2864792375,0.6927822980956433
0.046,1.7471,1.0,2725.7233453390645,0.4043605874947572,1.309889361918343,0.9712566464151174,0.2864312,0.693777370439548
0.0465,1.7459437500000001,1.0,2724.1649689572805,0.40770165148330306,1.3093813613879157,0.9716734565976134,0.28638263750000004,0.6947805268678569
0.047,1.744775,1.0,2722.533179044564,0.4110239733641742,1.3088683879017675,0.9720779299171761,0.28633355,0.6957918334023063
0.0475,1.74359375,1.0,2720.834387362118,0.41432765975992536,1.308350383691088,0.9724705389718539,0.28628393750000003,0.6968113548391546
0.048,1.7424,1.0,2719.07386715227,0.41761281192375804,1.3078273013078088,0.9728517335160838,0.2862338,0.6978391344692332
0.0485,1.74119375,1.0,2717.2546799837673,0.4208795208394852,1.3072991134115455,0.9732219418785034,0.2861831375,0.698875175052545
0.049,1.739975,1.0,2715.387777629651,0.4241279205905362,1.3067657207384062,0.9735815723587335,0.28613195,0.699919619195938
0.0495,1.73874375,1.0,2713.4761467512003,0.427358109638087,1.3062270965149683,0.973931014626618,0.2860802375,0.7009724660714678
0.05,1.7375,1.0,2711.5227710612326,0.4305701864433137,1.3056832139678076,0.9742706402056387,0.286028,0.7020337139614526
0.0505,1.73624375,1.0,2709.5306310861333,0.4337642494673923,1.3051340463235013,0.9746008034778253,0.2859752375,0.7031033602495134
0.051000000000000004,1.734975,1.0,2707.5027039444367,0.4369403971714988,1.3045795668086257,0.9749218426243472,0.28592195,0.7041814014115749
0.051500000000000004,1.73369375,1.0,2705.4419631409683,0.44009872801680927,1.304019748649758,0.9752340805064456,0.2858681375,0.7052678330068175
0.052000000000000005,1.7324,1.0,2703.3513783769135,0.44323934046449975,1.3034545650734741,0.9755378254909739,0.2858138,0.7063626496685863
0.0525,1.73109375,1.0,2701.2339153759167,0.44636233297574623,1.3028839893063513,0.9758333722244888,0.28575893750000003,0.707465845095249
0.053,1.729775,1.0,2699.092535725833,0.44946780401172487,1.302307994574966,0.9761210023595109,0.28570355000000003,0.7085774120410151
0.0535,1.72844375,1.0,2696.930196736578,0.4525558520336116,1.3017265541058949,0.9764009852362996,0.2856476375,0.7096973423067043
0.054,1.7271,1.0,2694.749851313933,0.45562657550258245,1.3011396411257146,0.9766735785232221,0.2855912,0.7108256267304714
0.0545,1.7257437500000001,1.0,2692.5544478487836,0.45868007287981344,1.3005472288610018,0.9769390288185619,0.2855342375,0.7119622551784841
0.055,1.724375,1.0,2690.346930122909,0.4617164426264807,1.2999492905383332,0.9771975722163895,0.28547675,0.7131072165355568
0.0555,1.72299375,1.0,2688.1302372302,0.46473578320376024,1.2993457993842852,0.9774494348389294,0.2854187375,0.7142604986957375
0.056,1.7216,1.0,2685.9019668142464,0.46773816432563564,1.298736777526108,0.9776948335299122,0.2853602,0.7154219953868515
0.0565,1.72019375,1.0,2683.666518549992,0.4707237042914102,1.2981221847748108,0.977933977023851,0.28530113749999997,0.7165917185749158
0.057,1.718775,1.0,2681.428433519717,0.4736925152647242,1.2975019795781189,0.9781670647793264,0.28524155,0.7177696815915197
0.0575,1.71734375,1.0,2679.188505020387,0.4766446865699386,1.29687615469884,0.9783942880051207,0.2851814375,0.7189558315409131
0.058,1.7159,1.0,2676.947525035619,0.479580307531414,1.2962447028997823,0.9786158301827175,0.2851208,0.7201501148080987
0.0585,1.71444375,1.0,2674.706284232117,0.48249946747351113,1.2956076169437531,0.9788318674380618,0.2850596375,0.7213524770562351
0.059000000000000004,1.7129750000000001,1.0,2672.465571957222,0.48540225572059076,1.2949648895935604,0.9790425688925872,0.28499795,0.7225628632240393
0.059500000000000004,1.71149375,1.0,2670.226176237731,0.4882887615970136,1.294316513612012,0.9792480969948189,0.2849357375,0.7237812175231835
0.06,1.71,1.0,2667.9888837799026,0.4911590744271404,1.2936624817619158,0.9794486078337707,0.284873,0.7250074834356903
0.0605,1.7084937500000001,1.0,2665.754479970726,0.4940132835353319,1.2930027868060792,0.979644251435269,0.2848097375,0.7262416037113244
0.061,1.7069750000000001,1.0,2663.5237488798953,0.49685147824594883,1.2923374215073102,0.9798351720422555,0.28474595,0.7274835203649784
0.0615,1.7054437500000001,1.0,2661.297473263494,0.49967374788335195,1.2916663786284164,0.9800215083800528,0.2846816375,0.7287331746740602
0.062,1.7039,1.0,2659.0764345687508,0.5024801817719019,1.290989650932206,0.9802033939075073,0.2846168,0.7299905071758701
0.0625,1.70234375,1.0,2656.8614129395264,0.5052708692359595,1.2903072311814863,0.9803809570548577,0.2845514375,0.7312554576649843
0.063,1.7007750000000001,1.0,2654.65318722329,0.5080458995998856,1.2896191121390654,0.980554321449131,0.28448555,0.7325279651906232
0.0635,1.69919375,1.0,2652.452534979681,0.5108053621880406,1.288925286567751,0.980723606127801,0.28441913750000003,0.7338079680540274
0.064,1.6976,1.0,2650.2602324889294,0.5135493463247854,1.2882257472303507,0.9808889257414076,0.2843522,0.7350954038058227
0.0645,1.69599375,1.0,2648.0770547630955,0.5162779413344809,1.2875204868896726,0.9810503907457798,0.2842847375,0.7363902092433854
0.065,1.694375,1.0,2645.904077517415,0.5189912364669103,1.2868094955208,0.9812081074401682,0.28421675,0.7376923255073475
0.0655,1.69274375,1.0,2643.745299435897,0.5216893152534863,1.2860927360866121,0.9813621765529903,0.2841482375,0.7390017422145284
0.066,1.6911,1.0,2641.597504980526,0.5243722601591024,1.2853702381468772,0.9815126984009596,0.2840792,0.7403183264668194
0.0665,1.6894437500000001,1.0,2639.459599563863,0.5270401557011396,1.2846420117053958,0.9816597689372824,0.2840096375,0.7416419807790349
0.067,1.687775,1.0,2637.330904234368,0.5296930863389209,1.2839080629392157,0.9818034805471617,0.28393955,0.7429726141521121
0.0675,1.68609375,1.0,2635.2154165586567,0.5323311362331096,1.2831683547741906,0.9819439202853536,0.2838689375,0.7443102131839228
0.068,1.6844000000000001,1.0,2633.11166904478,0.5349543889311544,1.2824229006536283,0.9820811745396004,0.2837978,0.7456546721504809
0.0685,1.68269375,1.0,2631.018834759994,0.5375629270900699,1.2816717081125966,0.9822153263820677,0.2837261375,0.7470058955641972
0.069,1.680975,1.0,2628.934781636885,0.5401568332936093,1.2809147967866716,0.982346456604743,0.28365395,0.7483637657726498
0.0695,1.67924375,1.0,2626.86629380398,0.5427361898620309,1.2801521037299741,0.9824746393762807,0.28358123749999997,0.7497283124224166
0.07,1.6775,1.0,2624.8151891552293,0.545301078429706,1.2793836119309028,0.9825999484254839,0.283508,0.7510994814554934
0.07050000000000001,1.6757452595268956,1.0,2622.8373686649325,0.5478515798342325,1.2786094845808869,0.982722463267275,0.2834343009001296,0.7524768976453207
0.07100000000000001,1.6739889026671664,1.0,2621.3720133968104,0.550387774760543,1.2778298807173318,0.9828422606232365,0.283360533912021,0.7538601957289324
0.07150000000000001,1.6722325458074372,1.0,2620.4564229567754,0.5529097437841184,1.2770451803183525,0.9829594247988259,0.28328676692391236,0.7552486226478685
0.07200000000000001,1.670476188947708,1.0,2620.0403043637352,0.555417566891816,1.2762558473063954,0.9830740412408105,0.28321299993580373,0.7566412845313315
0.0725,1.6687198320879788,1.0,2620.08552498463,0.5579113229217783,1.275462234351026,0.9831861877101853,0.2831392329476951,0.7580374918569529
0.073,1.6669634752282496,1.0,2620.554079684055,0.560391090712148,1.2746646941218085,0.9832959395918901,0.2830654659595865,0.7594365618717264
0.0735,1.6652071183685204,1.0,2621.4151572473384,0.5628569473969521,1.2738635134487375,0.9834033669633726,0.28299169897147786,0.7608379336782946
0.074,1.6634507615087912,1.0,2622.6272655754206,0.5653089730849431,1.2730590788789191,0.9835085423716197,0.28291793198336923,0.7622408783220543
0.0745,1.661694404649062,1.0,2624.154541835486,0.5677472470156808,1.2722517251249683,0.9836115338978975,0.2828441649952606,0.7636447645614755
