Time [s],Phi [rad],STIM [ ],Fsee [N],Gamma [ ],Lcerel [ ],q [ ],Lmtc [m],fisomrel [ ]
0.0,1.8,1.0,17.967104626418358,1.4671427287553486e-05,1.3793397522181263,0.005000057194880291,0.288653,0.5411395165404673
0.0005,1.79999375,1.0,18.27801577416275,0.005623798440979278,1.3793022465388323,0.012953488587308496,0.2886527375,0.5412302479929685
0.001,1.799975,1.0,21.62311990074104,0.011201462687023019,1.3789378181882248,0.035632925218661744,0.28865195,0.5421113837587624
0.0015,1.79994375,1.0,31.08127391258452,0.0167478406475347,1.378045178239846,0.07063503449739279,0.2886506375,0.5442660816632752
0.002,1.7999,1.0,53.608913810334116,0.022263107812970438,1.376366411031588,0.11475730942363667,0.2886488,0.5483046066556176
0.0025,1.79984375,1.0,97.16389901343751,0.027747438689724548,1.3739330009292947,0.16461761767934907,0.28864643749999996,0.5541266288775896
0.003,1.7997750000000001,1.0,161.01703018180828,0.03320100680780248,1.3712121406460551,0.21732453134606436,0.28864354999999997,0.5605916665719816
0.0035,1.79969375,1.0,237.75003835001303,0.03862398472044643,1.3685826796311855,0.27065672869411894,0.2886401375,0.5667946692471137
0.004,1.7996,1.0,321.5378822905632,0.04401654401490892,1.366154209042814,0.3229582514121934,0.2886362,0.572484359694615
0.0045000000000000005,1.7994937500000001,1.0,409.3415072337525,0.049378855317639705,1.3639210828996888,0.37307480412190397,0.2886317375,0.5776831805520339
0.005,1.799375,1.0,499.48884251520764,0.05471108828538555,1.3618567414735583,0.42028516196570764,0.28862675,0.5824607737568189
0.0055,1.79924375,1.0,590.8665060743818,0.060013411652469074,1.3599373484925599,0.4642086043602482,0.2886212375,0.5868785241076069
0.006,1.7991000000000001,1.0,682.5943573319479,0.06528599317442305,1.3581450287821708,0.504712041230652,0.2886152,0.5909825840517158
0.006500000000000001,1.79894375,1.0,773.9595665328366,0.07052899968410643,1.3564659168706845,0.5418300655509773,0.2886086375,0.5948088332574688
0.007,1.798775,1.0,864.3640000501015,0.07574259706958057,1.3548891320245204,0.5757034800833454,0.28860155,0.5983855356214366
0.0075,1.79859375,1.0,953.3191740101965,0.08092695030186692,1.3534056108926578,0.6065342087589977,0.2885939375,0.6017362059616944
0.008,1.7984,1.0,1040.4313933321553,0.08608222339994186,1.3520075724874157,0.634554145733161,0.2885858,0.6048809595392756
0.0085,1.79819375,1.0,1125.3924702097693,0.09120857950429426,1.3506881338888466,0.6600044450327812,0.2885771375,0.6078374768799695
0.009000000000000001,1.797975,1.0,1207.9570947211002,0.0963061807773923,1.3494412573956729,0.683122524522261,0.28856795,0.6106211977988873
0.0095,1.79774375,1.0,1287.9460691639613,0.10137518862205928,1.3482614110534732,0.7041341602105797,0.2885582375,0.6132461402137876
0.01,1.7975,1.0,1365.2203017335157,0.1064157629526905,1.347143700847767,0.7232494088457997,0.288548,0.6157246523013906
0.0105,1.79724375,1.0,1439.7093529296328,0.11142806366042875,1.3460833224350697,0.7406605100333291,0.2885372375,0.6180686668759681
0.011,1.796975,1.0,1511.382285746318,0.11641225031532693,1.3450758198502457,0.7565417054245608,0.28852595000000003,0.6202891535544668
0.0115,1.79669375,1.0,1580.1876575849567,0.12136847937052203,1.3441176868883462,0.7710500657532494,0.2885141375,0.6223948264369072
0.012,1.7964,1.0,1646.1208836083306,0.12629690727915094,1.343205417344422,0.7843260871113192,0.28850180000000003,0.6243942650045957
0.0125,1.79609375,1.0,1709.2197623848713,0.1311976904696887,1.3423355088489424,0.7964950353422329,0.2884889375,0.6262959163939277
0.013000000000000001,1.7957750000000001,1.0,1769.5381122422632,0.1360709842641505,1.341504716492994,0.8076684735670219,0.28847555,0.6281075529752542
0.0135,1.79544375,1.0,1827.1282494113007,0.14091694329234467,1.3407101871160334,0.8179457088153962,0.2884616375,0.6298359961586656
0.014,1.7951000000000001,1.0,1882.0353859757822,0.1457357200446114,1.3399494578338582,0.8274151037116275,0.2884472,0.6314871368573529
0.0145,1.79474375,1.0,1934.3287527019943,0.15052746701129102,1.339220065762265,0.8361551610316141,0.2884322375,0.6330667952303718
0.015,1.794375,1.0,1984.0769382436904,0.1552923353432088,1.3385197886844578,0.8442357414044492,0.28841675,0.6345802062150194
0.0155,1.79399375,1.0,2031.3934054203628,0.16003047801149742,1.3378461308070724,0.8517189046298639,0.2884007375,0.6360331374320489
0.016,1.7936,1.0,2076.3418368611233,0.16474204365882245,1.3371973068296423,0.8586601404760986,0.2883842,0.6374297712590435
0.0165,1.7931937500000001,1.0,2118.9935863667693,0.1694271805425367,1.336571595553099,0.8651089407038902,0.2883671375,0.6387741105447742
0.017,1.792775,1.0,2159.4324853290527,0.17408603691999303,1.3359672757783736,0.871109490560517,0.28834955,0.6400701199172776
0.0175,1.7923437500000001,1.0,2197.7486493486126,0.1787187604819538,1.335382678259567,0.876701310081275,0.2883314375,0.6413216171028053
0.018000000000000002,1.7919,1.0,2234.033794799147,0.1833254986608281,1.3348162206037935,0.881919811760889,0.2883128,0.6425322015962753
0.0185,1.79144375,1.0,2268.3715328891403,0.1879063976464806,1.334266491692245,0.8867967999823716,0.2882936375,0.6437050782262699
0.019,1.790975,1.0,2300.8311998139334,0.19246160115826744,1.333732298706836,0.8913608971341073,0.28827395,0.6448429617342193
0.0195,1.79049375,1.0,2331.4886426568487,0.19699125291554473,1.33321244882948,0.8956378547413785,0.2882537375,0.6459485457431796
0.02,1.79,1.0,2360.4256749949727,0.20149549663766853,1.3327057492420915,0.8996508794675365,0.288233,0.6470245038943193
0.0205,1.78949375,1.0,2387.6982311512566,0.2059744739769388,1.3322113116332612,0.9034209868648542,0.2882117375,0.6480728457363145
0.021,1.788975,1.0,2413.4367531390167,0.21042832981398094,1.3317275690164123,0.9069670276621514,0.28818995000000003,0.649097002405808
0.021500000000000002,1.7884481357311093,1.0,2437.881346715877,0.21485720386896393,1.331253931879233,0.9103062811204974,0.2881678217007066,0.6500983182861879
0.022,1.7879211067997143,1.0,2461.431069435738,0.21926123500539965,1.3307899638627902,0.9134544472407948,0.288145686485588,0.6510778055091005
0.0225,1.7873940778683193,1.0,2484.1248796735103,0.22364056208680005,1.3303352286081525,0.916425784064863,0.2881235512704694,0.652036469197703
0.023,1.7868670489369243,1.0,2505.9954668455593,0.22799532397667704,1.3298892897563872,0.9192332599961757,0.28810141605535083,0.652975307729676
0.0235,1.7863400200055293,1.0,2527.0760944425915,0.23232565919464926,1.3294517181534,0.9218886893966962,0.2880792808402322,0.6538952978500405
0.024,1.7858129910741343,1.0,2547.395737109031,0.2366317052240457,1.3290221366798125,0.9244028591019453,0.28805714562511364,0.6547973009395752
0.0245,1.7852859621427393,1.0,2566.981704820419,0.2409135982377524,1.3286001939327237,0.9267856275316417,0.288035010409995,0.6556821190923993
0.025,1.7847589332113443,1.0,2585.8603810755535,0.24517147289684865,1.3281855562524607,0.9290460160738188,0.28801287519487645,0.6565505123318334
0.025500000000000002,1.7842319042799493,1.0,2604.059038025398,0.2494054638624137,1.3277778899793506,0.9311922895323363,0.2879907399797579,0.6574032360991222
0.026000000000000002,1.7837048753485543,1.0,2621.596383834998,0.25361569963688907,1.3273769486351799,0.933232041146694,0.28796860476463926,0.6582408593823942
0.0265,1.7831778464171593,1.0,2638.510391374237,0.2578023208777215,1.3269823137815866,0.9351722241704685,0.2879464695495207,0.6590643063585461
0.027,1.7826508174857643,1.0,2654.833111569173,0.2619654647015195,1.326593629466513,0.9370192423196944,0.2879243343344021,0.6598743660455676
0.0275,1.7821237885543693,1.0,2670.5838222927077,0.2661052596323039,1.3262106637376347,0.9387790081744831,0.2879021991192835,0.6606715652546294
0.028,1.7815967596229743,1.0,2685.782323117483,0.2702218341940956,1.325833184642627,0.9404569735208277,0.28788006390416493,0.6614564278878946
0.0285,1.7810697306915793,1.0,2700.448906502831,0.2743153169109154,1.3254609602291647,0.9420581713183545,0.2878579286890463,0.662229475021397
0.029,1.7805427017601843,1.0,2714.604330175204,0.2783858363067841,1.3250937585449236,0.9435872533405301,0.28783579347392774,0.6629912249844863
0.029500000000000002,1.7800156728287893,1.0,2728.269790700861,0.28243352090572243,1.3247313476375786,0.9450485239806752,0.2878136582588091,0.6637421934358485
0.03,1.7794886438973943,1.0,2741.466898252271,0.2864584992317513,1.324373495554805,0.9464459706561469,0.28779152304369054,0.6644828934360871
0.0305,1.7789616149659992,1.0,2754.217652566172,0.29046089980889156,1.3240199703442785,0.9477832911900946,0.287769387828572,0.6652138355168777
0.031,1.7784345860346042,1.0,2766.5444200957436,0.29444085116116403,1.323670540053674,0.9490639185041593,0.28774725261345335,0.6659355277466935
0.0315,1.7779075571032092,1.0,2778.4583674315113,0.2983984718914291,1.3233250767408922,0.9502910527598826,0.2877251173983348,0.6666482613217353
0.032,1.7773805281718142,1.0,2789.989118835546,0.3023338995499168,1.3229832885767594,0.9514676567380781,0.2877029821832162,0.6673526635846357
0.0325,1.7768534992404192,1.0,2801.1520150163096,0.30624725755430166,1.322645015153104,0.9525965008417216,0.2876808469680976,0.6680490886379251
0.033,1.7763264703090242,1.0,2811.9600250435997,0.31013866688994807,1.322310119336662,0.9536801693403912,0.287658711752979,0.6687378411134781
0.0335,1.7757994413776292,1.0,2822.426313790951,0.31400824854222065,1.3219784639941703,0.9547210732593938,0.28763657653786046,0.6694192242473048
0.034,1.7752724124462342,1.0,2832.564231874494,0.3178561234964838,1.3216499119923653,0.9557214640677981,0.28761444132274183,0.670093539908494
0.0345,1.7747453835148392,1.0,2842.3873060095593,0.321682412738102,1.3213243261979835,0.9566834461309021,0.28759230610762326,0.6707610886269513
0.035,1.7742183545834442,1.0,2851.909229782792,0.3254872372524398,1.3210015694777615,0.9576089880516909,0.28757017089250464,0.6714221696199422
0.035500000000000004,1.7736913256520492,1.0,2861.1438548428528,0.3292707180248615,1.3206815046984355,0.9584999330120656,0.28754803567738607,0.6720770808174341
0.036000000000000004,1.7731642967206542,1.0,2870.1051825063246,0.33303297604073184,1.3203639947267425,0.9593580082124787,0.28752590046226745,0.6727261188862363
0.0365,1.7726372677892592,1.0,2878.806809970634,0.3367741314587935,1.320048907260273,0.9601848337997484,0.2875037652471489,0.6733695693925548
0.037,1.7721102388578642,1.0,2887.2534715659995,0.34049429236969847,1.3197361894820603,0.9609819356826882,0.2874816300320303,0.6740075546412374
0.0375,1.7715832099264692,1.0,2895.4678625100782,0.3441935955485391,1.3194256307086132,0.9617507379711312,0.2874594948169117,0.6746405180051169
0.038,1.7710561809950742,1.0,2903.457705598156,0.34787215437864344,1.319117153696509,0.9624925872282818,0.2874373596017931,0.6752686295173428
0.0385,1.7705291520636792,1.0,2911.2308014477667,0.35153008224333937,1.3188106812023246,0.9632087502529858,0.28741522438667455,0.6758920585182071
0.039,1.7700021231322842,1.0,2918.7950250000513,0.35516749252595486,1.3185061359826373,0.9639004196761061,0.2873930891715559,0.6765109736652097
0.0395,1.7694750942008892,1.0,2926.158322153053,0.3587844986098179,1.3182034407940244,0.9645687191060872,0.28737095395643736,0.6771255429427417
0.04,1.768948065269494,1.0,2933.3287065265995,0.3623812138782565,1.317902518393063,0.9652147078644749,0.28734881874131873,0.6777359336713911
0.0405,1.768421036338099,1.0,2940.3142563609204,0.3659577517145985,1.3176032915363305,0.9658393853480889,0.28732668352620017,0.6783423125168644
0.041,1.767894007406704,1.0,2947.123111545933,0.36951422550217194,1.3173056829804037,0.9664436950509219,0.28730454831108154,0.6789448454985316
0.0415,1.767366978475309,1.0,2953.7634707841316,0.37305074862430476,1.3170096154818605,0.9670285282756037,0.287282413095963,0.679543697997586
0.042,1.766839949543914,1.0,2960.243588884955,0.376567434464325,1.3167150117972775,0.9675947275613691,0.2872602778808444,0.6801390347648291
0.0425,1.766312920612519,1.0,2966.5717403597664,0.38006439631380323,1.316421794978208,0.9681430898621958,0.2872381426657258,0.680731019332809
0.043000000000000003,1.765785891681124,1.0,2972.7477220761743,0.38354172629788635,1.3161299623585467,0.968674372114083,0.2872160074506072,0.6813196648570913
0.043500000000000004,1.765258862749729,1.0,2978.78795293366,0.38699956371018607,1.315839366766317,0.9691892870565415,0.28719387223548865,0.6819052755122827
0.044,1.764731833818334,1.0,2984.696662981609,0.3904380138541072,1.315549967671675,0.9696885131726435,0.28717173702037,0.6824879397398113
0.0445,1.764204804886939,1.0,2990.47811048108,0.393857182033055,1.3152617245447769,0.9701726937922804,0.28714960180525145,0.6830677456538687
0.045,1.763677775955544,1.0,2996.1365808469745,0.39725717355043433,1.3149745968557784,0.9706424392588675,0.28712746659013283,0.683644781044451
0.0455,1.763150747024149,1.0,3001.676385628448,0.40063809370965014,1.314688544074836,0.9710983289420961,0.28710533137501426,0.6842191333802936
0.046,1.762623718092754,1.0,3007.1018615238836,0.4040000478141076,1.3144035256721054,0.9715409131090651,0.28708319615989564,0.6847908898117021
0.0465,1.762096689161359,1.0,3012.4173694339756,0.4073431411672115,1.3141195011177427,0.9719707146650288,0.28706106094477707,0.6853601371732796
0.047,1.761569660229964,1.0,3017.6272935497464,0.41066747907236695,1.313836429881904,0.9723882307740058,0.2870389257296585,0.6859269619865457
0.0475,1.761042631298569,1.0,3022.7360404780597,0.41397316683297897,1.3135542714347457,0.9727939343686091,0.2870167905145399,0.6864914504624549
0.048,1.760515602367174,1.0,3027.7480384033083,0.41726030975245243,1.313272985246423,0.973188275557635,0.2869946552994213,0.6870536885038085
0.0485,1.759988573435779,1.0,3032.6677362848664,0.4205290131341925,1.312992530787093,0.9735716829392368,0.28697252008430274,0.6876137617075593
0.049,1.759461544504384,1.0,3037.499603092,0.42377938228160406,1.312712867526911,0.9739445648268223,0.2869503848691841,0.6881717553670171
0.0495,1.758934515572989,1.0,3042.2473088548886,0.42701151815183197,1.3124339619806924,0.9743073103557636,0.28692824965406555,0.6887277404370129
0.05,1.758407486641594,1.0,3046.9104428079822,0.4302255032912409,1.312155815909256,0.9746602908202083,0.2869061144389469,0.6892817174554424
0.0505,1.757880457710199,1.0,3051.498800380645,0.4334214766470351,1.3118783433614993,0.9750038611431168,0.28688397922382836,0.6898338614224704
0.051000000000000004,1.757353428778804,1.0,3056.0144867334675,0.4365995348180381,1.3116015247348454,0.9753383595572364,0.28686184400870973,0.6903842148690037
0.051500000000000004,1.756826399847409,1.0,3060.4596166757506,0.43975977440307334,1.3113253404267164,0.9756641090540925,0.28683970879359116,0.6909328201791745
0.052000000000000005,1.756299370916014,1.0,3064.836314384619,0.44290229200096437,1.3110497708345352,0.9759814182042527,0.2868175735784726,0.6914797195911452
0.0525,1.755772341984619,1.0,3069.146713134084,0.44602718421053467,1.3107747963557241,0.9762905819265322,0.28679543836335397,0.6920249551978896
0.053,1.755245313053224,1.0,3073.392955032343,0.44913454763060773,1.3105003973877056,0.9765918822097374,0.2867733031482354,0.6925685689479493
0.0535,1.754718284121829,1.0,3077.577190766868,0.4522244788600071,1.3102265543279024,0.9768855887902593,0.28675116793311684,0.6931106026461641
0.054,1.754191255190434,1.0,3081.701579358718,0.45529707449755624,1.3099532475737368,0.9771719597885723,0.2867290327179982,0.6936510979543808
0.0545,1.753664226259039,1.0,3085.7682879255326,0.4583524311420787,1.3096804575226315,0.9774512423074599,0.28670689750287964,0.6941900963921352
0.055,1.753137197327644,1.0,3089.7794914521837,0.4613906453923979,1.3094081645720093,0.977723672994571,0.2866847622877611,0.6947276393373101
0.0555,1.752610168396249,1.0,3093.737372570744,0.4644118138473373,1.3091363491192922,0.9779894785717137,0.28666262707264245,0.69526376802677
0.056,1.752083139464854,1.0,3097.6441213488743,0.4674160331057206,1.308864991561903,0.9782488763331179,0.2866404918575239,0.6957985235569693
0.0565,1.751556110533459,1.0,3101.501935085923,0.47040339976637113,1.3085940722972647,0.97850207461472,0.28661835664240526,0.6963319468845364
0.057,1.751029081602064,1.0,3105.313018119191,0.47337401042811245,1.308323571722799,0.9787492732363854,0.2865962214272867,0.6968640788268368
0.0575,1.750502052670669,1.0,3109.079581636476,0.4763279616897681,1.308053470235929,0.9789906639188318,0.28657408621216807,0.6973949600625051
0.058,1.749975023739274,1.0,3112.7995703823285,0.47926530146884155,1.3077837846051783,0.9792264285350553,0.2865519509970495,0.6979245597388815
0.0585,1.749447994807879,1.0,3116.478625865833,0.48218617595921726,1.3075144660952978,0.9794567464680825,0.28652981578193093,0.6984529755807525
0.059000000000000004,1.748920965876484,1.0,3120.1189499773013,0.4850906874799798,1.3072454953367425,0.9796817878730382,0.2865076805668123,0.6989802474339277
0.059500000000000004,1.748393936945089,1.0,3123.7214736784817,0.4879789229340354,1.3069768638109711,0.9799017155525194,0.28648554535169374,0.6995063937652439
0.06,1.747866908013694,1.0,3127.2871310223723,0.4908509692242902,1.3067085629994428,0.9801166859975229,0.28646341013657517,0.700031432980921
0.0605,1.747339879082299,1.0,3130.816859090377,0.4937069132536508,1.3064405843836158,0.9803268496808855,0.28644127492145655,0.7005553834267477
0.061,1.746812850150904,1.0,3134.3115979307204,0.49654684192502324,1.306172919444949,0.9805323513349032,0.286419139706338,0.7010782633882551
0.0615,1.746285821219509,1.0,3137.772290497868,0.4993708421413139,1.3059055596649014,0.980733330214096,0.28639700449121935,0.701600091090891
0.062,1.745758792288114,1.0,3141.199882594867,0.502179000805429,1.3056384965249315,0.9809299203440212,0.2863748692761008,0.7021208847001896
0.0625,1.745231763356719,1.0,3144.5953228156645,0.5049714048202749,1.3053717215064982,0.9811222507569706,0.28635273406098216,0.7026406623219316
0.063,1.744704734425324,1.0,3147.9595624906997,0.5077481410887578,1.30510522609106,0.9813104457153442,0.2863305988458636,0.703159442002306
0.0635,1.744177705493929,1.0,3151.2935556326206,0.5105092965137841,1.3048390017600762,0.9814946249234253,0.286308463630745,0.7036772417280621
0.064,1.743650676562534,1.0,3154.598258884633,0.5132549579982599,1.304573039995005,0.9816749037282406,0.2862863284156264,0.7041940794266615
0.0645,1.743123647631139,1.0,3157.8746314701057,0.5159852124450917,1.3043073322773058,0.9818513933101484,0.28626419320050783,0.7047099729664204
0.065,1.742596618699744,1.0,3161.123635143712,0.5187001467571856,1.3040418700884366,0.9820242008637474,0.28624205798538926,0.7052249401566526
0.0655,1.742069589768349,1.0,3164.3462341440777,0.521399847837448,1.3037766449098567,0.9821934297696646,0.28621992277027064,0.7057389987478024
0.066,1.741542560836954,1.0,3167.543395148674,0.5240844025887852,1.3035116482230247,0.9823591797577458,0.2861977875551521,0.7062521664315782
0.0665,1.741015531905559,1.0,3170.716087229357,0.5267538979141033,1.3032468715093992,0.9825215470621369,0.2861756523400335,0.7067644608410776
0.067,1.740488502974164,1.0,3173.8652818102014,0.5294084207163088,1.3029823062504393,0.9826806245687131,0.2861535171249149,0.7072758995509087
0.0675,1.739961474042769,1.0,3176.9919526270714,0.5320480578983079,1.3027179439276035,0.9828365019552852,0.2861313819097963,0.7077865000773096
0.068,1.739434445111374,1.0,3180.096352538591,0.5346728765376312,1.3024537821120405,0.9829892648625729,0.2861092466946777,0.7082962681317675
0.0685,1.738907416179979,1.0,3183.1783559276773,0.5372829438441055,1.3021898215675378,0.9831389961906846,0.2860871114795591,0.708805203255675
0.069,1.738380387248584,1.0,3186.2402781145793,0.539878393940918,1.3019260425231847,0.9832857792150395,0.2860649762644405,0.7093133445353574
0.0695,1.737853358317189,1.0,3189.2825180278314,0.5424593040100867,1.3016624413628535,0.9834296916586959,0.2860428410493219,0.7098206998437595
0.07,1.737326329385794,1.0,3192.305475629719,0.545025751233629,1.301399014470416,0.9835708086670671,0.28602070583420336,0.7103272770288966
