Time [s],Phi [rad],STIM [ ],Fsee [N],Gamma [ ],Lcerel [ ],q [ ],Lmtc [m],fisomrel [ ]
0.0,1.8,1.0,19.748859020122964,0.0013629513596379302,1.3791448535523292,0.005475795379122882,0.288653,0.5416109056912719
0.0005,1.79999375,1.0,20.439520333391386,0.0069645155891123155,1.3790688609313293,0.017118613480820947,0.2886527375,0.541794638623165
0.001,1.799975,1.0,24.793472862881693,0.012534659472869766,1.3786251187759053,0.04300161492041929,0.28865195,0.5428667711477411
0.0015,1.79994375,1.0,36.59913759578554,0.018073559252685143,1.3775943578119656,0.0804942918248617,0.2886506375,0.5453523627186521
0.002,1.7999,1.0,63.66188868679725,0.02358139018455416,1.375742385922472,0.12628823019351834,0.2886488,0.5498012098893117
0.0025,1.79984375,1.0,112.53293403706807,0.029058326540447467,1.3732197452465913,0.17706987811707822,0.28864643749999996,0.555825962238742
0.003,1.7997750000000001,1.0,180.07027382450784,0.034504541613938795,1.3705190211521732,0.23011018348826495,0.28864354999999997,0.5622310426161845
0.0035,1.79969375,1.0,258.77600109447235,0.03992020772658723,1.3679488323026736,0.2833304688101248,0.2886401375,0.5682833444103922
0.004,1.7996,1.0,343.6173966367244,0.04530549623490427,1.3655791794260854,0.335199311713425,0.2886362,0.5738260955680805
0.0045000000000000005,1.7994937500000001,1.0,432.01311864638865,0.05066057753599068,1.3633961127000742,0.38467355138164216,0.2886317375,0.5789007183497289
0.005,1.799375,1.0,522.4579903243847,0.05598562099832865,1.3613741712326706,0.43112262465004914,0.28862675,0.5835736873912643
0.0055,1.79924375,1.0,613.9471037451011,0.06128079532566482,1.3594907580550402,0.47423284436525887,0.2886212375,0.5879030448756779
0.006,1.7991000000000001,1.0,705.6028713265189,0.06654626782161838,1.357730284626711,0.5139184829764584,0.2886152,0.5919293477707027
0.006500000000000001,1.79894375,1.0,796.7489046509108,0.07178220515735959,1.3560797298054441,0.550244471844668,0.2886086375,0.5956863074670979
0.007,1.798775,1.0,886.8242412865836,0.0769887730680085,1.3545286701748622,0.5833697127214391,0.28860155,0.5992009630868742
0.0075,1.79859375,1.0,975.3504264866197,0.08216613615341836,1.3530686963714182,0.6135058795905542,0.2885939375,0.6024952029419237
0.008,1.7984,1.0,1061.9690582867586,0.087314458529973,1.3516921090949257,0.6408885412372329,0.2885858,0.6055888405623817
0.0085,1.79819375,1.0,1146.3678140015988,0.09243390273367648,1.3503925812506423,0.6657591195398812,0.2885771375,0.6084982111113266
0.009000000000000001,1.797975,1.0,1228.3202663707318,0.09752463075752148,1.3491641882115335,0.688352779694423,0.28856795,0.6112384236944541
0.0095,1.79774375,1.0,1307.679680295096,0.10258680420976553,1.3480012806930957,0.7088916633314446,0.2885582375,0.6138236882524402
0.01,1.7975,1.0,1384.309521529763,0.1076205827125353,1.3468992092414864,0.7275817875307505,0.288548,0.6162657481748451
0.0105,1.79724375,1.0,1458.128939558511,0.11262612547545353,1.3458535238367428,0.7446112069207748,0.2885372375,0.6185757016891185
0.011,1.796975,1.0,1529.1095619580603,0.11760359117161592,1.3448599090777555,0.7601499257037927,0.28852595000000003,0.6207641680831703
0.0115,1.79669375,1.0,1597.2420400618937,0.12255313762863283,1.3439144970600632,0.7743507694705186,0.2885141375,0.6228406208926143
0.012,1.7964,1.0,1662.5166705667204,0.12747492074077202,1.34301398673665,0.7873505639511074,0.28850180000000003,0.6248131533897618
0.0125,1.79609375,1.0,1724.9619376938651,0.13236909625751536,1.342155100502351,0.7992712359312341,0.2884889375,0.6266896913272514
0.013000000000000001,1.7957750000000001,1.0,1784.6307965180642,0.13723581923044223,1.341334696180431,0.8102212877806456,0.28847555,0.6284777588756786
0.0135,1.79544375,1.0,1841.5901195646568,0.14207524468335653,1.3405498365526136,0.8202972177412327,0.2884616375,0.6301843393622071
0.014,1.7951000000000001,1.0,1895.88300158036,0.1468875245597352,1.3397981533428878,0.8295849564478393,0.2884472,0.6318150988034545
0.0145,1.79474375,1.0,1947.5755091774297,0.15167281080305517,1.339077278275242,0.8381608518871637,0.2884322375,0.6333756357061674
0.015,1.794375,1.0,1996.7509925085612,0.15643125504818747,1.338384882522934,0.8460927924354565,0.28841675,0.6348714007651151
0.0155,1.79399375,1.0,2043.4963859433599,0.16116300819643478,1.3377187988965225,0.8534412384692692,0.2884007375,0.6363074390047521
0.016,1.7936,1.0,2087.9052528227166,0.16586822121023403,1.3370769638673852,0.8602600800618933,0.2883842,0.637688521779163
0.0165,1.7931937500000001,1.0,2130.042654784488,0.1705470415772694,1.3364577586196593,0.8665975121219557,0.2883671375,0.639018420486719
0.017,1.792775,1.0,2169.9854356206233,0.17519961678522522,1.3358595643374813,0.8724965758728929,0.28834955,0.6403008706729505
0.0175,1.7923437500000001,1.0,2207.8212354955613,0.1798260943217857,1.3352807622049878,0.8779957674385891,0.2883314375,0.6415395742832986
0.018000000000000002,1.7919,1.0,2243.6345810877156,0.18442662032497945,1.3347198635605404,0.8831296052267774,0.2883128,0.642737923909481
0.0185,1.79144375,1.0,2277.5232327666376,0.18900134238508354,1.3341753337157332,0.8879290487084714,0.2882936375,0.6438993824489107
0.019,1.790975,1.0,2309.561231159133,0.19355040460231407,1.3336459512746857,0.8924219956791887,0.28827395,0.6450267193814098
0.0195,1.79049375,1.0,2339.817567056711,0.19807394975260614,1.3331306075707632,0.896633581998469,0.2882537375,0.6461224435571882
0.02,1.79,1.0,2368.3668379717956,0.2025721206118948,1.3326281939373312,0.9005864677769227,0.288233,0.6471890452742002
0.0205,1.78949375,1.0,2395.2887779169077,0.20704505995611514,1.3321376017077553,0.9043011146459985,0.2882117375,0.6482289972315705
0.021,1.788975,1.0,2420.654543840759,0.21149290864172857,1.3316578503040968,0.9077960557026511,0.28818995000000003,0.6492444844759737
0.021500000000000002,1.78844375,1.0,2444.5505463303857,0.2159158102145944,1.3311878512165654,0.911088058385508,0.2881676375,0.6502379056331447
0.022,1.7879,1.0,2467.0392902708504,0.22031390384709712,1.330726781543273,0.9141923878700677,0.2881448,0.6512110840881
0.0225,1.78734375,1.0,2488.1776671193834,0.22468732733018942,1.3302739007678677,0.917122930423335,0.28812143749999997,0.6521656583915074
0.023,1.786775,1.0,2508.025212382387,0.22903621845482405,1.3298284683739976,0.9198923227640677,0.28809755,0.6531032571749453
0.0235,1.78619375,1.0,2526.643884561648,0.2333607150119537,1.3293897438453106,0.9225120817880407,0.28807313749999996,0.6540254995201552
0.024,1.7856,1.0,2544.0953113699534,0.23766095430069317,1.3289570106256008,0.9249927233590817,0.2880482,0.654933945026366
0.0245,1.78499375,1.0,2560.4327781157203,0.24193707171556164,1.3285296490776515,0.927343875468995,0.2880227375,0.6558299415717959
0.025,1.784375,1.0,2575.73073640966,0.24618920630401364,1.3281068572522021,0.9295743210208824,0.28799675,0.6567152111737342
0.025500000000000002,1.78374375,1.0,2590.0316230768644,0.250417490546709,1.327688148275735,0.9316921601121871,0.2879702375,0.6575908082896043
0.026000000000000002,1.7831000000000001,1.0,2603.379102917241,0.2546220569243076,1.327273035274732,0.9337048264506763,0.2879432,0.6584577818305615
0.0265,1.78244375,1.0,2615.817966322032,0.25880303791746934,1.3268610313756755,0.9356191511586471,0.2879156375,0.659317175280707
0.027,1.781775,1.0,2627.3940321463815,0.262960566006854,1.3264516497050478,0.9374414196908266,0.28788755,0.6601700268011887
0.0275,1.7810937500000001,1.0,2638.1540558372153,0.2670947736731216,1.3260444033893308,0.9391774226831446,0.2878589375,0.6610173693191815
0.028,1.7804,1.0,2648.1380932951356,0.2712057897489939,1.3256388752234642,0.940832510177345,0.2878298,0.661860085915807
0.0285,1.77969375,1.0,2657.396911226916,0.2752937493057575,1.3252345559277625,0.9424116121423103,0.2878001375,0.6626992462706349
0.029,1.778975,1.0,2665.9638478159427,0.27935878024160254,1.3248311030853268,0.9439193073361322,0.28776995,0.6635355690955669
0.029500000000000002,1.7782437500000001,1.0,2673.870743421824,0.2834010095161049,1.324428192917245,0.9453598359393803,0.2877392375,0.6643697309963357
0.03,1.7775,1.0,2681.1499108646285,0.2874205640888404,1.324025501644605,0.9467371268852426,0.287708,0.6652024052422261
0.0305,1.77674375,1.0,2687.834092166757,0.291417570919385,1.3236227054884948,0.9480548246497392,0.2876762375,0.6660342617739381
0.031,1.775975,1.0,2693.9564176188806,0.2953921569673145,1.323219480670002,0.9493163134198559,0.28764395,0.6668659672047648
0.0315,1.7751937500000001,1.0,2699.5492169235836,0.29934444826000056,1.3228155139233588,0.9505247399387945,0.2876111375,0.6676981631709111
0.032,1.7744,1.0,2704.6370543259336,0.30327456422039056,1.3224105657133685,0.9516830391257864,0.2875778,0.6685313364680667
0.0325,1.77359375,1.0,2709.2631607089593,0.30718264252288036,1.3220042284664644,0.9527939298502595,0.2875439375,0.669366316485067
0.033,1.772775,1.0,2713.4477401799522,0.3110688035566502,1.3215963070948127,0.9538599666671232,0.28750955,0.6702034925477645
0.0335,1.7719437500000002,1.0,2717.211176168172,0.31493316771088037,1.321186606510579,0.9548835332401135,0.2874746375,0.6710432519075844
0.034,1.7711000000000001,1.0,2720.5740142809636,0.31877585537475117,1.3207749316259292,0.9558668558044306,0.2874392,0.6718859797206009
0.0345,1.7702437500000001,1.0,2723.5569460042234,0.3225969869374429,1.3203610873530292,0.9568120154176576,0.2874032375,0.6727320590241863
0.035,1.7693750000000001,1.0,2726.180793246013,0.3263966827881357,1.3199448786040446,0.9577209591207335,0.28736675,0.6735818707112345
0.035500000000000004,1.76849375,1.0,2728.466493724883,0.33017506331601004,1.3195261102911413,0.9585955101173438,0.2873297375,0.674435793501956
0.036000000000000004,1.7676,1.0,2730.435087201053,0.3339322489102461,1.319104587326485,0.9594373770682392,0.2872922,0.6752942039132452
0.0365,1.76669375,1.0,2732.107702552335,0.3376683599600241,1.3186801146222418,0.9602481625865867,0.2872541375,0.6761574762256213
0.037,1.765775,1.0,2733.4973121730022,0.3413835113604555,1.318252571875366,0.9610293772310923,0.28721555,0.6770258306591679
0.0375,1.76484375,1.0,2734.6245026541933,0.34507782512409535,1.317821770173089,0.9617824348299991,0.2871764375,0.6778996250128961
0.038,1.7639,1.0,2735.5107561003083,0.34875142212096905,1.3173875129901789,0.9625086635574185,0.28713679999999997,0.6787792302229243
0.0385,1.76294375,1.0,2736.1676126894763,0.3524044157854586,1.3169496944944712,0.9632093200061429,0.28709663750000003,0.6796648315046601
0.039,1.761975,1.0,2736.606648083019,0.3560369195519462,1.3165082088538012,0.9638855872298121,0.28705595,0.6805566126535669
0.0395,1.7609937500000001,1.0,2736.839468660575,0.3596490468548139,1.3160629502360044,0.964538579834912,0.2870147375,0.6814547560207685
0.04,1.76,1.0,2736.8777070026395,0.3632409111284437,1.3156138128089165,0.9651693486678217,0.286973,0.6823594424879407
0.0405,1.7589937500000001,1.0,2736.7330176217874,0.3668126258072177,1.3151606907403732,0.9657788851330622,0.2869307375,0.6832708514414887
0.041,1.757975,1.0,2736.417072942236,0.3703643043255179,1.3147034781982099,0.9663681251753444,0.28688795,0.6841891607460103
0.0415,1.75694375,1.0,2735.941559527437,0.37389606011772647,1.314242069350262,0.9669379529548263,0.2868446375,0.6851145467170442
0.042,1.7559,1.0,2735.3181745565626,0.3774080066182255,1.3137763583643653,0.9674892042421541,0.28680079999999997,0.686047184093104
0.0425,1.75484375,1.0,2734.5574295904244,0.3809002483361572,1.3133062502418629,0.9680226690039956,0.2867564375,0.6869872243602781
0.043000000000000003,1.753775,1.0,2733.670256096501,0.3843729071857804,1.3128316462164085,0.9685390973907997,0.28671155,0.6879348250176398
0.043500000000000004,1.75269375,1.0,2732.663819670521,0.3878260910919593,1.3123524817526402,0.9690392003028219,0.28666613750000003,0.688890073797725
0.044,1.7516,1.0,2731.545125415338,0.3912599069360517,1.31186869379994,0.9695236513252817,0.2866202,0.6898530542969366
0.0445,1.75049375,1.0,2730.3211799881865,0.3946744615994153,1.3113802193076904,0.9699930890954863,0.2865737375,0.6908238489282353
0.045,1.7493750000000001,1.0,2728.9989902161315,0.39806986196340766,1.3108869952252735,0.9704481194546665,0.28652675,0.6918025389024258
0.0455,1.74824375,1.0,2727.5855618001906,0.4014462149093865,1.3103889585020714,0.9708893174470733,0.2864792375,0.6927892042091819
0.046,1.7471,1.0,2726.0878981075566,0.4048036273187094,1.3098860460874662,0.9713172291785481,0.2864312,0.6937839235978214
0.0465,1.7459437500000001,1.0,2724.512999051667,0.40814220607273405,1.3093781949308403,0.9717323735456999,0.28638263750000004,0.6947867745578284
0.047,1.744775,1.0,2722.8678600605804,0.4114620580528181,1.3088653419815757,0.9721352438458484,0.28633355,0.6957978332991209
0.0475,1.74359375,1.0,2721.151890986934,0.41476326639793637,1.3083474931952876,0.9725263111475936,0.28628393750000003,0.6968170390311927
0.048,1.7424,1.0,2719.3680364062675,0.41804593174479543,1.3078246223713768,0.9729060237556061,0.2862338,0.6978443936923446
0.0485,1.74119375,1.0,2717.536562489625,0.42131020919476064,1.3072965455058758,0.9732748042514182,0.2861831375,0.6988802076535561
0.049,1.739975,1.0,2715.660052125433,0.42455619625259505,1.3067632395055424,0.9736330590674678,0.28613195,0.699924473495106
0.0495,1.73874375,1.0,2713.741085895857,0.4277839904230617,1.3062246812771339,0.9739811755584608,0.2860802375,0.7009771829614726
0.05,1.7375,1.0,2711.782241869208,0.43099368921092374,1.3056808477274076,0.9743195230662083,0.286028,0.7020383269536143
0.0505,1.73624375,1.0,2709.7860954049684,0.4341853901209442,1.3051317157631206,0.9746484539157992,0.2859752375,0.7031078955212187
0.051000000000000004,1.734975,1.0,2707.755218970108,0.43735919065788614,1.3045772622910305,0.9749683043481079,0.28592195,0.7041858778549133
0.051500000000000004,1.73369375,1.0,2705.692181967689,0.4405151883265126,1.3040174642178946,0.9752793953932339,0.2858681375,0.7052722622784477
0.052000000000000005,1.7324,1.0,2703.599550576636,0.4436534806315867,1.3034522984504702,0.9755820336891018,0.2858138,0.706367036240838
0.0525,1.73109375,1.0,2701.479887604414,0.44677416507787143,1.3028817418955148,0.9758765122491109,0.28575893750000003,0.7074701863084782
0.053,1.729775,1.0,2699.3357523502195,0.44987733917012995,1.3023057714597854,0.9761631111824196,0.28570355000000003,0.7085816981572194
0.0535,1.72844375,1.0,2697.1697004811385,0.4529631004131253,1.3017243640500396,0.9764420983701697,0.2856476375,0.7097015565644107
0.054,1.7271,1.0,2694.9842839194134,0.4560315463116206,1.3011374965730347,0.9767137301006965,0.2855912,0.7108297454009105
0.0545,1.7257437500000001,1.0,2692.782050741793,0.4590827743703787,1.300545145935528,0.9769782516665396,0.2855342375,0.7119662476230619
0.055,1.724375,1.0,2690.565545090477,0.4621168820941629,1.2999472890442767,0.9772358979258512,0.28547675,0.7131110452646336
0.0555,1.72299375,1.0,2688.337307096606,0.46513396698773624,1.2993439028060385,0.9774868938306057,0.2854187375,0.7142641194287276
0.056,1.7216,1.0,2686.0998728144286,0.4681341265558617,1.2987349641275705,0.9777314549238314,0.2853602,0.715425450279653
0.0565,1.72019375,1.0,2683.8557741684076,0.47111745830330237,1.2981204499156298,0.9779697878079197,0.28530113749999997,0.7165950170347655
0.057,1.718775,1.0,2681.607538911458,0.4740840597348213,1.2975003370769742,0.9782020905859176,0.28524155,0.7177727979562715
0.0575,1.71734375,1.0,2679.357611466355,0.4770340249528432,1.2968746032443097,0.9784285530188884,0.2851814375,0.7189587689685386
0.058,1.7159,1.0,2677.1073635673424,0.4799674262620373,1.2962432358581186,0.9786493558553943,0.2851208,0.7201528865060941
0.0585,1.71444375,1.0,2674.8583103894143,0.48288438799213107,1.2956062210207109,0.9788646770041777,0.2850596375,0.7213551087176486
0.059000000000000004,1.7129750000000001,1.0,2672.6110864017273,0.48578499834527156,1.2949635529010564,0.9790746846445992,0.28499795,0.7225653777423015
0.059500000000000004,1.71149375,1.0,2670.3663250065997,0.4886693455236058,1.2943152256681252,0.9792795403300308,0.2849357375,0.7237836350125018
0.06,1.71,1.0,2668.124658540581,0.4915375177292809,1.2936612334908877,0.9794793992985921,0.284873,0.7250098212519462
0.0605,1.7084937500000001,1.0,2665.8867182770878,0.4943896031644439,1.293001570538314,0.9796744107669874,0.2848097375,0.7262438764734739
0.061,1.7069750000000001,1.0,2663.653134429079,0.497225690031242,1.292336230979374,0.9798647182084786,0.28474595,0.7274857399769582
0.0615,1.7054437500000001,1.0,2661.424536152515,0.5000458665318221,1.291665208983038,0.980050459615969,0.2846816375,0.7287353503471963
0.062,1.7039,1.0,2659.2015515514527,0.5028502208683314,1.2909884987182765,0.9802317677510991,0.2846168,0.7299926454517973
0.0625,1.70234375,1.0,2656.984807682587,0.5056388412429169,1.290306094354059,0.9804087703801987,0.2845514375,0.7312575624390696
0.063,1.7007750000000001,1.0,2654.774930561466,0.5084118158577258,1.289617990059356,0.9805815904978818,0.28448555,0.7325300377359016
0.0635,1.69919375,1.0,2652.572545169485,0.5111692329149049,1.2889241800031377,0.9807503465390175,0.28441913750000003,0.7338100070456457
0.064,1.6976,1.0,2650.378275460562,0.5139111806166016,1.288224658354374,0.9809151525797621,0.2843522,0.7350974053459962
0.0645,1.69599375,1.0,2648.192744370262,0.5166377471649627,1.2875194192820352,0.9810761185282937,0.2842847375,0.7363921668868663
0.065,1.694375,1.0,2646.0165738241444,0.5193490207621354,1.2868084569550915,0.9812333503058461,0.28421675,0.7376942251882634
0.0655,1.69274375,1.0,2643.8503847477105,0.5220450896102669,1.2860917655425128,0.9813869500186022,0.2841482375,0.7390035130381629
0.066,1.6911,1.0,2641.6963977461187,0.5247259793515578,1.28536932442397,0.981537011091681,0.2840792,0.7403199894062724
0.0665,1.6894437500000001,1.0,2639.554628038863,0.5273918521783627,1.2846411333308958,0.9816836339599371,0.2840096375,0.7416435753064515
0.067,1.687775,1.0,2637.4249423281235,0.5300427932880841,1.2839071933682875,0.9818269103415327,0.28393955,0.7429741886280032
0.0675,1.68609375,1.0,2635.3072905085205,0.5326788816670747,1.2831675048740137,0.9819669282994188,0.2838689375,0.7443117480338821
0.068,1.6844000000000001,1.0,2633.2016226044957,0.5353001963016868,1.2824220681859426,0.9821037728439764,0.2837978,0.745656171561144
0.0685,1.68269375,1.0,2631.107888769437,0.5379068161782733,1.2816708836419428,0.9822375260584957,0.2837261375,0.7470073766210686
0.069,1.680975,1.0,2629.026039285398,0.5404988202831866,1.2809139515798826,0.9823682672186483,0.28365395,0.7483652799992837
0.0695,1.67924375,1.0,2626.9560245617436,0.5430762876027795,1.2801512723376307,0.9824960729062866,0.28358123749999997,0.7497297978558887
0.07,1.6775,1.0,2624.897795134937,0.5456392971234042,1.2793828462530557,0.9826210171178673,0.283508,0.7511008457255787
0.07050000000000001,1.67574375,1.0,2622.8513016673874,0.5481879278314136,1.2786086736640256,0.9827431713677964,0.2834342375,0.7524783385177694
0.07100000000000001,1.673975,1.0,2620.816494946754,0.55072225871316,1.2778287549084093,0.9828626047869593,0.28335995,0.7538621905167189
0.07150000000000001,1.67219375,1.0,2618.7933258853845,0.5532423687549962,1.277043090324075,0.9829793842166923,0.2832851375,0.755252315381653
0.07200000000000001,1.6704,1.0,2616.781745519426,0.5557483369432747,1.2762516802488912,0.9830935742984384,0.2832098,0.7566486261468889
0.0725,1.66859375,1.0,2614.781705007947,0.558240242264348,1.2754545250207268,0.983205237559306,0.2831339375,0.7580510352219574
0.073,1.6667750000000001,1.0,2612.7931556324447,0.5607181637045687,1.2746516249774495,0.9833144344937509,0.28305755,0.7594594543917297
0.0735,1.66494375,1.0,2610.8160487959967,0.5631821802502895,1.2738429804569285,0.9834212236415736,0.2829806375,0.760873794816538
0.074,1.6631,1.0,2608.850336022232,0.5656323708878629,1.2730285917970319,0.9835256616624253,0.2829032,0.7622939670323015
0.0745,1.6612437500000001,1.0,2606.895968955099,0.5680688146036413,1.272208459335628,0.9836278034070002,0.2828252375,0.7637198809506498
0.075,1.659375,1.0,2604.9528993578033,0.5704915903839777,1.2713825834105859,0.9837277019850792,0.28274675,0.7651514458590447
0.0755,1.65749375,1.0,2603.021079112137,0.5729007772152241,1.2705509643597734,0.983825408830584,0.2826677375,0.7665885704209076
