Time [s],Phi [rad],STIM [ ],Fsee [N],Gamma [ ],Lcerel [ ],q [ ],Lmtc [m],fisomrel [ ]
0.0,1.8,1.0,17.967127814423023,1.0038875378181283e-05,1.3793397496202913,0.005000026858572823,0.288653,0.5411395228253022
0.0005,1.79999375,1.0,18.276475633204974,0.0056191918740208565,1.3793024176161661,0.01294062250304006,0.2886527375,0.5412298341534807
0.001,1.799975,1.0,21.618125434268897,0.011196881959263223,1.3789383282730248,0.035608781090703076,0.28865195,0.5421101510384099
0.0015,1.79994375,1.0,31.068949975712137,0.016743285614033664,1.3780462280976826,0.07060198572426281,0.2886506375,0.5442635504499839
0.002,1.7999,1.0,53.581955623572476,0.02225857832960979,1.3763681597269584,0.11471816909824945,0.2886488,0.5483004092593838
0.0025,1.79984375,1.0,97.11829034841517,0.027742934613181287,1.3739351984513621,0.16457503539307067,0.28864643749999996,0.5541213882625651
0.003,1.7997750000000001,1.0,160.95750978996435,0.0331965279955679,1.3712143683495888,0.21728059987497053,0.28864354999999997,0.5605863926365301
0.0035,1.79969375,1.0,237.68269008312078,0.03861953103081015,1.3685847539918279,0.27061303248096646,0.2886401375,0.5667897931274992
0.004,1.7996,1.0,321.46617326939304,0.044012115306951725,1.3661561082367502,0.3229159403455213,0.2886362,0.572479924747823
0.0045000000000000005,1.7994937500000001,1.0,409.2672134162609,0.04937445145122395,1.3639228267807753,0.373034638959032,0.2886317375,0.5776791331246488
0.005,1.799375,1.0,499.41301201027824,0.054706709121136315,1.3618583528051216,0.4202475838461136,0.28862675,0.5824570551822836
0.0055,1.79924375,1.0,590.7899699594632,0.06000905705194062,1.3599388437747806,0.46417381265351876,0.2886212375,0.586875091652022
0.006,1.7991000000000001,1.0,682.5177008580927,0.06528166299978917,1.3581464221541184,0.5046800678848384,0.2886152,0.5909794014611097
0.006500000000000001,1.79894375,1.0,773.8812354509452,0.07052469379696129,1.356467253999831,0.541800854136069,0.2886086375,0.5948057934496811
0.007,1.798775,1.0,864.2856104840487,0.07573831533704384,1.354890398238634,0.5756768696530428,0.28860155,0.5983826697641064
0.0075,1.79859375,1.0,953.2423089234218,0.08092269258258672,1.3534067931338585,0.6065100046532814,0.2885939375,0.6017335413483488
0.008,1.7984,1.0,1040.3570775782434,0.08607798954922523,1.352008666618351,0.6345321451174933,0.2885858,0.6048785032703143
0.0085,1.79819375,1.0,1125.319072070007,0.09120436944019042,1.3506891729174657,0.6599844665844503,0.2885771375,0.607835153056326
0.009000000000000001,1.797975,1.0,1207.8787267157275,0.09630199414681417,1.3494423281934496,0.6831044214800892,0.28856795,0.6106188114373134
0.0095,1.79774375,1.0,1287.8732487255518,0.10137102550929275,1.3482623746560822,0.7041176727365401,0.2885582375,0.6132439999965135
0.01,1.7975,1.0,1365.1667970194742,0.1064116237678123,1.3471443885213028,0.7232342856737473,0.288548,0.6157231298411059
0.0105,1.79724375,1.0,1439.6598850672028,0.11142394792243748,1.34608394155793,0.7406467095522958,0.2885372375,0.6180673003690285
0.011,1.796975,1.0,1511.3079130256526,0.11640815660152891,1.34507672833831,0.7565292577306677,0.28852595000000003,0.6202871542070414
0.0115,1.79669375,1.0,1580.1111836573502,0.12136440833961908,1.3441186004791001,0.7710387063953802,0.2885141375,0.6223928214423007
0.012,1.7964,1.0,1646.0658941539536,0.12629285965789047,1.3432060609792746,0.7843155852656122,0.28850180000000003,0.6243928562088343
0.0125,1.79609375,1.0,1709.1791791413539,0.13119366585799505,1.3423359750118964,0.7964853391930565,0.2884889375,0.6262948986372904
0.013000000000000001,1.7957750000000001,1.0,1769.4942775438385,0.13606698221156632,1.3415052113481847,0.8076595829757804,0.28847555,0.6281064751978053
0.0135,1.79544375,1.0,1827.0735644680296,0.1409129629514541,1.3407107946546353,0.8179375747723292,0.2884616375,0.6298346760389253
0.014,1.7951000000000001,1.0,1881.9865288217852,0.1457317624467965,1.3399499926499543,0.8274075857231706,0.2884472,0.6314859773510715
0.0145,1.79474375,1.0,1934.2858406126345,0.15052353206463503,1.3392205291070758,0.8361481991864971,0.2884322375,0.6330657928326389
0.015,1.794375,1.0,1984.0451302361053,0.15528842317201136,1.3385201277989345,0.8442292642870086,0.28841675,0.634579474091177
0.0155,1.79399375,1.0,2031.3471744957365,0.1600265863385949,1.337846617915237,0.851712952302861,0.2884007375,0.6360320878929714
0.016,1.7936,1.0,2076.286930247598,0.1647381727370122,1.337197879052867,0.8586546457964349,0.2883842,0.6374285406959443
0.0165,1.7931937500000001,1.0,2118.95228544053,0.16942333212696842,1.3365720216265413,0.8651037943663906,0.2883671375,0.6387731959764764
0.017,1.792775,1.0,2159.409253997743,0.17408221130672433,1.335967513184996,0.8711046486081917,0.28834955,0.6400696112381683
0.0175,1.7923437500000001,1.0,2197.734530807803,0.17871495707454077,1.335382821276967,0.876696770926233,0.2883314375,0.6413213111999427
0.018000000000000002,1.7919,1.0,2234.0146005849574,0.18332171622867854,1.3348164134511895,0.8819155868959807,0.2883128,0.6425317898076599
0.0185,1.79144375,1.0,2268.3371612585624,0.18790263466343685,1.3342668344064175,0.8867928877441086,0.2882936375,0.6437043476272726
0.019,1.790975,1.0,2300.793237078879,0.19245785856512962,1.333732674547948,0.8913572434427373,0.28827395,0.6448421617955147
0.0195,1.79049375,1.0,2331.4633871242995,0.1969875324271581,1.3332126972162346,0.8956344008446532,0.2882537375,0.6459480179014094
0.02,1.79,1.0,2360.4135113815787,0.20149179820005325,1.332705868134844,0.8996476083339507,0.288233,0.6470242516219381
0.0205,1.78949375,1.0,2387.714551238255,0.205970797834346,1.3322111530273437,0.9034178499802318,0.2882117375,0.6480731817737335
0.021,1.788975,1.0,2413.4420703811556,0.21042467328056721,1.3317275176173005,0.9069640968834352,0.28818995000000003,0.6490971111462488
0.021500000000000002,1.78844375,1.0,2437.669286869312,0.21485356521290416,1.331253990845166,0.9103035404959001,0.2881676375,0.6500981937154041
0.022,1.7879,1.0,2460.47250095328,0.2192576154379049,1.3307896078773382,0.9134517747012413,0.2881448,0.6510785565062398
0.0225,1.78734375,1.0,2481.9198496455283,0.22363696409697895,1.3303335140314865,0.9164229854230838,0.28812143749999997,0.6520400813380413
0.023,1.786775,1.0,2502.066767819538,0.22799174811560552,1.3298850027373907,0.9192301047228638,0.28809755,0.6529843270693614
0.0235,1.78619375,1.0,2520.9710976955107,0.23232210441926382,1.3294433674248312,0.9218849143050369,0.28807313749999996,0.6539128433028945
0.024,1.7856,1.0,2538.6928871537775,0.23662816993343308,1.3290079015235872,0.9243981637353835,0.2880482,0.6548271707112423
0.0245,1.78499375,1.0,2555.2941991157286,0.2409100815835925,1.3285778984634389,0.9267796750868047,0.2880227375,0.6557288413308356
0.025,1.784375,1.0,2570.8262125234905,0.24516797317062874,1.3281527708037257,0.9290384547002073,0.28799675,0.6566191295084103
0.025500000000000002,1.78374375,1.0,2585.3550714775206,0.2494019838777641,1.3277318055631873,0.9311827361335522,0.2879702375,0.6574995651221085
0.026000000000000002,1.7831000000000001,1.0,2598.927656470337,0.2536122470924801,1.3273144834666297,0.9332201027929484,0.2879432,0.6583712656663692
0.0265,1.78244375,1.0,2611.5848984587406,0.25779889420526503,1.3269003514795745,0.935157530923147,0.2879156375,0.6592352047274574
0.027,1.781775,1.0,2623.3687389676847,0.2619620566066076,1.326488956567543,0.937001437456526,0.28788755,0.6600923508910619
0.0275,1.7810937500000001,1.0,2634.322043619918,0.2661018656869961,1.3260798456960567,0.9387577323059426,0.2878589375,0.6609436678279204
0.028,1.7804,1.0,2644.48852021643,0.27021845283691914,1.3256725658306368,0.9404318651333561,0.2878298,0.661790114366357
0.0285,1.77969375,1.0,2653.912641366935,0.2743119494468651,1.3252666639368045,0.9420288672376802,0.2878001375,0.662632644551728
0.029,1.778975,1.0,2662.6303345792408,0.2783824816862511,1.3248617719894586,0.9435533990766474,0.28776995,0.6634720315684598
0.029500000000000002,1.7782437500000001,1.0,2670.6917011326914,0.28243018564579564,1.3244573969362525,0.9450097597092374,0.2877392375,0.6643093034864511
0.03,1.7775,1.0,2678.126007575867,0.2864551872894425,1.3240532423328717,0.9464019545446444,0.287708,0.6651450769564833
0.0305,1.77674375,1.0,2684.961991057729,0.29045761206543114,1.3236490204014117,0.9477336989504843,0.2876762375,0.6659799476824189
0.031,1.775975,1.0,2691.22876296598,0.29443758542200066,1.3232444433639678,0.9490084420197726,0.28764395,0.6668145084002506
0.0315,1.7751937500000001,1.0,2696.9557742561115,0.2983952328073902,1.3228392234426354,0.9502293889755191,0.2876111375,0.6676493488742224
0.032,1.7744,1.0,2702.1727826160477,0.3023306796698391,1.3224330728595093,0.9513995214287642,0.2875778,0.6684850558876734
0.0325,1.77359375,1.0,2706.9098214677997,0.3062440514575865,1.3220257038366854,0.9525216157188549,0.2875439375,0.669322213228595
0.033,1.772775,1.0,2711.1894421953425,0.3101354683748194,1.321616899083171,0.953598266292383,0.28750955,0.6701612570922368
0.0335,1.7719437500000002,1.0,2715.041188665588,0.3140050569578957,1.3212063793777273,0.9546318881919673,0.2874746375,0.6710027482367714
0.034,1.7711000000000001,1.0,2718.498608432583,0.3178529469871154,1.3207938308072296,0.9556247334857207,0.2874392,0.6718473154209904
0.0345,1.7702437500000001,1.0,2721.5793466825544,0.32167925701449585,1.3203790858529363,0.9565789201817332,0.2874032375,0.6726952849108319
0.035,1.7693750000000001,1.0,2724.301172013359,0.32548410559205443,1.319961976996107,0.9574964294658299,0.28736675,0.673546981112062
0.035500000000000004,1.76849375,1.0,2726.6819639363916,0.3292676112718084,1.3195423367180008,0.9583791161245812,0.2873297375,0.6744027265459178
0.036000000000000004,1.7676,1.0,2728.7397010005134,0.3330298926057752,1.3191199974998766,0.9592287180597273,0.2872922,0.6752628418229552
0.0365,1.76669375,1.0,2730.492449538404,0.33677106814597213,1.3186947918229937,0.960046864982609,0.2872541375,0.6761276456151109
0.037,1.765775,1.0,2731.9583530348673,0.3404912564444166,1.318266552168611,0.9608350863676871,0.28721555,0.676997454625972
0.0375,1.76484375,1.0,2733.1556221174924,0.3441905760531258,1.317835111017988,0.9615948187358548,0.2871764375,0.6778725835592578
0.038,1.7639,1.0,2734.102525169307,0.34786914552411724,1.3174003008523836,0.96232741233081,0.28713679999999997,0.6787533450855114
0.0385,1.76294375,1.0,2734.8142588970995,0.3515270792390694,1.3169619824911591,0.9630341390790129,0.28709663750000003,0.6796399925231956
0.039,1.761975,1.0,2735.3045947936207,0.3551644933621482,1.3165200300551825,0.963716197872506,0.28705595,0.6805327505544209
0.0395,1.7609937500000001,1.0,2735.591678963636,0.3587815110836996,1.3160742782459325,0.9643747157879701,0.2870147375,0.6814319216559721
0.04,1.76,1.0,2735.685636306704,0.3623782437959043,1.3156246348453573,0.9650107595744332,0.286973,0.6823376590520882
0.0405,1.7589937500000001,1.0,2735.596613609335,0.36595480289094295,1.3151710076354053,0.9656253354855265,0.2869307375,0.6832501146239902
0.041,1.757975,1.0,2735.3347760537895,0.3695112997609965,1.3147133043980246,0.9662193933421628,0.28688795,0.684169438886723
0.0415,1.75694375,1.0,2734.9103039155666,0.3730478457982456,1.3142514329151636,0.9667938302815204,0.2868446375,0.6850957809654543
0.042,1.7559,1.0,2734.3333894494076,0.37656455239487113,1.3137853009687703,0.9673494942195585,0.28680079999999997,0.6860292885712316
0.0425,1.75484375,1.0,2733.6142339639805,0.38006153094305384,1.3133148163407933,0.9678871870516763,0.2867564375,0.6869701079761957
0.043000000000000003,1.753775,1.0,2732.7630450845545,0.3835388928349744,1.3128398868131808,0.9684076676137883,0.28671155,0.6879183839882534
0.043500000000000004,1.75269375,1.0,2731.7900342053463,0.38699674946281365,1.3123604201678807,0.9689116544239947,0.28666613750000003,0.6888742599252073
0.044,1.7516,1.0,2730.7010261361875,0.39043520536574505,1.3118763640632487,0.9693998303332908,0.2866202,0.6898377982738775
0.0445,1.75049375,1.0,2729.499019589423,0.39385436425511566,1.311387691873712,0.969872844562089,0.2865737375,0.6908090094054918
0.045,1.7493750000000001,1.0,2728.205063512727,0.397254356986741,1.3108942129063796,0.9703313042530722,0.28652675,0.6917882282567689
0.0455,1.74824375,1.0,2726.823980565162,0.40063528701412404,1.3103958839001135,0.9707757928018326,0.2864792375,0.6927754950824849
0.046,1.7471,1.0,2725.360592949635,0.40399725779076767,1.3098926615937747,0.9712068641868574,0.2864312,0.6937708491400709
0.0465,1.7459437500000001,1.0,2723.8197216708304,0.4073403727701748,1.3093845027262252,0.9716250447310476,0.28638263750000004,0.6947743286761683
0.047,1.744775,1.0,2722.2061858346983,0.41066473540584847,1.3088713640363265,0.9720308347415697,0.28633355,0.6957859709130709
0.0475,1.74359375,1.0,2720.5248019900637,0.4139704491512915,1.3083532022629403,0.9724247100375188,0.28628393750000003,0.6968058120350455
0.048,1.7424,1.0,2718.7803835105133,0.41725761746000684,1.307829974144928,0.9728071233740461,0.2862338,0.6978338871745312
0.0485,1.74119375,1.0,2716.977740019059,0.4205263437854974,1.3073016364211514,0.973178505770869,0.2861831375,0.6988702303982223
0.049,1.739975,1.0,2715.1216768532154,0.42377673158126616,1.3067681458304719,0.9735392677524083,0.28613195,0.6999148746930305
0.0495,1.73874375,1.0,2713.2169945723513,0.42700888430081607,1.3062294591117514,0.9738898005061877,0.2860802375,0.7009678519519267
0.05,1.7375,1.0,2711.268488506348,0.43022290539764996,1.305685533003851,0.9742304769655756,0.286028,0.7020291929596668
0.0505,1.73624375,1.0,2709.280948345222,0.4334188983252708,1.3051363242456329,0.9745616528224543,0.2859752375,0.703098927378393
0.051000000000000004,1.734975,1.0,2707.2591577711605,0.4365969665371815,1.3045817895759582,0.9748836674749315,0.28592195,0.7041770837331209
0.051500000000000004,1.73369375,1.0,2705.2041383323253,0.4397571968130219,1.3040219200254297,0.9751968453063693,0.2858681375,0.7052636229083267
0.052000000000000005,1.7324,1.0,2703.121557107439,0.4428997056808914,1.303456664185316,0.9755014966448852,0.2858138,0.706358587249746
0.0525,1.73109375,1.0,2701.0150885926178,0.4460245973081355,1.3028859887793944,0.975797917781884,0.28575893750000003,0.707461982784211
0.053,1.729775,1.0,2698.886686783262,0.4491319670423523,1.3023098762100933,0.9760863919795935,0.28570355000000003,0.7085737842660653
0.0535,1.72844375,1.0,2696.738302943732,0.4522219102311399,1.3017283088798408,0.9763671901159819,0.2856476375,0.7096939656266308
0.054,1.7271,1.0,2694.571885529463,0.4552945222220963,1.3011412691910655,0.9766405713291162,0.2855912,0.7108224999680938
0.0545,1.7257437500000001,1.0,2692.3893801163426,0.45834989836281953,1.3005487395461957,0.9769067836227199,0.2855342375,0.7119593595573759
0.055,1.724375,1.0,2690.192729336392,0.46138813400090767,1.299950702347659,0.9771660644355677,0.28547675,0.7131045158199809
0.0555,1.72299375,1.0,2687.983872821103,0.46440932448395883,1.2993471399978846,0.9774186411771674,0.2854187375,0.7142579393338229
0.056,1.7216,1.0,2685.764747150657,0.4674135651595709,1.2987380348993,0.9776647317319824,0.2853602,0.7154195998230376
0.0565,1.72019375,1.0,2683.5372858108954,0.47040095137534205,1.2981233694543342,0.9779045449342861,0.28530113749999997,0.7165894661517684
0.057,1.718775,1.0,2681.3034191568913,0.47337157847887035,1.2975031260654146,0.9781382810155872,0.28524155,0.7177675063179401
0.0575,1.71734375,1.0,2679.0650743827687,0.4763255418177537,1.2968772871349703,0.9783661320264165,0.2851814375,0.7189536874470038
0.058,1.7159,1.0,2676.8241754994,0.4792629367395903,1.296245835065429,0.9785882822341396,0.2851208,0.7201479757856719
0.0585,1.71444375,1.0,2674.5822033602567,0.4821838472922832,1.2956087562991199,0.9788049077553352,0.2850596375,0.7213503290793608
0.059000000000000004,1.7129750000000001,1.0,2672.340122551291,0.4850883497073261,1.2949660419982694,0.9790161773070086,0.28499795,0.7225606953695
0.059500000000000004,1.71149375,1.0,2670.1005818984195,0.48797657959970037,1.294317667831828,0.979222257050626,0.2849357375,0.7237790510268933
0.06,1.71,1.0,2667.864209162018,0.49084862360448117,1.293663628009649,0.97942330354897,0.284873,0.7250053366843447
0.0605,1.7084937500000001,1.0,2665.6316310494212,0.4937045683567438,1.293003916741584,0.9796194672842957,0.2848097375,0.7262394922643203
0.061,1.7069750000000001,1.0,2663.4034732175032,0.49654450049156346,1.2923385282374864,0.9798108929393381,0.28474595,0.7274814569768506
0.0615,1.7054437500000001,1.0,2661.1803602766513,0.4993685066440154,1.2916674567072082,0.9799977196632491,0.2846816375,0.728731169317439
0.062,1.7039,1.0,2658.9629157954173,0.5021766734491747,1.290990696360602,0.9801800813233796,0.2846168,0.7299885670649616
0.0625,1.70234375,1.0,2656.751762305326,0.5049690875421169,1.2903082414075202,0.9803581067437646,0.2845514375,0.7312535872795695
0.063,1.7007750000000001,1.0,2654.5475213071163,0.5077458355579169,1.2896200860578155,0.9805319199311021,0.28448555,0.7325261663005853
0.0635,1.69919375,1.0,2652.3508132776483,0.5105070041316501,1.2889262245213404,0.980701640288974,0.28441913750000003,0.7338062397444005
0.064,1.6976,1.0,2650.16225767669,0.5132526798983916,1.2882266510079474,0.980867382820999,0.2843522,0.7350937425023689
0.0645,1.69599375,1.0,2647.9824729560937,0.5159829494932169,1.2875213597274888,0.9810292583235705,0.2842847375,0.7363886087386988
0.065,1.694375,1.0,2645.8120765679014,0.5186978995512008,1.2868103448898174,0.9811873735687786,0.28421675,0.7376907718883419
0.0655,1.69274375,1.0,2643.6516849743975,0.5213976167074189,1.2860936007047856,0.9813418314780917,0.2841482375,0.739000164654881
0.066,1.6911,1.0,2641.5019136585715,0.5240821875969464,1.2853711213822459,0.9814927312873175,0.2840792,0.7403167190084168
0.0665,1.6894437500000001,1.0,2639.3633771353357,0.5267516988548582,1.2846429011320508,0.9816401687033492,0.2840096375,0.7416403661834488
0.067,1.687775,1.0,2637.236688963053,0.5294062371162299,1.2839089341640528,0.9817842360531556,0.28393955,0.7429710366767587
0.0675,1.68609375,1.0,2635.1224617567914,0.5320458890161365,1.2831692146881046,0.9819250224254512,0.2838689375,0.7443086602452873
0.068,1.6844000000000001,1.0,2633.017047477642,0.5346707097516417,1.282423776336344,0.982062613625864,0.2837978,0.7456530948977002
0.0685,1.68269375,1.0,2630.919587249065,0.5372807892697703,1.2816726269721157,0.9821970935634716,0.2837261375,0.7470042449446026
0.069,1.680975,1.0,2628.8354764087017,0.5398762519439552,1.2809157165449108,0.9823285427397705,0.28365395,0.7483621179785056
0.0695,1.67924375,1.0,2626.7645586384533,0.54245717489556,1.280153046365265,0.982457038273276,0.28358123749999997,0.7497266282278752
0.07,1.6775,1.0,2624.706677931401,0.5450236352459487,1.2793846177437138,0.9825826546773001,0.283508,0.7510976893118588
0.07050000000000001,1.67574375,1.0,2622.6616785882065,0.5475757101164846,1.278610431990793,0.982705463964136,0.2834342375,0.7524752142407645
0.07100000000000001,1.673975,1.0,2620.6294052138064,0.5501134766285318,1.2778304904170381,0.9828255357443885,0.28335995,0.7538591154165437
0.07150000000000001,1.67219375,1.0,2618.6097027144665,0.5526370119034537,1.277044794332985,0.982942937321706,0.2832851375,0.7552493046332718
0.07200000000000001,1.6704,1.0,2616.6024162944273,0.5551463930626143,1.276253345049169,0.9830577337831602,0.2832098,0.7566456930776299
0.0725,1.66859375,1.0,2614.607391452678,0.557641697227377,1.2754561438761263,0.9831699880854942,0.2831339375,0.7580481913293841
0.073,1.6667750000000001,1.0,2612.624473979967,0.5601230015191058,1.2746531921243922,0.983279761137461,0.28305755,0.7594567093618677
0.0735,1.66494375,1.0,2610.6535099556572,0.5625903830591643,1.2738444911045024,0.9833871118784451,0.2829806375,0.7608711565424622
0.074,1.6631,1.0,2608.694345744549,0.5650439189689161,1.2730300421269924,0.9834920973535681,0.2829032,0.7622914416330764
0.0745,1.6612437500000001,1.0,2606.74682799407,0.5674836863697251,1.2722098465023983,0.9835947727854445,0.2828252375,0.7637174727906274
0.075,1.659375,1.0,2604.810803631371,0.569909762382955,1.2713839055412555,0.9836951916427701,0.28274675,0.7651491575675221
0.0755,1.65749375,1.0,2602.8861198601408,0.5723222241299694,1.2705522205540996,0.9837934057058919,0.2826677375,0.7665864029121361
