Time [s],Phi [rad],STIM [ ],Fsee [N],Gamma [ ],Lcerel [ ],q [ ],Lmtc [m],fisomrel [ ]
0.0,1.8,1.0,17.96681213731713,1.0000007106133452e-05,1.3793397849868696,0.005000026651812984,0.288653,0.5411394372643991
0.0005,1.79999375,1.0,18.27617605663696,0.0056191532237691785,1.3793024508936722,0.012940515233998778,0.2886527375,0.541229753654507
0.001,1.799975,1.0,21.617814095893973,0.011196843525808806,1.37893836007196,0.03560858062816656,0.28865195,0.5421100741899668
0.0015,1.79994375,1.0,31.068579162464328,0.01674324739616063,1.3780462596899374,0.0706017120172936,0.2886506375,0.5442634742807666
0.002,1.7999,1.0,53.581456883230075,0.022258540326108734,1.3763681920828676,0.11471784511752543,0.2886488,0.5483003315952604
0.0025,1.79984375,1.0,97.11763996903508,0.027742896822849857,1.3739352297917493,0.16457468253845203,0.28864643749999996,0.5541213135222949
0.003,1.7997750000000001,1.0,160.95676287470354,0.03319649041721033,1.3712143963074273,0.2172802352384028,0.28864354999999997,0.5605863264480624
0.0035,1.79969375,1.0,237.6819034297914,0.03861949366323738,1.368584778222884,0.2706126692613389,0.2886401375,0.5667897361683274
0.004,1.7996,1.0,321.46537473725994,0.04401207814898146,1.366156129386849,0.32291558823437877,0.2886362,0.5724798753585496
0.0045000000000000005,1.7994937500000001,1.0,409.2664147572063,0.049374414501680626,1.3639228455283692,0.3730343044083518,0.2886317375,0.5776790896126747
0.005,1.799375,1.0,499.41222039165365,0.05470667237885268,1.3618583696269666,0.4202472706035541,0.28862675,0.5824570163613316
0.0055,1.79924375,1.0,590.789187744445,0.06000902051574908,1.359938859057376,0.4641735224768497,0.2886212375,0.5868750565703904
0.006,1.7991000000000001,1.0,682.5169336366259,0.06528162666853554,1.3581464361001707,0.5046798010585043,0.2886152,0.5909793696069717
0.006500000000000001,1.79894375,1.0,773.8803712231978,0.07052465766965423,1.3564672687527701,0.5418006112937175,0.2886086375,0.5948057599105241
0.007,1.798775,1.0,864.2844882568871,0.07573827941239303,1.3548904163662068,0.5756766510994376,0.28860155,0.5983826287353966
0.0075,1.79859375,1.0,953.24153866871,0.08092265685932522,1.35340680498118,0.6065098027545307,0.2885939375,0.6017335146460274
0.008,1.7984,1.0,1040.35308230054,0.08607795398883425,1.3520087254408613,0.6345319900588149,0.2885858,0.6048783712165191
0.0085,1.79819375,1.0,1125.3183384158692,0.09120433413410559,1.3506891833032904,0.6599843000071144,0.2885771375,0.6078351298280332
0.009000000000000001,1.797975,1.0,1207.8831732328715,0.09630195921146932,1.349442267436595,0.6831042313517002,0.28856795,0.6106189468391943
0.0095,1.79774375,1.0,1287.8702620814242,0.1013709905587564,1.3482624141776847,0.7041175512865308,0.2885582375,0.6132439122166162
0.01,1.7975,1.0,1365.1628496100075,0.1064115889422739,1.3471444392562266,0.7232341817698351,0.288548,0.6157230175174745
0.0105,1.79724375,1.0,1439.6597589906637,0.11142391335479264,1.3460839431358744,0.7406465918327612,0.2885372375,0.61806729688624
0.011,1.796975,1.0,1511.3091603397315,0.11640812226173695,1.3450767131017602,0.7565291423695856,0.28852595000000003,0.620287187738793
0.0115,1.79669375,1.0,1580.1123624321442,0.12136437421875401,1.3441185863967766,0.7710386012039018,0.2885141375,0.622392852347845
0.012,1.7964,1.0,1646.0655056541357,0.12629282569773811,1.3432060655265852,0.784315496775025,0.28850180000000003,0.6243928462556165
0.0125,1.79609375,1.0,1709.1777810262633,0.13119363206008333,1.3423359910715655,0.7964852628909692,0.2884889375,0.6262948635747736
0.013000000000000001,1.7957750000000001,1.0,1769.4930601935362,0.13606694851304993,1.3415052250910864,0.8076595119885217,0.28847555,0.6281064452662195
0.0135,1.79544375,1.0,1827.075062132986,0.1409129295982286,1.340710778015761,0.8179374981730171,0.2884616375,0.6298347121935423
0.014,1.7951000000000001,1.0,1881.9894668604713,0.14573172928887915,1.339949960488442,0.8274075090805016,0.2884472,0.6314860470787843
0.0145,1.79474375,1.0,1934.2897131879618,0.15052349903960283,1.3392204872925952,0.836148124409435,0.2884322375,0.633065883293923
0.015,1.794375,1.0,1984.050250352917,0.15528839030500086,1.3385200732116875,0.844229190141044,0.28841675,0.634579591941179
0.0155,1.79399375,1.0,2031.353135004955,0.1600265536423632,1.3378465551125327,0.8517128802136186,0.2884007375,0.6360322232098037
0.016,1.7936,1.0,2076.295990309075,0.16473814052188493,1.337197784630613,0.8586545685936249,0.2883842,0.6374287437506595
0.0165,1.7931937500000001,1.0,2118.959381299422,0.1694233000305841,1.3365719484231169,0.8651037280135445,0.2883671375,0.6387733531079935
0.017,1.792775,1.0,2159.412017361696,0.17408217916762947,1.3359674849454413,0.8711045990460619,0.28834955,0.6400696717456464
0.0175,1.7923437500000001,1.0,2197.7334077803675,0.17871492493218977,1.3353828326529829,0.8766967354425358,0.2883314375,0.6413212868675424
0.018000000000000002,1.7919,1.0,2234.012953362659,0.18332168432343376,1.3348164300011387,0.8819155553282144,0.2883128,0.6425317544684075
0.0185,1.79144375,1.0,2268.334013289944,0.18790260278877982,1.334266865794452,0.8867928620970157,0.2882936375,0.6437042807141383
0.019,1.790975,1.0,2300.7929754169604,0.19245782745958057,1.333732677138481,0.8913572129399787,0.28827395,0.6448421562818317
0.0195,1.79049375,1.0,2331.4608133686593,0.1969875015395012,1.333212722529053,0.8956343778682938,0.2882537375,0.6459479641096182
0.02,1.79,1.0,2360.406151313177,0.2014917672490757,1.3327059400756867,0.8996475977594641,0.288233,0.6470240989743419
0.0205,1.78949375,1.0,2387.702732415991,0.20597076680883805,1.3322112678878995,0.903417850109734,0.2882117375,0.6480729384193696
0.021,1.788975,1.0,2413.42898831114,0.2104246424393223,1.3317276440752093,0.9069641002683634,0.28818995000000003,0.6490968436106865
0.021500000000000002,1.78844375,1.0,2437.6534335113847,0.2148535342525829,1.3312541433283511,0.9103035497608496,0.2881676375,0.6500978715809955
0.022,1.7879,1.0,2460.4615634639313,0.21925758546148494,1.3307897125892878,0.9134517749238514,0.2881448,0.6510783356029859
0.0225,1.78734375,1.0,2481.9130210316557,0.22363693442550178,1.330333579123298,0.9164229782880368,0.28812143749999997,0.6520399442078821
0.023,1.786775,1.0,2502.063239688862,0.22799171835376775,1.3298850362326038,0.9192300919602074,0.28809755,0.6529842566001711
0.0235,1.78619375,1.0,2520.9700621169977,0.23232207445541708,1.3294433772194274,0.9218848976648006,0.28807313749999996,0.6539128227240372
0.024,1.7856,1.0,2538.693538356278,0.23662813993958415,1.3290078953859907,0.9243981449675858,0.2880482,0.654827183589544
0.0245,1.78499375,1.0,2555.2939771786473,0.24091005161844223,1.3285779005483944,0.9267796586512319,0.2880227375,0.6557288369617648
0.025,1.784375,1.0,2570.8229861912905,0.2451679439835597,1.3281528010213444,0.9290384443135776,0.28799675,0.6566190662686415
0.025500000000000002,1.78374375,1.0,2585.3519099596647,0.2494019558894322,1.3277318350904403,0.9311827267936386,0.2879702375,0.6574995034064172
0.026000000000000002,1.7831000000000001,1.0,2598.9220737938376,0.2536122191976824,1.3273145354701783,0.9332200976761292,0.2879432,0.6583711571107824
0.0265,1.78244375,1.0,2611.5759240295824,0.2577988657699329,1.3269004348750542,0.9351575309227593,0.2879156375,0.6592350308625654
0.027,1.781775,1.0,2623.3569339787236,0.26196202746780645,1.3264890660195632,0.9370014414023156,0.28788755,0.6600921229900297
0.0275,1.7810937500000001,1.0,2634.3095147198333,0.26610183615292565,1.3260799616182015,0.9387577371617972,0.2878589375,0.6609434267572456
0.028,1.7804,1.0,2644.4789307307733,0.2702184236869132,1.3256726543854647,0.9404318661754303,0.2878298,0.6617899304385386
0.0285,1.77969375,1.0,2653.9065175077308,0.27431191913844266,1.3252667203875284,0.9420288633499453,0.2878001375,0.6626325274500684
0.029,1.778975,1.0,2662.6342084015396,0.2783824556299891,1.3248617363384783,0.9435533841407072,0.28776995,0.66347210543096
0.029500000000000002,1.7782437500000001,1.0,2670.6955847665254,0.28243016107318875,1.3244573612489587,0.9450097458122768,0.2877392375,0.6643093773321515
0.03,1.7775,1.0,2678.1228438644202,0.2864551619908353,1.3240532713643314,0.9464019495090229,0.287708,0.6651450169581474
0.0305,1.77674375,1.0,2684.9486214571484,0.2904575849057225,1.323649142929958,0.9477337057472776,0.2876762375,0.665979694772652
0.031,1.775975,1.0,2691.2059503998703,0.2944375563406437,1.3232446521911996,0.9490084591834549,0.28764395,0.6668140779011175
0.0315,1.7751937500000001,1.0,2696.928221557719,0.29839520281839277,1.3228394753934185,0.9502294109803031,0.2876111375,0.6676488301266019
0.032,1.7744,1.0,2702.1404823440457,0.30233064573279345,1.3224333679385059,0.951399547137373,0.2875778,0.6684844491066075
0.0325,1.77359375,1.0,2706.873747598193,0.3062440132104394,1.322026033100998,0.9525216438202198,0.2875439375,0.6693215370064889
0.033,1.772775,1.0,2711.164839980504,0.3101354365781361,1.3216171234623926,0.9535982835014253,0.28750955,0.6701607968615311
0.0335,1.7719437500000002,1.0,2715.0332113971385,0.3140050357464448,1.3212064520809552,0.9546318906907126,0.2874746375,0.67100259930346
0.034,1.7711000000000001,1.0,2718.4984758323158,0.3178529306259269,1.320793832014952,0.955624729273783,0.2874392,0.6718473129501366
0.0345,1.7702437500000001,1.0,2721.5803936404,0.3216792411271438,1.3203790763226484,0.9565789150488274,0.2874032375,0.6726953043834396
0.035,1.7693750000000001,1.0,2724.2988566115823,0.32548408716065685,1.3199619980623105,0.9574964271446317,0.28736675,0.6735469381249171
0.035500000000000004,1.76849375,1.0,2726.673873813633,0.3292675886370275,1.3195424102922044,0.9583791184317388,0.2873297375,0.6744025766092108
0.036000000000000004,1.7676,1.0,2728.7255582074713,0.333029865466817,1.3191201260705956,0.959228725025943,0.2872922,0.6752625801552525
0.0365,1.76669375,1.0,2730.4741140382916,0.33677103756058685,1.31869495845575,0.9600468749726241,0.2872541375,0.6761273069352292
0.037,1.765775,1.0,2731.9398250009654,0.3404912248288984,1.3182667205059333,0.9608350961909516,0.28721555,0.6769971129413206
0.0375,1.76484375,1.0,2733.1385699466023,0.3441905424713675,1.3178352659123291,0.9615948267185009,0.2871764375,0.6778722695868591
0.038,1.7639,1.0,2734.08651517078,0.3478691091838849,1.317400446254895,0.9623274187612008,0.28713679999999997,0.6787530507563571
0.0385,1.76294375,1.0,2734.8042067764345,0.35152704850683963,1.3169620737724035,0.9630341414968023,0.28709663750000003,0.6796398080034995
0.039,1.761975,1.0,2735.3028600244634,0.35516447314052924,1.3165200458068413,0.9637161953681008,0.28705595,0.6805327187577649
0.0395,1.7609937500000001,1.0,2735.5937215595363,0.3587814957852514,1.3160742597001949,0.9643747111796742,0.2870147375,0.681431959040095
0.04,1.76,1.0,2735.6880649977243,0.3623782291413038,1.3156246127944506,0.9650107548787631,0.286973,0.682337703438626
0.0405,1.7589937500000001,1.0,2735.597186748513,0.3659547859089839,1.3151710024315952,0.965625331959052,0.2869307375,0.6832501250837482
0.041,1.757975,1.0,2735.3324020702753,0.36951127878858947,1.3147133259536152,0.9662193915207656,0.28688795,0.6841693956224921
0.0415,1.75694375,1.0,2734.905041359236,0.37304782048041807,1.3142514807024972,0.9667938300172124,0.2868446375,0.685095685192245
0.042,1.7559,1.0,2734.326446672524,0.37656452368476734,1.3137853640202277,0.9673494947149929,0.28680079999999997,0.686029162393792
0.0425,1.75484375,1.0,2733.6079684845563,0.38006150110193493,1.3133148732487934,0.9678871868924838,0.2867564375,0.686969994263688
0.043000000000000003,1.753775,1.0,2732.755996852248,0.38353885756290446,1.3128399508407302,0.9684076672181997,0.28671155,0.6879182562435251
0.043500000000000004,1.75269375,1.0,2731.778972193194,0.3869967040418278,1.312360520675339,0.9689116554346967,0.28666613750000003,0.6888740597048186
0.044,1.7516,1.0,2730.694271259324,0.390435165383245,1.311876425449061,0.9693998291275906,0.2866202,0.6898376761770293
0.0445,1.75049375,1.0,2729.5074313834757,0.3938543465697033,1.3113876154137278,0.9698728360026706,0.2865737375,0.6908091612466591
0.045,1.7493750000000001,1.0,2728.223991107169,0.3972543525837495,1.3108940408211716,0.9703312904280762,0.28652675,0.6917885694575374
0.0455,1.74824375,1.0,2726.8494891820033,0.40063528840793067,1.3103956519232243,0.9707757754711411,0.2864792375,0.69277595429578
0.046,1.7471,1.0,2725.389463625891,0.4039972590247938,1.309892398971718,0.9712068447917714,0.2864312,0.693771368174597
0.0465,1.7459437500000001,1.0,2723.8494508340036,0.4073403694168858,1.3093842322184839,0.9716250244037432,0.28638263750000004,0.6947748624189389
0.047,1.744775,1.0,2722.234984744583,0.41066472456675374,1.3088711019153545,0.9720308143143108,0.28633355,0.695786487249983
0.0475,1.74359375,1.0,2720.551596059859,0.41397042945694457,1.3083529583141615,0.9724246900516023,0.28628393750000003,0.6968062917694673
0.048,1.7424,1.0,2718.8048115214447,0.41725758907000526,1.307829751666737,0.9728071040884662,0.2862338,0.6978343239438618
0.0485,1.74119375,1.0,2717.0001532412252,0.4205263083884829,1.3073014322249126,0.9731784871706903,0.2861831375,0.6988706305883848
0.049,1.739975,1.0,2715.1431380861345,0.4237766923949243,1.3067679502405203,0.9735392495568369,0.28613195,0.69991525735086
0.0495,1.73874375,1.0,2713.239277118854,0.4270088460718766,1.306229255965392,0.9738897821763376,0.2860802375,0.7009682486954159
0.05,1.7375,1.0,2711.289906485814,0.43022285871361593,1.305685337669441,0.9742304584382971,0.286028,0.7020295737688769
0.0505,1.73624375,1.0,2709.3023996809698,0.4334188471455656,1.305136128535263,0.9745616340247726,0.2859752375,0.7030993082350494
0.051000000000000004,1.734975,1.0,2707.281712036207,0.4365969186001174,1.3045815837262587,0.9748836486448044,0.28592195,0.7041774835931254
0.051500000000000004,1.73369375,1.0,2705.230221191618,0.4397571700397384,1.3040216818804076,0.9751968269676579,0.2858681375,0.7052640846511744
0.052000000000000005,1.7324,1.0,2703.1503018198873,0.44289969842689586,1.3034564016356898,0.9755014790781664,0.2858138,0.7063590953645374
0.0525,1.73109375,1.0,2701.0443254950796,0.44602460072405686,1.3028857216300846,0.9757979012561944,0.28575893750000003,0.7074624988285168
0.053,1.729775,1.0,2698.914660570928,0.4491319738936887,1.3023096205015718,0.9760863767079148,0.28570355000000003,0.708574277271032
0.0535,1.72844375,1.0,2696.7636720700243,0.4522219148982585,1.301728076888131,0.9763671762522701,0.2856476375,0.7096944120452491
0.054,1.7271,1.0,2694.5937215826693,0.4552945207002336,1.3011410694277419,0.9766405589657224,0.2855912,0.710822883622181
0.0545,1.7257437500000001,1.0,2692.4071671758384,0.4583498882620809,1.300548576758384,0.9769067727881556,0.2855342375,0.7119596715832582
0.055,1.724375,1.0,2690.2063633124003,0.4613881145462678,1.299950577518037,0.977166055092582,0.28547675,0.7131047546128699
0.0555,1.72299375,1.0,2687.9936607805125,0.4644092965152614,1.299347050344681,0.977418633221095,0.2854187375,0.7142581104908772
0.056,1.7216,1.0,2685.7714066329463,0.46741353113152895,1.2987379738762947,0.9776647249893361,0.2853602,0.7154197160850964
0.0565,1.72019375,1.0,2683.5419441365857,0.47040091535753753,1.2981233267508587,0.9779045391615615,0.28530113749999997,0.7165895473437522
0.057,1.718775,1.0,2681.3068161472397,0.47337153589181374,1.297503094911791,0.9781382753942934,0.28524155,0.7177675654269959
0.0575,1.71734375,1.0,2679.0670430955843,0.4763254732573105,1.2968772690724628,0.9783661249308074,0.2851814375,0.7189537216456522
0.058,1.7159,1.0,2676.8269291142,0.47926285917085815,1.2962458097910476,0.9785882740554973,0.2851208,0.7201480235371378
0.0585,1.71444375,1.0,2674.587192489976,0.4821837819935709,1.2956087104866196,0.9788048996032849,0.2850596375,0.721350415447825
0.059000000000000004,1.7129750000000001,1.0,2672.3485503098905,0.4850883300865631,1.2949659645782534,0.9790161713729019,0.28499795,0.7225608410089941
0.059500000000000004,1.71149375,1.0,2670.1117184613263,0.4879765918109489,1.2943175654850234,0.9792222524601402,0.2849357375,0.7237792431344674
0.06,1.71,1.0,2667.8774116321774,0.49084865552784257,1.2936635066260038,0.9794232995728008,0.284873,0.7250055640182367
0.0605,1.7084937500000001,1.0,2665.646343313019,0.4937046095983584,1.293003781420269,0.9796194633284774,0.2848097375,0.7262397451320892
0.061,1.7069750000000001,1.0,2663.419225799199,0.4965445423836107,1.2923383832868938,0.9798108885362322,0.28474595,0.7274817272232308
0.0615,1.7054437500000001,1.0,2661.1967701947347,0.49936854224471355,1.2916673056449521,0.9799977144631588,0.2846816375,0.7287314503119071
0.062,1.7039,1.0,2658.9796864169716,0.5021766975427814,1.2909905419135186,0.9801800750867417,0.2846168,0.7299888536890204
0.0625,1.70234375,1.0,2656.768683201592,0.5049690966389284,1.2903080855116678,0.9803580993338787,0.2845514375,0.7312538759137444
0.063,1.7007750000000001,1.0,2654.5644681095505,0.5077458278942688,1.2896199298584738,0.9805319113073595,0.28448555,0.7325264548111374
0.0635,1.69919375,1.0,2652.367747534325,0.5105069796699169,1.2889260683730115,0.9807016305005497,0.28441913750000003,0.733806527469751
0.064,1.6976,1.0,2650.1792267100313,0.5132526403269868,1.2882264944743547,0.9808673720009761,0.2843522,0.7350940302392373
0.0645,1.69599375,1.0,2647.999609721205,0.515982898226593,1.2875212015815782,0.9810292466834641,0.2842847375,0.7363888987279511
0.065,1.694375,1.0,2645.829599512744,0.5186978417298496,1.2868101831137566,0.981187361393435,0.28421675,0.7376910678005529
0.0655,1.69274375,1.0,2643.6698979013822,0.5213975591978709,1.2860934324899638,0.9813418191209324,0.2841482375,0.7390004715756076
0.066,1.6911001565356707,1.0,2641.5287933795034,0.5240821384441667,1.285370943713537,0.9814927191568332,0.28407920657449814,0.7403170423598383
0.0665,1.6894521347651228,1.0,2639.7752765705304,0.5267516613179648,1.2846428805445333,0.9816401651401204,0.28400998966013513,0.7416404035564749
0.067,1.6878041129945751,1.0,2638.583537354492,0.5294062106325736,1.2839096289075804,0.9817842679392044,0.2839407727457721,0.7429697787422194
0.0675,1.6861560912240272,1.0,2637.9113369786796,0.5320458698278289,1.2831715758285243,0.9819251347601563,0.2838715558314091,0.7443043961823672
0.068,1.6845080694534795,1.0,2637.716619935978,0.5346707223435658,1.2824291083332104,0.9820628692132953,0.28380233891704615,0.7456434909633536
0.0685,1.6828600476829316,1.0,2637.9616149936915,0.5372808507097261,1.2816825751638294,0.9821975695943524,0.28373312200268314,0.7469863738809744
0.069,1.6812120259123837,1.0,2638.6050503152924,0.5398763386086788,1.2809323584374301,0.982329332607748,0.2836639050883201,0.7483323022410181
0.0695,1.679564004141836,1.0,2639.6091130634923,0.5424572693472218,1.2801788090077233,0.9824582503256588,0.2835946881739571,0.7496805962468549
0.07,1.6779159823712881,1.0,2640.948843367534,0.5450237234004747,1.2794221594234214,0.9825844061704144,0.2835254712595941,0.7510307934411737
0.07050000000000001,1.6762679606007405,1.0,2642.5993230646072,0.5475757812435567,1.2786626422332363,0.9827078808697408,0.2834562543452311,0.7523824356619622
0.07100000000000001,1.6746199388301926,1.0,2644.53566031483,0.5501135233515874,1.2779004899858806,0.9828287525680857,0.28338703743086807,0.7537350690867586
0.07150000000000001,1.6729719170596449,1.0,2646.732975415829,0.5526370301996861,1.2771359352300657,0.9829470969326842,0.2833178205165051,0.7550882442734592
0.07200000000000001,1.671323895289097,1.0,2649.1663878154936,0.5551463822629725,1.2763692105145044,0.9830629872546386,0.2832486036021421,0.7564415161976709
0.0725,1.6696758735185493,1.0,2651.8177541767186,0.5576416578679451,1.2756004861421073,0.9831764916134241,0.2831793866877791,0.7577945536933486
0.073,1.6680278517480014,1.0,2654.6622815377527,0.5601229387263614,1.2748299936235687,0.98328767891293,0.2831101697734161,0.7591469215716491
0.0735,1.6663798299774535,1.0,2657.685886837034,0.562590302284693,1.274057865527437,0.9833966113003895,0.28304095285905306,0.7604983620616876
0.074,1.6647318082069058,1.0,2660.8751691780362,0.5650438257212157,1.2732842280136587,0.9835033487164825,0.28297173594469005,0.761848631119192
0.0745,1.6630837864363581,1.0,2664.2167108377853,0.5674835862142059,1.2725092072421795,0.9836079492756847,0.28290251903032704,0.7631974871436188
