Time [s],Phi [rad],STIM [ ],Fsee [N],Gamma [ ],Lcerel [ ],q [ ],Lmtc [m],fisomrel [ ]
0.0,1.8,1.0,17.973567743440388,8.478624421026832e-05,1.3793390281969007,0.005001883864573787,0.288653,0.5411412681333897
0.0005,1.79999375,1.0,18.30775110261164,0.00569351996924742,1.3792989449797737,0.013149439983868003,0.2886527375,0.5412382344937201
0.001,1.799975,1.0,21.704998426674994,0.011270793132645979,1.3789294643190293,0.03599934620465292,0.28865195,0.5421315722923901
0.0015,1.79994375,1.0,31.27463883228688,0.01681678220420316,1.3780287329411982,0.07113593326285278,0.2886506375,0.5443057304555876
0.002,1.7999,1.0,54.024645764911135,0.022331662661959125,1.3763394992319127,0.11535010561735858,0.2886488,0.5483692006309733
0.0025,1.79984375,1.0,97.86172389284542,0.027815609000259124,1.373899442340988,0.16526227087750475,0.28864643749999996,0.554206655029012
0.003,1.7997750000000001,1.0,161.92430454817443,0.03326879473678587,1.3711782344064163,0.21798943261337345,0.28864354999999997,0.5606719333639525
0.0035,1.79969375,1.0,238.77474725422329,0.03869139241270468,1.3685511542468687,0.2713179444972523,0.2886401375,0.5668687713753215
0.004,1.7996,1.0,322.6278136013811,0.044083573603288226,1.3661253685376247,0.3235984180271715,0.2886362,0.5725517044425654
0.0045000000000000005,1.7994937500000001,1.0,410.46996255986164,0.04944550892314774,1.3638946143677337,0.37368244128510136,0.2886317375,0.577744609802801
0.005,1.799375,1.0,500.6401460149127,0.054777368017735154,1.3618322922954138,0.42085361838296204,0.28862675,0.5825171946819077
0.0055,1.79924375,1.0,592.0277558779869,0.060079319606666265,1.3599146730840834,0.4647348865974992,0.2886212375,0.5869305742945707
0.006,1.7991000000000001,1.0,683.7567013295385,0.06535153143677705,1.3581239106286065,0.5051956785268333,0.2886152,0.5910308183548274
0.006500000000000001,1.79894375,1.0,775.1121780146102,0.0705941703295789,1.3564462493515546,0.5422722939619066,0.2886086375,0.594853543760234
0.007,1.798775,1.0,865.4897387137147,0.07580740198017893,1.3548709544769926,0.5761066138557532,0.28860155,0.5984266762391208
0.0075,1.79859375,1.0,954.4395995991515,0.08099139192420741,1.3533883833361222,0.6069007306588226,0.2885939375,0.601775033555746
0.008,1.7984,1.0,1041.5353074453922,0.08614630364152343,1.3519913244546073,0.6348871126501661,0.2885858,0.6049174346578168
0.0085,1.79819375,1.0,1126.459410794388,0.09127230018276085,1.3506730340360686,0.6603070036408757,0.2885771375,0.6078712474487827
0.009000000000000001,1.797975,1.0,1208.9948972976706,0.09636954400809157,1.349427080435528,0.6833974781889303,0.28856795,0.6106527916399971
0.0095,1.79774375,1.0,1288.9537272668586,0.10143819649519763,1.3482480799278744,0.7043842209794035,0.2885582375,0.6132757488091479
0.01,1.7975,1.0,1366.1996302770156,0.10647841765996169,1.3471311163305755,0.7234770633057604,0.288548,0.6157525129945424
0.0105,1.79724375,1.0,1440.638222448073,0.11149036645815516,1.346071698995982,0.7408681735616277,0.2885372375,0.6180943212819976
0.011,1.796975,1.0,1512.2717930592116,0.11647420351169963,1.3450649559479435,0.756731357887837,0.28852595000000003,0.6203130617877672
0.0115,1.79669375,1.0,1581.0510679514941,0.1214300853080053,1.3441073737464793,0.7712234792855355,0.2885141375,0.62241745960874
0.012,1.7964,1.0,1646.9616309053363,0.12635816791581045,1.3431955779911735,0.7844849018145518,0.28850180000000003,0.6244158011712511
0.0125,1.79609375,1.0,1710.0307715630386,0.1312586074038533,1.3423261942816114,0.7966407653286811,0.2884889375,0.6263162522597847
0.013000000000000001,1.7957750000000001,1.0,1770.311460051308,0.13613155941501404,1.3414959870841443,0.8078024695311747,0.28847555,0.6281265650683225
0.0135,1.79544375,1.0,1827.8621719763782,0.14097717851691377,1.3407020342651863,0.8180691435650029,0.2884616375,0.6298537112486091
0.014,1.7951000000000001,1.0,1882.7362234942896,0.14579561745619596,1.339941786861751,0.8275289873733545,0.2884472,0.6315037676825253
0.0145,1.79474375,1.0,1935.0000686885592,0.1505870285027174,1.3392128178730265,0.8362604037506802,0.2884322375,0.6330824750977072
0.015,1.794375,1.0,1984.7253071418702,0.15535156315838045,1.3385128768262333,0.8443331434701684,0.28841675,0.6345951282615669
0.0155,1.79399375,1.0,2032.0128321019026,0.16008937344025506,1.3378396048056491,0.8518092221810761,0.2884007375,0.6360471984207998
0.016,1.7936,1.0,2076.930596594271,0.1648006083435054,1.3371911713959486,0.8587440334528115,0.2883842,0.6374429653463904
0.0165,1.7931937500000001,1.0,2119.5528736985307,0.16948541645255308,1.3365658261765456,0.865186989411862,0.2883671375,0.6387864944199595
0.017,1.792775,1.0,2159.9661526728355,0.17414394630983185,1.3359618224536187,0.8711822063445789,0.28834955,0.6400818043802398
0.0175,1.7923437500000001,1.0,2198.2582599674297,0.17877634514775712,1.3353775163348982,0.8767691571172074,0.2883314375,0.6413326579624844
0.018000000000000002,1.7919,1.0,2234.5268408269626,0.18338276112832838,1.334811267173987,0.8819831910107133,0.2883128,0.6425427786139961
0.0185,1.79144375,1.0,2268.840044691474,0.18796333867257342,1.3342618204929533,0.8868561106849242,0.2882936375,0.6437150362268389
0.019,1.790975,1.0,2301.2733214713553,0.19251822220152015,1.3337279218138653,0.8914164832970167,0.28827395,0.6448522774292047
0.0195,1.79049375,1.0,2331.908814641624,0.19704755613619637,1.3332083166587916,0.8956900116929801,0.2882537375,0.6459573268795105
0.02,1.79,1.0,2360.820056440496,0.20155148293042632,1.3327018945424083,0.8996998919379137,0.288233,0.6470326829333298
0.0205,1.78949375,1.0,2388.104578265015,0.2060301482140012,1.3322073627312037,0.9034670228851956,0.2882117375,0.648081212204013
0.021,1.788975,1.0,2413.8271377237525,0.21048369257993732,1.3317237955150076,0.9070103779122082,0.28818995000000003,0.649104985615808
0.021500000000000002,1.78844375,1.0,2438.049447416071,0.21491225565904762,1.3312503344754976,0.9103471513177185,0.2881676375,0.6501059180799458
0.022,1.7879,1.0,2460.836709734889,0.21931597708214487,1.3307861211943504,0.9134929370810827,0.2881448,0.6510859120701421
0.0225,1.78734375,1.0,2482.2573252494735,0.22369499648004207,1.3303302972532438,0.916461899939748,0.28812143749999997,0.6520468581523712
0.023,1.786775,1.0,2502.3773798243064,0.22804945244454813,1.3298820539552372,0.9192669352128366,0.28809755,0.6529905308618431
0.0235,1.78619375,1.0,2521.2625583079316,0.2323794836220897,1.3294406108437848,0.9219197972326227,0.28807313749999996,0.653918634970899
0.024,1.7856,1.0,2538.9808526528122,0.23668522892575847,1.3290051875198694,0.9244312112684785,0.2880482,0.6548328653858915
0.0245,1.78499375,1.0,2555.5803568107394,0.2409668227538668,1.3285752102719963,0.9268110120019128,0.2880227375,0.6557344744729382
0.025,1.784375,1.0,2571.1108065936014,0.2452243995047272,1.3281501053886708,0.9290681979570251,0.28799675,0.6566247076958043
0.025500000000000002,1.78374375,1.0,2585.6234422413004,0.24945809357665202,1.3277292991583987,0.9312110140076689,0.2879702375,0.6575048038046711
0.026000000000000002,1.7831000000000001,1.0,2599.1708782871274,0.25366803936795385,1.327312217869685,0.933247024737834,0.2879432,0.6583759950039154
0.0265,1.78244375,1.0,2611.8012266003507,0.257854369828045,1.3268983412792912,0.9351831876234112,0.2879156375,0.6592393956277043
0.027,1.781775,1.0,2623.5620918179807,0.2620172183404067,1.3264871638978137,0.9370259051338101,0.28788755,0.6600960835776852
0.0275,1.7810937500000001,1.0,2634.5086761827483,0.2661567194910177,1.3260781189333006,0.9387810653118885,0.2878589375,0.6609472587784447
0.028,1.7804,1.0,2644.6762202182404,0.27027300214052896,1.3256708325331563,0.9404541241476247,0.2878298,0.6617937144042119
0.0285,1.77969375,1.0,2654.1006532275496,0.2743661951495917,1.3252649308447855,0.9420501186765478,0.2878001375,0.6626362396764571
0.029,1.778975,1.0,2662.818533473903,0.27843642737885693,1.324860040015592,0.9435737046034219,0.28776995,0.6634756199013645
0.029500000000000002,1.7782437500000001,1.0,2670.866991460154,0.28248382768897573,1.3244557861929809,0.9450291900955763,0.2877392375,0.6643126364983887
0.03,1.7775,1.0,2678.283676307365,0.2865085249405992,1.3240517955243563,0.946420566177536,0.287708,0.6651480670199006
0.0305,1.77674375,1.0,2685.1008697847255,0.29051064576766894,1.3236477476358426,0.947751540340287,0.2876762375,0.6659825747775701
0.031,1.775975,1.0,2691.354786002736,0.2944903191807928,1.3232432897595077,0.9490255511063683,0.28764395,0.6668168865607493
0.0315,1.7751937500000001,1.0,2697.0784445893223,0.2984476721405515,1.3228381017210622,0.9502457974155814,0.2876111375,0.667651658409251
0.032,1.7744,1.0,2702.2966078828745,0.30238282796859434,1.3224319416706538,0.95141526357078,0.2875778,0.6684873819849876
0.0325,1.77359375,1.0,2707.034290913555,0.3062959099865708,1.3220245677584301,0.9525367283971535,0.2875439375,0.6693245464285594
0.033,1.772775,1.0,2711.3167369933053,0.3101870415161302,1.3216157381345386,0.9536127818833547,0.28750955,0.6701636383423977
0.0335,1.7719437500000002,1.0,2715.16939460312,0.31405634587892195,1.3212052109491272,0.9546458402847658,0.2874746375,0.6710051417701743
0.034,1.7711000000000001,1.0,2718.617895576608,0.3179039463965954,1.3207927443523437,0.9556381598473619,0.2874392,0.6718495381724867
0.0345,1.7702437500000001,1.0,2721.6778424836284,0.32172996003782156,1.3203781892695956,0.9565918578513808,0.2874032375,0.6726971168378035
0.035,1.7693750000000001,1.0,2724.381434233419,0.3255345161446466,1.3199612467524573,0.9575089017623887,0.28736675,0.673548471226445
0.035500000000000004,1.76849375,1.0,2726.7513173670077,0.3293177363540412,1.31954170599986,0.9583911410315082,0.2873297375,0.6744040118836067
0.036000000000000004,1.7676,1.0,2728.8035575876156,0.3330797377093249,1.3191194169901699,0.9592403138190775,0.2872922,0.6752640232775959
0.0365,1.76669375,1.0,2730.5543032218884,0.3368206372538174,1.3186942297017532,0.9600580500928393,0.2872541375,0.6761287881211931
0.037,1.765775,1.0,2732.0197758332033,0.34054055203083844,1.3182659941129757,0.9608458795803443,0.28721555,0.6769985873446407
0.0375,1.76484375,1.0,2733.216261334901,0.3442395990837076,1.3178345602022041,0.9616052390514412,0.2871764375,0.6778737000671922
0.038,1.7639,1.0,2734.160101601765,0.3479178954557446,1.3173997779478042,0.9623374789940846,0.28713679999999997,0.6787544035672342
0.0385,1.76294375,1.0,2734.867686581093,0.35157555819026903,1.3169614973281423,0.9630438697401006,0.28709663750000003,0.6796409732509632
0.039,1.761975,1.0,2735.35544690215,0.3552127043306007,1.3165195683215845,0.963725607091732,0.28705595,0.680533682619636
0.0395,1.7609937500000001,1.0,2735.636165369497,0.3588294460876373,1.3160738743334315,0.9643838196195271,0.2870147375,0.6814327358541268
0.04,1.76,1.0,2735.7221397016715,0.3624259000348905,1.3156243034197264,0.965019572417148,0.286973,0.6823383261824378
0.0405,1.7589937500000001,1.0,2735.629443583866,0.36600218721306726,1.3151707095569463,0.9656338679572942,0.2869307375,0.6832507137671271
0.041,1.757975,1.0,2735.3671611496407,0.3695584177626184,1.3147130103447393,0.9662276560557764,0.28688795,0.6841700290808419
0.0415,1.75694375,1.0,2734.9443911406747,0.3730947018239948,1.3142511233827532,0.9668018338561047,0.2868446375,0.6850964013159364
0.042,1.7559,1.0,2734.3702441688915,0.3766111495376472,1.3137849662706358,0.9673572492905856,0.28680079999999997,0.6860299583626785
0.0425,1.75484375,1.0,2733.6538401293597,0.3801078710440265,1.313314456608035,0.9678947042797584,0.2867564375,0.6869708267870273
0.043000000000000003,1.753775,1.0,2732.8043057628383,0.3835849764835835,1.3128395119945984,0.9684149576924084,0.28671155,0.6879191318079769
0.043500000000000004,1.75269375,1.0,2731.8307723704156,0.3870425759967691,1.3123600500299741,0.9689187280863275,0.28666613750000003,0.6888749972744646
0.044,1.7516,1.0,2730.7423736769397,0.39048077972403406,1.3118759883138096,0.9694066962480888,0.2866202,0.6898385456418512
0.0445,1.75049375,1.0,2729.5482438465074,0.3938996978058293,1.311387244445753,0.9698795075484394,0.2865737375,0.6908098979479619
0.045,1.7493750000000001,1.0,2728.254304398836,0.3972994389220888,1.3108937652211434,0.9703377761548581,0.28652675,0.6917891159012135
0.0455,1.74824375,1.0,2726.870019027501,0.4006801096019911,1.3103954652243677,0.9707820821912247,0.2864792375,0.6927763238780241
0.046,1.7471047743305257,1.0,2725.6281047548396,0.40404182114560505,1.3098923843756345,0.9712129865257403,0.2864314005218821,0.6937713970216327
0.0465,1.7459656994512638,1.0,2724.8741089345895,0.4073846777431167,1.3093848223400573,0.9716310400780067,0.2863835593769531,0.6947736980408521
0.047,1.7448266245720019,1.0,2724.5798157374247,0.41070878358471186,1.3088730787827487,0.972036766417799,0.2863357182320241,0.6957825931226591
0.0475,1.7436875496927402,1.0,2724.7122116952955,0.4140142428605764,1.3083574533688223,0.972430663388733,0.2862878770870951,0.69679745201497
0.048,1.7425484748134783,1.0,2725.2383857259674,0.41730115976089616,1.3078382457633906,0.9728132046211359,0.28624003594216607,0.6978176481036937
0.0485,1.7414093999342164,1.0,2726.1255043372194,0.42056963847585704,1.307315755631567,0.9731848409426079,0.28619219479723707,0.6988425584840527
0.049,1.7402703250549545,1.0,2727.3407888221245,0.42381978319564495,1.3067902826384643,0.9735460016940666,0.28614435365230806,0.6998715640261837
0.0495,1.7391312501756926,1.0,2728.8533666515646,0.4270516974009714,1.3062621094295315,0.9738970947188293,0.2860965125073791,0.7009040826778499
0.05,1.7379921752964307,1.0,2730.639264635888,0.4302654832599867,1.3057314561106854,0.9742385044683529,0.2860486713624501,0.701939657986097
0.0505,1.7368531004171688,1.0,2732.6724166800486,0.43346124425078447,1.3051985619072979,0.9745705990486565,0.2860008302175211,0.702977799138129
0.051000000000000004,1.7357140255379069,1.0,2734.935601506497,0.4366390799996249,1.304663585698699,0.9748937240298969,0.2859529890725921,0.7040181745829448
0.051500000000000004,1.734574950658645,1.0,2737.4115992296624,0.4397990901327684,1.3041266863642196,0.9752082093431573,0.2859051479276631,0.705060454850509
0.052000000000000005,1.733435875779383,1.0,2740.0831843016954,0.44294137427647523,1.3035880227831904,0.9755143701297215,0.2858573067827341,0.7061043125720443
0.0525,1.7322968009001214,1.0,2742.9331190179064,0.44606603205700557,1.303047753834942,0.9758125075371525,0.28580946563780507,0.7071494224987129
0.053,1.7311577260208595,1.0,2745.9441475818776,0.44917316310061983,1.3025060383988054,0.9761029094659388,0.2857616244928761,0.7081954615186877
0.0535,1.7300186511415976,1.0,2749.103610226804,0.4522628644688445,1.301962993514593,0.9763858484262645,0.2857137833479471,0.7092421892465108
0.054,1.7288795762623357,1.0,2752.3942735519418,0.4553352371866916,1.3014187774654429,0.9766615880864996,0.2856659422030181,0.7102892875996105
0.0545,1.7277405013830738,1.0,2755.8063943614425,0.4583903770734326,1.3008734804891606,0.9769303762113681,0.2856181010580891,0.7113365712319473
0.055,1.7266014265038119,1.0,2759.3304806794076,0.46142837976851103,1.3003271904033828,0.9771924499141987,0.2855702599131601,0.7123838606645734
0.0555,1.72546235162455,1.0,2762.957022673592,0.4644493409113705,1.2997799950257454,0.9774480363599903,0.2855224187682311,0.7134309776223344
0.056,1.724323276745288,1.0,2766.676490807164,0.4674533561414548,1.2992319821738845,0.9776973532673807,0.2854745776233021,0.7144777450391839
0.0565,1.7231842018660262,1.0,2770.479334161552,0.47044052109820733,1.2986832396654362,0.9779406093813329,0.2854267364783731,0.715523987063009
0.057,1.7220451269867643,1.0,2774.3625072811,0.47341092244335253,1.2981337964594934,0.9781780007390181,0.28537889533344407,0.7165696409714584
0.0575,1.7209060521075026,1.0,2778.3105850057805,0.47636466590512466,1.297583792998232,0.9784097234667096,0.2853310541885151,0.7176144328596475
0.058,1.7197669772282407,1.0,2782.3155683331743,0.47930184730619513,1.2970333024898861,0.9786359611572452,0.2852832130435861,0.7186582181503566
0.0585,1.7186279023489788,1.0,2786.373401719085,0.4822225568828935,1.2964823624708803,0.9788568876334666,0.2852353718986571,0.7197009207387932
0.059000000000000004,1.7174888274697169,1.0,2790.4800188841336,0.4851268848715494,1.2959310104776385,0.9790726698677014,0.2851875307537281,0.7207424650436347
0.059500000000000004,1.716349752590455,1.0,2794.6313424552777,0.48801492150849257,1.295379284046585,0.9792834683066249,0.2851396896087991,0.7217827760080577
0.06,1.715210677711193,1.0,2798.823283638736,0.4908867570300525,1.294827220714144,0.9794894371782784,0.2850918484638701,0.7228217791006806
0.0605,1.7140716028319312,1.0,2803.0517419238863,0.493742481672559,1.2942748580167394,0.9796907247823546,0.2850440073189411,0.7238594003164155
0.061,1.7129325279526693,1.0,2807.312604818436,0.4965821856723416,1.2937222334907954,0.9798874737647839,0.28499616617401213,0.7248955661772278
0.0615,1.7117934530734074,1.0,2811.601747614864,0.4994059592657299,1.2931693846727366,0.9800798213775868,0.28494832502908307,0.7259302037328095
0.062,1.7106543781941457,1.0,2815.91503318864,0.5022138926890536,1.2926163490989864,0.9802678997248847,0.2849004838841541,0.7269632405611612
0.0625,1.7095153033148838,1.0,2820.248311826241,0.5050060761786423,1.2920631643059697,0.980451835995908,0.2848526427392251,0.7279946047690822
0.063,1.7083762284356219,1.0,2824.599276551701,0.5077825926133124,1.2915098512509735,0.9806317512885269,0.2848048015942961,0.7290242558151636
0.0635,1.70723715355636,1.0,2828.966687269805,0.5105435256764629,1.2909564213023033,0.980807761848332,0.2847569604493671,0.7300521712466729
0.064,1.706098078677098,1.0,2833.3434533448,0.5132889837989923,1.290402937989598,0.9809799841224974,0.2847091193044381,0.7310782321652094
0.0645,1.7049590037978362,1.0,2837.728386214736,0.5160190502687989,1.2898494120320168,0.9811485259067322,0.28466127815950915,0.7321024181909892
0.065,1.7038199289185743,1.0,2842.1202936142254,0.5187338083737807,1.289295854148718,0.9813134911486912,0.2846134370145801,0.7331247090955474
0.0655,1.7026808540393124,1.0,2846.517979566384,0.521433341401836,1.2887422750588613,0.9814749801136124,0.28456559586965113,0.734145084801763
0.066,1.7015417791600504,1.0,2850.92024437565,0.5241177326408629,1.2881886854816051,0.9816330895416772,0.2845177547247221,0.7351635253838791
0.0665,1.7004027042807885,1.0,2855.325884624684,0.5267870653787596,1.2876350961361085,0.9817879127975652,0.2844699135797931,0.7361800110675116
0.067,1.6992636294015266,1.0,2859.7336931726163,0.5294414229034243,1.2870815177415305,0.9819395400126439,0.2844220724348641,0.7371945222296534
0.0675,1.698124554522265,1.0,2864.1424591569803,0.5320808885027553,1.2865279610170295,0.9820880582202037,0.2843742312899351,0.7382070393986723
0.068,1.696985479643003,1.0,2868.5509679970814,0.5347055454646504,1.285974436681765,0.9822335514841265,0.28432639014500616,0.739217543254296
0.0685,1.6958464047637412,1.0,2872.9580014003586,0.5373154770770082,1.2854209554548954,0.9823761010213485,0.2842785490000771,0.7402260146275976
0.069,1.6947073298844793,1.0,2877.3623373720593,0.5399107666277267,1.2848675280555801,0.9825157853184606,0.28423070785514815,0.7412324345009671
0.0695,1.6935682550052173,1.0,2881.7627502259493,0.5424914974047041,1.2843141652029777,0.9826526802427595,0.28418286671021914,0.7422367840080801
0.07,1.6924291801259554,1.0,2886.158010598787,0.5450577526958387,1.283760877616247,0.9827868591480583,0.28413502556529013,0.7432390444338561
0.07050000000000001,1.6912901052466935,1.0,2890.5468854669,0.5476096157890284,1.2832076760145472,0.982918392975528,0.2840871844203611,0.7442391972144109
0.07100000000000001,1.6901510303674316,1.0,2894.930480370746,0.5501471373726147,1.2826545504445195,0.9830473474484611,0.2840393432754321,0.7452372612021894
0.07150000000000001,1.6890119554881697,1.0,2899.3063662826653,0.5526704337930107,1.2821015221561591,0.9831737915000216,0.2839915021305031,0.7462331989705933
0.07200000000000001,1.6878728806089078,1.0,2903.6736712709157,0.5551795913196196,1.281548598613462,0.9832977894298269,0.2839436609855741,0.7472269981466697
