Time [s],Phi [rad],STIM [ ],Fsee [N],Gamma [ ],Lcerel [ ],q [ ],Lmtc [m],fisomrel [ ]
0.0,1.8,1.0,17.968653228025094,1.0382085003025425e-05,1.3793395787264362,0.005000028718818521,0.288653,0.5411399362616387
0.0005,1.79999375,1.0,18.277975586956146,0.005619533158510694,1.3793022510026958,0.012941572275411366,0.2886527375,0.5412302371947959
0.001,1.799975,1.0,21.619798022932454,0.011197221329417348,1.3789381574450033,0.03561055951228534,0.28865195,0.5421105638781438
0.0015,1.79994375,1.0,31.071155727250158,0.016743623080589163,1.378046040177696,0.0706044167941117,0.2886506375,0.5442640035266706
0.002,1.7999,1.0,53.58527035033915,0.02225891390324496,1.376367944687025,0.11472104746088964,0.2886488,0.5483009254211242
0.0025,1.79984375,1.0,97.12296342529336,0.02774326830451362,1.373934973268899,0.16457816876126313,0.28864643749999996,0.5541219252754712
0.003,1.7997750000000001,1.0,160.96311600735825,0.0331968598151558,1.371214158504935,0.2172838354537311,0.28864354999999997,0.5605868894307172
0.0035,1.79969375,1.0,237.68875087286278,0.038619860989152724,1.3685845673044092,0.2706162533385502,0.2886401375,0.5667902319675429
0.004,1.7996,1.0,321.4724377002812,0.044012443414489,1.366155942316557,0.3229190610746135,0.2886362,0.5724803122011295
0.0045000000000000005,1.7994937500000001,1.0,409.2735651355908,0.04937477771833712,1.3639226776821927,0.37303760285985194,0.2886317375,0.5776794791729047
0.005,1.799375,1.0,499.4193811975636,0.05470703355814076,1.3618582174607854,0.42025035800913,0.28862675,0.5824573675258385
0.0055,1.79924375,1.0,590.7963173727409,0.06000937966912256,1.359938719762004,0.4641763818942752,0.2886212375,0.586875376326816
0.006,1.7991000000000001,1.0,682.5239797860382,0.06528198380734877,1.3581463080201497,0.5046824297563948,0.2886152,0.5909796621541328
0.006500000000000001,1.79894375,1.0,773.887145241677,0.070525012805416,1.356467153116017,0.541803017219877,0.2886086375,0.5948060227977107
0.007,1.798775,1.0,864.2915649970801,0.0757386325560182,1.354890302054323,0.5756788397025787,0.28860155,0.5983828874610694
0.0075,1.79859375,1.0,953.2489493708591,0.08092300802169276,1.3534066909970437,0.6065117889534014,0.2885939375,0.6017337715514033
0.008,1.7984,1.0,1040.3490075355053,0.08607830277385653,1.3520087854337806,0.6345338924709614,0.2885858,0.604878236535187
0.0085,1.79819375,1.0,1125.3184847295436,0.09120468102139791,1.3506891812320305,0.6599859946704519,0.2885771375,0.6078351344604849
0.009000000000000001,1.797975,1.0,1207.9059692146227,0.09630230475489501,1.3494419559558792,0.683105600491858,0.28856795,0.6106196410004125
0.0095,1.79774375,1.0,1287.8996362644855,0.10137133439456349,1.3482620254775948,0.7041187461386197,0.2885582375,0.6132447755428672
0.01,1.7975,1.0,1365.173243285814,0.106411930360619,1.3471443056694448,0.7232353893243887,0.288548,0.6157233132693849
0.0105,1.79724375,1.0,1439.6614625858244,0.11142425268886742,1.3460839218140817,0.7406477445174252,0.2885372375,0.6180673439470172
0.011,1.796975,1.0,1511.3224264530086,0.1164084602144227,1.345076551050106,0.756530128343123,0.28852595000000003,0.6202875443729707
0.0115,1.79669375,1.0,1580.1223222011113,0.121364710127008,1.344118467411843,0.7710395184970474,0.2885141375,0.622393113476162
0.012,1.7964,1.0,1646.0609801395178,0.12629315911957967,1.3432061184968438,0.7843164085526781,0.28850180000000003,0.6243927303135537
0.0125,1.79609375,1.0,1709.176446392276,0.13119396369498432,1.3423360064020553,0.7964860845830155,0.2884889375,0.6262948301042474
0.013000000000000001,1.7957750000000001,1.0,1769.5072002429067,0.13606727892554554,1.3415050654616412,0.8076601979412245,0.28847555,0.6281067929338017
0.0135,1.79544375,1.0,1827.0909187684967,0.14091325836576082,1.3407106018509005,0.8179381211261822,0.2884616375,0.6298350949821337
0.014,1.7951000000000001,1.0,1881.9908623199926,0.14573205539722053,1.3399499452129238,0.8274081393135013,0.2884472,0.6314860801968436
0.0145,1.79474375,1.0,1934.2856364862257,0.15052382272583464,1.3392205313111503,0.836148726478398,0.2884322375,0.6330657880643524
0.015,1.794375,1.0,1984.0612081676654,0.1552887130092301,1.3385199563870616,0.8442296939160315,0.28841675,0.6345798441572128
0.0155,1.79399375,1.0,2031.3781557426028,0.16002687581259256,1.337846291483379,0.8517132992860786,0.2884007375,0.6360327912338255
0.016,1.7936,1.0,2076.312972802061,0.16473846070110765,1.337197607642825,0.8586549819501545,0.2883842,0.6374291243621031
0.0165,1.7931937500000001,1.0,2118.955203806181,0.16942361708980114,1.33657199151962,0.8651041758862785,0.2883671375,0.638773260601138
0.017,1.792775,1.0,2159.3907967518503,0.17408249301019293,1.3359677018049891,0.8711050657183813,0.28834955,0.6400692070914347
0.0175,1.7923437500000001,1.0,2197.723077153048,0.17871523793854188,1.3353829373000536,0.8766971419540985,0.2883314375,0.6413210630356769
0.018000000000000002,1.7919,1.0,2234.018135997628,0.1833219968931913,1.3348163779302602,0.8819158946120302,0.2883128,0.6425318656558073
0.0185,1.79144375,1.0,2268.3502780071135,0.18790291489248448,1.3342667036210556,0.8867931514066337,0.2882936375,0.6437046264359483
0.019,1.790975,1.0,2300.8013429029534,0.19245813695476474,1.3337325942978868,0.8913575019520382,0.28827395,0.6448423325994965
0.0195,1.79049375,1.0,2331.4436338668434,0.19698780732551083,1.3332128914893577,0.895634708165301,0.2882537375,0.6459476050551707
0.02,1.79,1.0,2360.375919144566,0.2014920702274498,1.3327062355805963,0.8996479380256217,0.288233,0.6470234719572345
0.0205,1.78949375,1.0,2387.701589172624,0.20597106934426268,1.3322112789984608,0.9034181078267365,0.2882117375,0.6480729148794862
0.021,1.7889780585934976,1.0,2413.5898347692137,0.21042494482509386,1.3317274705760362,0.9069643032713148,0.2881900784609269,0.6490972106671716
0.021500000000000002,1.788461803010999,1.0,2438.489109923824,0.2148538368190877,1.3312542591464083,0.9103038035401458,0.28816839572646197,0.6500976269048604
0.022,1.7879455474285006,1.0,2462.466304906016,0.21925788547538858,1.3307910935426623,0.9134522770833525,0.288146712991997,0.6510754222986277
0.0225,1.7874292918460022,1.0,2485.5638937805556,0.22363723093344026,1.3303374227876674,0.9164239540068547,0.2881250302575321,0.6520318466390366
0.023,1.7869130362635037,1.0,2507.8158731405783,0.22799201193780483,1.3298927924259922,0.9192317958871393,0.28810334752306715,0.6529679384737921
0.0235,1.7863967806810053,1.0,2529.250185301491,0.23232236669923853,1.3294568185282103,0.9218876228809063,0.2880816647886022,0.6538845813943557
0.024,1.7858805250985068,1.0,2549.8957017901835,0.23662843136634024,1.3290291197499617,0.9244022172135444,0.2880599820541373,0.6547826478206803
0.0245,1.7853642695160084,1.0,2569.782421894683,0.24091034208770876,1.3286093147468865,0.9267854293675917,0.28803829931967234,0.655663004660656
0.025,1.7848480139335097,1.0,2588.9303822571287,0.24516822870103094,1.328197125044747,0.9290462858415719,0.2880166165852074,0.656526298189932
0.025500000000000002,1.7843317583510112,1.0,2607.384761031124,0.2494022349274607,1.3277920461403874,0.9311930251100767,0.2879949338507425,0.6573736431348793
0.026000000000000002,1.7838155027685128,1.0,2625.1773854738867,0.25361249709157996,1.327393707672571,0.933233223704067,0.28797325111627753,0.6582058679094615
0.0265,1.7832992471860143,1.0,2642.32993823019,0.25779914540576954,1.3270018409087756,0.9351738548583938,0.2879515683818126,0.6590235843184689
0.027,1.7827829916035158,1.0,2658.8647666717093,0.2619623100824103,1.326616177116479,0.937021332403809,0.28792988564734767,0.6598274006563035
0.0275,1.7822667360210174,1.0,2674.8048451376694,0.2661021213338829,1.3262364475631596,0.938781563102919,0.2879082029128827,0.6606179218155925
0.028,1.781750480438519,1.0,2690.173738777298,0.27021870937256826,1.3258623835162948,0.9404599934553293,0.28788652017841776,0.6613957493911964
0.0285,1.7812342248560205,1.0,2704.995568992734,0.2743122044108471,1.3254937162433624,0.9420616516164195,0.28786483744395286,0.6621614817796093
0.029,1.7807179692735218,1.0,2719.2949804830023,0.27838273666110014,1.3251301770118409,0.9435911849930299,0.2878431547094879,0.6629157142737533
0.029500000000000002,1.7802017136910233,1.0,2733.0971098903183,0.2824304363357083,1.3247714970892075,0.9450528940090321,0.28782147197502295,0.6636590391531725
0.03,1.7796854581085249,1.0,2746.422886286691,0.2864554299945003,1.3244174500582953,0.9464507668439713,0.28779978924055805,0.6643919582196222
0.0305,1.7791692025260264,1.0,2759.2930062371124,0.29045784553336346,1.3240678151323375,0.9477885032607304,0.2877781065060931,0.6651149591688557
0.031,1.778652946943528,1.0,2771.735420706721,0.2944378168323453,1.323722309354367,0.9490695319965956,0.2877564237716282,0.6658286556960314
0.0315,1.7781366913610295,1.0,2783.764958486238,0.29839546674588086,1.3233807714813277,0.9502970511880263,0.28773474103716323,0.6665334076407567
0.032,1.777620435778531,1.0,2795.39671098153,0.3023309181284049,1.3230430402701634,0.9514740359455607,0.28771305830269833,0.6672295731282194
0.0325,1.7771041801960326,1.0,2806.6460183163977,0.30624429383435225,1.3227089544778174,0.9526032566496322,0.2876913755682334,0.6679175086091644
0.033,1.7765879246135339,1.0,2817.5284560119776,0.31013571671815787,1.322378352861234,0.9536872955350467,0.2876696928337684,0.6685975688982069
0.0335,1.7760716690310354,1.0,2828.0598222426815,0.31400530963425666,1.3220510741773568,0.9547285617425062,0.28764801009930346,0.6692701072104932
0.034,1.775555413448537,1.0,2838.2561256684858,0.3178531954370834,1.3217269571831294,0.9557293049952177,0.28762632736483856,0.669935475196699
0.0345,1.7750391578660385,1.0,2848.1335738433286,0.32167949698107295,1.3214058406354956,0.9566916280407607,0.2876046446303736,0.6705940229763725
0.035,1.77452290228354,1.0,2857.708562200854,0.3254843371206603,1.3210875632913992,0.95761749798272,0.2875829618959087,0.6712460991696165
0.035500000000000004,1.7740066467010416,1.0,2866.9870204726044,0.32926782623693734,1.3207720583017,0.9585087635411732,0.28756127916144375,0.6718918578217181
0.036000000000000004,1.7734903911185431,1.0,2875.994136492617,0.3330301009972105,1.3204590891770116,0.959367145781716,0.2875395964269788,0.6725317989918371
0.0365,1.7729741355360447,1.0,2884.739801737406,0.33677127784497507,1.3201485565560247,0.9601942680266524,0.2875179136925139,0.6731661407369065
0.037,1.7724578799535462,1.0,2893.233235836696,0.3404914722281966,1.319840367969272,0.9609916543926356,0.28749623095804894,0.673795086152043
0.0375,1.7719416243710475,1.0,2901.4837574860367,0.3441907995948401,1.3195344309472858,0.9617607365388985,0.287474548223584,0.6744188374974306
0.038,1.771425368788549,1.0,2909.5007797357807,0.34786937539287094,1.3192306530205988,0.9625028603049227,0.2874528654891191,0.6750375962118688
0.0385,1.7709091132060506,1.0,2917.2938054694064,0.35152731507025425,1.3189289417197432,0.9632192918014292,0.2874311827546541,0.6756515629257802
0.039,1.7703928576235521,1.0,2924.8724230723656,0.35516473407495536,1.3186292045752512,0.9639112230051943,0.28740950002018917,0.6762609374736693
0.0395,1.7698766020410537,1.0,2932.2463022892944,0.35878174785493944,1.3183313491176558,0.9645797769030484,0.28738781728572427,0.6768659189060368
0.04,1.7693603464585552,1.0,2939.4251902717824,0.3623784718581718,1.3180352828774888,0.9652260122258393,0.2873661345512593,0.6774667055007515
0.0405,1.7688440908760568,1.0,2946.41890781532,0.36595502153261755,1.3177409133852829,0.9658509278090777,0.28734445181679436,0.6780634947738717
0.041,1.768327835293558,1.0,2953.2332409461533,0.3695115034084254,1.317448184041832,0.9664554681375679,0.28732276908232945,0.6786564108690791
0.0415,1.7678115797110596,1.0,2959.8774289267526,0.37304803453333507,1.3171570085264825,0.967040524767113,0.2873010863478645,0.6792456375718516
0.042,1.7672953241285612,1.0,2966.3634723363716,0.37656473821073266,1.3168672769748664,0.9676069395327273,0.28727940361339954,0.6798314055565475
0.0425,1.7667790685460627,1.0,2972.696520873667,0.38006172202576627,1.316578939800265,0.9681555110522073,0.28725772087893464,0.6804138229430492
0.043000000000000003,1.7662628129635642,1.0,2978.8817617517425,0.38353909356358407,1.31629194741596,0.968686995212913,0.2872360381444697,0.6809929974484044
0.043500000000000004,1.7657465573810658,1.0,2984.924418193027,0.386996960409334,1.3160062502352328,0.9692021078889542,0.28721435541000473,0.681569036391159
0.044,1.7652303017985673,1.0,2990.8297479777484,0.3904354301481643,1.315721798671365,0.9697015274593701,0.28719267267553983,0.6821420466955297
0.0445,1.7647140462160689,1.0,2996.6030420471566,0.39385461036522296,1.315438543137638,0.9701858971437088,0.2871709899410749,0.6827121348954224
0.045,1.7641977906335704,1.0,3002.249623161577,0.3972546086456582,1.3151564340473334,0.9706558271699337,0.28714930720660997,0.6832794071382934
0.0455,1.7636815350510717,1.0,3007.774844612394,0.400635532574618,1.3148754218137328,0.971111896788217,0.287127624472145,0.6838439691888515
0.046,1.7631652794685733,1.0,3013.1840889893456,0.4039974897372505,1.3145954568501177,0.971554656142973,0.28710594173768006,0.6844059264326077
0.0465,1.7626490238860748,1.0,3018.4827670015675,0.40734058771870385,1.3143164895697694,0.971984628014384,0.28708425900321516,0.6849653838792635
0.047,1.7621327683035763,1.0,3023.6763163533374,0.4106649341041261,1.3140384703859698,0.972402309439682,0.2870625762687502,0.6855224461659452
0.0475,1.7616165127210779,1.0,3028.7687154045598,0.4139706301759058,1.3137613625282158,0.9728081733222583,0.2870408935342853,0.6860771919146604
0.048,1.7611002571385794,1.0,3033.7613519756983,0.41725776943936316,1.3134851517335773,0.973202670352962,0.28701921079982035,0.6866296544725001
0.0485,1.760584001556081,1.0,3038.664511353436,0.420526484795192,1.3132097471825672,0.973586229291891,0.2869975280653554,0.6871800199930878
0.049,1.7600677459735823,1.0,3043.480820811539,0.4237768753529029,1.312935124308952,0.9739592589403149,0.28697584533089043,0.6877283417529999
0.0495,1.7595514903910838,1.0,3048.2129208109736,0.4270090402220065,1.3126612585464972,0.9743221489588532,0.28695416259642553,0.6882746728447718
0.05,1.7590352348085854,1.0,3052.8634645800025,0.43022307851201325,1.3123881253289682,0.9746752709366985,0.2869324798619606,0.6888190661781022
0.0505,1.758518979226087,1.0,3057.4351177092667,0.4334190893324339,1.3121157000901311,0.9750189793918113,0.2869107971274957,0.6893615744810182
0.051000000000000004,1.7580027236435884,1.0,3061.9305577588534,0.43659717179277896,1.3118439582637516,0.9753536127071332,0.2868891143930307,0.6899022503010064
0.051500000000000004,1.75748646806109,1.0,3066.3524738797882,0.43975742500255904,1.3115728752835956,0.975679494007436,0.28686743165856576,0.6904411460061002
0.052000000000000005,1.7569702124785915,1.0,3070.703566448491,0.44289994807128474,1.3113024265834283,0.975996931981066,0.28684574892410086,0.6909783137859351
0.0525,1.756453956896093,1.0,3074.9865467141594,0.44602484010846666,1.3110325875970161,0.9763062216505,0.2868240661896359,0.6915138056527567
0.053,1.7559377013135946,1.0,3079.2041364605093,0.4491322002236154,1.3107633337581244,0.9766076450953172,0.28680238345517095,0.6920476734423999
0.0535,1.755421445731096,1.0,3083.3590676801596,0.4522221275262415,1.3104946405005191,0.976901472130914,0.28678070072070605,0.6925799688152213
0.054,1.7549051901485975,1.0,3087.4540822624745,0.4552947211258557,1.3102264832579658,0.977187960946024,0.2867590179862411,0.6931107432569996
0.0545,1.754388934566099,1.0,3091.4919316951623,0.4583500801319685,1.3099588374642304,0.9774673587018735,0.28673733525177614,0.6936400480797922
0.055,1.7538726789836006,1.0,3095.475376779052,0.46138830365409045,1.3096916785530786,0.9777399020955896,0.28671565251731124,0.6941679344227573
0.0555,1.753356423401102,1.0,3099.402946247452,0.46440945262789285,1.3094250181348612,0.9780058164422175,0.2866939697828463,0.6946943818630127
0.056,1.7528401678186036,1.0,3103.28011451981,0.4674136590719827,1.3091588085947672,0.9782653208637107,0.2866722870483813,0.6952194868248218
0.0565,1.7523239122361052,1.0,3107.1103246211424,0.4704010340540467,1.3088930197555608,0.9785186244692179,0.2866506043139164,0.695743311053223
0.057,1.7518076566536065,1.0,3110.8947639140874,0.4733716671732531,1.3086276407300974,0.9787659269765636,0.28662892157945147,0.696265878116626
0.0575,1.751291401071108,1.0,3114.634624010764,0.4763256480287698,1.3083626606312326,0.9790074200255985,0.2866072388449865,0.6967872115064645
0.058,1.7507751454886096,1.0,3118.3311006748795,0.4792630662197651,1.3080980685718218,0.9792432875695596,0.2865855561105216,0.6973073346374777
0.0585,1.7502588899061111,1.0,3121.9853937263997,0.48218401134540717,1.3078338536647205,0.9794737062444586,0.28656387337605665,0.697826270847983
0.059000000000000004,1.7497426343236127,1.0,3125.5987069498983,0.4850885730048641,1.3075700050227843,0.9796988457178938,0.2865421906415917,0.6983440434001418
0.059500000000000004,1.7492263787411142,1.0,3129.1722480044814,0.4879768407973039,1.3073065117588687,0.9799188690185844,0.2865205079071268,0.6988606754802178
0.06,1.7487101231586157,1.0,3132.7072283364073,0.4908489043218949,1.307043362985829,0.9801339328478389,0.28649882517266184,0.6993761901988282
0.0605,1.7481938675761173,1.0,3136.2048630952536,0.49370485317780516,1.3067805478165206,0.980344187874076,0.28647714243819694,0.6998906105911846
0.061,1.7476776119936188,1.0,3139.6663710513717,0.49654477696420285,1.3065180553637994,0.980549779011445,0.286455459703732,0.7004039596173304
0.0615,1.7471613564111201,1.0,3143.0929745172366,0.49936876528025614,1.3062558747405206,0.9807508456835237,0.28643377696926703,0.7009162601623677
0.062,1.7466451008286217,1.0,3146.485899270792,0.5021769077251331,1.3059939950595396,0.9809475220729905,0.28641209423480213,0.7014275350366788
0.0625,1.7461288452461232,1.0,3149.846374480895,0.5049692938980018,1.3057324054337123,0.9811399373581307,0.28639041150033717,0.7019378069761357
0.063,1.7456125896636248,1.0,3153.1756326370105,0.5077460133980306,1.3054710949758936,0.9813282159369497,0.28636872876587227,0.7024470986423106
0.0635,1.7450963340811263,1.0,3156.4749094793788,0.5105071558243874,1.3052100527989396,0.9815124776396432,0.2863470460314073,0.7029554326226674
0.064,1.7445800784986278,1.0,3159.7454439339344,0.5132528107762405,1.3049492680157053,0.9816928379301033,0.28632536329694236,0.7034628314307574
0.0645,1.7440638229161294,1.0,3162.9884780483994,0.515983067852758,1.3046887297390466,0.9818694080971039,0.28630368056247746,0.7039693175063975
0.065,1.7435475673336307,1.0,3166.204979204857,0.5186980106234675,1.304428429425696,0.9820422951379416,0.2862819978280125,0.7044749086651914
0.0655,1.7430313117511322,1.0,3169.393672595622,0.5213976816696935,1.3041683774664834,0.9822116003968179,0.28626031509354755,0.7049795859356087
0.066,1.7425150561686338,1.0,3172.558197070318,0.5240822333879973,1.303908542807305,0.9823774270090595,0.28623863235908265,0.7054834107421573
0.0665,1.7419988005861353,1.0,3175.699062744181,0.5267517456629672,1.3036489208244264,0.982539870910986,0.2862169496246177,0.7059863931191366
0.067,1.7414825450036369,1.0,3178.8167811233516,0.5294062983791912,1.3033895068941137,0.9826990247112934,0.28619526689015273,0.7064885430693448
0.0675,1.7409662894211384,1.0,3181.911865083414,0.5320459714212573,1.3031302963926321,0.9828549778299117,0.28617358415568783,0.7069898705641422
0.068,1.74045003383864,1.0,3184.98482884788,0.5346708446737536,1.3028712846962476,0.9830078166301323,0.2861519014212229,0.7074903855435094
0.0685,1.7399337782561415,1.0,3188.0361879679963,0.537280998021268,1.302612467181226,0.9831576245443757,0.2861302186867579,0.7079900979161078
0.069,1.7394175226736428,1.0,3191.0664593026368,0.5398765113483889,1.302353839223833,0.9833044821939472,0.286108535952293,0.7084890175593386
0.0695,1.7389012670911443,1.0,3194.0761609981364,0.5424574645397039,1.302095396200334,0.9834484675031079,0.28608685321782806,0.7089871543193978
0.07,1.7383850115086459,1.0,3197.0658124695583,0.5450239374798014,1.3018371334869954,0.9835896558077655,0.2860651704833631,0.709484518011332
