Time [s],Phi [rad],STIM [ ],Fsee [N],Gamma [ ],Lcerel [ ],q [ ],Lmtc [m],fisomrel [ ]
0.0,1.8,1.0,18.41263634911399,0.0006803344716799312,1.379290143346476,0.005119289388741142,0.288653,0.5412595253833219
0.0005,1.79999375,1.0,18.92783002919504,0.006285727642155341,1.379230697701518,0.014905788861133279,0.2886527375,0.5414033096964919
0.001,1.799975,1.0,22.76723143303292,0.011859678988807083,1.37882248281662,0.03918679245314701,0.28865195,0.5423900717877923
0.0015,1.79994375,1.0,33.32700531594665,0.01740236487622862,1.3778572225976742,0.07544375595061857,0.2886506375,0.5447191305190425
0.002,1.7999,1.0,58.03001929644097,0.022913960678056955,1.376085343549769,0.12041631325921635,0.2886488,0.5489789998949368
0.0025,1.79984375,1.0,104.25049224059987,0.028394640784595287,1.3735976018501868,0.1707511355851742,0.28864643749999996,0.5549261221039201
0.003,1.7997750000000001,1.0,170.01097995651347,0.033844578610844445,1.3708801234729369,0.22363730635909926,0.28864354999999997,0.5613773406017192
0.0035,1.79969375,1.0,247.78839895791492,0.039263946594864416,1.368276711235866,0.2769250177629832,0.2886401375,0.5675135968153526
0.004,1.7996,1.0,332.1472968099785,0.04465291620945642,1.3658755175086847,0.3290201949825641,0.2886362,0.5731349033410463
0.0045000000000000005,1.7994937500000001,1.0,420.28307364566365,0.05001165796586415,1.3636659593703806,0.3788239548405625,0.2886317375,0.5782750956480252
0.005,1.799375,1.0,510.61135827078874,0.05534034138596166,1.3616217079782242,0.4256605058636172,0.28862675,0.5830029984659182
0.0055,1.79924375,1.0,602.0723643963346,0.06063913518205597,1.3597194555325929,0.46918290067620716,0.2886212375,0.5873785500999201
0.006,1.7991000000000001,1.0,693.787524549772,0.06590820688097322,1.3579424054353513,0.5092819825859816,0.2886152,0.5914452627268961
0.006500000000000001,1.79894375,1.0,785.0647011820802,0.07114772324493653,1.3562770296739126,0.5460077096541626,0.2886086375,0.5952381317816773
0.007,1.798775,1.0,875.3259294061886,0.07635785010738809,1.354712627596346,0.5795101038576096,0.28860155,0.598784922907194
0.0075,1.79859375,1.0,964.078961600192,0.08153875213868376,1.3532405851738725,0.6099961945219285,0.2885939375,0.6021080643686867
0.008,1.7984,1.0,1050.963849788202,0.08669059365532816,1.3518528991818284,0.63769966882842,0.2885858,0.6052281165093818
0.0085,1.79819375,1.0,1135.660820482398,0.09181353729184145,1.3505431069196097,0.6628619907926294,0.2885771375,0.6081617671911579
0.009000000000000001,1.797975,1.0,1217.9313478524755,0.09690774508268234,1.3493052544650757,0.6857195314767743,0.28856795,0.6109242321527064
0.0095,1.79774375,1.0,1297.6180111868575,0.10197337868715298,1.3481336674487172,0.7064962508120562,0.2885582375,0.6135298137394961
0.01,1.7975,1.0,1374.5875201351728,0.10701059806438867,1.3470235149239593,0.7254001943549763,0.288548,0.6159906890619279
0.0105,1.79724375,1.0,1448.7526152668554,0.11201956243740666,1.3459703182023819,0.7426216149799851,0.2885372375,0.6183180450348936
0.011,1.796975,1.0,1520.0766997654082,0.11700043033891872,1.344969768234137,0.758332687794309,0.28852595000000003,0.6205225095806306
0.0115,1.79669375,1.0,1588.5555289175234,0.12195336008654671,1.3440178538642529,0.7726882246020205,0.2885141375,0.6226138910160509
0.012,1.7964,1.0,1654.174608617499,0.12687850755276492,1.343111266746419,0.7858269506844046,0.28850180000000003,0.6246003145142467
0.0125,1.79609375,1.0,1716.9595056659343,0.13177602857620832,1.3422467065585313,0.7978725145577902,0.2884889375,0.6264897699293321
0.013000000000000001,1.7957750000000001,1.0,1776.9506558933379,0.1366460779559304,1.3414211233638431,0.8089350141083385,0.28847555,0.6282895934979956
0.0135,1.79544375,1.0,1834.2322222834134,0.1414888113167391,1.3406313405778019,0.81911224453693,0.2884616375,0.6300073017097243
0.014,1.7951000000000001,1.0,1888.8456323539426,0.14630438075973662,1.339874977097417,0.8284913772028405,0.2884472,0.6316485967571119
0.0145,1.79474375,1.0,1940.8497873107908,0.1510929381065102,1.3391497142922582,0.8371498804668599,0.2884322375,0.6332189773452797
0.015,1.794375,1.0,1990.324564514842,0.1558546351786471,1.3384532335318948,0.8451566187447818,0.28841675,0.6347238798208057
0.0155,1.79399375,1.0,2037.3493057420683,0.16058962257437925,1.3377834232619934,0.8525729275742095,0.2884007375,0.6361682365095951
0.016,1.7936,1.0,2082.0286069943863,0.16529805158548397,1.3371380816258776,0.8594534076881865,0.2883842,0.6375571234618085
0.0165,1.7931937500000001,1.0,2124.4301199658753,0.16998007005624383,1.3365155467500716,0.8658469112608397,0.2883671375,0.6388944094244273
0.017,1.792775,1.0,2164.6291081402414,0.17463582554429707,1.3359142022801807,0.8717970722578997,0.28834955,0.6401838287833861
0.0175,1.7923437500000001,1.0,2202.711732422681,0.179265465607282,1.3353324318618105,0.8773429096812024,0.2883314375,0.6414290820843247
0.018000000000000002,1.7919,1.0,2238.759793725798,0.18386913649667655,1.3347687629103333,0.8825194074755529,0.2883128,0.6426335311845824
0.0185,1.79144375,1.0,2272.873808438047,0.18844698578808938,1.3342216226274322,0.8873579220819751,0.2882936375,0.6438007237509131
0.019,1.790975,1.0,2305.125321936828,0.19299915730925624,1.3336898057553526,0.8918867166027623,0.28827395,0.64493339775177
0.0195,1.79049375,1.0,2335.5854389094575,0.19752579420779168,1.3331721748600576,0.8961312402662439,0.2882537375,0.6460341259535052
0.02,1.79,1.0,2364.331011961228,0.20202703963131027,1.33266759250751,0.9001144313366527,0.288233,0.647105462038448
0.0205,1.78949375,1.0,2391.4412816111585,0.2065030362361057,1.3321749491749175,0.9038570046694183,0.2882117375,0.6481498824637786
0.021,1.788975,1.0,2416.9918479912285,0.21095392590562578,1.3316932163253143,0.9073777093565016,0.28818995000000003,0.64916967552222
0.021500000000000002,1.78844375,1.0,2441.062669897292,0.2153798514130839,1.331221363494809,0.9106935266784794,0.2881676375,0.6501671185096929
0.022,1.7879,1.0,2463.711818236045,0.2197809511386073,1.3307586059469265,0.9138199086192031,0.2881448,0.6511439559695338
0.0225,1.78734375,1.0,2485.0003733633716,0.22415736346232323,1.3303041589451923,0.9167708928465194,0.28812143749999997,0.6521019215035369
0.023,1.786775,1.0,2504.9921754452876,0.228509226764359,1.3298572377531312,0.9195592517400364,0.28809755,0.6530427382075072
0.0235,1.78619375,1.0,2523.75358847204,0.23283667942484187,1.329417057634269,0.9221966239539768,0.28807313749999996,0.6539681190675406
0.024,1.7856,1.0,2541.3413718947677,0.23713985665996057,1.328982946008098,0.9246936494160681,0.2880482,0.6548795320020182
0.0245,1.78499375,1.0,2557.8249777320625,0.24141889930376179,1.3285541293169203,0.9270600367662916,0.2880227375,0.6557786483061239
0.025,1.784375,1.0,2573.251897564062,0.24567394123841904,1.3281300573581531,0.9293047060681984,0.28799675,0.656666662812931
0.025500000000000002,1.78374375,1.0,2587.668452238032,0.24990511553050848,1.3277102043929536,0.9314358351019414,0.2879702375,0.6575447128084457
0.026000000000000002,1.7831000000000001,1.0,2601.122261792035,0.2541125552466063,1.327294044682479,0.9334609278044937,0.2879432,0.6584139295771155
0.0265,1.78244375,1.0,2613.662133538377,0.2582963934532886,1.3268810524878873,0.9353868788870077,0.2879156375,0.659275438534474
0.027,1.781775,1.0,2625.33795627529,0.26245676321713163,1.326470702070336,0.9372200314676169,0.28788755,0.6601303593421619
0.0275,1.7810937500000001,1.0,2636.1897903534245,0.26659379453252785,1.3260625676760776,0.9389662423349507,0.2878589375,0.660979598088276
0.028,1.7804,1.0,2646.266144318203,0.27070762156837586,1.3256561529995392,0.940630904224857,0.2878298,0.6618242028493008
0.0285,1.77969375,1.0,2655.614581451344,0.27479837684648534,1.3252509777016048,0.9422189982730431,0.2878001375,0.6626651833678259
0.029,1.778975,1.0,2664.2666553730205,0.27886618743151403,1.3248467151548131,0.9437351487593788,0.28776995,0.6635032259347184
0.029500000000000002,1.7782437500000001,1.0,2672.254446261929,0.28291118038811974,1.3244430387317032,0.945183635192699,0.2877392375,0.6643390134519724
0.03,1.7775,1.0,2679.6105145469587,0.2869334827809601,1.3240396218048143,0.9465684224249896,0.287708,0.6651732254483194
0.0305,1.77674375,1.0,2686.367856964242,0.29093322167469293,1.3236361377466848,0.9478931877777703,0.2876762375,0.6660065380880387
0.031,1.775975,1.0,2692.559864979029,0.29491052413397595,1.323232259929854,0.9491613455095578,0.28764395,0.6668396241729568
0.0315,1.7751937500000001,1.0,2698.2202855734677,0.2988655172234669,1.322827661726861,0.9503760689138738,0.2876111375,0.6676731531376511
0.032,1.7744,1.0,2703.376014825568,0.30279832358024317,1.322422081993039,0.951540316937244,0.2875778,0.6685076563879913
0.0325,1.77359375,1.0,2708.0601994131202,0.30670907301723616,1.3220152049101452,0.9526568407189935,0.2875439375,0.669343774893741
0.033,1.772775,1.0,2712.2974742057954,0.3105978890084543,1.3216067945701733,0.9537282122506078,0.28750955,0.6701819824180433
0.0335,1.7719437500000002,1.0,2716.109234736668,0.31446489251573184,1.3211966463838747,0.9547568341082603,0.2874746375,0.6710226860706383
0.034,1.7711000000000001,1.0,2719.5170447666187,0.31831020450090286,1.320784555762001,0.9557449499528033,0.2874392,0.6718662907671418
0.0345,1.7702437500000001,1.0,2722.542619024959,0.3221339459258017,1.320370318115304,0.9566946569144188,0.2874032375,0.672713199205035
0.035,1.7693750000000001,1.0,2725.2078068772257,0.32593623775226244,1.3199537288545349,0.9576079168738372,0.28736675,0.673563811836986
0.035500000000000004,1.76849375,1.0,2727.534576922056,0.32971720094211937,1.3195345833904455,0.9584865667499657,0.2873297375,0.6744185268415002
0.036000000000000004,1.7676,1.0,2729.5450025149094,0.3334769564572066,1.3191126771337873,0.9593323278917737,0.2872922,0.6752777400909031
0.0365,1.76669375,1.0,2731.2461101109,0.33721561200071837,1.3186879430508287,0.9601468256059708,0.2872541375,0.6761415655421932
0.037,1.765775,1.0,2732.6763122119637,0.34093330542027034,1.3182600295563642,0.9609315636919471,0.28721555,0.6770106938354024
0.0375,1.76484375,1.0,2733.8485963919366,0.34463015152211496,1.3178288167564496,0.9616879723923953,0.2871764375,0.6778853419617195
0.038,1.7639,1.0,2734.775032592558,0.348306264231215,1.317394193536838,0.9624173968173592,0.28713679999999997,0.6787657076183042
0.0385,1.76294375,1.0,2735.4677333929244,0.3519617574725335,1.3169560487832825,0.9631211023297289,0.28709663750000003,0.679651987052581
0.039,1.761975,1.0,2735.93884864055,0.35559674517103323,1.316514271381536,0.9638002801370019,0.28705595,0.6805443750376764
0.0395,1.7609937500000001,1.0,2736.2005603569605,0.35921134125167714,1.3160687502173516,0.9644560524329137,0.2870147375,0.6814430648470708
0.04,1.76,1.0,2736.265077916394,0.3628056596394281,1.3156193741764823,0.9650894771296136,0.286973,0.6823482482284619
0.0405,1.7589937500000001,1.0,2736.1446334983434,0.36637981425924904,1.3151660321446812,0.9657015522169891,0.2869307375,0.6832601153768425
0.041,1.757975,1.0,2735.851477814163,0.36993391903610284,1.314708613007701,0.9662932197821368,0.28688795,0.6841788549067891
0.0415,1.75694375,1.0,2735.3978761068183,0.37346808789495234,1.3142470056512954,0.966865369718755,0.2868446375,0.6851046538239628
0.042,1.7559,1.0,2734.7960282199533,0.37698243461333175,1.3137810996532227,0.9674188431867482,0.28680079999999997,0.6860376961110153
0.0425,1.75484375,1.0,2734.051622293894,0.38047705937599535,1.3133108437979963,0.9679544384193676,0.2867564375,0.6869780457863124
0.043000000000000003,1.753775,1.0,2733.183592525146,0.3839520908750471,1.3128360666257026,0.9684729056498605,0.28671155,0.6879260057977008
0.043500000000000004,1.75269375,1.0,2732.1981869120254,0.3874076356331004,1.3123567119078523,0.9689749610135675,0.28666613750000003,0.6888816470858258
0.044,1.7516,1.0,2731.101656843094,0.3908438001727684,1.3118727234159566,0.9694612830535749,0.2866202,0.689845039506104
0.0445,1.75049375,1.0,2729.900255801866,0.3942606910166646,1.311384044921526,0.9699325150621494,0.2865737375,0.6908162518122103
0.045,1.7493750000000001,1.0,2728.600238140729,0.3976584146874023,1.3108906201960715,0.9703892672541313,0.28652675,0.691795351639356
0.0455,1.74824375,1.0,2727.2078579249614,0.4010370777075949,1.310392393011104,0.9708321187858714,0.2864792375,0.6927824054873735
0.046,1.7471,1.0,2725.72936784767,0.4043967865998557,1.3098893071381348,0.9712616196320835,0.2864312,0.6937774787035931
0.0465,1.7459437500000001,1.0,2724.171018213843,0.407737647886798,1.3093813063486743,0.9716782923318775,0.28638263750000004,0.6947806354655222
0.047,1.744775,1.0,2722.5390559948905,0.41105976809103517,1.3088683344142338,0.9720826336142568,0.28633355,0.6957919387633198
0.0475,1.74359375,1.0,2720.8397239539445,0.41436325373518057,1.3083503351063237,0.9724751159124629,0.28628393750000003,0.6968114503820724
0.048,1.7424,1.0,2719.0788727023582,0.41764820894419014,1.3078272557221238,0.9728561887221535,0.2862338,0.6978392239623286
0.0485,1.74119375,1.0,2717.2597500708443,0.4209147156146612,1.3072990672226665,0.9732262788890979,0.2861831375,0.6988752655742319
0.049,1.739975,1.0,2715.3937234462255,0.4241629155388165,1.3067656665529521,0.973585795226763,0.28613195,0.6999197252051116
0.0495,1.73874375,1.0,2713.4836146303182,0.42739290699064547,1.3062270284346849,0.9739351272888479,0.2860802375,0.7009725990308122
0.05,1.7375,1.0,2711.5322426747666,0.4306047882441374,1.3056831275895697,0.974274646490447,0.286028,0.7020338823566927
0.0505,1.73624375,1.0,2709.5424236593594,0.4337986575732817,1.305133938739311,0.9746047071124353,0.2859752375,0.7031035696091658
0.051000000000000004,1.734975,1.0,2707.5169704849714,0.43697461325206755,1.3045794366056136,0.9749256472415819,0.28592195,0.7041816543271908
0.051500000000000004,1.73369375,1.0,2705.4586926804095,0.44013275355448445,1.304019595910182,0.9752377896510376,0.2858681375,0.7052681291537299
0.052000000000000005,1.7324,1.0,2703.370396223397,0.4432731767545217,1.3034543913747205,0.9755414426254679,0.2858138,0.7063629858271618
0.0525,1.73109375,1.0,2701.254883376049,0.4463959811261686,1.3028837977209342,0.9758369007347689,0.28575893750000003,0.7074662151726537
0.053,1.729775,1.0,2699.1149525340893,0.4495012649434145,1.3023077896705275,0.9761244455599799,0.28570355000000003,0.7085778070934952
0.0535,1.72844375,1.0,2696.9533980904366,0.45258912648024885,1.301726341945205,0.9764043463747399,0.2856476375,0.7096977505623892
0.054,1.7271,1.0,2694.7730103132453,0.4556596640106608,1.3011394292666714,0.9766768607853608,0.2855912,0.7108260336127024
0.0545,1.7257437500000001,1.0,2692.576575237367,0.4587129758086399,1.3005470263566312,0.9769422353323622,0.2855342375,0.7119626433296762
0.055,1.724375,1.0,2690.366874570727,0.46174916014817535,1.299949107936789,0.9772007060560917,0.28547675,0.7131075658415958
0.0555,1.72299375,1.0,2688.146685614515,0.4647683153032566,1.2993456487288497,0.977452499028857,0.2854187375,0.7142607863109187
0.056,1.7216,1.0,2685.917767982243,0.46777053278284664,1.2987366327386807,0.9776978307709736,0.2853602,0.7154222712371002
0.0565,1.72019375,1.0,2683.677177146311,0.4707558752817793,1.298122087068484,0.977936908693438,0.28530113749999997,0.716591904342893
0.057,1.718775,1.0,2681.4348829608193,0.4737244941644821,1.2975019204320215,0.9781699329207665,0.28524155,0.7177697938114131
0.0575,1.71734375,1.0,2679.1916088255725,0.4766764782674261,1.2968761262227688,0.9783970945632466,0.2851814375,0.7189558854558757
0.058,1.7159,1.0,2676.948076937472,0.47961191642708234,1.2962446978342008,0.9786185770098625,0.2851208,0.7201501243785812
0.0585,1.71444375,1.0,2674.705008288552,0.48253089747992195,1.2956076286597933,0.9788345562996692,0.2850596375,0.7213524549685388
0.059000000000000004,1.7129750000000001,1.0,2672.463122664501,0.4854335102624159,1.2949649120930213,0.9790452014724605,0.28499795,0.7225628208990951
0.059500000000000004,1.71149375,1.0,2670.2231386448248,0.4883198436110353,1.2943165415273603,0.9792506749000403,0.2849357375,0.7237811651255536
0.06,1.71,1.0,2667.985773603467,0.4911899863622512,1.2936625103562855,0.9794511325993075,0.284873,0.7250074298827949
0.0605,1.7084937500000001,1.0,2665.75174371068,0.4940440273525347,1.2930028119732726,0.9796467245282943,0.2848097375,0.7262415566828924
0.061,1.7069750000000001,1.0,2663.5217639357434,0.49688205541835684,1.2923374397717966,0.9798375948661999,0.28474595,0.7274834863127271
0.0615,1.7054437500000001,1.0,2661.2965480506086,0.4997041593961887,1.2916663871453329,0.9800238822784072,0.2846816375,0.728733158831597
0.062,1.7039,1.0,2659.0768086347794,0.5025104281225012,1.2909896474873568,0.9802057201673928,0.2846168,0.729990513568826
0.0625,1.70234375,1.0,2656.8632570806963,0.5053009504337657,1.2903072141913439,0.9803832369103811,0.2845514375,0.7312554891213686
0.063,1.7007750000000001,1.0,2654.6566036005192,0.508075815166453,1.2896190806507695,0.9805565560845362,0.28448555,0.7325280233514129
0.0635,1.69919375,1.0,2652.457557233843,0.5108351111570342,1.2889252402591085,0.9807257966804341,0.28441913750000003,0.733808053383981
0.064,1.6976,1.0,2650.266825855725,0.5135789272419804,1.2882256864098367,0.9808910733045071,0.2843522,0.7350955156045232
0.0645,1.69599375,1.0,2648.0851161868936,0.5163073522577627,1.2875204124964295,0.9810524963711025,0.2842847375,0.7363903456565148
0.065,1.694375,1.0,2645.913133803872,0.519020475040852,1.2868094119123619,0.9812101722847658,0.28421675,0.7376924784390471
0.0655,1.69274375,1.0,2643.7515831502765,0.5217183844277197,1.2860926780511093,0.9813642036133083,0.2841482375,0.7390018481044144
0.066,1.6911,1.0,2641.597745830938,0.5244011656660069,1.2853702359215111,0.9815146905577502,0.2840792,0.740318330516904
0.0665,1.6894437500000001,1.0,2639.45728777682,0.5270688993142445,1.2846420330740804,0.9816617256743354,0.2840096375,0.7416419419880552
0.067,1.687775,1.0,2637.3296891754235,0.5297216690683773,1.283908074174976,0.9818054012212665,0.28393955,0.7429725938082153
0.0675,1.68609375,1.0,2635.21314487543,0.5323595586019245,1.2831683757890835,0.9819458068000781,0.2838689375,0.7443101752326926
0.068,1.6844000000000001,1.0,2633.106137340727,0.5349826515600307,1.2824229518467845,0.9820830287759515,0.2837978,0.7456545799430767
0.0685,1.68269375,1.0,2631.014291682188,0.5375910309893305,1.2816717501732253,0.9822171473654454,0.2837261375,0.7470058200075005
0.069,1.680975,1.0,2628.930619606551,0.5401847799589319,1.2809148353347637,0.982348245514797,0.28365395,0.7483636967118705
0.0695,1.67924375,1.0,2626.857371868107,0.5427639799294189,1.2801521863961525,0.9824763992675383,0.28358123749999997,0.7497281647240288
0.07,1.6775,1.0,2624.7967957007477,0.545328712361376,1.279383782422145,0.982601682088524,0.283508,0.7510991776769629
0.07050000000000001,1.67574375,1.0,2622.7492089411994,0.5478790585276749,1.2786096203361093,0.9827241657795979,0.2834342375,0.7524766564291105
0.07100000000000001,1.673975,1.0,2620.7178821010393,0.5504150995042494,1.2778296696673193,0.982843918475933,0.28335995,0.7538605696828707
0.07150000000000001,1.67219375,1.0,2618.7034871813175,0.5529369155914624,1.277043924012878,0.9829610070914322,0.2832851375,0.7552508423710036
0.07200000000000001,1.6704,1.0,2616.6960524403135,0.5554445860954893,1.2762524757722404,0.9830755007494252,0.2832098,0.7566472245845272
0.0725,1.6685963659226661,1.0,2614.812830775834,0.5579381903225055,1.275455417344862,0.983187466346559,0.283134047368752,0.7580494676510456
0.073,1.6667919528297792,1.0,2613.489411757517,0.5604178063112087,1.2746528130203887,0.9832969673083095,0.2830582620188507,0.7594573734055721
0.0735,1.664987539736892,1.0,2612.701351110022,0.5628835144391288,1.2738452377677385,0.9834040879046253,0.2829824766689495,0.7608698525252895
0.074,1.663183126644005,1.0,2612.39858499654,0.56533539322273,1.2730331544843703,0.9835089048720058,0.2829066913190482,0.7622860221693686
0.0745,1.661378713551118,1.0,2612.5473107742046,0.5677735191228029,1.2722168764408,0.9836114859984311,0.28283090596914695,0.7637052684337189
0.075,1.6595743004582308,1.0,2613.113845044838,0.5701979686001384,1.2713967169075435,0.9837118970676999,0.2827551206192457,0.7651269835835672
