Time [s],Phi [rad],STIM [ ],Fsee [N],Gamma [ ],Lcerel [ ],q [ ],Lmtc [m],fisomrel [ ]
0.0,1.8,1.0,20.050361082574728,0.0014757112574133866,1.379112756991652,0.005557338201573975,0.288653,0.5416885123921833
0.0005,1.79999375,1.0,20.76768023347511,0.007076642992998655,1.3790345284830974,0.017504390445261357,0.2886527375,0.5418776346224364
0.001,1.799975,1.0,25.209656228239588,0.012646157930212718,1.3785855919206687,0.043647973655001164,0.28865195,0.5429622117030515
0.0015,1.79994375,1.0,37.231625810951904,0.01818443229231347,1.3775449221768021,0.08133981111997905,0.2886506375,0.5454714022273994
0.002,1.7999,1.0,64.69481407960822,0.023691641314172004,1.3756811557377921,0.12726461187713867,0.2886488,0.5499479248198876
0.0025,1.79984375,1.0,113.99316561842954,0.029167959248545178,1.3731545873216522,0.17811630623046884,0.28864643749999996,0.5559810394158401
0.003,1.7997750000000001,1.0,181.80930432434056,0.03461355936868215,1.3704576267477384,0.2311791995010722,0.28864354999999997,0.5623761058177084
0.0035,1.79969375,1.0,260.65282215538133,0.04002861397726104,1.3678935274893975,0.28438630902061734,0.2886401375,0.568413113620561
0.004,1.7996,1.0,345.5618699353084,0.04541329440722403,1.3655294356568388,0.3362164103180389,0.2886362,0.5739420652691102
0.0045000000000000005,1.7994937500000001,1.0,433.99239049547435,0.05076777105064407,1.363350942940405,0.38563540669924634,0.2886317375,0.579005396251016
0.005,1.799375,1.0,524.4644183921738,0.056092213291495274,1.361332525651995,0.4320199058653345,0.28862675,0.5836696616898928
0.0055,1.79924375,1.0,615.943051673655,0.061386789661404574,1.3594525356013432,0.47506209404158045,0.2886212375,0.5879906717148122
0.006,1.7991000000000001,1.0,707.5779776425038,0.0666516675749451,1.357694999304463,0.5146796413258213,0.2886152,0.5920098452569524
0.006500000000000001,1.79894375,1.0,798.7041548172205,0.07188701378151315,1.3560468550316382,0.5509397869215695,0.2886086375,0.5957609598918354
0.007,1.798775,1.0,888.7366700831803,0.07709299372086696,1.3544981898265471,0.5840031339581704,0.28860155,0.5992698769442009
0.0075,1.79859375,1.0,977.2301611303357,0.08226977233358534,1.3530401274076571,0.6140817701218944,0.2885939375,0.6025595294642387
0.008,1.7984,1.0,1063.7996716951523,0.08741751330592114,1.351665444128079,0.6414118114726457,0.2885858,0.6056486460656916
0.0085,1.79819375,1.0,1148.1430653779507,0.09253637928890579,1.350367691691409,0.6662345664186851,0.2885771375,0.6085538285039345
0.009000000000000001,1.797975,1.0,1230.0528834314596,0.09762653279186743,1.3491407199409227,0.6887848649128603,0.28856795,0.6112906813747903
0.0095,1.79774375,1.0,1309.3525814205968,0.1026881346262471,1.3479793188829332,0.7092847856171206,0.2885582375,0.6138724286663582
0.01,1.7975,1.0,1385.9164484505357,0.10772134458857827,1.3468787051315123,0.7279399121066565,0.288548,0.6163111094588181
0.0105,1.79724375,1.0,1459.6725834738922,0.11272632195558184,1.3458343317745125,0.7449378827780282,0.2885372375,0.6186180324173356
0.011,1.796975,1.0,1530.6004169022128,0.11770322602806418,1.3448418082828626,0.7604483141847248,0.28852595000000003,0.620803977232798
0.0115,1.79669375,1.0,1598.6707064513425,0.12265221359381667,1.3438975249532028,0.7746238160844868,0.2885141375,0.6228778454434352
0.012,1.7964,1.0,1663.8832185164115,0.1275734408376496,1.3429980741774932,0.787600850167069,0.28850180000000003,0.6248479627249072
0.0125,1.79609375,1.0,1726.2720902354652,0.13246706360566216,1.342140123081179,0.7995010364841865,0.2884889375,0.6267223730165681
0.013000000000000001,1.7957750000000001,1.0,1785.894379938272,0.13733323748853232,1.3413204944831336,0.8104326120712154,0.28847555,0.6285086736153991
0.0135,1.79544375,1.0,1842.8005703541733,0.1421721163555812,1.3405364438976044,0.8204919228456035,0.2884616375,0.6302134259488958
0.014,1.7951000000000001,1.0,1897.0396435403088,0.14698385255418223,1.3397855404609227,0.8297646696841711,0.2884472,0.6318424314211692
0.0145,1.79474375,1.0,1948.6838636871867,0.15176859843170884,1.33906535330942,0.838326998022945,0.2884322375,0.6334014227843057
0.015,1.794375,1.0,1997.806354357693,0.15652650521825584,1.3383736682934253,0.84624667703379,0.28841675,0.6348956014210809
0.0155,1.79399375,1.0,2044.5144876825455,0.1612577250906296,1.337708104961586,0.8535839560442181,0.2884007375,0.636330471438949
0.016,1.7936,1.0,2088.874967281398,0.16596240665288156,1.3370668870024363,0.8603926931487051,0.2883842,0.6377101839492566
0.0165,1.7931937500000001,1.0,2130.961085158368,0.17064069810735086,1.3364483094714963,0.8667209439016353,0.2883671375,0.639038695962284
0.017,1.792775,1.0,2170.8582543339576,0.17529274765637654,1.3358506674242856,0.8726116272494585,0.28834955,0.6403199272661413
0.0175,1.7923437500000001,1.0,2208.651288221504,0.17991870244219896,1.335272373975732,0.8781031638603123,0.2883314375,0.6415575103593014
0.018000000000000002,1.7919,1.0,2244.437479639666,0.1845187104250306,1.33471181472337,0.8832299651419512,0.2883128,0.6427551054993252
0.0185,1.79144375,1.0,2278.2916107216815,0.18909291640593792,1.3341676884208482,0.8880229853913387,0.2882936375,0.6439156760697287
0.019,1.790975,1.0,2310.2860681404363,0.19364146421571074,1.333638789363851,0.8925100644130161,0.28827395,0.6450419586473974
0.0195,1.79049375,1.0,2340.4996429907687,0.19816449768513877,1.333123911848064,0.8967162604131038,0.2882537375,0.6461366688617451
0.02,1.79,1.0,2369.0128262930743,0.2026621600065971,1.3326218907829008,0.900664173938701,0.288233,0.6472024163648215
0.0205,1.78949375,1.0,2395.904958074609,0.20713459411006666,1.3321316232630107,0.904374227821243,0.2882117375,0.648241660805732
0.021,1.788975,1.0,2421.2568345224977,0.21158194309646058,1.3316520373070453,0.9078649008945274,0.28818995000000003,0.649256779815326
0.021500000000000002,1.78844375,1.0,2445.127816368583,0.21600434606176366,1.331182306986452,0.9111529827107685,0.2881676375,0.6502496158773328
0.022,1.7879,1.0,2467.580604130334,0.22040194210196068,1.3307216063726774,0.9142537059111009,0.2881448,0.6512219996118489
0.0225,1.78734375,1.0,2488.680961821065,0.2247748703130365,1.3302691095371695,0.9171809121329899,0.28812143749999997,0.6521757502727206
0.023,1.786775,1.0,2508.497455784843,0.22912326979097583,1.3298239905513751,0.9199471983007943,0.28809755,0.6531126762014235
0.0235,1.78619375,1.0,2527.08743306409,0.23344727650095942,1.3293855536195824,0.9225640683318743,0.28807313749999996,0.6540343018709222
0.024,1.7856,1.0,2544.527079932723,0.2377470317736599,1.3289529456936282,0.9250419967680572,0.2880482,0.6549424729575412
0.0245,1.78499375,1.0,2560.864184142321,0.242022669889544,1.3285256005360684,0.9273906053574195,0.2880227375,0.655838424082958
0.025,1.784375,1.0,2576.1463391166617,0.24627432469515304,1.3281029686098862,0.9296187034471597,0.28799675,0.6567233481804211
0.025500000000000002,1.78374375,1.0,2590.422575752786,0.25050213003702837,1.3276845003780653,0.9317343652162916,0.2879702375,0.6575984317983984
0.026000000000000002,1.7831000000000001,1.0,2603.743239561497,0.25470621976171137,1.3272696463035885,0.9337450010000898,0.2879432,0.6584648552561356
0.0265,1.78244375,1.0,2616.159874503076,0.2588867277157433,1.3268578568494396,0.9356574208244341,0.2879156375,0.6593237927799467
0.027,1.781775,1.0,2627.7142664076387,0.2630437840131815,1.3264486829660853,0.9374779049453832,0.28788755,0.6601762034110598
0.0275,1.7810937500000001,1.0,2638.4632835063476,0.2671775253636453,1.3260415444632747,0.9392122223771572,0.2878589375,0.6610233140433752
0.028,1.7804,1.0,2648.4460601119617,0.27128808201409654,1.3256360333262796,0.9408657174013831,0.2878298,0.6618659878811421
0.0285,1.77969375,1.0,2657.6965634666867,0.2753755820607555,1.3252317955758637,0.9424433323164384,0.2878001375,0.6627049717681748
0.029,1.778975,1.0,2666.2493580696973,0.2794401535998423,1.3248284772327914,0.9439496365253871,0.28776995,0.6635410088604143
0.029500000000000002,1.7782437500000001,1.0,2674.1395527674854,0.2834819247275772,1.3244257243178263,0.9453888594753488,0.2877392375,0.6643748386506816
0.03,1.7775,1.0,2681.4027506224515,0.2875010235401804,1.3240231828517333,0.9467649202941946,0.287708,0.6652071969854345
0.0305,1.77674375,1.0,2688.0750015600747,0.2914975781338721,1.3236204988552758,0.948081454491639,0.2876762375,0.666038816073541
0.031,1.775975,1.0,2694.1796625372353,0.2954717118952798,1.323217438157703,0.9493418517346762,0.28764395,0.6668701775215924
0.0315,1.7751937500000001,1.0,2699.757384262447,0.299423555416735,1.322813611330022,0.9505492457553321,0.2876111375,0.667702080166038
0.032,1.7744,1.0,2704.8463738922983,0.3033532370374062,1.322408654389404,0.9517065549455541,0.2875778,0.6685352665013196
0.0325,1.77359375,1.0,2709.4677002120707,0.30726087836889676,1.3220023623842134,0.9528165145026352,0.2875439375,0.6693701486574799
0.033,1.772775,1.0,2713.642636247001,0.31114660102281017,1.321594530362813,0.9538816743058856,0.28750955,0.6702071366094445
0.0335,1.7719437500000002,1.0,2717.392640142519,0.31501052661074963,1.3211849533735662,0.9549044136949637,0.2874746375,0.6710466381582274
0.034,1.7711000000000001,1.0,2720.7393369758024,0.31885277674431856,1.3207734264648368,0.9558869549025406,0.2874392,0.6718890589094642
0.0345,1.7702437500000001,1.0,2723.704501498749,0.3226734730351204,1.3203597446849877,0.956831375278034,0.2874032375,0.672734802249265
0.035,1.7693750000000001,1.0,2726.3100418118074,0.3264727370947584,1.3199437030823828,0.9577396184239169,0.28736675,0.6735842693173855
0.035500000000000004,1.7684942181497143,1.0,2728.6012398529506,0.33025069053483597,1.3195250967053853,0.9586135043526945,0.287329757162288,0.6744378589777238
0.036000000000000004,1.7676101392230634,1.0,2731.036781030989,0.3340074503064788,1.3191036983987119,0.9594547353927118,0.28729262584736864,0.6752960129727804
0.0365,1.7667260602964125,1.0,2733.733496204062,0.3377431399229674,1.3186799377699874,0.9602649761840764,0.2872554945324493,0.6761578356598118
0.037,1.7658419813697617,1.0,2736.659224544326,0.34145787911890196,1.3182541102599745,0.9610457743200446,0.28721836321752997,0.6770227082354336
0.0375,1.7649579024431106,1.0,2739.7966489757177,0.34515178305441024,1.3178263762915372,0.9617985689522126,0.28718123190261063,0.6778902886906575
0.038,1.7640738235164597,1.0,2743.1284375021005,0.34882496688962,1.317396896287539,0.9625247127633967,0.2871441005876913,0.6787602366933583
0.0385,1.7631897445898088,1.0,2746.637236711569,0.3524775457846589,1.3169658306708443,0.9632254781150135,0.28710696927277196,0.6796322136069569
0.039,1.7623056656631577,1.0,2750.3056658514865,0.3561096348996548,1.3165333398643164,0.9639020626937584,0.2870698379578526,0.6805058825074655
0.0395,1.7614215867365068,1.0,2754.1163114740148,0.3597213493947354,1.3160995842908196,0.9645555947032814,0.2870327066429333,0.6813809081988872
0.04,1.760537507809856,1.0,2758.051722652237,0.3633128044300284,1.3156647243732176,0.9651871376419703,0.28699557532801395,0.682256957226979
0.0405,1.7596534288832049,1.0,2762.094821671988,0.36688411481366656,1.3152289167853626,0.9657976943119728,0.2869584440130946,0.6831337054283385
0.041,1.758769349956554,1.0,2766.2377783936863,0.37043538937428955,1.3147922343059895,0.9663882030158961,0.2869213126981753,0.6840109987903158
0.0415,1.757885271029903,1.0,2770.4604401853467,0.37396674917707795,1.3143548607201045,0.9669595616559539,0.28688418138325594,0.6848884615486086
0.042,1.757001192103252,1.0,2774.7556974761183,0.37747830336936566,1.3139168617012416,0.9675126069898793,0.28684705006833655,0.68576595644019
0.0425,1.7561171131766011,1.0,2779.1164209267886,0.3809701610984865,1.3134783029229344,0.9680481305045477,0.2868099187534172,0.6866433469277964
0.043000000000000003,1.7552330342499503,1.0,2783.535460566646,0.3844424315117744,1.3130392500587171,0.9685668813267154,0.2867727874384979,0.6875204972024107
0.043500000000000004,1.7543489553232992,1.0,2788.0056450264065,0.38789522375656305,1.3125997687821231,0.9690695689184641,0.28673565612357854,0.6883972721854692
0.044,1.7534648763966483,1.0,2792.519780866529,0.3913286469801865,1.3121599247666866,0.9695568655752701,0.2866985248086592,0.6892735375307926
0.0445,1.7525807974699974,1.0,2797.0706520012595,0.39474281032997854,1.3117197836859416,0.9700294087429712,0.28666139349373987,0.690149159626243
0.045,1.7516967185433463,1.0,2801.651019218334,0.3981378229532731,1.3112794112134214,0.970487803168408,0.28662426217882053,0.6910240055951076
0.0455,1.7508126396166954,1.0,2806.2579749853803,0.40151378494478973,1.310838833980757,0.9709326186961419,0.2865871308639012,0.6918980206935056
0.046,1.7499285606900445,1.0,2810.883570792632,0.40487081101344763,1.3103981236872684,0.9713644019453754,0.28654999954898186,0.6927710612609159
0.0465,1.7490444817633934,1.0,2815.5203285503612,0.40820901512459973,1.309957347587815,0.9717836718888946,0.2865128682340625,0.6936429932280817
0.047,1.7481604028367426,1.0,2820.166011244146,0.4115284995700295,1.309516525848977,0.9721909170008646,0.2864757369191432,0.6945137762320778
0.0475,1.7472763239100917,1.0,2824.8183744453013,0.41482936664152054,1.3090756786373345,0.9725866019972756,0.28643860560422385,0.6953833701367064
0.048,1.7463922449834406,1.0,2829.4751662951167,0.4181117186308563,1.3086348261194671,0.9729711692141232,0.2864014742893045,0.6962517350325457
0.0485,1.7455081660567897,1.0,2834.134127497808,0.4213756578298201,1.3081939884619551,0.9733450398933179,0.2863643429743852,0.6971188312369652
0.049,1.7446240871301388,1.0,2838.792991322819,0.4246212865301957,1.3077531858313782,0.9737086153832945,0.28632721165946584,0.6979846192941237
0.0495,1.7437400082034877,1.0,2843.449483615975,0.4278487070237665,1.3073124383943164,0.9740622782607146,0.2862900803445465,0.6988490599749345
0.05,1.7428559292768369,1.0,2848.1013228193865,0.4310580216023159,1.30687176631735,0.9744063933791142,0.28625294902962717,0.6997121142770083
0.0505,1.741971850350186,1.0,2852.746220001035,0.43424933255762743,1.3064311897670584,0.974741308849877,0.28621581771470783,0.7005737434245697
0.051000000000000004,1.7410877714235349,1.0,2857.3818788927433,0.4374227421814847,1.3059907289100217,0.975067356960464,0.2861786863997885,0.701433908868347
0.051500000000000004,1.740203692496884,1.0,2862.005995937299,0.4405783527656711,1.30555040391282,0.9753848550344382,0.28614155508486916,0.7022925722854354
0.052000000000000005,1.7393196135702331,1.0,2866.6188616829813,0.4437162484632352,1.3051102118692872,0.9756941028440902,0.2861044237699498,0.7031497404753784
0.0525,1.7384355346435822,1.0,2871.2177641169346,0.44683654565235337,1.3046701764937352,0.9759953920080774,0.28606729245503043,0.7040053684798351
0.053,1.7375514557169311,1.0,2875.8006996151976,0.4499393523708691,1.3042303151527859,0.9762890000742597,0.2860301611401111,0.7048594239223105
0.0535,1.7366673767902803,1.0,2880.36736449671,0.4530247629125915,1.3037906301176687,0.9765751902181667,0.28599302982519176,0.7057119038670593
0.054,1.7357832978636294,1.0,2884.917454471296,0.45609287157133005,1.303351123659613,0.9768542143204815,0.2859558985102724,0.7065628054032214
0.0545,1.7348992189369783,1.0,2889.4506646482982,0.4591437726408939,1.3029117980498477,0.9771263135473109,0.2859187671953531,0.7074121256447968
0.055,1.7340151400103274,1.0,2893.9666895459286,0.4621775604150923,1.3024726555596022,0.9773917188959491,0.28588163588043375,0.7082598617306194
0.0555,1.7331310610836765,1.0,2898.4652231003,0.4651943291877346,1.3020336984601057,0.9776506517084481,0.2858445045655144,0.7091060108243301
0.056,1.7322469821570254,1.0,2902.945958674567,0.46819417325263,1.3015949290225879,0.9779033241551572,0.2858073732505951,0.70995057011435
0.0565,1.7313629032303746,1.0,2907.4085890686583,0.4711771869035879,1.3011563495182774,0.9781499396902066,0.28577024193567574,0.7107935368138557
0.057,1.7304788243037237,1.0,2911.8528065284127,0.47414346443441746,1.3007179622184037,0.9783906934807953,0.2857331106207564,0.7116349081607485
0.0575,1.7295947453770726,1.0,2916.2783027553673,0.47709310013892803,1.300279769394196,0.9786257728119735,0.285695979305837,0.7124746814176288
0.058,1.7287106664504217,1.0,2920.6847689167657,0.4800261883109288,1.2998417733168837,0.9788553574685193,0.2856588479909177,0.7133128538717683
0.0585,1.7278265875237708,1.0,2925.0718956547325,0.48294282324422916,1.299403976257696,0.9790796200953671,0.28562171667599834,0.7141494228350795
0.059000000000000004,1.7269425085971197,1.0,2929.4393730969127,0.4858430992326383,1.2989663804878622,0.9792987265379625,0.285584585361079,0.7149843856440907
0.059500000000000004,1.7260584296704689,1.0,2933.7869729403224,0.4887271052483903,1.298528987559031,0.9795128356898006,0.28554745404615967,0.7158177410299107
0.06,1.725174350743818,1.0,2938.115594936363,0.49159487993176754,1.2980917891377715,0.9797220957204121,0.28551032273124033,0.7166495065326608
0.0605,1.7242902718171669,1.0,2942.424269058003,0.49444659560610477,1.2976547932865647,0.9799266606722375,0.285473191416321,0.7174796684742744
0.061,1.723406192890516,1.0,2946.7131768582303,0.49728233694288465,1.2972179979723681,0.98012667119997,0.28543606010140166,0.7183082324020962
0.0615,1.7225221139638651,1.0,2950.9825008360467,0.5001021886135901,1.2967814011621386,0.9803222626583075,0.2853989287864823,0.7191352038400439
0.062,1.721638035037214,1.0,2955.23242442748,0.5029062352897039,1.296345000822833,0.9805135653418677,0.285361797471563,0.7199605882886324
0.0625,1.7207539561105631,1.0,2959.463131996712,0.5056945616427091,1.2959087949214088,0.9807007047125021,0.28532466615664365,0.7207843912249989
0.063,1.7198698771839123,1.0,2963.6748088272693,0.5084672523440883,1.2954727814248228,0.9808838016147564,0.2852875348417243,0.7216066181029301
0.0635,1.7189857982572612,1.0,2967.867641113341,0.5112243920653244,1.2950369583000323,0.9810629724801845,0.285250403526805,0.7224272743528859
0.064,1.7181017193306103,1.0,2972.0418159510796,0.5139660654779004,1.2946013235139942,0.9812383295211662,0.28521327221188564,0.7232463653820248
0.0645,1.7172176404039594,1.0,2976.197521330171,0.5166923572532989,1.2941658750336658,0.9814099809148439,0.2851761408969663,0.7240638965742274
0.065,1.7163335614773083,1.0,2980.334946125187,0.5194033520630029,1.2937306108260038,0.9815780309777475,0.28513900958204697,0.7248798732901234
0.0655,1.7154494825506574,1.0,2984.4542800875356,0.5220991345784952,1.2932955288579657,0.9817425803316456,0.28510187826712763,0.7256943008671116
0.066,1.7145654036240066,1.0,2988.5557138368304,0.5247797894712587,1.2928606270965086,0.9819037260611213,0.2850647469522083,0.7265071846193869
0.0665,1.7136813246973555,1.0,2992.6394388531976,0.5274454014127762,1.2924259035085892,0.9820615618633439,0.28502761563728896,0.7273185298379632
0.067,1.7127972457707046,1.0,2996.705647468617,0.5300960550745306,1.2919913560611649,0.9822161781904739,0.2849904843223696,0.7281283417906952
0.0675,1.7119131668440537,1.0,3000.754532859452,0.5327318351280046,1.2915569827211928,0.9823676623851137,0.2849533530074503,0.7289366257223026
0.068,1.7110290879174026,1.0,3004.7862890382794,0.5353528262446812,1.2911227814556296,0.9825160988091901,0.2849162216925309,0.7297433868543932
0.0685,1.7101450089907517,1.0,3008.801110846227,0.537959113096043,1.290688750231433,0.9826615689666296,0.28487909037761155,0.7305486303854832
0.069,1.7092609300641008,1.0,3012.799193945123,0.5405507803535733,1.2902548870155595,0.9828041516201684,0.2848419590626922,0.7313523614910231
0.0695,1.7083768511374497,1.0,3016.780734809948,0.5431279126887545,1.2898211897749665,0.9829439229026133,0.2848048277477729,0.7321545853234147
0.07,1.7074927722107989,1.0,3020.745930721306,0.5456905947730696,1.2893876564766111,0.9830809564228545,0.28476769643285355,0.7329553070120374
0.07050000000000001,1.706608693284148,1.0,3024.694751778414,0.5482388761578302,1.2889542870559827,0.9832153213488232,0.2847305651179342,0.7337545280356146
0.07100000000000001,1.705724614357497,1.0,3028.627597086222,0.5507728492142786,1.2885210777483567,0.983347086995049,0.2846934338030149,0.734552256680251
0.07150000000000001,1.704840535430846,1.0,3032.544966076875,0.5532926321485793,1.2880880239351042,0.9834763218919951,0.28465630248809554,0.7353485027588227
