Time [s],Phi [rad],STIM [ ],Fsee [N],Gamma [ ],Lcerel [ ],q [ ],Lmtc [m],fisomrel [ ]
0.0,1.8,1.0,17.967112933651574,1.4282262950593004e-05,1.379339751287437,0.00500005421239653,0.288653,0.5411395187920454
0.0005,1.79999375,1.0,18.277892088936056,0.005623411459546341,1.3793022602773986,0.012952407351064368,0.2886527375,0.541230214759109
0.001,1.799975,1.0,21.622705612107975,0.011201077876249972,1.378937860497277,0.03563089658617275,0.28865195,0.5421112815106703
0.0015,1.79994375,1.0,31.08024367526752,0.016747457995245654,1.3780452659962559,0.07063225787059697,0.2886506375,0.5442658700823346
0.002,1.7999,1.0,53.606654064213025,0.02226272730705852,1.3763665575975423,0.11475402113880048,0.2886488,0.548304254853877
0.0025,1.79984375,1.0,97.16007243082957,0.027747060318149688,1.3739331852823249,0.16461404032229593,0.28864643749999996,0.5541261892366534
0.003,1.7997750000000001,1.0,161.01203472757618,0.033200630558593035,1.37121232759793,0.21732084071536792,0.28864354999999997,0.5605912239774462
0.0035,1.79969375,1.0,237.74438493313048,0.03862361058169781,1.368582853747984,0.27065305788085786,0.2886401375,0.5667942599585212
0.004,1.7996,1.0,321.5318621223994,0.044016171974783,1.3661543684771877,0.32295469700064855,0.2886362,0.5724839873886219
0.0045000000000000005,1.7994937500000001,1.0,409.335269533985,0.049378485364364004,1.363921229309644,0.3730714300080716,0.2886317375,0.5776828407454
0.005,1.799375,1.0,499.4824753448002,0.05471072040725163,1.3618568767656276,0.42028200519852754,0.28862675,0.5824604615351575
0.0055,1.79924375,1.0,590.8600793715062,0.060013045837846696,1.3599374740470056,0.4642056816795244,0.2886212375,0.5868782358949656
0.006,1.7991000000000001,1.0,682.5879202520696,0.0652856294117339,1.3581451457848894,0.5047093553155233,0.2886152,0.5909823168071439
0.006500000000000001,1.79894375,1.0,773.9531822555879,0.07052863796197084,1.3564660258491972,0.5418276095476731,0.2886086375,0.5948085855079066
0.007,1.798775,1.0,864.3574629579226,0.07574223737617691,1.3548892376149295,0.5757012442193786,0.28860155,0.5983852966361419
0.0075,1.79859375,1.0,953.3120942176669,0.08092659262582277,1.3534057197830474,0.6065321814222573,0.2885939375,0.6017359605377112
0.008,1.7984,1.0,1040.4250154103484,0.08608186773197089,1.3520076663863168,0.6345522988077923,0.2885858,0.6048807487412613
0.0085,1.79819375,1.0,1125.3858261535413,0.09120822582939123,1.350688227941124,0.6600027706884921,0.2885771375,0.6078372665290632
0.009000000000000001,1.797975,1.0,1207.9507716405658,0.09630582908194628,1.3494413437911295,0.6831210018461075,0.28856795,0.6106210052597247
0.0095,1.79774375,1.0,1287.9400840985293,0.1013748389195716,1.34826149025033,0.7041327743632506,0.2885582375,0.6132459643131993
0.01,1.7975,1.0,1365.2163297261466,0.1064154153881846,1.3471437518978402,0.7232481355304631,0.288548,0.6157245392802639
0.0105,1.79724375,1.0,1439.6952811619271,0.11142771768448867,1.3460834985514227,0.7406594118610577,0.2885372375,0.6180682781581868
0.011,1.796975,1.0,1511.369179105221,0.11641190629719725,1.3450759799506995,0.7565406994966146,0.28852595000000003,0.620288801215129
0.0115,1.79669375,1.0,1580.1814789314258,0.12136813746595879,1.3441177607004038,0.7710491104320969,0.2885141375,0.6223946644468739
0.012,1.7964,1.0,1646.121903647998,0.1262965674304217,1.3432054054052691,0.7843251763290109,0.28850180000000003,0.624394291137133
0.0125,1.79609375,1.0,1709.2223897191773,0.13119735243023437,1.3423354786700294,0.7964941916893883,0.2884889375,0.6262959822824037
0.013000000000000001,1.7957750000000001,1.0,1769.535460686785,0.13607064803068775,1.3415047464265488,0.8076677219311971,0.28847555,0.6281074877810542
0.0135,1.79544375,1.0,1827.1197317844487,0.14091660887413432,1.3407102817445384,0.8179450423575992,0.2884616375,0.62983579054068
0.014,1.7951000000000001,1.0,1882.0251113773916,0.14573538758217006,1.3399495703044382,0.8274144973379244,0.2884472,0.6314868930160327
0.0145,1.79474375,1.0,1934.3187861668011,0.1505271364435065,1.339220173375825,0.8361546007623318,0.2884322375,0.6330665624198826
0.015,1.794375,1.0,1984.0737368136342,0.15529200694594286,1.3385198228157174,0.8442351996599636,0.28841675,0.6345801325281102
0.0155,1.79399375,1.0,2031.3895501156273,0.16003015125528353,1.3378461714279475,0.8517184047766168,0.2884007375,0.6360330499090495
0.016,1.7936,1.0,2076.336725017244,0.16474171847719252,1.3371973601037028,0.8586596805518331,0.2883842,0.6374296566935388
0.0165,1.7931937500000001,1.0,2118.9881697462843,0.16942685702434426,1.3365716514324357,0.8651085142101274,0.2883671375,0.6387739905996268
0.017,1.792775,1.0,2159.429331934977,0.17408571530941316,1.3359673080035994,0.8711090871230383,0.28834955,0.6400700508699444
0.0175,1.7923437500000001,1.0,2197.7431197822657,0.17871844061184097,1.3353827342726807,0.8767009407911198,0.2883314375,0.6413214972952183
0.018000000000000002,1.7919,1.0,2234.0310807918536,0.18332518119813748,1.3348162478718164,0.8819194601954932,0.2883128,0.6425321433706581
0.0185,1.79144375,1.0,2268.366708835819,0.18790608190078892,1.3342665397919726,0.8867964768084,0.2882936375,0.6437049756871862
0.019,1.790975,1.0,2300.8228701843627,0.19246128684262773,1.3337323811721051,0.8913606032115657,0.28827395,0.6448427862155508
0.0195,1.79049375,1.0,2331.4790521756254,0.19699094014648622,1.3332125431511697,0.8956375823900365,0.2882537375,0.6459483453020725
0.02,1.79,1.0,2360.4149181724906,0.2014951850980627,1.3327058543842067,0.8996506264551831,0.288233,0.6470242807987087
0.0205,1.78949375,1.0,2387.714149829885,0.20597416540805744,1.3322111569284036,0.9034206911943551,0.2882117375,0.6480731735085828
0.021,1.788975,1.0,2413.4533710756914,0.21042802348806772,1.331727408379344,0.9069667475163745,0.28818995000000003,0.649097342251033
0.021500000000000002,1.78844375,1.0,2437.6933384925665,0.21485689882561185,1.3312537595091207,0.9103060133525627,0.2881676375,0.6500986824332704
0.022,1.7879,1.0,2460.4982787738954,0.21926093090820806,1.330789361089826,0.9134541037556614,0.2881448,0.651079077135793
0.0225,1.78734375,1.0,2481.9356002643985,0.22364025922337474,1.3303333638935526,0.9164252022801629,0.28812143749999997,0.6520403976363831
0.023,1.786775,1.0,2502.0705693741647,0.2279950223221024,1.3298849666463832,0.9192322207956113,0.28809755,0.6529844029997278
0.0235,1.78619375,1.0,2520.9681607813527,0.2323253586273135,1.329443395202438,0.9218869281312372,0.28807313749999996,0.6539127849409765
0.024,1.7856,1.0,2538.7000931373987,0.23663140750119532,1.3290078336070934,0.9244000552678565,0.2880482,0.6548273132180076
0.0245,1.78499375,1.0,2555.3137543811295,0.2409133032913719,1.3285777147547035,0.9267814493498636,0.2880227375,0.6557292262964818
0.025,1.784375,1.0,2570.8581650318783,0.24517118034546714,1.3281524715396222,0.9290401201154194,0.28799675,0.6566197558113438
0.025500000000000002,1.78374375,1.0,2585.3838423401144,0.24940517301110507,1.3277315368562035,0.93118432254248,0.2879702375,0.6575001267534151
0.026000000000000002,1.7831000000000001,1.0,2598.942671568569,0.2536154156359096,1.3273143435988013,0.9332216303313181,0.2879432,0.6583715576354778
0.0265,1.78244375,1.0,2611.5843131895995,0.25780204169289717,1.3269003569182227,0.9351590060777861,0.2879156375,0.6592351933888349
0.027,1.781775,1.0,2623.3529872731415,0.2619651834158863,1.3264891026121894,0.9370028632829196,0.28788755,0.6600920467968343
0.0275,1.7810937500000001,1.0,2634.3077244490755,0.26610497623458823,1.3260799781824892,0.9387590906903271,0.2878589375,0.6609433923102913
0.028,1.7804,1.0,2644.483649812673,0.2702215490027639,1.3256726108067272,0.9404331500327711,0.2878298,0.6617900209513075
0.0285,1.77969375,1.0,2653.916576460781,0.27431503057417417,1.325266627662508,0.942030083569139,0.2878001375,0.6626327197992965
0.029,1.778975,1.0,2662.6429458458315,0.27838554980258007,1.3248616559274367,0.9435545517612253,0.28776995,0.6634722720283284
0.029500000000000002,1.7782437500000001,1.0,2670.699771211354,0.28243323554174254,1.324457322779118,0.9450108671141646,0.2877392375,0.6643094569356096
0.03,1.7775,1.0,2678.124584109445,0.2864582166454225,1.324053255395157,0.9464030246129119,0.287708,0.6651450499611007
0.0305,1.77674375,1.0,2684.9495620937205,0.29046061972376064,1.323649134309284,0.9477347353487178,0.2876762375,0.6659797125664894
0.031,1.775975,1.0,2691.2116188968334,0.29444057396962603,1.3232446003014469,0.9490094402656657,0.28764395,0.6668141848723146
0.0315,1.7751937500000001,1.0,2696.942704572696,0.2983982059650686,1.322839342955886,0.9502303423730419,0.2876111375,0.6676491028055225
0.032,1.7744,1.0,2702.167587964234,0.3023336391261192,1.3224331203151096,0.951400428648971,0.2875778,0.6684849583031316
0.0325,1.77359375,1.0,2706.9112912134515,0.3062469968688088,1.3220256904216257,0.9525224803740424,0.2875439375,0.6693222407795769
0.033,1.772775,1.0,2711.19906530487,0.3101384026091683,1.321616811317942,0.953599089793052,0.28750955,0.6701614371099467
0.0335,1.7719437500000002,1.0,2715.05636690715,0.31400797976322864,1.321206241046567,0.9546326752367204,0.2874746375,0.6710030316094856
0.034,1.7711000000000001,1.0,2718.5088365124807,0.3178558517470208,1.3207937376500085,0.9556254948621141,0.2874392,0.6718475060093672
0.0345,1.7702437500000001,1.0,2721.5738412020355,0.32168213428071024,1.3203791359684665,0.956579665612224,0.2874032375,0.6726951825130705
0.035,1.7693750000000001,1.0,2724.286239900378,0.3254869597155358,1.3199621128530012,0.9574971548459639,0.28736675,0.6735467038859799
0.035500000000000004,1.76849375,1.0,2726.664296621929,0.3292704472276464,1.3195424973904368,0.9583798173348231,0.2873297375,0.6744023991118708
0.036000000000000004,1.7676,1.0,2728.7240724361423,0.33303271398568646,1.3191201395776135,0.9592293926595554,0.2872922,0.675262552665703
0.0365,1.76669375,1.0,2730.4817113558793,0.33677387715830015,1.3186948894113713,0.9600475121015593,0.2872541375,0.6761274472674549
0.037,1.765775,1.0,2731.953430932232,0.34049405391413196,1.31826659688855,0.9608357066044627,0.28721555,0.6769973638551696
0.0375,1.76484375,1.0,2733.1555133491115,0.34419336142182616,1.3178351120059901,0.9615954140649187,0.2871764375,0.677872581556568
0.038,1.7639,1.0,2734.1042970158937,0.3478719168500271,1.3174002847605317,0.9623279860159202,0.28713679999999997,0.6787533776592263
0.0385,1.76294375,1.0,2734.816168659769,0.35152983736737914,1.316961965149015,0.9630346937593725,0.28709663750000003,0.6796400275793196
0.039,1.761975,1.0,2735.307555916051,0.3551672401425266,1.3165200031682798,0.9637167339988089,0.28705595,0.6805328048289292
0.0395,1.7609937500000001,1.0,2735.588397457934,0.3587842340175788,1.3160743080403596,0.9643752378284267,0.2870147375,0.6814318615969639
0.04,1.76,1.0,2735.675499088002,0.3623809413118286,1.3156247268846986,0.9650112684302432,0.286973,0.6823374737849472
0.0405,1.7589937500000001,1.0,2735.5841646164195,0.365957481066599,1.315171120666013,0.9656258292720978,0.2869307375,0.6832498874302597
0.041,1.757975,1.0,2735.3234139280235,0.36951396324931884,1.3147134075653513,0.9662198708802823,0.28688795,0.6841692318195316
0.0415,1.75694375,1.0,2734.9022815021126,0.3730504978274172,1.3142515057637607,0.9667942910632781,0.2868446375,0.6850956349655901
0.042,1.7559,1.0,2734.3298136958806,0.37656719476832307,1.31378533344229,0.9673499383762292,0.28680079999999997,0.6860292235858128
0.0425,1.75484375,1.0,2733.6150661770616,0.38006416403946536,1.3133148087819864,0.9678876153234661,0.2867564375,0.6869701230800617
0.043000000000000003,1.753775,1.0,2732.767101503554,0.383541515608273,1.3128398499638982,0.9684080813213611,0.28671155,0.6879184575081813
0.043500000000000004,1.75269375,1.0,2731.7949868535393,0.38699935944217506,1.3123603751690733,0.9689120554416915,0.28666613750000003,0.6888743495670784
0.044,1.7516,1.0,2730.707791901822,0.3904378055086004,1.3118763025785596,0.9694002189538129,0.2866202,0.6898379205673685
0.0445,1.75049375,1.0,2729.514586846432,0.39385696377497803,1.311387550373405,0.9698732176822534,0.2865737375,0.6908092904095989
0.045,1.7493750000000001,1.0,2728.2244405823053,0.397256944208737,1.3108940367346573,0.9703316641948229,0.28652675,0.6917885775600432
0.0455,1.74824375,1.0,2726.839372593261,0.40063784104765654,1.3103957439239584,0.9707761424580263,0.2864792375,0.6927757721744019
0.046,1.7471,1.0,2725.370825151846,0.4039997762940283,1.3098925685164058,0.9712072044763399,0.2864312,0.693771033094084
0.0465,1.7459437500000001,1.0,2723.828117657013,0.40734286476475057,1.3093844263304082,0.9716253750636616,0.28638263750000004,0.6947744794139166
0.047,1.744775,1.0,2722.2153485684175,0.41066720837116394,1.3088712806391072,0.9720311547865558,0.28633355,0.6957861351924678
0.0475,1.74359375,1.0,2720.536614411589,0.41397290902460887,1.3083530947156439,0.9724250197175892,0.28628393750000003,0.6968060235308838
0.048,1.7424,1.0,2718.7960092696344,0.41726006863642595,1.3078298318331598,0.9728074228594993,0.2862338,0.6978341665611243
0.0485,1.74119375,1.0,2716.997624306421,0.42052878911795566,1.3073014552647964,0.9731787954737761,0.2861831375,0.6988705854341146
0.049,1.739975,1.0,2715.1455473181654,0.4237791723805385,1.3067679282836953,0.9735395483208975,0.28613195,0.6999153003078113
0.0495,1.73874375,1.0,2713.243862315967,0.42701132033551503,1.3062292141629976,0.9738900728188491,0.2860802375,0.7009683303351816
0.05,1.7375,1.0,2711.296649138058,0.4302253348942258,1.305685276175845,0.9742307421260049,0.286028,0.7020296936520961
0.0505,1.73624375,1.0,2709.307983091239,0.43342131796801125,1.3051360775953789,0.9745619121539486,0.2859752375,0.7030994073651369
0.051000000000000004,1.734975,1.0,2707.281934623297,0.436599371468212,1.3045815816947406,0.9748839225153505,0.28592195,0.7041774875393179
0.051500000000000004,1.73369375,1.0,2705.222569024646,0.4397595973061685,1.3040217517470716,0.9751970974116086,0.2858681375,0.7052639491857207
0.052000000000000005,1.7324,1.0,2703.1339461597777,0.44290209739322123,1.3034565510255134,0.9755017464645767,0.2858138,0.7063588062490433
0.0525,1.73109375,1.0,2701.0201159636304,0.44602697349592507,1.302885942842185,0.975798165483554,0.28575893750000003,0.7074620715197724
0.053,1.729775,1.0,2698.884889785629,0.44913429790823517,1.3023098926365024,0.9760866342926645,0.28570355000000003,0.7085737525960025
0.0535,1.72844375,1.0,2696.7324538166235,0.4522242079843789,1.3017283623681992,0.9763674269488858,0.2856476375,0.7096938626996323
0.054,1.7271,1.0,2694.5643063561924,0.45529679717369204,1.3011413385279993,0.9766408026243805,0.2855912,0.7108223668034597
0.0545,1.7257437500000001,1.0,2692.381943490131,0.45835215892551046,1.3005488076066265,0.9769070093617581,0.2855342375,0.7119592291015148
0.055,1.724375,1.0,2690.1868590473937,0.4613903866891699,1.2999507560948043,0.9771662846429544,0.28547675,0.7131044130043216
0.0555,1.72299375,1.0,2687.980544560533,0.4644115739140061,1.2993471704832567,0.9774188559244442,0.2854187375,0.7142578811341457
0.056,1.7216,1.0,2685.764489230573,0.46741581404935495,1.2987380372627073,0.9776649411410457,0.2853602,0.7154195953202338
0.0565,1.72019375,1.0,2683.5401798956054,0.4704032005445522,1.29812334292388,0.9779047491803998,0.28530113749999997,0.7165895165940389
0.057,1.718775,1.0,2681.3091010039184,0.4733738268489337,1.2975030739574986,0.9781384803300577,0.28524155,0.7177676051844359
0.0575,1.71734375,1.0,2679.0727345903574,0.47632778641183515,1.2968772168542868,0.9783663266989646,0.2851814375,0.7189538205129233
0.058,1.7159,1.0,2676.8325602576174,0.47926517268259244,1.2962457581049682,0.9785884726150039,0.2851208,0.7201481211888159
0.0585,1.71444375,1.0,2674.5900551610175,0.48218607911054134,1.295608684200267,0.9788050950001366,0.2850596375,0.7213504650044222
0.059000000000000004,1.7129750000000001,1.0,2672.346693997527,0.4850905991450176,1.2949659816309065,0.9790163637245687,0.28499795,0.722560808930216
0.059500000000000004,1.71149375,1.0,2670.1039489988634,0.4879788262353571,1.2943176368876108,0.9792224419412751,0.2849357375,0.7237791091099888
0.06,1.71,1.0,2667.8632899283825,0.4908508538308955,1.2936636364611034,0.9794234864021122,0.284873,0.7250053208559979
0.0605,1.7084937500000001,1.0,2665.626212493448,0.49370677202131924,1.293003966580788,0.9796196474719939,0.2848097375,0.7262393991324123
0.061,1.7069750000000001,1.0,2663.3952995293575,0.4965466143531767,1.2923386034495135,0.979811064691418,0.28474595,0.7274813167512377
0.0615,1.7054437500000001,1.0,2661.1710849143346,0.49937055429608995,1.291667542092189,0.9799978842810744,0.2846816375,0.7287310104907563
0.062,1.7039,1.0,2658.953917005935,0.5021786756779185,1.290990779234105,0.9801802399537346,0.2846168,0.7299884132676286
0.0625,1.70234375,1.0,2656.7441435890887,0.5049710623265217,1.2903083116005518,0.9803582603907053,0.2845514375,0.7312534573202708
0.063,1.7007750000000001,1.0,2654.542111880371,0.507747798069759,1.289620135916819,0.9805320694669953,0.28448555,0.7325260742076638
0.0635,1.69919375,1.0,2652.3481685325783,0.5105089667354898,1.2889262489081967,0.9807017864647822,0.28441913750000003,0.7338061948081593
0.064,1.6976,1.0,2650.1626596390283,0.5132546521515737,1.288226647299975,0.9808675262758654,0.2843522,0.7350937493182902
0.0645,1.69599375,1.0,2647.9859307389966,0.51598493814587,1.2875213278174444,0.9810293995937531,0.2842847375,0.7363886672515741
0.065,1.694375,1.0,2645.8183268225557,0.5186999085462382,1.2868102871858946,0.9811875130959833,0.28421675,0.7376908774373234
0.0655,1.69274375,1.0,2643.6601923359417,0.5213996471805376,1.2860935221306158,0.9813419696172417,0.2841482375,0.7390003080194479
0.066,1.6911,1.0,2641.5118711873165,0.5240842378766277,1.2853710293768978,0.9814928683138048,0.2840792,0.7403168864552605
0.0665,1.6894437500000001,1.0,2639.3737067527422,0.526753764462368,1.2846428056500312,0.9816403048198011,0.2840096375,0.7416405395142811
0.067,1.687775,1.0,2637.2460418819014,0.5294083107656179,1.2839088476753058,0.9817843713957511,0.28393955,0.7429711932770409
0.0675,1.68609375,1.0,2635.129218905064,0.5320479606142369,1.2831691521780115,0.9819251570698209,0.2838689375,0.7443087731338844
0.068,1.6844000000000001,1.0,2633.0235796389597,0.5346727978360842,1.2824237158834388,0.982062747772192,0.2837978,0.7456532037837711
0.0685,1.68269375,1.0,2630.9294653941547,0.5372829062590195,1.2816725355168777,0.982197226462933,0.2837261375,0.7470044092330781
0.069,1.680975,1.0,2628.847216981951,0.5398783697109022,1.280915607803618,0.9823286732537243,0.28365395,0.7483623127944004
0.0695,1.67924375,1.0,2626.7771747215284,0.5424592720195915,1.2801529294689498,0.9824571655237757,0.28358123749999997,0.7497268370853497
0.07,1.6775,1.0,2624.7196784476714,0.5450256970129472,1.2793844972381634,0.9825827780302483,0.283508,0.7510979040273554
0.07050000000000001,1.67574375,1.0,2622.675067518516,0.5475777285188285,1.278610307836549,0.9827055830134779,0.2834342375,0.7524754348444624
0.07100000000000001,1.673975,1.0,2620.643680823434,0.5501154503650948,1.2778303579893964,0.9828256502972791,0.28335995,0.7538593500621297
0.07150000000000001,1.67219375,1.0,2618.622924188904,0.5526389147886421,1.2770446716367228,0.9829430467174075,0.2832851375,0.7552495214212387
0.07200000000000001,1.6704,1.0,2616.6112956528063,0.5551482057228228,1.2762532626164311,0.9830578383704369,0.2832098,0.7566458383092384
0.0725,1.66859375,1.0,2614.612243540018,0.5576434451714467,1.2754560988139105,0.9831700893679286,0.2831339375,0.7580482704917766
0.073,1.6667750000000001,1.0,2612.625573886479,0.5601247071803171,1.2746531819054816,0.9832798604042293,0.28305755,0.7594567272614619
0.0735,1.66494375,1.0,2610.651093080824,0.5625920657952367,1.2738445135674643,0.9833872102140179,0.2829806375,0.7608711173118586
0.074,1.6631,1.0,2608.688607860301,0.5650455950620082,1.2730300954761788,0.9834921956468574,0.2829032,0.7622913487381016
0.0745,1.6612437500000001,1.0,2606.7379253070203,0.5674853690264348,1.272209929307945,0.983594871738434,0.2828252375,0.7637173290375115
0.075,1.659375,1.0,2604.7988528439614,0.5699114617343191,1.2713840167390833,0.9836952917786552,0.28274675,0.7651489651102071
