Time [s],Phi [rad],STIM [ ],Fsee [N],Gamma [ ],Lcerel [ ],q [ ],Lmtc [m],fisomrel [ ]
0.0,1.8,1.0,17.966734737340477,1.0072042919506222e-05,1.379339793658348,0.005000027035641931,0.288653,0.541139416285848
0.0005,1.79999375,1.0,18.27613007459304,0.00561922485551866,1.3793024560014648,0.012940715377457022,0.2886527375,0.5412297412986506
0.001,1.799975,1.0,21.617826011728287,0.011196914755760784,1.3789383588549173,0.035608956507669105,0.28865195,0.5421100771311924
0.0015,1.79994375,1.0,31.068705501034444,0.016743318226568958,1.3780462489262224,0.07060222674037701,0.2886506375,0.5442635002321834
0.002,1.7999,1.0,53.58180947389286,0.022258610759214384,1.3763681692084413,0.11471845478796427,0.2886488,0.5483003865009124
0.0025,1.79984375,1.0,97.11828375985051,0.027742966860881537,1.3739351987688506,0.16457534574951302,0.28864643749999996,0.5541213875054215
0.003,1.7997750000000001,1.0,160.95762796369462,0.03319656006238401,1.3712143639262255,0.21728091932966895,0.28864354999999997,0.5605864031085708
0.0035,1.79969375,1.0,237.6828966030757,0.03861956291775664,1.3685847476304598,0.2706133495684127,0.2886401375,0.5667898080809639
0.004,1.7996,1.0,321.46644176417755,0.044012147015037584,1.3661561011253436,0.3229162468842745,0.2886362,0.5724799413542321
0.0045000000000000005,1.7994937500000001,1.0,409.26752724558446,0.049374482981452805,1.3639228194140014,0.3730349295856296,0.2886317375,0.5776791502224622
0.005,1.799375,1.0,499.4133616424486,0.05470674047450872,1.3618583453754647,0.4202478554578454,0.28862675,0.5824570723282236
0.0055,1.79924375,1.0,590.790343715511,0.060009088229440295,1.3599388364724923,0.4641740639271558,0.2886212375,0.5868751084146316
0.006,1.7991000000000001,1.0,682.5180953933386,0.06528169400240569,1.3581464149825169,0.5046802986110358,0.2886152,0.5909794178417438
0.006500000000000001,1.79894375,1.0,773.8814465252628,0.070524724625954,1.3564672503966542,0.5418010671014596,0.2886086375,0.5948058016411003
0.007,1.798775,1.0,864.2857045215891,0.07573834599308694,1.3548903967196262,0.5756770649325351,0.28860155,0.5983826732021249
0.0075,1.79859375,1.0,953.2430001009635,0.0809227230663757,1.3534067825028304,0.6065101766187831,0.2885939375,0.6017335653093021
0.008,1.7984,1.0,1040.3509301909762,0.0860780197618323,1.352008757126437,0.6345323610159769,0.2885858,0.6048783000838683
0.0085,1.79819375,1.0,1125.3174423808996,0.09120439959257004,1.3506891959878304,0.6599846273837786,0.2885771375,0.6078351014585748
0.009000000000000001,1.797975,1.0,1207.8862715125708,0.09630202437601991,1.3494422251020148,0.6831044987481659,0.28856795,0.6106190411854362
0.0095,1.79774375,1.0,1287.8724319196554,0.10137105531921546,1.3482623854646898,0.7041178003613423,0.2885582375,0.6132439759899357
0.01,1.7975,1.0,1365.160333177843,0.10641165320801693,1.347144471599247,0.7232344389232647,0.288548,0.6157229459122434
0.0105,1.79724375,1.0,1439.6565991004832,0.11142397741176432,1.3460839826843431,0.7406468311616392,0.2885372375,0.6180672095961202
0.011,1.796975,1.0,1511.307709920839,0.11640818622138158,1.345076730819335,0.7565293521324171,0.28852595000000003,0.6202871487469395
0.0115,1.79669375,1.0,1580.0903313162423,0.1213644370606077,1.3441188495940597,0.7710389038706966,0.2885141375,0.6223922747259596
0.012,1.7964,1.0,1646.0442797265691,0.12629288831353544,1.3432063139725225,0.7843157730067246,0.28850180000000003,0.6243923024534257
0.0125,1.79609375,1.0,1709.169594461581,0.1311936948667463,1.3423360851079618,0.7964854569796657,0.2884889375,0.6262946582683494
0.013000000000000001,1.7957750000000001,1.0,1769.4919301133373,0.13606701121901102,1.3415052378487833,0.8076596595985337,0.28847555,0.6281064174803761
0.0135,1.79544375,1.0,1827.0688489602792,0.14091299186910017,1.3407108470433935,0.8179376559262891,0.2884616375,0.6298345622033589
0.014,1.7951000000000001,1.0,1881.9698686230374,0.14573179031245304,1.3399501750228366,0.827407708013677,0.2884472,0.6314855819577256
0.0145,1.79474375,1.0,1934.2744419010114,0.15052355992369598,1.339220652185934,0.8361482936708815,0.2884322375,0.6330655265642525
0.015,1.794375,1.0,1984.0427755872518,0.15528845135235209,1.3385201529026431,0.8442293204065312,0.28841675,0.6345794198940405
0.0155,1.79399375,1.0,2031.3508480216067,0.16002661506327906,1.3378465792092449,0.851712984650366,0.2884007375,0.636032171290215
0.016,1.7936,1.0,2076.283763272863,0.16473820086312246,1.3371979120585296,0.8586546975144675,0.2883842,0.6374284697173731
0.0165,1.7931937500000001,1.0,2118.936141515301,0.16942335894697794,1.3365721881735182,0.8651038819782944,0.2883671375,0.6387728384824294
0.017,1.792775,1.0,2159.393793534695,0.17408223801477915,1.3359676711799342,0.8711047293230436,0.28834955,0.640069272710241
0.0175,1.7923437500000001,1.0,2197.725880900457,0.17871498419797957,1.3353829088986608,0.8766968283835382,0.2883314375,0.6413211237840324
0.018000000000000002,1.7919,1.0,2234.011047412552,0.18332174362803258,1.334816449150582,0.8819156276192149,0.2883128,0.6425317135784302
0.0185,1.79144375,1.0,2268.3366246797946,0.18790266243639164,1.3342668397565816,0.8867929186920183,0.2882936375,0.6437043362217725
0.019,1.790975,1.0,2300.783580256296,0.19245788514879067,1.3337327701535393,0.8913572943408584,0.28827395,0.6448419583088167
0.0195,1.79049375,1.0,2331.447922279683,0.1969875582556771,1.3332128493127833,0.8956344625244573,0.2882537375,0.6459476946838534
0.02,1.79,1.0,2360.3995750281283,0.20149182419997944,1.3327060043555496,0.8996476637877678,0.288233,0.6470239625821588
0.0205,1.78949375,1.0,2387.7049127982887,0.20597082432683064,1.332211246697956,0.903417893771742,0.2882117375,0.6480729833143806
0.021,1.788975,1.0,2413.434814516147,0.2104246999813637,1.331727587756121,0.9069641337370834,0.28818995000000003,0.6490969627599014
0.021500000000000002,1.78844375,1.0,2437.6642859037506,0.21485359250871158,1.3312540389461622,0.9103035714631187,0.2881676375,0.6500980920977502
0.022,1.7879,1.0,2460.462003651315,0.2192576414355061,1.3307897083750733,0.9134518142353827,0.2881448,0.651078344493412
0.0225,1.78734375,1.0,2481.905720826283,0.22363698871868343,1.3303336487105195,0.9164230293174521,0.28812143749999997,0.6520397976071273
0.023,1.786775,1.0,2502.056779730084,0.22799177269071505,1.3298850975619398,0.9192301391629829,0.28809755,0.652984127571905
0.0235,1.78619375,1.0,2520.9686860070024,0.23232212961900905,1.3294433902348037,0.9218849341778377,0.28807313749999996,0.653912795378185
0.024,1.7856,1.0,2538.697076961547,0.2366281957709735,1.3290078620345804,0.9243981716727562,0.2880482,0.6548272535696253
0.0245,1.78499375,1.0,2555.2995424022315,0.2409101074140164,1.3285778482667396,0.9267796806142622,0.2880227375,0.6557289465191309
0.025,1.784375,1.0,2570.8354552821215,0.2451680008155458,1.328152684236751,0.9290384544852461,0.28799675,0.6566193106767066
0.025500000000000002,1.78374375,1.0,2585.354525949116,0.24940200877542587,1.3277318106581928,0.9311827497321974,0.2879702375,0.6574995544729033
0.026000000000000002,1.7831000000000001,1.0,2598.920777284144,0.2536122702513699,1.327314547547387,0.93322012464085,0.2879432,0.6583711319000296
0.0265,1.78244375,1.0,2611.5766553659155,0.25779891714557795,1.3269004280790575,0.9351575539021771,0.2879156375,0.6592350450310235
0.027,1.781775,1.0,2623.362208335667,0.2619620802199258,1.3264890171174097,0.9370014574693984,0.28788755,0.660092224814119
0.0275,1.7810937500000001,1.0,2634.318387196186,0.2661018902362891,1.3260798795266502,0.9387577479940267,0.2878589375,0.660943597474124
0.028,1.7804,1.0,2644.4869673178637,0.27021847795654363,1.3256725801709845,0.940431877621843,0.2878298,0.6617900845815486
0.0285,1.77969375,1.0,2653.9104741428364,0.27431197414256503,1.325266683914619,0.942028879905486,0.2878001375,0.6626326031096536
0.029,1.778975,1.0,2662.6304701181366,0.2783825087382812,1.324861770742087,0.9435534092087177,0.28776995,0.6634720341527922
0.029500000000000002,1.7782437500000001,1.0,2670.6809874744667,0.28243020813717057,1.3244574953858,0.9450097814482061,0.2877392375,0.664309099770324
0.03,1.7775,1.0,2678.1112166521784,0.2864552079348263,1.324053378060347,0.9464019799942075,0.287708,0.6651447964530544
0.0305,1.77674375,1.0,2684.947927445984,0.2904576328099445,1.3236491492903788,0.9477337228490925,0.2876762375,0.6659796816441776
0.031,1.775975,1.0,2691.2182499413734,0.294437607441221,1.3232445396005468,0.9490084615235449,0.28764395,0.6668143100077505
0.0315,1.7751937500000001,1.0,2696.9496422574994,0.2983952565073518,1.3228392795155017,0.9502294034604475,0.2876111375,0.6676492334244635
0.032,1.7744,1.0,2702.1698599001893,0.302330704687033,1.3224330995598947,0.9513995323104882,0.2875778,0.6684850009827774
0.0325,1.77359375,1.0,2706.9069267248224,0.3062440766589604,1.3220257302583764,0.9525216262884286,0.2875439375,0.6693221589654317
0.033,1.772775,1.0,2711.1891075091053,0.3101354971018301,1.3216169021355981,0.9535982748123246,0.28750955,0.6701612508313173
0.0335,1.7719437500000002,1.0,2715.043295719243,0.3140050890547394,1.32120636017448,0.9546318948099416,0.2874746375,0.671002787574816
0.034,1.7711000000000001,1.0,2718.4911058765606,0.31785297037105653,1.320793899140525,0.95562474736312,0.2874392,0.6718471756193197
0.0345,1.7702437500000001,1.0,2721.566519852084,0.3216792753941534,1.3203792026136512,0.9565789377385194,0.2874032375,0.6726950463413299
0.035,1.7693750000000001,1.0,2724.2864015073574,0.3254841219280695,1.3199621113826498,0.9574964480068395,0.28736675,0.6735467068863418
0.035500000000000004,1.76849375,1.0,2726.6677222809385,0.3292676277768444,1.319542466236313,0.9583791337822521,0.2873297375,0.6744024626008123
0.036000000000000004,1.7676,1.0,2728.7275499950542,0.3330299107445175,1.3191201079634334,0.9592287337409542,0.2872922,0.6752626170070365
0.0365,1.76669375,1.0,2730.4830382249775,0.33677108863512834,1.3186948773528024,0.9600468783194392,0.2872541375,0.6761274717764101
0.037,1.765775,1.0,2731.9514162297924,0.3404912792527165,1.3182666151932125,0.9608350976715995,0.28721555,0.67699732670107
0.0375,1.76484375,1.0,2733.1499794458896,0.34419060040132143,1.3178351622734554,0.9615948289553654,0.2871764375,0.677872479663923
0.038,1.7639,1.0,2734.096080541485,0.3478691698849827,1.3174003593823234,0.9623274230121771,0.28713679999999997,0.6787532266070535
0.0385,1.76294375,1.0,2734.8071210343264,0.35152710550773975,1.3169620473086083,0.9630341504959946,0.28709663750000003,0.679639861498519
0.039,1.761975,1.0,2735.294831417172,0.35516451852852143,1.3165201187064508,0.9637162110296317,0.28705595,0.6805325716009385
0.0395,1.7609937500000001,1.0,2735.5705949839917,0.358781522880694,1.3160744696782103,0.9643747354876392,0.2870147375,0.6814315357705298
0.04,1.76,1.0,2735.660126342997,0.36237824923427775,1.3156248664595327,0.9650107813390796,0.286973,0.682337192832915
0.0405,1.7589937500000001,1.0,2735.572079992084,0.36595480752335896,1.3151712303885832,0.9656253559515438,0.2869307375,0.6832496668856716
0.041,1.757975,1.0,2735.315127737993,0.3695113076820236,1.3147134828035267,0.9662194101994747,0.28688795,0.6841690808089104
0.0415,1.75694375,1.0,2734.8979559533163,0.3730478596443578,1.3142515450425287,0.9667938422170889,0.2868446375,0.6850955562448455
0.042,1.7559,1.0,2734.329262970401,0.3765645733444477,1.313785338443754,0.9673495008645836,0.28680079999999997,0.6860292135769733
0.0425,1.75484375,1.0,2733.61775661211,0.38006155871637926,1.3133147843453679,0.9678871889322549,0.2867564375,0.6869701719088509
0.043000000000000003,1.753775,1.0,2732.772151860171,0.38353892569423864,1.3128398040855351,0.9684076661048213,0.28671155,0.6879185490424873
0.043500000000000004,1.75269375,1.0,2731.8011686607774,0.386996784212112,1.3123603190024211,0.968911651706136,0.28666613750000003,0.688874461456332
0.044,1.7516,1.0,2730.7135298665958,0.3904352442040852,1.311876250434191,0.9693998272426037,0.2866202,0.6898380242828757
0.0445,1.75049375,1.0,2729.5179593173743,0.39385441560424456,1.3113875197190097,0.9698728387619215,0.2865737375,0.6908093512858525
0.045,1.7493750000000001,1.0,2728.22318005626,0.3972544083466761,1.3108940481950424,0.9703312990422438,0.28652675,0.6917885548370493
0.0455,1.74824375,1.0,2726.837822114992,0.4006353321763808,1.3103957580240957,0.970775789661069,0.2864792375,0.6927757442622673
0.046,1.7471,1.0,2725.3619806868905,0.4039972786484002,1.3098926489701934,0.9712068661220542,0.2864312,0.6937708740887643
0.0465,1.7459437500000001,1.0,2723.813707491086,0.4073403781422291,1.3093845574498482,0.971625049476013,0.28638263750000004,0.6947742207001326
0.047,1.744775,1.0,2722.196976945214,0.4106647326771558,1.3088714478537868,0.972030840456669,0.28633355,0.695785805805821
0.0475,1.74359375,1.0,2720.515761538302,0.41397044427246854,1.3083532845727368,0.9724247152940791,0.28628393750000003,0.6968056501696582
0.048,1.7424,1.0,2718.7740313488443,0.41725761494745545,1.3078300319974252,0.9728071271394767,0.2862338,0.697833773598419
0.0485,1.74119375,1.0,2716.975753592837,0.42052634672140476,1.3073016545185796,0.9731785073944772,0.2861831375,0.6988701949303047
0.049,1.739975,1.0,2715.1248921981155,0.4237767416136047,1.3067681165269267,0.9735392669518931,0.28613195,0.699914932023348
0.0495,1.73874375,1.0,2713.2254074082553,0.42700890164334343,1.3062293824131943,0.9738897973547881,0.2860802375,0.7009680017437296
0.05,1.7375,1.0,2711.281255413795,0.43022292882990926,1.3056854165681093,0.9742304718798572,0.286028,0.7020294199540226
0.0505,1.73624375,1.0,2709.2963880117068,0.4334189251925903,1.3051361833823993,0.9745616465507076,0.2859752375,0.7030992015013482
0.051000000000000004,1.734975,1.0,2707.2747522932423,0.4365969927506748,1.3045816472467913,0.974883661086164,0.28592195,0.7041773602054566
0.051500000000000004,1.73369375,1.0,2705.2202903594666,0.439757233523451,1.3040217725520125,0.9751968397883074,0.2858681375,0.7052639088467232
0.052000000000000005,1.7324,1.0,2703.136939065102,0.44289974953020705,1.3034565236887903,0.975501492374573,0.2858138,0.7063588591540646
0.0525,1.73109375,1.0,2701.025637949795,0.44602462264883574,1.302885892385518,0.975797914361613,0.28575893750000003,0.7074621689854222
0.053,1.729775,1.0,2698.8925481229458,0.44913197375048053,1.3023098226314507,0.976086389325527,0.28570355000000003,0.7085738875655001
0.0535,1.72844375,1.0,2696.740813088574,0.4522219062279951,1.3017282859254031,0.9763671882904491,0.2856476375,0.7096940097975708
0.054,1.7271,1.0,2694.5721799660664,0.4552945140908606,1.3011412664974582,0.9766405703528941,0.2855912,0.7108225051412846
0.0545,1.7257437500000001,1.0,2692.3883932882027,0.45834989134855836,1.300548748577698,0.9769067834812072,0.2855342375,0.7119593422461086
0.055,1.724375,1.0,2690.191194946823,0.46138813201056966,1.2999507163962054,0.9771660650844193,0.28547675,0.7131044889458009
0.0555,1.72299375,1.0,2687.9823241446957,0.4644093300863757,1.2993471541830626,0.9774186425474329,0.2854187375,0.7142579122528756
0.056,1.7216,1.0,2685.763517352179,0.4674135795854578,1.2987380461683522,0.9776647337347957,0.2853602,0.7154195783530468
0.0565,1.72019375,1.0,2683.53650826992,0.47040097451729723,1.2981233765821565,0.9779045474651431,0.28530113749999997,0.7165894525996611
0.057,1.718775,1.0,2681.3030277969015,0.47337160889137525,1.2975031296545583,0.9781382839582502,0.28524155,0.7177674995081094
0.0575,1.71734375,1.0,2679.0648040036176,0.47632557671717307,1.29687728961564,0.9783661352564759,0.2851814375,0.7189536827502279
0.058,1.7159,1.0,2676.82356211157,0.47926297200417195,1.2962458406954838,0.9785882856222641,0.2851208,0.7201479651486801
0.0585,1.71444375,1.0,2674.5810244776353,0.48218388876185325,1.2956087671241725,0.9788049119132423,0.2850596375,0.7213503086713225
0.059000000000000004,1.7129750000000001,1.0,2672.3389105840333,0.4850884209996981,1.2949660531317884,0.9790161839363442,0.28499795,0.7225606744255582
0.059500000000000004,1.71149375,1.0,2670.0989370340812,0.48797666272718787,1.2943176829484142,0.9792222647822899,0.2849357375,0.7237790226526681
0.06,1.71,1.0,2667.862581082731,0.49084870723404794,1.2936636429782473,0.9794233112007689,0.284873,0.7250053086503332
0.0605,1.7084937500000001,1.0,2665.6307047677014,0.4937046433410668,1.2930039252614045,0.9796194737826067,0.2848097375,0.7262394763437796
0.061,1.7069750000000001,1.0,2663.40342329394,0.49654456044681444,1.292338528696869,0.9798108977215212,0.28474595,0.7274814561203762
0.0615,1.7054437500000001,1.0,2661.1801959565214,0.49936854768024497,1.2916674582198668,0.9799977229518214,0.2846816375,0.7287311665037062
0.062,1.7039,1.0,2658.9604829525783,0.5021766941703125,1.2909907187656249,0.9801800840941735,0.2846168,0.7299885254855389
0.0625,1.7023442041171537,1.0,2656.7660052473216,0.5049690890459712,1.290308315269369,0.9803581106960969,0.28455145657292047,0.7312534505276168
0.063,1.7007850735279093,1.0,2655.012272567092,0.5077458210270521,1.2896203519430762,0.9805319325454823,0.2844859730881722,0.7325256751925021
0.0635,1.699225942938665,1.0,2653.8163665360335,0.5105069777682202,1.2889272514581065,0.9807016908372488,0.2844204896034239,0.7338043474644902
0.064,1.6976668123494205,1.0,2653.1334161828618,0.5132526465526357,1.2882294240285612,0.9808675210138286,0.28435500611867565,0.7350886451663389
0.0645,1.6961076817601761,1.0,2652.92099284974,0.5159829143720215,1.2875272590148614,0.9810295526087504,0.28428952263392737,0.7363777912098239
0.065,1.6945485511709317,1.0,2653.141348837041,0.5186978675017051,1.2868211039095991,0.9811879084294954,0.28422403914917915,0.7376710916839252
0.0655,1.6929894205816876,1.0,2653.7587079053,0.5213975919005073,1.286111289009236,0.9813427060974006,0.2841585556644309,0.7389678899919432
0.066,1.6914302899924432,1.0,2654.740413997206,0.5240821729967524,1.2853981165714805,0.9814940577253508,0.2840930721796826,0.7402675862801391
0.0665,1.6898711594031988,1.0,2656.063331908516,0.5267516935422584,1.2846818016355297,0.9816420671172571,0.28402758869493433,0.7415697443161637
0.067,1.6883120288139544,1.0,2657.690329560234,0.5294062407727044,1.2839626885934972,0.981786841079115,0.28396210521018606,0.742873697342961
0.0675,1.68675289822471,1.0,2659.5898583396197,0.5320459007640329,1.2832410705229,0.9819284802627818,0.28389662172543784,0.7441788774523009
0.068,1.6851937676354658,1.0,2661.744091054834,0.5346707553831185,1.282517114198463,0.9820670756326016,0.28383113824068956,0.745484949569428
0.0685,1.6836346370462214,1.0,2664.1352093374085,0.5372808864968357,1.2817909863949106,0.9822027151007602,0.2837656547559413,0.7467915815898702
0.069,1.682075506456977,1.0,2666.745395304512,0.5398763759720588,1.2810628538869675,0.9823354836550898,0.283700171271193,0.7480984444034221
0.0695,1.6805163758677326,1.0,2669.5568238378605,0.5424573056756625,1.2803328834493581,0.982465463480725,0.28363468778644474,0.7494052119163539
0.07,1.6789572452784882,1.0,2672.5516554794262,0.5450237574745213,1.2796012418568072,0.9825927340759368,0.2835692043016965,0.7507115610718469
0.07050000000000001,1.6773981146892438,1.0,2675.712029943568,0.5475758132355093,1.2788680958840395,0.9827173723624654,0.28350372081694825,0.7520171718686549
0.07100000000000001,1.6758389840999994,1.0,2679.022274099448,0.5501135535127512,1.2781335919939942,0.9828394517786909,0.28343823733219997,0.7533217634072652
0.07150000000000001,1.6742798535107553,1.0,2682.4697969126833,0.5526370585090953,1.2773978481491453,0.9829590420988962,0.2833727538474517,0.7546251079152544
0.07200000000000001,1.6727207229215109,1.0,2686.037746420298,0.5551464115473329,1.2766610211510907,0.9830762128267292,0.2833072703627034,0.7559269112743487
0.0725,1.6711615923322665,1.0,2689.7178390397535,0.5576416903633759,1.2759231890066018,0.983191027409182,0.2832417868779552,0.7572270209452394
0.073,1.669602461743022,1.0,2693.501774949497,0.5601229726931358,1.2751844297224502,0.9833035473011108,0.28317630339320693,0.7585252858365111
0.0735,1.6680433311537777,1.0,2697.3812364186115,0.5625903362725245,1.2744448213054065,0.983413832042758,0.28311081990845866,0.7598215563094499
0.074,1.6664842005645335,1.0,2701.34788627027,0.5650438588374538,1.2737044417622425,0.9835219393337924,0.28304533642371044,0.7611156841824592
