Time [s],Phi [rad],STIM [ ],Fsee [N],Gamma [ ],Lcerel [ ],q [ ],Lmtc [m],fisomrel [ ]
0.0,1.8,1.0,18.24539841234593,0.0005378621706804639,1.3793086937652141,0.005074704045211123,0.288653,0.5412146518945377
0.0005,1.79999375,1.0,18.71988258394218,0.0061440544980993165,1.379253458543518,0.014470722146216333,0.2886527375,0.5413482595114159
0.001,1.799975,1.0,22.45332000355284,0.011718800519054422,1.3788538332965434,0.03841214843964246,0.28865195,0.5423143271572541
0.0015,1.79994375,1.0,32.76833676978537,0.017262276623363822,1.3779033729528554,0.07440466250669547,0.2886506375,0.5446079104300228
0.002,1.7999,1.0,56.994067005261,0.02277465820948162,1.3761502147806959,0.1191993810790251,0.2886488,0.5488233926034323
0.0025,1.79984375,1.0,102.65121467816186,0.028256119692505396,1.3736722720695016,0.16943589205851498,0.28864643749999996,0.5547481922398482
0.003,1.7997750000000001,1.0,168.01612214992,0.03370683451274243,1.3709529920770382,0.22228616178206703,0.28864354999999997,0.5612049670570562
0.0035,1.79969375,1.0,245.58192620960105,0.039126975132400224,1.368343425011103,0.27558518454112874,0.2886401375,0.5673568917445468
0.004,1.7996,1.0,329.8280431419095,0.04451671304853409,1.3659360558320393,0.32772572901202046,0.2886362,0.5729936321495238
0.0045000000000000005,1.7994937500000001,1.0,417.89774790868,0.049876218793426456,1.363721292043302,0.3775971875458343,0.2886317375,0.5781467529156603
0.005,1.799375,1.0,508.1997167183775,0.05520566195358663,1.3616724500983994,0.42451400523347393,0.28862675,0.5828859656882039
0.0055,1.79924375,1.0,599.6422164825192,0.0605052111553971,1.3597665353360144,0.46812239036168285,0.2886212375,0.5872705358811234
0.006,1.7991000000000001,1.0,691.3645020389977,0.06577503406638135,1.3579861285679578,0.5083079174944757,0.2886152,0.5913454456407068
0.006500000000000001,1.79894375,1.0,782.6643270989424,0.0710152974280377,1.3563177438764036,0.5451174003477026,0.2886086375,0.5951456167054517
0.007,1.798775,1.0,872.9603174698017,0.07622616710729253,1.3547506237563285,0.5786989286133051,0.28860155,0.598698963470969
0.0075,1.79859375,1.0,961.7583816276283,0.08140780776123906,1.3532760983236227,0.6092584995505368,0.2885939375,0.6020280559733356
0.008,1.7984,1.0,1048.6956126848434,0.08656038375312879,1.3518861434255645,0.6370293982385732,0.2885858,0.6051535142381477
0.0085,1.79819375,1.0,1133.4519253960727,0.0916840578098132,1.3505742491331854,0.6622530635051727,0.2885771375,0.6080921423619365
0.009000000000000001,1.797975,1.0,1215.7852526019294,0.09677899189724229,1.349334470172675,0.6851661129111318,0.28856795,0.6108591452460983
0.0095,1.79774375,1.0,1295.5371266005534,0.10184534758875732,1.348161110737415,0.7059928692092402,0.2885582375,0.613468880644418
0.01,1.7975,1.0,1372.5786373921183,0.10688328521884888,1.3470492552787747,0.7249417758136261,0.288548,0.615933719421071
0.0105,1.79724375,1.0,1446.816060632259,0.11189296373195969,1.3459944875662038,0.7422035802334729,0.2885372375,0.6182647148399237
0.011,1.796975,1.0,1518.2031574631114,0.11687454150235957,1.3449925954009607,0.7579509561960734,0.28852595000000003,0.6204722867299395
0.0115,1.79669375,1.0,1586.7496380512873,0.12182817731712707,1.3440393767826881,0.7723390531911848,0.2885141375,0.6225666684406235
0.012,1.7964,1.0,1652.448305243917,0.12675402733480942,1.3431314284476343,0.7855069582009336,0.28850180000000003,0.6245561951896875
0.0125,1.79609375,1.0,1715.3080945473357,0.1316522467600278,1.3422656372737543,0.7975787684541364,0.2884889375,0.6264484487933384
0.013000000000000001,1.7957750000000001,1.0,1775.373906984303,0.1365229907974034,1.3414388901390035,0.8086648827117767,0.28847555,0.6282509065709359
0.0135,1.79544375,1.0,1832.7051115209908,0.1413664136322088,1.340648276980802,0.8188634898233077,0.2884616375,0.6299705082589633
0.014,1.7951000000000001,1.0,1887.3799915244429,0.14618266958595996,1.3398909948275217,0.8282618582206698,0.2884472,0.63161387638762
0.0145,1.79474375,1.0,1939.4509878709184,0.15097191002242535,1.3391647951185446,0.8369377188867517,0.2884322375,0.6331863576281751
0.015,1.794375,1.0,1988.988259656967,0.15573428612732518,1.3384674602225548,0.8449601777741339,0.28841675,0.6346931708242771
0.0155,1.79399375,1.0,2036.0757518427,0.16046994865678146,1.3377968243434128,0.8523907326493099,0.2884007375,0.6361393669116884
0.016,1.7936,1.0,2080.804755473227,0.16517904813067208,1.3371508206628868,0.8592841862867513,0.2883842,0.6375297325457332
0.0165,1.7931937500000001,1.0,2123.264151070055,0.16986173433177765,1.3365275614442196,0.8656894617697208,0.2883671375,0.6388686236875224
0.017,1.792775,1.0,2163.5220212144372,0.1745181541493656,1.3359255036970017,0.871650341576407,0.28834955,0.6401596172382517
0.0175,1.7923437500000001,1.0,2201.657082239819,0.1791484544727035,1.3353431044308246,0.8772059752623188,0.2883314375,0.6414062573682943
0.018000000000000002,1.7919,1.0,2237.7577921904,0.18375278219105876,1.334778820655279,0.8823914240027784,0.2883128,0.6426120575276164
0.0185,1.79144375,1.0,2271.9050939496096,0.1883312824827974,1.334231272949186,0.8872381787982739,0.2882936375,0.6437801536440264
0.019,1.790975,1.0,2304.1987036016512,0.19288410270829107,1.3336989718565542,0.8917745060418739,0.28827395,0.6449138908860927
0.0195,1.79049375,1.0,2334.707690680474,0.1974113857524819,1.3331808006776455,0.8960259300283069,0.2882537375,0.6460157973845759
0.02,1.79,1.0,2363.500830607833,0.2019132737918018,1.3326757010788384,0.9000154687292027,0.288233,0.6470882586470134
0.0205,1.78949375,1.0,2390.6519671606175,0.2063899090026826,1.33218261472651,0.9037639015939556,0.2882117375,0.6481336430913874
0.021,1.788975,1.0,2416.2395857022098,0.21084143356155624,1.3317004832870378,0.9072900177460509,0.28818995000000003,0.6491543028926835
0.021500000000000002,1.78844375,1.0,2440.331919896026,0.21526798750401832,1.331228387733229,0.910610862136331,0.2881676375,0.6501522804835643
0.022,1.7879,1.0,2463.013978773661,0.2196697139786558,1.3307652829058734,0.9137418717560841,0.2881448,0.6511298712506299
0.0225,1.78734375,1.0,2484.3449683234444,0.22404675122694914,1.3303104029404438,0.9166971241549399,0.28812143749999997,0.6520887682057452
0.023,1.786775,1.0,2504.3802259630193,0.2283992363954142,1.3298630444116832,0.9194894388385398,0.28809755,0.6530305227406119
0.0235,1.78619375,1.0,2523.177472805565,0.23272730663056695,1.329422503894335,0.9221304965646144,0.28807313749999996,0.6539566770662846
0.024,1.7856,1.0,2540.7966137990716,0.23703109907892334,1.3289880779631427,0.9246309562239474,0.2880482,0.6548687645348124
0.0245,1.78499375,1.0,2557.2974335058,0.24131075042428343,1.3285590830572211,0.9270005615941115,0.2880227375,0.6557682683054786
0.025,1.784375,1.0,2572.7314548273807,0.24556639523548104,1.3281349297380187,0.9292482446088262,0.28799675,0.656656466472658
0.025500000000000002,1.78374375,1.0,2587.169890970028,0.24979817216966943,1.3277148588874261,0.9313821636344048,0.2879702375,0.6575349848992168
0.026000000000000002,1.7831000000000001,1.0,2600.653902882987,0.25400621302495724,1.3272984058757356,0.9334098501643944,0.2879432,0.6584048262474562
0.0265,1.78244375,1.0,2613.2257598682627,0.258190649599453,1.3268851060732385,0.9353382237957152,0.2879156375,0.6592669879703049
0.027,1.781775,1.0,2624.9287465505095,0.26235161369126536,1.3264744948502265,0.9371736501428509,0.28788755,0.6601224624116373
0.0275,1.7810937500000001,1.0,2635.8070746333924,0.266489237098503,1.326066107576991,0.938921992566014,0.2878589375,0.6609722368928256
0.028,1.7804,1.0,2645.9057994425016,0.27060365161927447,1.3256594796238241,0.9405886584408126,0.2878298,0.6618172937855232
0.0285,1.77969375,1.0,2655.26604920122,0.2746949862342014,1.3252541896020544,0.9421786457032968,0.2878001375,0.6626585208747157
0.029,1.778975,1.0,2663.92970348628,0.27876337402927925,1.3248498152866128,0.9436965759374457,0.28776995,0.6634968032788697
0.029500000000000002,1.7782437500000001,1.0,2671.9301773358725,0.28280894282790076,1.324446017707555,0.9451467356081442,0.2877392375,0.6643328494697351
0.03,1.7775,1.0,2679.2995231686646,0.28683181908485805,1.32404247487524,0.9465330977039732,0.287708,0.6651673293263057
0.0305,1.77674375,1.0,2686.0702267846673,0.29083212925494334,1.3236388648000263,0.9478593469982495,0.2876762375,0.666000909409918
0.031,1.775975,1.0,2692.2751663950917,0.2948099997929487,1.323234865492273,0.9491289045818407,0.28764395,0.6668342529661742
0.0315,1.7751937500000001,1.0,2697.9475739507916,0.29876555715366626,1.322830154962339,0.9503449500196242,0.2876111375,0.6676680199202559
0.032,1.7744,1.0,2703.112550115996,0.30269892271774723,1.3224244883895124,0.9515104492524392,0.2875778,0.6685027081848252
0.0325,1.77359375,1.0,2707.800756045023,0.30661022438525043,1.3220175725257666,0.9526281604061387,0.2875439375,0.6693389125784843
0.033,1.772775,1.0,2712.04894600262,0.3104995935622727,1.3216090608020665,0.9537006491550798,0.28750955,0.6701773342156017
0.0335,1.7719437500000002,1.0,2715.8764902093326,0.31436715008840294,1.3211987671976908,0.9547303244815398,0.2874746375,0.6710183416794759
0.034,1.7711000000000001,1.0,2719.3029189815816,0.3182130138032302,1.3207865056919186,0.9557194359627659,0.2874392,0.6718623015496451
0.0345,1.7702437500000001,1.0,2722.347907182305,0.3220373045463434,1.3203720902640284,0.9566700861981039,0.2874032375,0.672709578379647
0.035,1.7693750000000001,1.0,2725.031259437563,0.32584014215733154,1.3199553348932993,0.9575842421286876,0.28736675,0.6735605346725659
0.035500000000000004,1.76849375,1.0,2727.372896121678,0.3296216464757836,1.3195360535590097,0.9584637453599523,0.2873297375,0.6744155308543804
0.036000000000000004,1.7676,1.0,2729.3928401082403,0.3333819373412886,1.319114060240439,0.959310321585169,0.2872922,0.675274925245094
0.0365,1.76669375,1.0,2731.1112042897457,0.33712113459343546,1.3186891689168654,0.960125589197586,0.2872541375,0.6761390740276711
0.037,1.765775,1.0,2732.548179863067,0.3408393580718132,1.3182611935675683,0.960911067169367,0.28721555,0.6770083312147539
0.0375,1.76484375,1.0,2733.71989057708,0.3445367230776702,1.3178299857266191,0.9616681849688026,0.2871764375,0.6778829724904882
0.038,1.7639,1.0,2734.6421161283847,0.34821334784842256,1.3173954005461808,0.9623982872749816,0.28713679999999997,0.678763264388168
0.0385,1.76294375,1.0,2735.335263885035,0.35186935618386206,1.3169572515814587,0.9631026362094768,0.28709663750000003,0.6796495557076783
0.039,1.761975,1.0,2735.8105081218446,0.3555048607115412,1.3165154365884915,0.9637824254920828,0.28705595,0.6805420229629995
0.0395,1.7609937500000001,1.0,2736.079054000758,0.3591199740590125,1.3160698533233166,0.9644387796686665,0.2870147375,0.6814408412633199
0.04,1.76,1.0,2736.1521331995145,0.3627148088538287,1.315620399541973,0.9650727588552207,0.286973,0.6823461842887923
0.0405,1.7589937500000001,1.0,2736.0409997731704,0.3662894777235421,1.3151669730004985,0.9656853631081012,0.2869307375,0.6832582242656349
0.041,1.757975,1.0,2735.7569262469447,0.3698440932957054,1.3147094714549312,0.9662775364535376,0.28688795,0.6841771319405543
0.0415,1.75694375,1.0,2735.3111999408006,0.37337876819787114,1.3142477926613094,0.9668501706062606,0.2868446375,0.6851030765545112
0.042,1.7559,1.0,2734.715119526208,0.37689361505759184,1.3137818343756715,0.9674041084042101,0.28680079999999997,0.686036225815812
0.0425,1.75484375,1.0,2733.979991814313,0.3803887465024201,1.3133114943540556,0.967940146983695,0.2867564375,0.6869767458725402
0.043000000000000003,1.753775,1.0,2733.1122710614723,0.38386426760266473,1.312836714478079,0.9684590431031385,0.28671155,0.687924713247962
0.043500000000000004,1.75269375,1.0,2732.1194062998356,0.3873202879712771,1.3123574276453338,0.9689615133605004,0.28666613750000003,0.6888802212844071
0.044,1.7516,1.0,2731.0197849518368,0.39075693380610504,1.31187346738784,0.9694482313847811,0.2866202,0.6898435597560136
0.0445,1.75049375,1.0,2729.8188971858945,0.39417430997092795,1.3113847843918953,0.9699198416836482,0.2865737375,0.6908147833201941
0.045,1.7493750000000001,1.0,2728.5222342636407,0.3975725213295252,1.3108913293437978,0.970376955624059,0.28652675,0.6917939455958108
0.0455,1.74824375,1.0,2727.1352875587672,0.40095167274567617,1.310393052929845,0.9708201534551381,0.2864792375,0.6927810991482475
0.046,1.7471,1.0,2725.6635476291967,0.4043118690831602,1.3098899058363351,0.9712499861887046,0.2864312,0.6937762954743218
0.0465,1.7459437500000001,1.0,2724.1125033433727,0.4076532152057567,1.309381838749566,0.9716669773487417,0.28638263750000004,0.694779584987046
0.047,1.744775,1.0,2722.487641060265,0.41097581597724503,1.3088688023558355,0.9720716246000992,0.28633355,0.6957910170002292
0.0475,1.74359375,1.0,2720.794443864019,0.4142797762614046,1.3083507473414415,0.972464401265834,0.28628393750000003,0.6968106397129289
0.048,1.7424,1.0,2719.0383908511085,0.41756520092201477,1.3078276243926819,0.9728457577417788,0.2862338,0.6978385001937436
0.0485,1.74119375,1.0,2717.2249564731806,0.42083219482285494,1.3072993841958547,0.9732161228161847,0.2861831375,0.6988746443649506
0.049,1.739975,1.0,2715.3596099320116,0.42408086282770446,1.3067659774372575,0.9735759049016365,0.28613195,0.6999191169864925
0.0495,1.73874375,1.0,2713.4478146299225,0.4273113098003427,1.3062273548031886,0.9739254931858148,0.2860802375,0.7009719616398025
0.05,1.7375,1.0,2711.471576279621,0.4305236387628713,1.3056836808512742,0.9742652728189893,0.286028,0.7020328037666338
0.0505,1.73624375,1.0,2709.475770858621,0.4337179506093602,1.305134546818968,0.9745955729516886,0.2859752375,0.7031023862805583
0.051000000000000004,1.734975,1.0,2707.4721258272752,0.43689434615884687,1.3045798458797455,0.9749167274645808,0.28592195,0.7041808593235666
0.051500000000000004,1.7336955701674042,1.0,2705.51728928953,0.4400529246801596,1.3040198829418697,0.9752290815399831,0.285868213947031,0.705267572627589
0.052000000000000005,1.7324148158463992,1.0,2704.040446563027,0.4431937854421267,1.3034549629136034,0.9755329648223425,0.28581442226554876,0.7063618797292843
0.0525,1.7311340615253945,1.0,2703.0733118412572,0.4463170277135763,1.3028853907032099,0.9758286922616596,0.28576063058406653,0.7074631380694003
0.053,1.7298533072043896,1.0,2702.5822328532436,0.4494227507633368,1.3023114712189519,0.9761165649042631,0.28570683890258436,0.7085707090862017
0.0535,1.7285725528833846,1.0,2702.5369465026984,0.45251105257736257,1.301733479724142,0.9763968686745693,0.2856530472211022,0.7096840153493648
0.054,1.7272917985623797,1.0,2702.892101162637,0.45558203245043993,1.3011518303679193,0.976669885730661,0.28559925553961996,0.7108022164096046
0.0545,1.7260110442413747,1.0,2703.6135874987376,0.45863578775586855,1.300566835391885,0.9769358797853738,0.2855454638581377,0.7119246730309553
0.055,1.7247302899203698,1.0,2704.6758856796564,0.46167241393591374,1.2999787291622342,0.977195098516705,0.2854916721766555,0.7130508993948053
0.0555,1.7234495355993649,1.0,2706.0535234512126,0.46469200643284075,1.2993877460451626,0.977447779191674,0.2854378804951733,0.7141804130038176
0.056,1.72216878127836,1.0,2707.72106057785,0.4676946606889149,1.2987941204068654,0.9776941491963805,0.2853840888136911,0.7153127347266826
0.0565,1.720888026957355,1.0,2709.6530745031737,0.4706804721464014,1.2981980866135376,0.9779344265349615,0.2853302971322089,0.7164473888393658
0.057,1.71960727263635,1.0,2711.8272902294702,0.4736495349893451,1.2975998503697246,0.9781688185426768,0.2852765054507267,0.7175839574614717
0.0575,1.718326518315345,1.0,2714.2205161310567,0.4766019447205727,1.296999625718688,0.9783975247477339,0.28522271376924446,0.718722009958416
0.058,1.7170457639943404,1.0,2716.8142865904256,0.47953779490663123,1.2963975835262262,0.9786207340719335,0.2851689220877623,0.7198612005096101
0.0585,1.7157650096733355,1.0,2719.594158046295,0.48245717731072724,1.2957938579196806,0.9788386257216071,0.2851151304062801,0.7210012551562239
0.059000000000000004,1.7144842553523305,1.0,2722.5456767087894,0.48536018369606737,1.2951885830263932,0.9790513718380397,0.2850613387247979,0.7221419019479279
0.059500000000000004,1.7132035010313256,1.0,2725.6543737527945,0.4882469058258582,1.2945818929737056,0.9792591378350026,0.28500754704331566,0.7232828709567227
0.06,1.7119227467103206,1.0,2728.9057609099164,0.4911174354633064,1.2939739218889599,0.9794620827176608,0.2849537553618335,0.7244238942896164
0.0605,1.7106419923893157,1.0,2732.2913512089617,0.49397185931231113,1.2933647491647509,0.9796603560402121,0.28489996368035125,0.7255648085060677
0.061,1.7093612380683108,1.0,2735.7933647581976,0.4968102732380028,1.29275453846001,0.9798541068708431,0.2848461719988691,0.7267052940403906
0.0615,1.7080804837473058,1.0,2739.397526700882,0.4996327707416406,1.2921434212853644,0.9800434767671524,0.28479238031738685,0.7278450937489862
0.062,1.7067997294263009,1.0,2743.0971519912127,0.5024394387997569,1.291531460042842,0.980228597872014,0.2847385886359046,0.7289840810117628
0.0625,1.7055189751052962,1.0,2746.885541993726,0.505230364388884,1.290918717134471,0.9804095974212286,0.28468479695442245,0.7301221301684748
0.063,1.7042382207842912,1.0,2750.755983358784,0.5080056344855544,1.2903052549622789,0.9805865979640778,0.2846310052729402,0.7312591165219587
0.0635,1.7029574664632863,1.0,2754.7017469843404,0.5107653360663003,1.2896911359282943,0.9807597175724034,0.28457721359145804,0.7323949163411176
0.064,1.7016767121422813,1.0,2758.7160870638395,0.513509556107654,1.289076422434545,0.9809290700388881,0.2845234219099758,0.7335294068636623
0.0645,1.7003959578212764,1.0,2762.792240220686,0.516238381586148,1.288461176883059,0.9810947650651687,0.2844696302284936,0.7346624662985988
0.065,1.6991152035002715,1.0,2766.923424728979,0.5189518994783145,1.2878454616758643,0.9812569084403752,0.2844158385470114,0.7357939738284711
0.0655,1.6978344491792665,1.0,2771.1028398202943,0.521650196760686,1.287229339214989,0.9814156022106482,0.2843620468655292,0.7369238096113546
0.066,1.6965536948582616,1.0,2775.326143659971,0.5243333551434647,1.286612849559855,0.9815709433849659,0.284308255184047,0.7380518956223849
0.0665,1.6952729405372566,1.0,2779.589791365396,0.5270014581158571,1.2859960254782803,0.9817230253625965,0.2842544635025648,0.7391781677634786
0.067,1.6939921862162517,1.0,2783.8839830946217,0.5296546036085498,1.2853789559418571,0.9818719419884757,0.28420067182108255,0.7403024601579578
0.0675,1.6927114318952468,1.0,2788.2063822962514,0.5322928725865478,1.2847616625318783,0.9820177795387159,0.2841468801396004,0.741424730714543
0.068,1.691430677574242,1.0,2792.5546453313327,0.5349163460148565,1.2841441668296367,0.9821606213528602,0.28409308845811815,0.7425449376807767
0.0685,1.690149923253237,1.0,2796.926421372259,0.5375251048584809,1.2835264904164252,0.9823005479549229,0.284039296776636,0.7436630396433188
0.069,1.6888691689322322,1.0,2801.3193523100776,0.5401192300824263,1.2829086548735364,0.9824376371686426,0.28398550509515375,0.7447789955282087
0.0695,1.6875884146112272,1.0,2805.7310726740457,0.542698802651698,1.2822906817822635,0.9825719642272589,0.2839317134136715,0.7458927646010998
0.07,1.6863076602902223,1.0,2810.159209560324,0.5452639035313009,1.2816725927238988,0.9827036018781116,0.28387792173218934,0.7470043064674639
0.07050000000000001,1.6850269059692173,1.0,2814.6013825710534,0.5478146136862404,1.2810544092797356,0.9828326204823404,0.2838241300507071,0.7481135810727644
0.07100000000000001,1.6837461516482124,1.0,2819.055203764663,0.5503510140815218,1.2804361530310666,0.9829590881099416,0.28377033836922494,0.7492205487026027
0.07150000000000001,1.6824653973272075,1.0,2823.5182776151073,0.5528731856821498,1.2798178455591844,0.9830830706304341,0.2837165466877427,0.7503251699828329
0.07200000000000001,1.6811846430062025,1.0,2827.988200982922,0.5553812094531301,1.2791995084453822,0.9832046317993601,0.2836627550062605,0.751427405879646
0.0725,1.6799038886851978,1.0,2832.4625630954806,0.5578751663594677,1.2785811632709527,0.9833238333408398,0.2836089633247783,0.7525272176996263
0.073,1.6786231343641929,1.0,2836.94169668382,0.5603551185863891,1.2779628070884101,0.9834407328526388,0.2835551716432961,0.753624610572485
