Time [s],Phi [rad],STIM [ ],Fsee [N],Gamma [ ],Lcerel [ ],q [ ],Lmtc [m],fisomrel [ ]
0.0,1.8,1.0,17.967645026883275,1.0051050779238239e-05,1.3793396916755667,0.005000026923500349,0.288653,0.5411396630085652
0.0005,1.79999375,1.0,18.276949118383623,0.005619203981127357,1.3793023650211336,0.012940655260225479,0.2886527375,0.5412299613819349
0.001,1.799975,1.0,21.618579806870116,0.011196893998458583,1.3789382818655203,0.03560884113496838,0.28865195,0.5421102631913506
0.0015,1.79994375,1.0,31.06942032644711,0.016743297585698477,1.3780461880253823,0.07060206675623022,0.2886506375,0.5442636470646599
0.002,1.7999,1.0,53.582472892634385,0.02225859023412319,1.3763681261691527,0.11471826475838325,0.2886488,0.5483004898084207
0.0025,1.79984375,1.0,97.1188487026909,0.027742946450919695,1.3739351715455514,0.16457514008025065,0.28864643749999996,0.5541214524272928
0.003,1.7997750000000001,1.0,160.9580716173891,0.033196539766906,1.371214347319829,0.2172807088562309,0.28864354999999997,0.560586442423193
0.0035,1.79969375,1.0,237.68322998092682,0.038619542736120484,1.368584737361534,0.2706131417496775,0.2886401375,0.566789832219799
0.004,1.7996,1.0,321.466684153161,0.04401212694660459,1.366156094705383,0.3229160468098291,0.2886362,0.5724799563459904
0.0045000000000000005,1.7994937500000001,1.0,409.26769578184116,0.04937446302558729,1.3639228154578125,0.3730347405080526,0.2886317375,0.5776791594045247
0.005,1.799375,1.0,499.4134657658954,0.05470672063057293,1.3618583431628497,0.4202476792457899,0.28862675,0.5824570774344302
0.0055,1.79924375,1.0,590.7904004684709,0.06000906849682425,1.359938835363677,0.46417390124161567,0.2886212375,0.5868751109599485
0.006,1.7991000000000001,1.0,682.5181054590771,0.06528167438047837,1.3581464147995483,0.5046801495512939,0.2886152,0.5909794182596615
0.006500000000000001,1.79894375,1.0,773.8813483507007,0.07052470511418553,1.3564672520725582,0.5418009319289843,0.2886086375,0.59480579783112
0.007,1.798775,1.0,864.2858548487552,0.07573832659069818,1.3548903942913608,0.57567693920598,0.28860155,0.5983826786980946
0.0075,1.79859375,1.0,953.2433496467708,0.08092270377260706,1.3534067771264544,0.6065100603255524,0.2885939375,0.6017335774269534
0.008,1.7984,1.0,1040.3447547569372,0.08607800028600343,1.352008848047725,0.6345323112608917,0.2885858,0.6048780959697502
0.0085,1.79819375,1.0,1125.314808850079,0.09120438024658276,1.3506892332689129,0.6599845544423091,0.2885771375,0.6078350180780039
0.009000000000000001,1.797975,1.0,1207.9006252935055,0.09630200559209838,1.3494420289741147,0.6831043049026125,0.28856795,0.6106194782731313
0.0095,1.79774375,1.0,1287.8926993053715,0.10137103683920151,1.3482621172719735,0.7041175800449174,0.2885582375,0.6132445716621242
0.01,1.7975,1.0,1365.1674389210748,0.10641163450454343,1.3471443802711323,0.7232343215456312,0.288548,0.6157231481064143
0.0105,1.79724375,1.0,1439.6596438737029,0.11142395854735414,1.3460839445766513,0.7406467474828083,0.2885372375,0.6180672937062034
0.011,1.796975,1.0,1511.3224859730003,0.11640816773753176,1.3450765503230433,0.7565292075673512,0.28852595000000003,0.620287545973049
0.0115,1.79669375,1.0,1580.1212652655997,0.12136441925259682,1.344118480038564,0.7710386826746043,0.2885141375,0.6223930857651419
0.012,1.7964,1.0,1646.0574167827933,0.12629286973690892,1.3432061602052845,0.7843156558083166,0.28850180000000003,0.624392639021507
0.0125,1.79609375,1.0,1709.1743134342712,0.13119367602410115,1.3423360309026355,0.796485387777829,0.2884889375,0.6262947766129776
0.013000000000000001,1.7957750000000001,1.0,1769.507042038825,0.13606699298666758,1.3415050672476307,0.8076595491160511,0.28847555,0.6281067890439771
0.0135,1.79544375,1.0,1827.0919537927832,0.14091297408576356,1.3407105903519616,0.8179375188526996,0.2884616375,0.6298351199681691
0.014,1.7951000000000001,1.0,1881.993044334967,0.14573177278254448,1.33994992132732,0.8274075793038633,0.2884472,0.63148613198198
0.0145,1.79474375,1.0,1934.2795365825061,0.15052354148523572,1.3392205971754982,0.8361482405963668,0.2884322375,0.6330656455736554
0.015,1.794375,1.0,1984.051927864546,0.15528843322179478,1.3385200553272003,0.8442292563323235,0.28841675,0.6345796305525166
0.0155,1.79399375,1.0,2031.3721448849492,0.16002659768904098,1.3378463548161885,0.8517128832968919,0.2884007375,0.6360326547749173
0.016,1.7936,1.0,2076.312080209463,0.16473818425714473,1.3371976169452096,0.8586545795186654,0.2883842,0.6374291043573717
0.0165,1.7931937500000001,1.0,2118.957966662331,0.16942334229627645,1.3365719630170103,0.865103790418663,0.2883671375,0.638773321782131
0.017,1.792775,1.0,2159.3912840565026,0.17408221987092795,1.3359676968250702,0.8711047135627976,0.28834955,0.6400692177616636
0.0175,1.7923437500000001,1.0,2197.719211125823,0.1787149661005273,1.3353829764621559,0.8766968257129828,0.2883314375,0.6413209792709982
0.018000000000000002,1.7919,1.0,2234.012107017123,0.18332172639194785,1.3348164385045325,0.8819156052230804,0.2883128,0.6425317363110352
0.0185,1.79144375,1.0,2268.344297425647,0.18790264582400026,1.334266763252594,0.8867928808987522,0.2882936375,0.6437044993132471
0.019,1.790975,1.0,2300.797635047737,0.1924578694754953,1.333732631006735,0.8913572433201955,0.28827395,0.6448422544685029
0.0195,1.79049375,1.0,2331.452331844342,0.19698754131248306,1.33321280594472,0.8956344358882115,0.2882537375,0.6459477868445358
0.02,1.79,1.0,2360.3976482454896,0.20149180640817838,1.332706023188893,0.8996476523758061,0.288233,0.6470239226206371
0.0205,1.78949375,1.0,2387.705607881257,0.20597080693987851,1.332211239942827,0.9034178775600912,0.2882117375,0.6480729976264332
0.021,1.788975,1.0,2413.441047322526,0.21042468345356957,1.3317275275066904,0.9069641071962068,0.28818995000000003,0.6490970902241644
0.021500000000000002,1.78844375,1.0,2437.6727869052997,0.2148535764952378,1.3312539571806523,0.9103035418154651,0.2881676375,0.6500982648346894
0.022,1.7879,1.0,2460.4732960990723,0.2192576266108693,1.3307896002648811,0.9134517811421071,0.2881448,0.6510785725656894
0.0225,1.78734375,1.0,2481.9073748782466,0.2236369721777962,1.3303336329437103,0.9164230148643803,0.28812143749999997,0.6520398308233739
0.023,1.786775,1.0,2502.0525129003645,0.22799175504266694,1.3298851380702656,0.9192301356240713,0.28809755,0.6529840423480924
0.0235,1.78619375,1.0,2520.965855279217,0.23232211233859965,1.3294434170081024,0.9218849285808779,0.28807313749999996,0.653912739126357
0.024,1.7856,1.0,2538.6992124472567,0.2366281795621871,1.329007841907605,0.9243981584409019,0.2880482,0.6548272958013406
0.0245,1.78499375,1.0,2555.3062855684525,0.24091009221002208,1.328577784919157,0.9267796607773806,0.2880227375,0.6557290792653707
0.025,1.784375,1.0,2570.842506771532,0.24516798577869736,1.328152618193142,0.9290384349757667,0.28799675,0.6566194488934501
0.025500000000000002,1.78374375,1.0,2585.364888122748,0.2494019957648057,1.3277317138799447,0.9311827267504938,0.2879702375,0.6574997567516392
0.026000000000000002,1.7831000000000001,1.0,2598.910474722688,0.2536122542104748,1.3273146435176095,0.9332201325393038,0.2879432,0.6583709315654981
0.0265,1.7824439934006449,1.0,2611.571281814322,0.257798899218676,1.326900587936076,0.9351575710355823,0.2879156477228271,0.659234711757168
0.027,1.7817839601831893,1.0,2623.76130165245,0.2619620624658233,1.326489363528526,0.9370015033751552,0.28788792632769394,0.660091503516384
0.0275,1.7811239269657337,1.0,2635.679182494317,0.2661018738313066,1.3260809188703222,0.9387578984038613,0.2878602049325608,0.6609414360608621
0.028,1.7804638937482782,1.0,2647.3284554556644,0.2702184631945158,1.3256752025368268,0.9404322587706796,0.2878324835374277,0.6617846379228216
0.0285,1.7798038605308224,1.0,2658.712750881223,0.27431196043484074,1.325272163103403,0.9420296634414749,0.28780476214229456,0.662621236958014
0.029,1.7791438273133668,1.0,2669.8357952635256,0.27838249543167143,1.3248717491454132,0.9435548058271317,0.2877770407471614,0.6634513603545911
0.029500000000000002,1.7784837940959113,1.0,2680.701408220254,0.2824301980643976,1.3244739092382198,0.9450120280258759,0.2877493193520283,0.6642751346417968
0.03,1.7778237608784557,1.0,2691.3140848982325,0.28645519588939056,1.3240785865987903,0.946405350081446,0.2877215979568951,0.665092696773375
0.0305,1.777163727661,1.0,2701.678827272827,0.2904576185033804,1.3236857206518953,0.9477384996357157,0.287693876561762,0.6659041908356609
0.031,1.7765036944435444,1.0,2711.801276105056,0.29443759137295394,1.3232952458335985,0.9490149346703076,0.28766615516662886,0.6667097704763811
0.0315,1.7758436612260888,1.0,2721.687252884909,0.2983952393223328,1.3229070957764688,0.9502378680095455,0.2876384337714957,0.6675095902334388
0.032,1.7751836280086333,1.0,2731.34266875867,0.30233068717573885,1.3225212041130743,0.9514102880320062,0.2876107123763626,0.6683038038821834
0.0325,1.7745235947911775,1.0,2740.773521156478,0.3062440597573939,1.3221375044759835,0.9525349771071009,0.28758299098122947,0.6690925644451073
0.033,1.773863561573722,1.0,2749.9808316579856,0.3101354577267056,1.3217559763093214,0.9536145267974288,0.28755526958609634,0.6698759301952659
0.0335,1.7732035283562664,1.0,2758.970817371288,0.3140050024960123,1.3213765525075951,0.954651355367209,0.28752754819096316,0.6706540545227454
0.034,1.7725434951388108,1.0,2767.760899807552,0.31785286884686353,1.320999065536408,0.9556477237293679,0.2874998267958301,0.6714272956784213
0.0345,1.7718834619213553,1.0,2776.3558290890105,0.3216791720869398,1.320623463365055,0.9566057415356629,0.2874721054006969,0.6721957740427207
0.035,1.7712234287038995,1.0,2784.760415180338,0.3254840275239215,1.3202496939628323,0.9575273822446465,0.28744438400556377,0.6729596094282917
0.035500000000000004,1.770563395486444,1.0,2792.9795257435344,0.3292675504654893,1.3198777052990351,0.9584144934982861,0.28741666261043064,0.6737189210861723
0.036000000000000004,1.7699033622689884,1.0,2801.018084054252,0.3330298562193236,1.3195074453429587,0.9592688065941514,0.2873889412152975,0.6744738277117865
0.0365,1.7692433290515328,1.0,2808.8810669771797,0.33677106009310487,1.3191388620638989,0.9600919451413391,0.2873612198201644,0.6752244474507645
0.037,1.768583295834077,1.0,2816.5735030019546,0.34049127739451374,1.318771903431151,0.9608854329788652,0.28733349842503125,0.6759708979045951
0.0375,1.7679232626166215,1.0,2824.1004703390254,0.34419062343123064,1.3184065174140107,0.9616507014268935,0.2873057770298981,0.6767132961361011
0.038,1.767263229399166,1.0,2831.467095075372,0.3478692135109361,1.3180426519817734,0.9623890959337831,0.28727805563476494,0.6774517586747468
0.0385,1.7666031961817104,1.0,2838.6785493905195,0.3515271629413106,1.3176802551037348,0.9631018821753876,0.28725033423963187,0.6781864015217667
0.039,1.7659431629642548,1.0,2845.740049831896,0.35516458703003473,1.31731927474919,0.9637902516572278,0.2872226128444987,0.6789173401551278
0.0395,1.765283129746799,1.0,2852.656855651565,0.35878160108478885,1.316959658887435,0.9644553268650042,0.28719489144936555,0.6796446895343138
0.04,1.7646230965293435,1.0,2859.434267201325,0.36237832041325363,1.3166013554877651,0.9650981660043285,0.2871671700542324,0.680368564104942
0.0405,1.763963063311888,1.0,2866.077624389118,0.3659548603231094,1.3162443125194756,0.9657197673664643,0.2871394486590993,0.6810890778032024
0.041,1.7633030300944323,1.0,2872.592305194781,0.3695113361220369,1.3158884779518625,0.9663210733532382,0.28711172726396617,0.6818063440601266
0.0415,1.7626429968769766,1.0,2878.983724246128,0.3730478631177164,1.315533799754221,0.9669029741910253,0.287084005868833,0.6825204758056863
0.042,1.761982963659521,1.0,2885.2573314551164,0.37656455661782856,1.3151802258958465,0.96746631136082,0.2870562844736999,0.6832315854727142
0.0425,1.7613229304420654,1.0,2891.417941747812,0.38006152837659424,1.3148277102539672,0.9680118806779388,0.2870285630785667,0.6839397731385335
0.043000000000000003,1.76066289722461,1.0,2897.4622897490917,0.3835388511526175,1.3144762782561652,0.9685404349629253,0.2870008416834336,0.6846449949430835
0.043500000000000004,1.7600028640071543,1.0,2903.404231371797,0.38699669088911537,1.3141258043982005,0.9690526897381976,0.28697312028830047,0.6853475096019882
0.044,1.7593428307896986,1.0,2909.24639707363,0.3904351514894951,1.313776262580743,0.9695493211505232,0.28694539889316734,0.6860473757680505
0.0445,1.758682797572243,1.0,2914.991435111483,0.3938543368571639,1.3134276267044636,0.9700309703190382,0.2869176774980342,0.6867446518444116
0.045,1.7580227643547874,1.0,2920.6420110097247,0.397254350895529,1.3130798706700322,0.970498245494153,0.2868899561029011,0.6874393959860841
0.0455,1.7573627311373319,1.0,2926.200807043382,0.4006352975079976,1.3127329683781195,0.9709517240630732,0.28686223470776795,0.6881316661014354
0.046,1.756702697919876,1.0,2931.6705217366257,0.40399728059797685,1.3123868937293957,0.9713919544142195,0.28683451331263476,0.6888215198536329
0.0465,1.7560426647024205,1.0,2937.053869376469,0.40734040406887395,1.3120416206245316,0.9718194576717407,0.2868067919175017,0.6895090146620406
0.047,1.755382631484965,1.0,2942.3535795408784,0.41066477182409616,1.311697122964197,0.9722347293103281,0.2867790705223685,0.6901942077035788
0.0475,1.7547225982675094,1.0,2947.572396643118,0.4139704877670507,1.3113533746490627,0.9726382406596528,0.2867513491272354,0.690877155914032
0.048,1.7540625650500536,1.0,2952.7130794903087,0.4172576558011447,1.3110103495797991,0.9730304403069374,0.28672362773210225,0.6915579159893213
0.0485,1.753402531832598,1.0,2957.7784008571894,0.4205263798297854,1.3106680216570763,0.9734117554054535,0.2866959063369691,0.6922365443867295
0.049,1.7527424986151425,1.0,2962.7711470754284,0.42377676375638,1.310326364781565,0.9737825928960595,0.286668184941836,0.6929130973260811
0.0495,1.752082465397687,1.0,2967.69411763773,0.42700891148433573,1.3099853528539354,0.9741433406483173,0.28664046354670286,0.6935876307908839
0.05,1.7514224321802314,1.0,2972.5501248168,0.43022292691705977,1.309644959774858,0.9744943685271623,0.28661274215156973,0.6942602005294214
0.0505,1.7507623989627756,1.0,2977.341993300034,0.43341891395795934,1.3093051594450034,0.9748360293906135,0.28658502075643655,0.694930862055807
0.051000000000000004,1.75010236574532,1.0,2982.0725598390363,0.4365969765104416,1.3089659257650414,0.9751686600235695,0.2865572993613035,0.6955996706509915
0.051500000000000004,1.7494423325278645,1.0,2986.744263880706,0.43975721448848504,1.30862723618988,0.9754925818068799,0.2865295779661703,0.696266674367972
0.052000000000000005,1.748782299310409,1.0,2991.3551181379958,0.44289968997498563,1.3082891066983764,0.9758081001738854,0.28650185657103716,0.6969318453160622
0.0525,1.7481222660929534,1.0,2995.9126301774736,0.4460245605381904,1.3079514708598727,0.976115511976272,0.28647413517590403,0.6975953175868653
0.053,1.7474622328754976,1.0,3000.41807754992,0.44913191982418577,1.3076143164725473,0.9764150976612346,0.2864464137807709,0.6982571183071667
0.0535,1.746802199658042,1.0,3004.872743602684,0.4522218614790581,1.3072776313345782,0.9767071255049877,0.2864186923856378,0.6989172744942955
0.054,1.7461421664405865,1.0,3009.2779173511194,0.45529447914889365,1.3069414032441429,0.9769918522444089,0.28639097099050465,0.699575813056494
0.0545,1.745482133223131,1.0,3013.634893353186,0.4583498664797789,1.30660561999942,0.977269523670741,0.2863632495953715,0.7002327607932757
0.055,1.7448221000056752,1.0,3017.944971587485,0.46138811711780003,1.3062702693985873,0.9775403751879278,0.28633552820023833,0.7008881443957806
0.0555,1.7441620667882196,1.0,3022.2094573348086,0.46440932470904345,1.3059353392398225,0.9778046323379737,0.2863078068051052,0.7015419904471132
0.056,1.743502033570764,1.0,3026.429661062332,0.46741358289959556,1.3056008173213043,0.9780625112955286,0.2862800854099721,0.7021943254226748
0.0565,1.7428420003533085,1.0,3030.6068983118284,0.4704009853355426,1.30526669144121,0.9783142193337414,0.28625236401483894,0.702845175690488
0.057,1.7421819671358527,1.0,3034.742489590709,0.473371625662971,1.3049329493977182,0.9785599552632737,0.2862246426197058,0.7034945675115072
0.0575,1.7415219339183972,1.0,3038.8377602665946,0.47632559752796705,1.3045995789890066,0.9787999098462212,0.2861969212245727,0.7041425270399233
0.058,1.7408619007009416,1.0,3042.8940404652712,0.4792629945766171,1.304266568013253,0.979034266186575,0.28616919982943956,0.7047890803234582
0.0585,1.740201867483486,1.0,3046.9126649714517,0.4821839104550075,1.303933904268636,0.9792632000987215,0.28614147843430643,0.7054342533036467
0.059000000000000004,1.7395418342660305,1.0,3050.894973133533,0.48508843880922464,1.3036015755533332,0.9794868804553892,0.2861137570391733,0.7060780718161151
0.059500000000000004,1.7388818010485747,1.0,3054.8423087711026,0.48797667328535477,1.3032695696655228,0.979705469516335,0.2860860356440401,0.7067205615908438
0.06,1.7382217678311191,1.0,3058.756020086126,0.4908487075294843,1.3029378744033826,0.9799191232389823,0.286058314248907,0.7073617482524247
0.0605,1.7375617346136636,1.0,3062.6374595770553,0.4937046351876995,1.3026064775650907,0.9801279915721367,0.28603059285377386,0.708001657320307
0.061,1.736901701396208,1.0,3066.487109838655,0.4965445323647782,1.3022753744449505,0.9803322177640594,0.28600287145864073,0.7086402997581792
0.0615,1.7362416681787523,1.0,3070.3048423153823,0.4993684706671173,1.301944565591794,0.9805319395905872,0.2859751500635076,0.7092776763698431
0.062,1.7355816349612967,1.0,3074.093996737164,0.5021765922932093,1.3016140218520464,0.9807272934724472,0.28594742866837447,0.7099138450964071
0.0625,1.7349216017438411,1.0,3077.855159468787,0.5049689809414871,1.3012837377165225,0.9809184075190395,0.28591970727324134,0.7105488182001329
0.063,1.7342615685263856,1.0,3081.588918903159,0.5077457203103838,1.3009537076760371,0.9811054051135947,0.28589198587810816,0.7111826078955561
0.0635,1.7336015353089298,1.0,3085.295865430252,0.5105068940983324,1.3006239262214048,0.9812884051226284,0.28586426448297503,0.7118152263495772
0.064,1.7329415020914742,1.0,3088.9765914057734,0.513252586003766,1.3002943878434405,0.9814675220946206,0.2858365430878419,0.7124466856815477
0.0645,1.7322814688740187,1.0,3092.6316911217314,0.5159828797251175,1.299965087032959,0.9816428664485497,0.28580882169270877,0.7130769979633587
0.065,1.7316214356565631,1.0,3096.261760776696,0.5186978589608199,1.2996360182807751,0.9818145446528695,0.28578110029757564,0.7137061752195248
0.0655,1.7309614024391076,1.0,3099.867398447328,0.5213976074093064,1.2993071760777033,0.9819826593954799,0.2857533789024425,0.7143342294272663
0.066,1.7303013692216518,1.0,3103.4492040602636,0.5240822087690098,1.2989785549145587,0.982147309745205,0.2857256575073094,0.7149611725165886
0.0665,1.7296413360041962,1.0,3107.007779364816,0.5267517467383633,1.298650149282156,0.982308591305263,0.28569793611217625,0.7155870163703633
0.067,1.7289813027867407,1.0,3110.543727906346,0.5294063050157999,1.29832195367131,0.9824665963591737,0.2856702147170431,0.7162117728244031
0.0675,1.7283212695692851,1.0,3114.05765500013,0.5320459672997525,1.2979939625728352,0.9826214140095332,0.28564249332190994,0.7168354536675374
0.068,1.7276612363518296,1.0,3117.5501677064703,0.5346708172886542,1.2976661704775467,0.9827731303100481,0.28561477192677687,0.717458070641684
0.0685,1.7270012031343738,1.0,3121.0218748051993,0.5372809386809381,1.2973385718762593,0.9829218283912016,0.2855870505316437,0.7180796354419214
0.069,1.7263411699169182,1.0,3124.4733867727705,0.539876415175037,1.2970111612597874,0.9830675885799024,0.28555932913651055,0.7187001597165579
0.0695,1.7256811366994627,1.0,3127.9053157580765,0.5424573304693842,1.2966839331189464,0.9832104885134421,0.2855316077413774,0.7193196550671956
0.07,1.725021103482007,1.0,3131.318275560318,0.5450237682624124,1.2963568819445503,0.9833506032480678,0.2855038863462443,0.7199381330488006
0.07050000000000001,1.7243610702645513,1.0,3134.7128816069458,0.5475758122525549,1.2960300022274145,0.9834880053624635,0.28547616495111117,0.7205556051697608
