Time [s],Phi [rad],STIM [ ],Fsee [N],Gamma [ ],Lcerel [ ],q [ ],Lmtc [m],fisomrel [ ]
0.0,1.8,1.0,17.985632285990867,0.00014063857965113862,1.3793376770323866,0.005005162625008235,0.288653,0.5411445369377319
0.0005,1.79999375,1.0,18.33804011887704,0.005749059017266127,1.3792955846992878,0.013307172006550474,0.2886527375,0.5412463629707442
0.001,1.799975,1.0,21.776769536217838,0.011326020650523549,1.3789221546352934,0.03629257662262921,0.28865195,0.5421492370106722
0.0015,1.79994375,1.0,31.435987542167602,0.016871699939391215,1.3780150494264967,0.07153589885535724,0.2886506375,0.5443387194103422
0.002,1.7999,1.0,54.364259892336804,0.022386272352032444,1.3763175915593595,0.11582287939475441,0.2886488,0.5484217802390404
0.0025,1.79984375,1.0,98.42580979741842,0.02786991237318473,1.3738724026507072,0.16577603479000733,0.28864643749999996,0.5542711305363122
0.003,1.7997750000000001,1.0,162.65388291027924,0.03332279351071601,1.371151037786617,0.21851909207845946,0.28864354999999997,0.5607363110647872
0.0035,1.79969375,1.0,239.5966574762333,0.038745088296178426,1.3685259168642343,0.27184449722255244,0.2886401375,0.5669280886459678
0.004,1.7996,1.0,323.50081222415787,0.044136968295295675,1.3661023033738626,0.3241080864122859,0.2886362,0.5726055595164294
0.0045000000000000005,1.7994937500000001,1.0,411.373002809868,0.049498604113238635,1.3638734592655044,0.37416612636459295,0.2886317375,0.5777937042160566
0.005,1.799375,1.0,501.5608581530394,0.05483016538638356,1.3618127601983596,0.42130605788471126,0.28862675,0.5825622658088148
0.0055,1.79924375,1.0,592.9559846089439,0.0601318208227299,1.3598965638025566,0.46515372132866795,0.2886212375,0.5869721408262509
0.006,1.7991000000000001,1.0,684.6849484609576,0.0654037381622054,1.3581070585733401,0.5055805567788229,0.2886152,0.5910693067600458
0.006500000000000001,1.79894375,1.0,776.0349053282805,0.07064608420450244,1.3564305149843578,0.5426241771845188,0.2886086375,0.5948893111861782
0.007,1.798775,1.0,866.4134838245793,0.07585902486012079,1.3548560473917806,0.5764271529579661,0.28860155,0.5984604133593189
0.0075,1.79859375,1.0,955.3294201983969,0.08104272491447621,1.3533747087427472,0.6071924255866793,0.2885939375,0.6018058521077123
0.008,1.7984,1.0,1042.4061737702293,0.08619734870297222,1.3519785126259174,0.6351521523663444,0.2885858,0.604946194673619
0.0085,1.79819375,1.0,1127.3210255789506,0.09132305913677753,1.3506608452705067,0.6605476760366578,0.2885771375,0.6078985063589726
0.009000000000000001,1.797975,1.0,1209.8253155141147,0.09642001820681555,1.3494157408428393,0.6836162520295712,0.28856795,0.6106780613879137
0.0095,1.79774375,1.0,1289.7548817631466,0.10148838730194024,1.348237484523885,0.7045832256368151,0.2885582375,0.6132992805244804
0.01,1.7975,1.0,1366.9903906193556,0.1065283272644232,1.3471209582337533,0.7236581584524839,0.288548,0.6157750011316354
0.0105,1.79724375,1.0,1441.4253940042574,0.11153999688018941,1.3460618516319875,0.7410331428856879,0.2885372375,0.618116054990562
0.011,1.796975,1.0,1513.011708674535,0.11652355465772726,1.3450559215018167,0.7568821051302613,0.28852595000000003,0.6203329433562885
0.0115,1.79669375,1.0,1581.747155849666,0.12147915887027955,1.3440990612644612,0.7713614404261739,0.2885141375,0.6224357016483308
0.012,1.7964,1.0,1647.6395100026039,0.12640696664650616,1.343187646530077,0.7846112514128547,0.28850180000000003,0.62443316093478
0.0125,1.79609375,1.0,1710.6929351410943,0.13130713297254987,1.3423185908670858,0.7967566691816205,0.2884889375,0.6263328518710864
0.013000000000000001,1.7957750000000001,1.0,1770.9476033520089,0.1361798128345534,1.3414888078439104,0.8079090232798998,0.28847555,0.6281422006292883
0.0135,1.79544375,1.0,1828.460401111029,0.14102516042994065,1.3406953899888656,0.8181673253448395,0.2884616375,0.6298681480878022
0.014,1.7951000000000001,1.0,1883.3137409015994,0.14584333038906938,1.3399354667549472,0.8276195497212722,0.2884472,0.6315174695219903
0.0145,1.79474375,1.0,1935.5662271520487,0.15063447452404535,1.3392067062983073,0.836344048805619,0.2884322375,0.6330956964357586
0.015,1.794375,1.0,1985.279555410046,0.15539874363880307,1.3385069692245934,0.8444105327549399,0.28841675,0.6346078819718755
0.0155,1.79399375,1.0,2032.5338714254253,0.16013628853727713,1.3378341161394542,0.8518810151160424,0.2884007375,0.6360590241462811
0.016,1.7936,1.0,2077.4145462105016,0.16484725914827447,1.337186128834038,0.8588107592079472,0.2883842,0.6374538090622305
0.0165,1.7931937500000001,1.0,2120.018890362016,0.16953180593001055,1.336561019522922,0.8652490501564448,0.2883671375,0.6387968116635564
0.017,1.792775,1.0,2160.4235628160336,0.17419007654765598,1.3359571489056379,0.871239991869874,0.28834955,0.6400918179183517
0.0175,1.7923437500000001,1.0,2198.7023897248373,0.17882221748403931,1.3353730181639167,0.8768230564319971,0.2883314375,0.6413422789783967
0.018000000000000002,1.7919,1.0,2234.938832839486,0.18342837522198918,1.3348071284794907,0.8820335895140612,0.2883128,0.6425516158141513
0.0185,1.79144375,1.0,2269.219222866612,0.18800869553375435,1.3342580403290856,0.8869033070523935,0.2882936375,0.6437230946280594
0.019,1.790975,1.0,2301.6327636135743,0.19256332433888826,1.3337243637371043,0.8914607131413035,0.28827395,0.6448598502814569
0.0195,1.79049375,1.0,2332.2635175242644,0.1970924065868322,1.3332048286320972,0.8957314838458149,0.2882537375,0.645964739082445
0.02,1.79,1.0,2361.176718567597,0.20159608414526822,1.332698408790061,0.8997388141761714,0.288233,0.6470400790451576
0.0205,1.78949375,1.0,2388.442609020461,0.20607449888187834,1.3322040779869926,0.9035036407596614,0.2882117375,0.6480881714566714
0.021,1.788975,1.0,2414.136024288092,0.21052779266434457,1.331720809998888,0.9070448924592831,0.28818995000000003,0.6491113017017911
0.021500000000000002,1.78844375,1.0,2438.3308771960797,0.214956106303894,1.3312476278782106,0.9103797202343848,0.2881676375,0.6501116359217427
0.022,1.7879,1.0,2461.101399248671,0.21935958111902726,1.3307835874018985,0.913523686890396,0.2881448,0.6510912573518195
0.0225,1.78734375,1.0,2482.517785728025,0.22373835777139575,1.330327814723734,0.916490943204898,0.28812143749999997,0.6520520880734771
0.023,1.786775,1.0,2502.6353976650707,0.22809257310052322,1.3298796046127428,0.9192943933899664,0.28809755,0.6529956838665194
0.0235,1.78619375,1.0,2521.5119956185154,0.23242236394593352,1.3294382518379504,0.9219457941833779,0.28807313749999996,0.6539235912817449
0.024,1.7856,1.0,2539.20753867176,0.2367278671471504,1.3290030511683826,0.9244558727334856,0.2880482,0.6548373479652252
0.0245,1.78499375,1.0,2555.7839944568914,0.24100921954369772,1.328573297373065,0.9268344309534761,0.2880227375,0.6557384829508653
0.025,1.784375,1.0,2571.2929630381896,0.2452665551018851,1.3281483994483654,0.9290904562995075,0.28799675,0.6566282778682272
0.025500000000000002,1.78374375,1.0,2585.798235036265,0.24950001247972195,1.3277276667796694,0.9312321693248874,0.2879702375,0.6575082156478125
0.026000000000000002,1.7831000000000001,1.0,2599.3495012638823,0.2537097257698425,1.327310554074653,0.933267134312597,0.2879432,0.6583794680846418
0.0265,1.78244375,1.0,2611.9873835149797,0.2578958262351421,1.3268966115077359,0.9352023144976485,0.2879156375,0.6592430018646698
0.027,1.781775,1.0,2623.753507527969,0.262058445138516,1.3264853892533373,0.9370441150272818,0.28788755,0.6600997787120435
0.0275,1.7810937500000001,1.0,2634.6904173111984,0.26619771374285944,1.3260764374858771,0.9387984351231362,0.2878589375,0.6609507554735934
0.028,1.7804,1.0,2644.841493954597,0.27031376331106766,1.3256693063797746,0.9404707147345994,0.2878298,0.6617968841904225
0.0285,1.77969375,1.0,2654.2508789276053,0.27440672510603586,1.3252635461094493,0.9420659763248521,0.2878001375,0.6626391121565884
0.029,1.778975,1.0,2662.9539557974385,0.27847672615473823,1.3248587937766094,0.9435888729417603,0.28776995,0.6634782018686427
0.029500000000000002,1.7782437500000001,1.0,2670.998808249462,0.2825239008662125,1.3244545749629821,0.9450436977866482,0.2877392375,0.6643151428111946
0.03,1.7775,1.0,2678.4178127400232,0.28654837658217264,1.3240505646877463,0.9464344456948409,0.287708,0.6651506107319922
0.0305,1.77674375,1.0,2685.2395234278206,0.2905502786336638,1.3236464769659086,0.9477648258171321,0.2876762375,0.6659851975368482
0.031,1.775975,1.0,2691.492866563579,0.29452973235173113,1.3232420258124766,0.9490382815574472,0.28764395,0.666819492183183
0.0315,1.7751937500000001,1.0,2697.2071060933754,0.2984868630674198,1.322836925242457,0.9502580129263497,0.2876111375,0.6676540806760084
0.032,1.7744,1.0,2702.411811075322,0.3024217961117749,1.322430889270857,0.9514269967535122,0.2875778,0.6684895460586875
0.0325,1.77359375,1.0,2707.1368249096595,0.30633465681584154,1.3220236319126835,0.9525480049872844,0.2875439375,0.6693264683984839
0.033,1.772775,1.0,2711.4073476770564,0.31022556706716015,1.3216149117674167,0.9536236255173002,0.28750955,0.6701653333189947
0.0335,1.7719437500000002,1.0,2715.2490527675204,0.31409465024166666,1.32120448498356,0.9546562728169635,0.2874746375,0.6710066289108609
0.034,1.7711000000000001,1.0,2718.696931518902,0.3179420374210317,1.32079202451434,0.9556481942097543,0.2874392,0.6718510108673184
0.0345,1.7702437500000001,1.0,2721.768649101936,0.32176784722941554,1.3203773626933895,0.9566015044175764,0.2874032375,0.6726988057194783
0.035,1.7693750000000001,1.0,2724.481993782847,0.3255721982909784,1.3199603318543414,0.957518181590804,0.28736675,0.6735503381366701
0.035500000000000004,1.76849375,1.0,2726.8548644333155,0.3293552092298805,1.3195407643308281,0.9584000777093918,0.2873297375,0.6744059309020094
0.036000000000000004,1.7676,1.0,2728.9052586629364,0.3331169986702821,1.3191184924564827,0.959248928077539,0.2872922,0.6752659048861664
0.0365,1.76669375,1.0,2730.651261575687,0.3368576852363434,1.318693348564938,0.9600663600002671,0.2872541375,0.6761305790193463
0.037,1.765775,1.0,2732.1110351491243,0.3405773875522247,1.3182651649898263,0.9608539007207967,0.28721555,0.6770002702614754
0.0375,1.76484375,1.0,2733.3028082372944,0.3442762242420863,1.317833774064781,0.9616129846892413,0.2871764375,0.6778752935705924
0.038,1.7639,1.0,2734.2448671965653,0.34795431393008835,1.3173990081234344,0.9623449602257297,0.28713679999999997,0.6787559618694518
0.0385,1.76294375,1.0,2734.9448112244104,0.3516117684824103,1.3169607969875083,0.9630511034707644,0.28709663750000003,0.6796423889446541
0.039,1.761975,1.0,2735.4254103782228,0.35524871055779716,1.3165189330651166,0.9637326050495955,0.28705595,0.6805349649595671
0.0395,1.7609937500000001,1.0,2735.7044148774376,0.3588652573456172,1.316073254671201,0.9643905896808712,0.2870147375,0.6814339849539353
0.04,1.76,1.0,2735.7916969713638,0.36246152056346437,1.3156236718938483,0.9650261230182623,0.286973,0.6823395973859834
0.0405,1.7589937500000001,1.0,2735.697150409122,0.3660376119289326,1.3151700948211447,0.9656402102916284,0.2869307375,0.683251949395506
0.041,1.757975,1.0,2735.4306870592504,0.3695936431596157,1.3147124335411762,0.9662338003643367,0.28688795,0.6841711867812206
0.0415,1.75694375,1.0,2735.0022337078212,0.3731297259731077,1.3142505981420294,0.9668077894773491,0.2868446375,0.6850974539776045
0.042,1.7559,1.0,2734.421729036823,0.37664597208700235,1.3137844987117908,0.9673630247072597,0.28680079999999997,0.6860308940312186
0.0425,1.75484375,1.0,2733.69912078131,0.3801424932188937,1.3133140453385463,0.9679003071628491,0.2867564375,0.6869716485765158
0.043000000000000003,1.753775,1.0,2732.8443630650754,0.3836194010863756,1.3128391481103827,0.968420394942405,0.28671155,0.687919857811129
0.043500000000000004,1.75269375,1.0,2731.8674139173986,0.387076807407042,1.3123597171153858,0.9689240058719389,0.28666613750000003,0.6888756604706511
0.044,1.7516,1.0,2730.7789938876413,0.39051481456959464,1.311875655526776,0.9694118180861384,0.2866202,0.6898392075565807
0.0445,1.75049375,1.0,2729.586649702987,0.3939335434303337,1.3113868953553434,0.9698844794718126,0.2865737375,0.6908105912020422
0.045,1.7493750000000001,1.0,2728.2964072462987,0.39733309979658077,1.310893382436288,0.9703426033738192,0.28652675,0.6917898748639156
0.0455,1.74824375,1.0,2726.914309978758,0.40071358888147923,1.310395062443898,0.9707867717973255,0.2864792375,0.6927771212067878
0.046,1.7471,1.0,2725.446400187357,0.4040751158981726,1.309891881052461,0.971217537401523,0.2864312,0.69377239176584
0.0465,1.7459437500000001,1.0,2723.8987180076933,0.4074177860598043,1.309383783936265,0.9716354252566688,0.28638263750000004,0.6947757469300972
0.047,1.744775,1.0,2722.277300513086,0.41074170457951775,1.3088707167695977,0.9720409344797604,0.28633355,0.6957872459254942
0.0475,1.74359375,1.0,2720.588180868567,0.4140469766704564,1.3083526252267472,0.9724345397582894,0.28628393750000003,0.6968069467977461
0.048,1.7424,1.0,2718.837387550244,0.4173337075457638,1.3078294549820015,0.9728166927707219,0.2862338,0.697834906395038
0.0485,1.74119375,1.0,2717.030943630715,0.4206020024185833,1.3073011517096482,0.9731878235115949,0.2861831375,0.6988711803505223
0.049,1.739975,1.0,2715.162913297633,0.42385196581426854,1.3067677700170452,0.9735483489341477,0.28613195,0.699915609945055
0.0495,1.73874375,1.0,2713.2527307055357,0.42708370034746446,1.30622913331163,0.9738986504094965,0.2860802375,0.7009684882372702
0.05,1.7375,1.0,2711.32180856108,0.43029730851934633,1.305685046720315,0.9742390903081284,0.286028,0.7020301409808638
0.0505,1.7362492012560367,1.0,2709.6045879935027,0.4334928908878378,1.3051358334726548,0.9745700483724826,0.2859754664527535,0.7030998824328707
0.051000000000000004,1.7349983752185565,1.0,2708.412941632276,0.4366705480108627,1.3045818167982048,0.9748918869093428,0.2859229317591794,0.7041770308542883
0.051500000000000004,1.7337475491810763,1.0,2707.71245545258,0.43983038044634465,1.3040233199265199,0.975204951753939,0.2858703970656052,0.7052609086124265
0.052000000000000005,1.732496723143596,1.0,2707.467594666405,0.4429724887330123,1.303460665427391,0.9755095731285152,0.285817862372031,0.70635084355346
0.0525,1.7312458971061158,1.0,2707.645197435231,0.4460969716998543,1.3028941553785385,0.975806065059472,0.28576532767845686,0.7074462073900567
0.053,1.7299950710686356,1.0,2708.201679373535,0.44920393025998895,1.3023241878780136,0.9760947339314552,0.2857127929848827,0.7085461907649857
0.0535,1.7287442450311554,1.0,2709.1107763975233,0.45229346148208416,1.3017510036180384,0.9763758626143864,0.28566025829130853,0.7096502927790388
0.054,1.7274934189936753,1.0,2710.346279104926,0.4553656624348076,1.301174843290834,0.9766497217441428,0.28560772359773434,0.7107580158442013
0.0545,1.726242592956195,1.0,2711.8820162503725,0.45842063018682705,1.300595947588623,0.9769165703617042,0.2855551889041602,0.7118688657311791
0.055,1.724991766918715,1.0,2713.691839506035,0.4614584618068104,1.3000145572036268,0.9771766565138198,0.285502654210586,0.712982351613239
0.0555,1.7237409408812348,1.0,2715.753119754962,0.46447925310453303,1.2994308808405721,0.9774302158057767,0.2854501195170118,0.7140980471908135
0.056,1.7224901148437546,1.0,2718.0414709530723,0.46748310132823434,1.2988451432276276,0.9776774751032891,0.2853975848234377,0.7152154986264629
0.0565,1.7212392888062742,1.0,2720.5395287057745,0.47047010085038526,1.298257505062468,0.9779186479330714,0.2853450501298635,0.7163343771489536
0.057,1.719988462768794,1.0,2723.2315362983377,0.47344034537147134,1.2976681123492042,0.978153938189407,0.28529251543628936,0.717454384217033
0.0575,1.7187376367313139,1.0,2726.1017269466997,0.47639392859197793,1.2970771110919463,0.9783835415068283,0.28523998074271517,0.718575223422396
0.058,1.7174868106938337,1.0,2729.1343183544377,0.4793309442123905,1.2964846472948048,0.9786076456648862,0.28518744604914104,0.7196966005053418
0.0585,1.7162359846563535,1.0,2732.31900469523,0.48225148170463933,1.295890817022415,0.9788264278251685,0.28513491135556684,0.7208183176078051
0.059000000000000004,1.7149851586188734,1.0,2735.6375604607406,0.48515563757566305,1.2952957881398497,0.9790400627208746,0.28508237666199265,0.7219400430703604
0.059500000000000004,1.7137343325813932,1.0,2739.0729008407734,0.4880435082370879,1.2946997178500332,0.9792487176573965,0.2850298419684185,0.7230614677905319
0.06,1.712483506543913,1.0,2742.617451248445,0.4909151827240973,1.2941026767967454,0.9794525481589514,0.2849773072748443,0.7241824473883582
0.0605,1.7112326805064328,1.0,2746.2636235368145,0.4937707500718745,1.2935047356237666,0.9796517037739508,0.2849247725812702,0.7253028385408894
0.061,1.7099818544689527,1.0,2750.0038145334574,0.49661029931560285,1.2929059649748769,0.9798463283524184,0.284872237887696,0.7264224989864038
0.0615,1.7087310284314725,1.0,2753.830404686381,0.4994339194904657,1.292306435493856,0.9800365603085075,0.28481970319412186,0.7275412875283042
0.062,1.7074802023939921,1.0,2757.7357568195616,0.5022416996316463,1.2917062178244847,0.9802225328690213,0.2847671685005477,0.7286590640386935
0.0625,1.706229376356512,1.0,2761.7122150004534,0.5050337287743281,1.2911053826105423,0.9804043743087829,0.2847146338069735,0.7297756894616383
0.063,1.7049785503190318,1.0,2765.752103516689,0.5078100959536943,1.2905040004958093,0.9805822081736443,0.28466209911339935,0.7308910258161061
0.0635,1.7037277242815516,1.0,2769.84772596462,0.5105708902049283,1.2899021421240657,0.9807561534918681,0.28460956441982516,0.7320049361985905
0.064,1.7024768982440714,1.0,2773.9950443785838,0.5133161941448614,1.289299844959249,0.9809263228322521,0.28455702972625097,0.7331173460030437
0.0645,1.7012260722065913,1.0,2778.1870636965727,0.5160460994312046,1.288697173007858,0.9810928266945043,0.28450449503267683,0.7342281323254811
0.065,1.699975246169111,1.0,2782.4163138607823,0.5187606983213641,1.288094194369035,0.9812557718753185,0.2844519603391027,0.7353371657233951
0.0655,1.698724420131631,1.0,2786.6799484356306,0.5214600741139299,1.2874909353479502,0.9814152587003347,0.2843994256455285,0.7364443944284462
0.066,1.6974735940941508,1.0,2790.9751125913026,0.5241443101074922,1.286887422249775,0.9815713839705696,0.2843468909519543,0.737549767075508
0.0665,1.6962227680566704,1.0,2795.2989429481936,0.526813489600641,1.2862836813796799,0.9817242411121956,0.2842943562583802,0.7386532327031186
0.067,1.6949719420191902,1.0,2799.6485674358637,0.5294676958919666,1.2856797390428354,0.9818739203189384,0.284241821564806,0.7397547407538823
0.0675,1.69372111598171,1.0,2804.021105168331,0.5321070122800589,1.2850756215444123,0.9820205086875069,0.2841892868712318,0.7408542410748309
0.068,1.6924702899442299,1.0,2808.4136663340773,0.5347315220635082,1.2844713551895817,0.9821640903464377,0.28413675217765766,0.7419516839177387
0.0685,1.6912194639067497,1.0,2812.823352101461,0.5373413085409043,1.2838669662835138,0.9823047465787256,0.28408421748408347,0.7430470199393955
0.069,1.6899686378692695,1.0,2817.247254539801,0.5399364550108376,1.2832624811313798,0.9824425559385744,0.28403168279050933,0.7441402002018327
0.0695,1.6887178118317894,1.0,2821.6824565552765,0.5425170447718982,1.2826579260383502,0.9825775943625915,0.28397914809693514,0.7452311761725082
0.07,1.6874669857943092,1.0,2826.1263483994317,0.5450831593314747,1.2820533244818328,0.9827099350341545,0.283926613403361,0.746319904811052
0.07050000000000001,1.686216159756829,1.0,2830.5808796165043,0.5476348580041654,1.281448659170032,0.982839645507236,0.2838740787097868,0.7474064166179565
0.07100000000000001,1.6849653337193486,1.0,2835.0384037613076,0.5501722577132914,1.2808439984506896,0.98296679853127,0.2838215440162126,0.7484905884382305
0.07150000000000001,1.6837145076818685,1.0,2839.498132154936,0.5526954349831082,1.2802393493415463,0.9830914592917787,0.2837690093226385,0.7495724077826109
0.07200000000000001,1.6824636816443883,1.0,2843.9592736443988,0.5552044663378718,1.2796347188603425,0.9832136908821281,0.2837164746290643,0.7506518622700804
0.0725,1.6812128556069081,1.0,2848.421034605276,0.5576994283018375,1.279030114024819,0.9833335543848577,0.2836639399354901,0.7517289396278587
