Time [s],Phi [rad],STIM [ ],Fsee [N],Gamma [ ],Lcerel [ ],q [ ],Lmtc [m],fisomrel [ ]
0.0,1.8,1.0,17.967443932055325,1.01597640820291e-05,1.3793397142046704,0.005000027506731643,0.288653,0.5411396085048437
0.0005,1.79999375,1.0,18.276803234355253,0.005619312084634608,1.3793023812259508,0.01294095748169094,0.2886527375,0.5412299221821539
0.001,1.799975,1.0,21.61852589475839,0.011197001495590563,1.3789382873718272,0.03560940895293226,0.28865195,0.5421102498842683
0.0015,1.79994375,1.0,31.0695396339144,0.016743404479856665,1.3780461778608355,0.07060284450416861,0.2886506375,0.5442636715714717
0.002,1.7999,1.0,53.5829322726189,0.022258696528689507,1.3763680963670342,0.11471918602159316,0.2886488,0.5483005613426495
0.0025,1.79984375,1.0,97.11974883993572,0.02774305214925764,1.3739351281701664,0.16457614214753796,0.28864643749999996,0.5541215558684989
0.003,1.7997750000000001,1.0,160.95931111899014,0.03319664487235982,1.37121430092418,0.21728174231291814,0.28864354999999997,0.5605865522620292
0.0035,1.79969375,1.0,237.68466970728633,0.038619647252015686,1.3685846930142116,0.27061416934767757,0.2886401375,0.566789936465623
0.004,1.7996,1.0,321.46824193109023,0.04401223087624819,1.3661560534458401,0.3229170415874234,0.2886362,0.5724800526944103
0.0045000000000000005,1.7994937500000001,1.0,409.2693279213127,0.049374566372268086,1.3639227771453135,0.3730356846521012,0.2886317375,0.5776792483253905
0.005,1.799375,1.0,499.415146632358,0.05470682339756301,1.3618583074446058,0.42024856243019565,0.28862675,0.5824571598639195
0.0055,1.79924375,1.0,590.7921076423966,0.060009170687368746,1.359938802009662,0.4641747188391979,0.2886212375,0.5868751875250295
0.006,1.7991000000000001,1.0,682.5198256436269,0.0652817759978131,1.3581463835311915,0.5046809008210723,0.2886152,0.5909794896796194
0.006500000000000001,1.79894375,1.0,773.883169605664,0.0705248061613816,1.3564672209825612,0.5418016176480258,0.2886086375,0.5948058685107458
0.007,1.798775,1.0,864.2872406665067,0.07573842707118131,1.354890371905973,0.5756775683142037,0.28860155,0.5983827293636484
0.0075,1.79859375,1.0,953.2443559232466,0.08092280368976397,1.3534067616488876,0.6065106359037166,0.2885939375,0.6017336123113722
0.008,1.7984,1.0,1040.3535205506046,0.08607809996526779,1.3520087189884962,0.6345327673667733,0.2885858,0.6048783857017792
0.0085,1.79819375,1.0,1125.3195914848438,0.09120447932251402,1.3506891655644782,0.6599849995112743,0.2885771375,0.6078351695015627
0.009000000000000001,1.797975,1.0,1207.8872292076792,0.09630210361376103,1.3494422120161769,0.6831048454102346,0.28856795,0.6106190703483461
0.0095,1.79774375,1.0,1287.8714181330818,0.10137113411085287,1.348262398879903,0.7041181295081601,0.2885582375,0.6132439461939265
0.01,1.7975,1.0,1365.1605511007067,0.1064117316548331,1.3471444687983425,0.7232347308647177,0.288548,0.6157229521132546
0.0105,1.79724375,1.0,1439.6591634433971,0.11142405533859073,1.3460839505896056,0.740647082306097,0.2885372375,0.6180672804346028
0.011,1.796975,1.0,1511.3117309887234,0.11640826361540929,1.3450766817000488,0.7565295721811894,0.28852595000000003,0.6202872568459287
0.0115,1.79669375,1.0,1580.1116144704272,0.12136451457879216,1.344118595332358,0.7710390114266349,0.2885141375,0.6223928327375154
0.012,1.7964,1.0,1646.0637864161633,0.12629296520340497,1.3432060856499193,0.784315877370785,0.28850180000000003,0.6243928022093759
0.0125,1.79609375,1.0,1709.1771231079258,0.1311937708050849,1.3423359986288506,0.7964856071428565,0.2884889375,0.6262948470752157
0.013000000000000001,1.7957750000000001,1.0,1769.492696181766,0.13606708637498918,1.341505229200486,0.8076598268244084,0.28847555,0.6281064363160824
0.0135,1.79544375,1.0,1827.0758284769195,0.14091306674147405,1.3407107695017764,0.8179377832639066,0.2884616375,0.6298347306935823
0.014,1.7951000000000001,1.0,1881.9912236520743,0.14573186577672181,1.339949941257572,0.8274077680724368,0.2884472,0.6314860887722367
0.0145,1.79474375,1.0,1934.291263971582,0.15052363485598258,1.3392204705478812,0.8361483644387033,0.2884322375,0.6330659195193689
0.015,1.794375,1.0,1984.0492897757185,0.15528852535450635,1.3385200834527111,0.8442294212785884,0.28841675,0.6345795698315355
0.0155,1.79399375,1.0,2031.3520879662967,0.16002668817038432,1.3378465661446135,0.8517130951792473,0.2884007375,0.6360321994397108
0.016,1.7936,1.0,2076.2897798004733,0.1647382738874671,1.3371978493553414,0.858654784702236,0.2883842,0.6374286045603715
0.0165,1.7931937500000001,1.0,2118.9527926105316,0.16942343255297598,1.3365720163943893,0.865103930462689,0.2883671375,0.6387732072073182
0.017,1.792775,1.0,2159.4078355523975,0.17408231102697816,1.3359675276804754,0.871104780901658,0.28834955,0.6400695801794292
0.0175,1.7923437500000001,1.0,2197.7323239131247,0.1787150561695409,1.3353828436323172,0.8766968965749012,0.2883314375,0.6413212633836118
0.018000000000000002,1.7919,1.0,2234.0134841088525,0.18332181484073137,1.3348164246686323,0.8819157014764456,0.2883128,0.6425317658549556
0.0185,1.79144375,1.0,2268.335641307136,0.187902732593529,1.3342668495616763,0.8867929958934866,0.2882936375,0.6437043153192337
0.019,1.790975,1.0,2300.794387282251,0.19245795632203525,1.3337326631605853,0.8913573384812139,0.28827395,0.6448421860323449
0.0195,1.79049375,1.0,2331.4641860121633,0.19698762969480033,1.3332126893591965,0.8956344908105736,0.2882537375,0.6459480345982515
0.02,1.79,1.0,2360.412397983463,0.2014918948087136,1.3327058790177244,0.8996476970954911,0.288233,0.6470242285301127
0.0205,1.78949375,1.0,2387.7114675070666,0.2059708937606646,1.3322111829963834,0.9034179377508545,0.2882117375,0.6480731182785187
0.021,1.788975,1.0,2413.4384974126724,0.21042476864754267,1.3317275521553877,0.9069641806764653,0.28818995000000003,0.6490970380771509
0.021500000000000002,1.78844375,1.0,2437.664431349648,0.21485365985695765,1.331254037547213,0.9103036221247616,0.2881676375,0.6500980950531555
0.022,1.7879,1.0,2460.470519558054,0.21925770999783548,1.3307896268465513,0.9134518465297812,0.2881448,0.6510785164882632
0.0225,1.78734375,1.0,2481.9207094928524,0.22363705821592414,1.330333505835244,0.916423047958105,0.28812143749999997,0.6520400986052197
0.023,1.786775,1.0,2502.0701443887933,0.22799184158263686,1.3298849706810867,0.9192301590758576,0.28809755,0.6529843945112838
0.0235,1.78619375,1.0,2520.9763707454636,0.23232219716938696,1.329443317551876,0.9218849621108404,0.28807313749999996,0.6539129480880541
0.024,1.7856,1.0,2538.6991373488336,0.23662826204758766,1.3290078426154082,0.9243982070815663,0.2880482,0.6548272943161825
0.0245,1.78499375,1.0,2555.300205275711,0.24091017328865233,1.3285778420394787,0.9267797164523461,0.2880227375,0.655728959568493
0.025,1.784375,1.0,2570.8327296918947,0.245168064490949,1.3281527097644055,0.9290384930105076,0.28799675,0.6566192572521616
0.025500000000000002,1.78374375,1.0,2585.3616558551253,0.2494020753294389,1.3277317440679144,0.9311827725529052,0.2879702375,0.6574996936549843
0.026000000000000002,1.7831000000000001,1.0,2598.93030723605,0.2536123380137141,1.3273144587743315,0.9332201432330884,0.2879432,0.6583713172106711
0.0265,1.78244375,1.0,2611.5816437569433,0.25779898420819336,1.3269003817240907,0.9351575779115878,0.2879156375,0.6592351416729711
0.027,1.781775,1.0,2623.359658612127,0.2619621455772957,1.326489040757626,0.9370014904745692,0.28788755,0.6600921755904505
0.0275,1.7810937500000001,1.0,2634.3092880573668,0.26610195378543994,1.326079963715371,0.938757788091669,0.2878589375,0.6609434223959895
0.028,1.7804,1.0,2644.47632614242,0.27021854049704497,1.3256726784377597,0.9404319179532522,0.2878298,0.661789880482065
0.0285,1.77969375,1.0,2653.8955206796395,0.2743120341582362,1.3252668217582302,0.9420289235486786,0.2878001375,0.6626323171661344
0.029,1.778975,1.0,2662.611193924085,0.2783825673078213,1.324861948142246,0.9435534564448705,0.28776995,0.6634716666110483
0.029500000000000002,1.7782437500000001,1.0,2670.67233947527,0.2824302721065148,1.3244575748538145,0.9450098157837753,0.2877392375,0.6643089353315732
0.03,1.7775,1.0,2678.1070636897157,0.286455274090517,1.3240534161696713,0.9464020084260992,0.287708,0.6651447176937686
0.0305,1.77674375,1.0,2684.943881917323,0.29045769879602845,1.3236491863665512,0.9477337501084596,0.2876762375,0.6659796051156551
0.031,1.775975,1.0,2691.211682284868,0.2944376717592494,1.3232445997211895,0.9490084902578363,0.28764395,0.6668141860685204
0.0315,1.7751937500000001,1.0,2696.939691290031,0.29839531851638024,1.3228393705103212,0.950229434399742,0.2876111375,0.6676490460730216
0.032,1.7744,1.0,2702.1574412053246,0.3023307646036214,1.3224332130106813,0.9513995644194584,0.2875778,0.6684847676900786
0.0325,1.77359375,1.0,2706.8947392921486,0.3062441355571732,1.3220258414990051,0.9525216569051675,0.2875439375,0.6693219305065613
0.033,1.772775,1.0,2711.17724053678,0.31013555475355564,1.3216170103656526,0.9535983038533148,0.28750955,0.6701610288375628
0.0335,1.7719437500000002,1.0,2715.030028771597,0.31400514562469717,1.321206481086797,0.9546319241958737,0.2874746375,0.6710025398846848
0.034,1.7711000000000001,1.0,2718.4869015827894,0.3178530354552172,1.3207939374332824,0.9556247689516053,0.2874392,0.6718470972769492
0.0345,1.7702437500000001,1.0,2721.5660328148424,0.3216793434898153,1.3203792070470834,0.9565789557375116,0.2874032375,0.6726950372827871
0.035,1.7693750000000001,1.0,2724.2857214338355,0.3254841889731913,1.319962117570174,0.9574964653693399,0.28736675,0.6735466942602366
0.035500000000000004,1.76849375,1.0,2726.6643786409327,0.3292676911500449,1.3195424966445277,0.9583791522834969,0.2873297375,0.6744024006319579
0.036000000000000004,1.7676,1.0,2728.7205156437344,0.3330299692650757,1.3191201719121193,0.959228754050399,0.2872922,0.6752624868583528
0.0365,1.76669375,1.0,2730.472732087308,0.33677114256298346,1.3186949710149227,0.9600469000678451,0.2872541375,0.6761272814087933
0.037,1.765775,1.0,2731.9397051428195,0.340491330288468,1.3182667215949118,0.9608351195135134,0.28721555,0.6769971107309533
0.0375,1.76484375,1.0,2733.1393089050443,0.34419064988780496,1.3178352591999491,0.961594849016685,0.2871764375,0.6778722831929246
0.038,1.7639,1.0,2734.087449302603,0.34786921413747396,1.3174004377711155,0.9623274397308704,0.28713679999999997,0.6787530679295416
0.0385,1.76294375,1.0,2734.8046353563327,0.351527151714507,1.316962069880554,0.9630341619467462,0.28709663750000003,0.6796398158706467
0.039,1.761975,1.0,2735.3021879697517,0.3551645751891162,1.3165200519090816,0.9637162159451295,0.28705595,0.6805327064396438
0.0395,1.7609937500000001,1.0,2735.59145961405,0.35878159713151386,1.3160742802375163,0.9643747323809321,0.2870147375,0.6814319176413777
0.04,1.76,1.0,2735.683829863103,0.36237833011191206,1.3156246512466756,0.9650107770629742,0.286973,0.6823376260376735
0.0405,1.7589937500000001,1.0,2735.590701167561,0.36595488670052306,1.315171061317377,0.9656253553568024,0.2869307375,0.683250006722188
0.041,1.757975,1.0,2735.323494866139,0.369511379467559,1.314713406830438,0.9662194162439053,0.28688795,0.6841692332945766
0.0415,1.75694375,1.0,2734.8936474354505,0.37304792098323214,1.3142515841666762,0.9667938560674572,0.2868446375,0.6850954778339746
0.042,1.7559,1.0,2734.3126069777027,0.3765646238177546,1.3137854897069092,0.9673495219918005,0.28680079999999997,0.6860289108717958
0.0425,1.75484375,1.0,2733.591829946901,0.3800616005413386,1.3133150198319543,0.9678872152002627,0.2867564375,0.6869697013638459
0.043000000000000003,1.753775,1.0,2732.7407269580626,0.38353895808891836,1.3128400895557808,0.9684076944739919,0.28671155,0.6879179794857495
0.043500000000000004,1.75269375,1.0,2731.762807860509,0.3869967913659578,1.3123606675419328,0.9689116807390957,0.28666613750000003,0.6888737671325196
0.044,1.7516,1.0,2730.6778957757056,0.39043524495819404,1.3118765742636893,0.9693998529146072,0.2866202,0.6898373801834996
0.0445,1.75049375,1.0,2729.4913550515357,0.3938544229841846,1.3113877615415266,0.9698728586582642,0.2865737375,0.6908088710527978
0.045,1.7493750000000001,1.0,2728.2085513305897,0.3972544295624871,1.3108941811959205,0.9703313122984368,0.28652675,0.6917882911304789
0.0455,1.74824375,1.0,2726.83485058746,0.4006353688116589,1.310395785047347,0.9707757968700886,0.2864792375,0.6927756907679882
0.046,1.7471,1.0,2725.37561821698,0.40399734485025757,1.3098925249162827,0.9712068660073656,0.2864312,0.6937711192634283
0.0465,1.7459437500000001,1.0,2723.8362181739913,0.4073404617968407,1.3093843526232034,0.9716250457041896,0.28638263750000004,0.694774624846688
0.047,1.744775,1.0,2722.222012164614,0.41066482376996566,1.308871219988585,0.9720308359532331,0.28633355,0.6957862546644232
0.0475,1.74359375,1.0,2720.5383588892087,0.41397053488819013,1.3083530788329039,0.9724247122727502,0.28628393750000003,0.6968060547648883
0.048,1.7424,1.0,2718.790613336116,0.4172576992700715,1.3078298809766358,0.972807127129917,0.2862338,0.697834070082622
0.0485,1.74119375,1.0,2716.9841261278175,0.4205264210341674,1.307301578240257,0.9731785112685977,0.2861831375,0.698870344422982
0.049,1.739975,1.0,2715.1242429176364,0.42377680429903525,1.3067681224442438,0.9735392749487739,0.28613195,0.6999149204465352
0.0495,1.73874375,1.0,2713.2163038386357,0.4270089531832326,1.3062294654090718,0.9738898091042769,0.2860802375,0.7009678396532975
0.05,1.7375,1.0,2711.265643003646,0.43022297180531704,1.3056855589552177,0.9742304864248965,0.286028,0.7020291423668246
0.0505,1.73624375,1.0,2709.2775880565327,0.43341896428384596,1.305136354903157,0.9745616623684503,0.2859752375,0.703098867718159
0.051000000000000004,1.734975,1.0,2707.2542226908313,0.43659702302193315,1.3045818346178772,0.9748836767332357,0.28592195,0.7041769962398217
0.051500000000000004,1.73369375,1.0,2705.1961704198575,0.4397572442738614,1.3040219927753012,0.9751968552122295,0.2858681375,0.7052634818524705
0.052000000000000005,1.7324,1.0,2703.11286205467,0.4428997544644114,1.3034567436048181,0.9755015069660216,0.2858138,0.7063584335483408
0.0525,1.73109375,1.0,2701.006163361089,0.4460246486367715,1.3028860703331047,0.9757979283501491,0.28575893750000003,0.7074618252492653
0.053,1.729775,1.0,2698.877937583938,0.4491320218341302,1.3023099561868368,0.9760864026498415,0.28570355000000003,0.7085736300711507
0.0535,1.72844375,1.0,2696.7300453682515,0.45222196909967594,1.3017283843926906,0.976367200766003,0.2856476375,0.7096938203181657
0.054,1.7271,1.0,2694.5643446862205,0.45529458547659707,1.3011413381773427,0.9766405818595381,0.2855912,0.7108223674769112
0.0545,1.7257437500000001,1.0,2692.382690770551,0.45834996600808203,1.300548800767469,0.9769067939568785,0.2855342375,0.7119592422105747
0.055,1.724375,1.0,2690.186936054145,0.46138820573731926,1.299950755389746,0.977166074519359,0.28547675,0.7131044143530636
0.0555,1.72299375,1.0,2687.9789301160954,0.4644093997074972,1.2993471852708496,0.9774186509788767,0.2854187375,0.7142578529031239
0.056,1.7216,1.0,2685.760519633457,0.46741364296180415,1.2987380736374563,0.9776647412421003,0.2853602,0.7154195260184366
0.0565,1.72019375,1.0,2683.5335483399085,0.47040103054342863,1.2981234037162421,0.9779045541653124,0.28530113749999997,0.7165894010097019
0.057,1.718775,1.0,2681.2998569901947,0.47337165749555904,1.2975031587338834,0.9781382900018257,0.28524155,0.7177674443346995
0.0575,1.71734375,1.0,2679.061283330907,0.4763256188613838,1.2968773219170564,0.9783661408237639,0.2851814375,0.7189536215923357
0.058,1.7159,1.0,2676.8196620774993,0.47926300968409136,1.2962458764924372,0.9785882909198697,0.2851208,0.72014789751667
0.0585,1.71444375,1.0,2674.5768248977706,0.4821839250068701,1.295608805686702,0.978804917170886,0.2850596375,0.7213502359709238
0.059000000000000004,1.7129750000000001,1.0,2672.334600401131,0.4850884598729084,1.2949660927265272,0.9790161894039389,0.28499795,0.7225605999414725
0.059500000000000004,1.71149375,1.0,2670.093408369078,0.4879767061191905,1.29431773375783,0.9792222711684475,0.2849357375,0.7237789272820635
0.06,1.71,1.0,2667.855481754159,0.4908487522068545,1.2936637082496905,0.9794233184208005,0.284873,0.7250051864063798
0.0605,1.7084937500000001,1.0,2665.621574483718,0.49370468833349734,1.2930040092406647,0.9796194819234045,0.2848097375,0.726239319416124
0.061,1.7069750000000001,1.0,2663.3921706111028,0.49654460462533767,1.2923386322409882,0.9798109067472667,0.28474595,0.727481263072284
0.0615,1.7054437500000001,1.0,2661.1684851403793,0.49936859080711976,1.2916675660246122,0.9799977320214456,0.2846816375,0.7287309659734647
0.062,1.7039016160029614,1.0,2659.0299644247903,0.5021767362068904,1.2909908086947763,0.9801800920458611,0.28461686787212437,0.7299883585942605
0.0625,1.702357972108218,1.0,2657.4013764630627,0.5049691317515487,1.2903086796165955,0.9803581328725739,0.2845520348285452,0.7312527759543015
0.063,1.7008143282134747,1.0,2656.317108096473,0.5077458645284048,1.289621539527033,0.9805319970058812,0.28448720178496595,0.7325234816390029
0.0635,1.6992706843187313,1.0,2655.7376794659413,0.5105070216247686,1.2889297491630523,0.9807018217531558,0.2844223687413867,0.7337997450528562
0.064,1.6977270404239881,1.0,2655.6237793585547,0.5132526901279504,1.2882336692616172,0.9808677394632288,0.28435753569780753,0.7350808415305634
0.0645,1.6961833965292448,1.0,2655.9362294569887,0.5159829571252601,1.287533660559691,0.9810298777522333,0.2842927026542283,0.7363660524398737
0.065,1.6946397526345014,1.0,2656.6370592156154,0.5186979094182392,1.2868300735881395,0.9811883591878819,0.28422786961064905,0.7376546839458625
0.0655,1.693096108739758,1.0,2657.6952972582467,0.5213976325582073,1.2861231950576153,0.9813432987896012,0.2841630365670698,0.7389461647003248
0.066,1.6915524648450146,1.0,2659.074784104269,0.5240822140069867,1.285413359932642,0.9814948100732342,0.2840982035234906,0.7402398404718116
0.0665,1.6900088209502715,1.0,2660.753378951137,0.5267517374688102,1.2847007743479568,0.9816429961020926,0.2840333704799114,0.741535296829317
0.067,1.6884651770555281,1.0,2662.7089656670946,0.5294062866479103,1.2839856444382967,0.981787956398486,0.28396853743633216,0.7428321229367518
0.0675,1.6869215331607847,1.0,2664.9194406923293,0.5320459452485198,1.2832681763383986,0.9819297870957806,0.283903704392753,0.7441299115877484
0.068,1.6853778892660414,1.0,2667.3627018810034,0.5346707969748711,1.282548576183,0.982068581082956,0.28383887134917374,0.7454282592377534
0.0685,1.683834245371298,1.0,2670.0170251963614,0.5372809253642093,1.281827046551016,0.9822044279626065,0.2837740383055945,0.7467267724245263
0.069,1.6822906014765546,1.0,2672.8654480396785,0.5398764124156649,1.2811037461270995,0.9823374122003927,0.28370920526201526,0.7480251400296913
0.0695,1.6807469575818115,1.0,2675.8870165601797,0.542457342457107,1.2803788701018082,0.9824676173310222,0.2836443722184361,0.7493229885217901
0.07,1.679203313687068,1.0,2679.069387795602,0.5450237959411129,1.279652534386782,0.9825951202392079,0.28357953917485684,0.7506200893209495
0.07050000000000001,1.6776596697923247,1.0,2682.4002037129962,0.5475758533202604,1.2789248548936607,0.9827199953065907,0.2835147061312776,0.75191621595201
0.07100000000000001,1.6761160258975814,1.0,2685.867087606003,0.5501135950471268,1.2781959475340847,0.982842314513021,0.2834498730876984,0.7532111440548878
0.07150000000000001,1.674572382002838,1.0,2689.4576407902446,0.5526371015742895,1.2774659282196936,0.9829621475331239,0.2833850400441192,0.7545046513940811
0.07200000000000001,1.6730287381080946,1.0,2693.1597040201605,0.5551464531189837,1.2767349104424612,0.9830795617047708,0.28332020700053995,0.7557965221377645
0.0725,1.6714850942133515,1.0,2696.969837543064,0.5576417226336277,1.2760029277144338,0.9831946182158354,0.28325537395696077,0.757086683332465
0.073,1.669941450318608,1.0,2700.865254671876,0.5601230015123028,1.275270190296697,0.9833073853048764,0.2831905409133815,0.7583747523406258
0.0735,1.6683978064238647,1.0,2704.840408952907,0.5625903659062815,1.274536750465789,0.9834179212122799,0.2831257078698023,0.7596606270525674
0.074,1.6668541625291213,1.0,2708.889740548919,0.5650438919668368,1.2738026604982473,0.9835262823721549,0.2830608748262231,0.7609442063267906
