Time [s],Phi [rad],STIM [ ],Fsee [N],Gamma [ ],Lcerel [ ],q [ ],Lmtc [m],fisomrel [ ]
0.0,1.8,1.0,18.033079032730768,0.00025882220430912335,1.379332367639978,0.005017400556454606,0.288653,0.5411573815709456
0.0005,1.79999375,1.0,18.422992383763244,0.005866579725263981,1.3792861748259562,0.01364571362160552,0.2886527375,0.5412691249550199
0.001,1.799975,1.0,21.949302127082927,0.01144288216028286,1.3789046318098772,0.03691695655843139,0.28865195,0.5421915816103998
0.0015,1.79994375,1.0,31.800361596201984,0.016987905948513054,1.3779842765404484,0.0723849873134657,0.2886506375,0.5444129039802099
0.002,1.7999,1.0,55.109153618498425,0.022501826537245372,1.3762697786824822,0.11682487151804767,0.2886488,0.5485365231193745
0.0025,1.79984375,1.0,99.64485600622517,0.02798481839085345,1.3738142305804844,0.16686383655415463,0.28864643749999996,0.5544098246668383
0.003,1.7997750000000001,1.0,164.21900355789455,0.033437054996455474,1.371092899531634,0.21963985151868376,0.28864354999999997,0.5608739155523105
0.0035,1.79969375,1.0,241.35345323148425,0.03885870886527543,1.3684721178449168,0.2729581886472202,0.2886401375,0.5670545228663321
0.004,1.7996,1.0,325.3630651354774,0.044249951542811056,1.366053205273846,0.3251857134575098,0.2886362,0.5727201878467587
0.0045000000000000005,1.7994937500000001,1.0,413.2968541809042,0.0496109536142303,1.363828467386801,0.37518856917877186,0.2886317375,0.5778981068844753
0.005,1.799375,1.0,503.52020690321615,0.05494188469615432,1.3617712539212952,0.42226228986963704,0.28862675,0.5826580351920083
0.0055,1.79924375,1.0,594.9301801751805,0.06024291347463035,1.3598580952995674,0.466038817587913,0.2886212375,0.5870604312734933
0.006,1.7991000000000001,1.0,686.6591389666049,0.06551420767275652,1.3580712556632282,0.50639381402791,0.2886152,0.5911510710068848
0.006500000000000001,1.79894375,1.0,777.9940922910976,0.07075593405993617,1.3563971378701187,0.5433676999388412,0.2886086375,0.5949651789476645
0.007,1.798775,1.0,868.3484802055972,0.07596825855726029,1.3548248468126785,0.5771046805720781,0.28860155,0.5985310206771661
0.0075,1.79859375,1.0,957.2312319117816,0.08115134592043999,1.3533455033978616,0.6078086138950856,0.2885939375,0.6018716684582646
0.008,1.7984,1.0,1044.2671556235537,0.08630536043415872,1.3519511525483205,0.6357120295919896,0.2885858,0.6050076091196072
0.0085,1.79819375,1.0,1129.1349888610152,0.0914304649244125,1.350635199398716,0.6610562976984684,0.2885771375,0.6079558575976488
0.009000000000000001,1.797975,1.0,1211.5897099749293,0.09652682144156656,1.3493916604551943,0.6840784744599466,0.28856795,0.6107317206771754
0.0095,1.79774375,1.0,1291.4720950598858,0.10159459175664964,1.3482147851674229,0.7050035830668775,0.2885582375,0.6133496919349666
0.01,1.7975,1.0,1368.6441505379037,0.10663393583057745,1.34709972354898,0.7240409616536698,0.288548,0.6158220086486658
0.0105,1.79724375,1.0,1443.0159410876547,0.11164501297125329,1.3460419623975557,0.7413822100391569,0.2885372375,0.6181599498088286
0.011,1.796975,1.0,1514.5487566993718,0.11662798182126571,1.34503716104478,0.7572008323350101,0.28852595000000003,0.6203742267160668
0.0115,1.79669375,1.0,1583.2361534042939,0.1215830006859649,1.3440812862214462,0.771652906195305,0.2885141375,0.6224747081383777
0.012,1.7964,1.0,1649.0622347063456,0.12651022555431132,1.3431710053764634,0.7848783297819859,0.28850180000000003,0.6244695824901383
0.0125,1.79609375,1.0,1712.0512553775739,0.1314098123664487,1.3423029983102996,0.7970018222678843,0.2884889375,0.6263668920528668
0.013000000000000001,1.7957750000000001,1.0,1772.2461064202932,0.1362819159877485,1.3414741574967772,0.8081344312566374,0.28847555,0.6281741063835019
0.0135,1.79544375,1.0,1829.7254113269807,0.1411266920306861,1.340681343637284,0.8183748384158384,0.2884616375,0.6298986674027258
0.014,1.7951000000000001,1.0,1884.5283890518986,0.14594429260084174,1.339922177319689,0.8278109900344437,0.2884472,0.6315462798668429
0.0145,1.79474375,1.0,1936.715664290619,0.1507348696930845,1.339194301088231,0.8365210265764151,0.2884322375,0.6331225322361814
0.015,1.794375,1.0,1986.3687757376738,0.1554985752665522,1.3384953618841025,0.8445744081729539,0.28841675,0.6346329399966535
0.0155,1.79399375,1.0,2033.570951879684,0.16023555986361002,1.337823193551679,0.8520329895537779,0.2884007375,0.6360825570744417
0.016,1.7936,1.0,2078.4219446741517,0.16494597500475894,1.3371756340274996,0.8589518600441575,0.2883842,0.6374763769711532
0.0165,1.7931937500000001,1.0,2120.986254339729,0.16962996836209362,1.3365510434896175,0.86538029653195,0.2883671375,0.6388182242539846
0.017,1.792775,1.0,2161.340456348446,0.17428768760770885,1.3359477821160846,0.8713622942729241,0.28834955,0.6401118867706753
0.0175,1.7923437500000001,1.0,2199.5721909009912,0.17891928041369934,1.3353642100849537,0.8769371911272588,0.2883314375,0.6413611179658645
0.018000000000000002,1.7919,1.0,2235.7636310609155,0.1835248928821226,1.3347988440575576,0.8821402559701854,0.2883128,0.6425693049034543
0.0185,1.79144375,1.0,2270.0164430992922,0.1881046731055394,1.3342500935832264,0.8870030959802738,0.2882936375,0.6437400348839426
0.019,1.790975,1.0,2302.4017596278627,0.19265876493846656,1.3337167524661886,0.8915542001528906,0.28827395,0.6448760495007035
0.0195,1.79049375,1.0,2332.9897618289483,0.19718731140451357,1.3331976878216742,0.8958192190937682,0.2882537375,0.6459799133618945
0.02,1.79,1.0,2361.856405052276,0.20169045552728992,1.3326917667649136,0.8998212697137418,0.288233,0.6470541719605878
0.0205,1.78949375,1.0,2389.082932655593,0.20616834033040524,1.3321978564111372,0.9035812196254429,0.2882117375,0.6481013526653236
0.021,1.788975,1.0,2414.7399070128035,0.2106211067112555,1.3317149737747955,0.907117968122808,0.28818995000000003,0.6491236485127128
0.021500000000000002,1.78844375,1.0,2438.9153971818246,0.21504889859855555,1.3312420068676807,0.9104486046415411,0.2881676375,0.6501235104791817
0.022,1.7879,1.0,2461.6699539492624,0.2194518549124535,1.3307781452607852,0.9135886891678624,0.2881448,0.6511027379395246
0.0225,1.78734375,1.0,2483.0616062471186,0.22383011369550593,1.3303226318216799,0.9165523660881428,0.28812143749999997,0.6520630067168334
0.023,1.786775,1.0,2503.151105541513,0.2281838129902693,1.3298747094179362,0.9193525032666359,0.28809755,0.65300598241847
0.0235,1.78619375,1.0,2522.001697284653,0.2325130908393002,1.3294336209171254,0.9220008249157957,0.28807313749999996,0.6539333208208921
0.024,1.7856,1.0,2539.6733298845998,0.23681808421193906,1.3289986617229481,0.924508038062058,0.2880482,0.6548465579863174
0.0245,1.78499375,1.0,2556.226233570234,0.24109893005720504,1.3285691434000602,0.9268839293852676,0.2880227375,0.6557471875170622
0.025,1.784375,1.0,2571.7274447301825,0.24535576617523577,1.3281443306634426,0.929137446647853,0.28799675,0.656636792900004
0.025500000000000002,1.78374375,1.0,2586.2201649274093,0.24958872531831386,1.327723726630725,0.93127682673182,0.2879702375,0.657516450903284
0.026000000000000002,1.7831000000000001,1.0,2599.7488610352552,0.25379794023872193,1.3273068344195371,0.9333096269329797,0.2879432,0.6583872325964979
0.0265,1.78244375,1.0,2612.359159417739,0.25798354368874254,1.3268931571475093,0.93524279020116,0.2879156375,0.6592502034761919
0.027,1.781775,1.0,2624.0977455845477,0.26214566842065834,1.3264821979322712,0.9370827033222726,0.28788755,0.6601064235756164
0.0275,1.7810937500000001,1.0,2635.012042965892,0.26628444704808774,1.3260734619854835,0.93883524913887,0.2878589375,0.6609569432040863
0.028,1.7804,1.0,2645.1443753805993,0.27040000839776784,1.3256665096676745,0.9405058593204229,0.2878298,0.6618026928599314
0.0285,1.77969375,1.0,2654.543516928991,0.27449248819832317,1.3252608487728503,0.9420995440289991,0.2878001375,0.6626447074475925
0.029,1.778975,1.0,2663.242095474686,0.278562013677057,1.324856142244643,0.9436209529885721,0.28776995,0.6634836952995162
0.029500000000000002,1.7782437500000001,1.0,2671.2732781581926,0.2826087120612725,1.324452053026685,0.9450743889208233,0.2877392375,0.6643203612460753
0.03,1.7775,1.0,2678.670723337838,0.28663271057827294,1.3240482440626093,0.946463837882448,0.287708,0.6651554066324603
0.0305,1.77674375,1.0,2685.4685350496256,0.2906341364553615,1.323644378296048,0.9477929965897844,0.2876762375,0.6659895293283308
0.031,1.775975,1.0,2691.701219985616,0.2946131169198414,1.3232401186706342,0.9490652970626837,0.28764395,0.6668234237302115
0.0315,1.7751937500000001,1.0,2697.3984825001576,0.29856977553278874,1.3228351753517569,0.9502839336166367,0.2876111375,0.667657683531889
0.032,1.7744,1.0,2702.5876579602186,0.3025042366016178,1.3224292829243716,0.951451881099373,0.2875778,0.6684928492119757
0.0325,1.77359375,1.0,2707.3100786861014,0.3064166361939343,1.3220220506353848,0.9525718981328497,0.2875439375,0.669329715894712
0.033,1.772775,1.0,2711.585977412816,0.31030709467400214,1.32161328270923,0.9536465743300649,0.28750955,0.6701686746970438
0.0335,1.7719437500000002,1.0,2715.435770590194,0.31417573240608543,1.32120278337034,0.9546783256319854,0.2874746375,0.6710101146528906
0.034,1.7711000000000001,1.0,2718.880040969461,0.31802266975444815,1.3207903568431483,0.9556694080221927,0.2874392,0.6718544226927474
0.0345,1.7702437500000001,1.0,2721.9395210403895,0.32184802708335425,1.320375807352088,0.9566219300043046,0.2874032375,0.6727019836208478
0.035,1.7693750000000001,1.0,2724.6350773174145,0.3256519247570677,1.3199589391215925,0.957537863966787,0.28736675,0.673553180089876
0.035500000000000004,1.76849375,1.0,2726.9876954761735,0.32943448313985263,1.3195395563760948,0.9584190565460007,0.2873297375,0.6744083925732416
0.036000000000000004,1.7676,1.0,2729.018466339535,0.3331958225959729,1.3191174633400282,0.9592672380862001,0.2872922,0.6752679993349036
0.0365,1.76669375,1.0,2730.748572713421,0.33693606348969246,1.3186924642378262,0.9600840312845101,0.2872541375,0.6761323763967535
0.037,1.765775,1.0,2732.1992770726515,0.3406553261852755,1.3182643632939215,0.9608709590994771,0.28721555,0.6770018975035548
0.0375,1.76484375,1.0,2733.381481231322,0.34435371862781966,1.3178330594597696,0.9616294586056876,0.2871764375,0.6778767420741154
0.038,1.7639,1.0,2734.321535986451,0.34803137406559986,1.317398311842923,0.9623608724740822,0.28713679999999997,0.6787573712986688
0.0385,1.76294375,1.0,2735.0309566798123,0.3516884057119259,1.3169600147438592,0.9630664723453279,0.28709663750000003,0.6796439701963413
0.039,1.761975,1.0,2735.5211032941893,0.3553249265186167,1.3165180642028638,0.9637474553853012,0.28705595,0.6805367188560963
0.0395,1.7609937500000001,1.0,2735.8033672438382,0.35894104943749094,1.3160723562602235,0.9644049493450624,0.2870147375,0.6814357959442296
0.04,1.76,1.0,2735.8891669034656,0.36253688742036755,1.3156227869562243,0.9650400173242002,0.286973,0.6823413786798019
0.0405,1.7589937500000001,1.0,2735.789943376794,0.36611255341906523,1.3151692523311527,0.9656536621586239,0.2869307375,0.6832536428093821
0.041,1.757975,1.0,2735.5171565047126,0.36966816038540284,1.3147116484252948,0.9662468304660605,0.28688795,0.6841727625811023
0.0415,1.75694375,1.0,2735.082281113286,0.37320382127119917,1.3142498712789368,0.9668204163792602,0.2868446375,0.6850989107180219
0.042,1.7559,1.0,2734.4968035012125,0.37671964902827304,1.313783816932365,0.9673752649940055,0.28680079999999997,0.6860322583908037
0.0425,1.75484375,1.0,2733.772218167075,0.3802157566084432,1.3133133814258657,0.9679121755564246,0.2867564375,0.6869729751897002
0.043000000000000003,1.753775,1.0,2732.9113706604644,0.38369224030499877,1.312838539413189,0.9684319081583387,0.28671155,0.6879210722507099
0.043500000000000004,1.75269375,1.0,2731.9314595524966,0.38714922795199713,1.3123591352204729,0.9689351770412263,0.28666613750000003,0.6888768196566274
0.044,1.7516,1.0,2730.843515444265,0.3905868353926716,1.311875069191029,0.96942266144085,0.2866202,0.6898403737789887
0.0445,1.75049375,1.0,2729.6530987288247,0.3940051675151511,1.311386291372071,0.9698950074878857,0.2865737375,0.6908117906426903
0.045,1.7493750000000001,1.0,2728.3657710129887,0.3974043292075646,1.3108927518108127,0.9703528280723313,0.28652675,0.6917911252279989
0.0455,1.74824375,1.0,2726.9870941114887,0.40078442535804093,1.3103944005544674,0.9707967048734657,0.2864792375,0.6927784314554619
0.046,1.7471,1.0,2725.522629096286,0.40414556085470904,1.3098911876502495,0.971227190246897,0.2864312,0.6937737621706566
0.0465,1.7459437500000001,1.0,2723.9779354010197,0.4074878405856978,1.3093830631453725,0.971644808980025,0.28638263750000004,0.6947771691287834
0.047,1.744775,1.0,2722.358569980967,0.41081136943913615,1.3088699770870498,0.9720500599262775,0.28633355,0.6957887029790988
0.0475,1.74359375,1.0,2720.6700865283974,0.41411625230315297,1.3083518795224958,0.9724434175275463,0.28628393750000003,0.6968084132491845
0.048,1.7424,1.0,2718.918034742761,0.4174025940658772,1.3078287204989238,0.9728253332334592,0.2862338,0.697836348329067
0.0485,1.74119375,1.0,2717.1079596570826,0.4206704996154377,1.3073004500635477,0.9731962368253707,0.2861831375,0.6988725554551691
0.049,1.739975,1.0,2715.245401018599,0.4239200738399634,1.3067670182635813,0.9735565376522914,0.28613195,0.6999170806941057
0.0495,1.73874375,1.0,2713.33589272564,0.42715142162758324,1.3062283751462382,0.9739066257853667,0.2860802375,0.7009699689263227
0.05,1.7375,1.0,2711.381973031976,0.43036464062979574,1.3056844980208495,0.9742468740839599,0.286028,0.7020312106815729
0.0505,1.73624375,1.0,2709.3840352714897,0.4335598254127124,1.3051353837434325,0.974577639138665,0.2859752375,0.7031007576139929
0.051000000000000004,1.734975,1.0,2707.3553121853633,0.43673710077650474,1.3045809119937044,0.9748992569471561,0.28592195,0.7041787884218218
0.051500000000000004,1.73369375,1.0,2705.2978687974646,0.4398965631937149,1.304021064241027,0.9752120516744723,0.2858681375,0.7052652821994685
0.052000000000000005,1.7324,1.0,2703.2137675498802,0.4430383091368848,1.3034558219547625,0.9755163329310509,0.2858138,0.7063602172249983
0.0525,1.73109375,1.0,2701.105068196138,0.44616243507855646,1.302885166604273,0.9758123965502725,0.28575893750000003,0.7074635709537687
0.053,1.729775,1.0,2698.9738277020424,0.4492690374912719,1.30230907965892,0.9761005253179685,0.28570355000000003,0.7085753200120432
0.0535,1.72844375,1.0,2696.8221001541233,0.45235821284757316,1.3017275425880663,0.97638098965724,0.2856476375,0.7096954401905824
0.054,1.7271,1.0,2694.6519366757657,0.4554300576200022,1.3011405368610736,0.9766540482716828,0.2855912,0.7108239064382156
0.0545,1.7257437500000001,1.0,2692.4653853507516,0.45848466828110107,1.3005480439473036,0.9769199487498829,0.2855342375,0.711960692855388
0.055,1.724375,1.0,2690.264491154552,0.46152214130341174,1.2999500453161188,0.9771789281338087,0.28547675,0.7131057726876859
0.0555,1.72299375,1.0,2688.0512958934905,0.4645425731594762,1.299346522436881,0.9774312134535506,0.2854187375,0.7142591183193429
0.056,1.7216,1.0,2685.8278381507994,0.46754606032183654,1.2987374567789525,0.977677022230654,0.2853602,0.7154207012667204
0.0565,1.72019375,1.0,2683.596153241175,0.4705326992630347,1.298122829811695,0.9779165629521396,0.28530113749999997,0.7165904921717704
0.057,1.718775,1.0,2681.3582731724896,0.47350258645561266,1.2975026230044706,0.9781500355171369,0.28524155,0.7177684607954714
0.0575,1.71734375,1.0,2679.1162502748607,0.4764558160619979,1.2968768176095666,0.978377631441281,0.2851814375,0.7189545764222453
0.058,1.7159,1.0,2676.873422057409,0.47939245941180625,1.2962453830519982,0.9785995318314444,0.2851208,0.7201488297843586
0.0585,1.71444375,1.0,2674.631418760529,0.4823126454214721,1.2956083043823823,0.9788159163663469,0.2850596375,0.7213511810592246
0.059000000000000004,1.7129750000000001,1.0,2672.390914073452,0.48521646233534704,1.2949655754133726,0.9790269545499323,0.28499795,0.7225615730901084
0.059500000000000004,1.71149375,1.0,2670.1525805565384,0.48810399839778257,1.2943171899576222,0.9792328091975336,0.2849357375,0.7237799480084468
0.06,1.71,1.0,2667.917089642053,0.49097534185313013,1.2936631418277846,0.9794336367500319,0.284873,0.725006247231615
0.0605,1.7084937500000001,1.0,2665.685111636497,0.4938305809457413,1.2930034248365134,0.9796295875708948,0.2848097375,0.726240411460694
0.061,1.7069750000000001,1.0,2663.4573157231794,0.4966698039199675,1.2923380327964622,0.9798208062271607,0.28474595,0.7274823806782353
0.0615,1.7054437500000001,1.0,2661.2343699659223,0.49949309902016037,1.2916669595202839,0.980007431755345,0.2846816375,0.7287320941460239
0.062,1.7039,1.0,2659.0169413139092,0.5023005544906713,1.2909901988206323,0.9801895979131904,0.2846168,0.7299894904028346
0.0625,1.70234375,1.0,2656.8056956064775,0.5050922585758519,1.2903077445101607,0.9803674334181128,0.2845514375,0.7312545072621914
0.063,1.7007750000000001,1.0,2654.6012975798876,0.5078682995200536,1.2896195904015229,0.9805410621731409,0.28448555,0.7325270818101216
0.0635,1.69919375,1.0,2652.4044108741386,0.5106287655676279,1.2889257303073718,0.9807106034810925,0.28441913750000003,0.7338071504029078
0.064,1.6976,1.0,2650.2156980407876,0.5133737449629264,1.288226158040361,0.9808761722476833,0.2843522,0.7350946486648371
0.0645,1.69599375,1.0,2648.035820551948,0.5161033259503006,1.2875208674131442,0.9810378791742153,0.2842847375,0.7363895114859476
0.065,1.694375,1.0,2645.8654388099008,0.5188175967741019,1.2868098522383744,0.9811958309404519,0.28421675,0.7376916730197762
0.0655,1.69274375,1.0,2643.7052121572456,0.5215166456786818,1.2860931063287055,0.9813501303782484,0.2841482375,0.7390010666810969
0.066,1.6911,1.0,2641.5398217443962,0.5242005583375687,1.2853707711209015,0.9815008837154567,0.2840792,0.7403173564727745
0.0665,1.6894437500000001,1.0,2639.406882599874,0.5268694172579715,1.2846424989897065,0.9816481693709301,0.2840096375,0.7416410962018334
0.067,1.6877795733340062,1.0,2637.5004383515347,0.5295233061285904,1.2839085606438838,0.981792092926645,0.28393974208002826,0.7429717129882594
0.0675,1.686115266011414,1.0,2636.159500738735,0.5321623084651335,1.2831693389302061,0.981932761733936,0.2838698411724794,0.7443084358731826
0.068,1.684450958688822,1.0,2635.3486310711614,0.5347865077833086,1.282425216695446,0.9820702795376577,0.2837999402649305,0.7456505005565383
0.0685,1.6827866513662302,1.0,2635.027889384823,0.5373959872229654,1.2816765611662835,0.9822047458682674,0.28373003935738167,0.7469971775814317
0.069,1.681122344043638,1.0,2635.1531601823854,0.5399908299521547,1.2809237796218447,0.9823362588664563,0.2836601384498328,0.7483476723309224
0.0695,1.679458036721046,1.0,2635.686991512504,0.5425711180860876,1.2801672187846227,0.9824649105845589,0.28359023754228396,0.7497013058625299
0.07,1.6777937293984542,1.0,2636.598681615116,0.5451369326511323,1.279407163743174,0.9825907871678838,0.2835203366347351,0.7510575154623569
0.07050000000000001,1.676129422075862,1.0,2637.857593218422,0.547688354673657,1.2786438995860563,0.9827139719910305,0.2834504357271862,0.752415743697308
0.07100000000000001,1.67446511475327,1.0,2639.433132353596,0.5502254651800296,1.277877711401826,0.982834545773345,0.2833805348196373,0.7537754384760316
0.07150000000000001,1.6728008074306782,1.0,2641.29886809456,0.5527483442820834,1.2771088460329425,0.98295258488937,0.2833106339120885,0.7551361206960809
0.07200000000000001,1.6711365001080862,1.0,2643.4272096994396,0.555257072774516,1.2763375611544066,0.9830681638503757,0.2832407330045396,0.7564972968598043
0.0725,1.669472192785494,1.0,2645.798541436566,0.5577517292707809,1.275564040785171,0.9831813514092285,0.28317083209699073,0.7578586078639944
0.073,1.6678078854629022,1.0,2648.3932552121537,0.560232392382106,1.274788468868194,0.9832922141824989,0.2831009311894419,0.7592196982687294
0.0735,1.6661435781403102,1.0,2651.1917336066595,0.5626991407197186,1.2740110293464355,0.9834008167388516,0.283031030281893,0.7605802161878408
0.074,1.664479270817718,1.0,2654.1818962389743,0.5651520491929043,1.2732318365291073,0.9835072183864537,0.28296112937434414,0.761939934652204
0.0745,1.6628149634951261,1.0,2657.3370962044564,0.5675912005961854,1.2724511388545179,0.9836114829715458,0.28289122846679526,0.7632983958446309
