Time [s],Phi [rad],STIM [ ],Fsee [N],Gamma [ ],Lcerel [ ],q [ ],Lmtc [m],fisomrel [ ]
0.0,1.8,1.0,17.967055563577567,1.4620164179952025e-05,1.3793397577148172,0.005000056797461429,0.288653,0.5411395032425503
0.0005,1.79999375,1.0,18.277953958822376,0.0056237474654171685,1.3793022534050803,0.01295334625762272,0.2886527375,0.541230231383381
0.001,1.799975,1.0,21.62302253578949,0.011201411997393499,1.3789378281315432,0.03563265832135345,0.28865195,0.5421113597287915
0.0015,1.79994375,1.0,31.081095725324854,0.01674779024223392,1.3780451934178701,0.0706346693050782,0.2886506375,0.5442660450690215
0.002,1.7999,1.0,53.608572841670046,0.02226305769040357,1.3763664331464398,0.1147568769677129,0.2886488,0.5483045535734262
0.0025,1.79984375,1.0,97.16335242335087,0.02774738884830562,1.3739330272621086,0.16461714714786901,0.28864643749999996,0.5541265660797038
0.003,1.7997750000000001,1.0,161.01633283404698,0.03320095724595451,1.3712121667437023,0.21732404582169992,0.28864354999999997,0.5605916047877736
0.0035,1.79969375,1.0,237.74925845556388,0.03862393543660126,1.368582703650647,0.27065624569298286,0.2886401375,0.5667946127856482
0.004,1.7996,1.0,321.537058011067,0.044016495007507164,1.3661542308724293,0.32295778366355116,0.2886362,0.5724843087188132
0.0045000000000000005,1.7994937500000001,1.0,409.3406577238645,0.049378806585130657,1.3639211028391378,0.37307436005318234,0.2886317375,0.5776831342740615
0.005,1.799375,1.0,499.4879791185246,0.054711039826227256,1.3618567598192903,0.42028474646430797,0.28862675,0.5824607314192743
0.0055,1.79924375,1.0,590.8656372627942,0.06001336346512855,1.3599373654659448,0.4642082196446707,0.2886212375,0.5868784851448818
0.006,1.7991000000000001,1.0,682.5934896906087,0.06528594525737548,1.358145044552705,0.504711687656254,0.2886152,0.5909825480304239
0.006500000000000001,1.79894375,1.0,773.9587063001378,0.0705289520358402,1.356465931554682,0.5418297422418145,0.2886086375,0.5948087998751681
0.007,1.798775,1.0,864.3631439966691,0.07574254968857452,1.3548891458519046,0.5757031855111574,0.28860155,0.5983855043255919
0.0075,1.79859375,1.0,953.3183112073481,0.08092690318662486,1.3534056241629315,0.6065339410458382,0.2885939375,0.6017361760523239
0.008,1.7984,1.0,1040.4305653680685,0.08608217654903814,1.3520075846770938,0.6345539023373779,0.2885858,0.6048809321741029
0.0085,1.79819375,1.0,1125.3916624762178,0.09120853291611204,1.3506881453229886,0.6600042239244553,0.2885771375,0.6078374513071505
0.009000000000000001,1.797975,1.0,1207.9563103499172,0.09630613445036795,1.349441268112922,0.6831223235768537,0.28856795,0.6106211739146461
0.0095,1.79774375,1.0,1287.9453097553492,0.10137514255558586,1.3482614211022712,0.7041339774454974,0.2885582375,0.613246117894855
0.01,1.7975,1.0,1365.219575010982,0.10641571714948458,1.3471437101879349,0.7232492424011739,0.288548,0.6157246316229434
0.0105,1.79724375,1.0,1439.7083054293746,0.1114280181020653,1.3460833355451147,0.7406603603976226,0.2885372375,0.6180686379399476
0.011,1.796975,1.0,1511.381451380404,0.1164122050141758,1.345075830042185,0.7565415677492008,0.28852595000000003,0.6202891311246717
0.0115,1.79669375,1.0,1580.1872407516832,0.12136843433063997,1.3441176918679576,0.7710499377289874,0.2885141375,0.6223948155085122
0.012,1.7964,1.0,1646.1207241136506,0.1262968624962816,1.343205419211243,0.7843259686096307,0.28850180000000003,0.6243942609184787
0.0125,1.79609375,1.0,1709.2194855562282,0.13119764594429742,1.3423355120287401,0.7964949272398135,0.2884889375,0.6262959094515954
0.013000000000000001,1.7957750000000001,1.0,1769.5375379235995,0.1360709399761984,1.341504722976507,0.8076683755919349,0.28847555,0.6281075388543982
0.0135,1.79544375,1.0,1827.127578027072,0.1409168992491622,1.3407101945749207,0.8179456190995256,0.2884616375,0.6298359799512745
0.014,1.7951000000000001,1.0,1882.0347357601552,0.14573567624959982,1.339949464951415,0.8274150209665055,0.2884472,0.6314871214261693
0.0145,1.79474375,1.0,1934.3281533806778,0.15052742346392223,1.3392200722334229,0.8361550844688721,0.2884322375,0.6330667812307122
0.015,1.794375,1.0,1984.0762644996914,0.15529229202118677,1.3385197958674115,0.8442356708585553,0.28841675,0.6345801907075448
0.0155,1.79399375,1.0,2031.3928232232595,0.16003043493650787,1.3378461369413077,0.8517188389935256,0.2884007375,0.6360331242150357
0.016,1.7936,1.0,2076.341376150054,0.16474200084214138,1.3371973116310285,0.8586600792157066,0.2883842,0.637429760933696
0.0165,1.7931937500000001,1.0,2118.9931357856217,0.169427137981472,1.3365716002014143,0.8651088837707113,0.2883671375,0.6387741005671536
0.017,1.792775,1.0,2159.4317867498658,0.17408599459788437,1.3359672829173057,0.871109438322133,0.28834955,0.6400701046210557
0.0175,1.7923437500000001,1.0,2197.747784120499,0.178718718417968,1.3353826870241052,0.8767012619142907,0.2883314375,0.6413215983561578
0.018000000000000002,1.7919,1.0,2234.03238662604,0.18332545677927203,1.3348162347519101,0.881919768258064,0.2883128,0.6425321713856946
0.0185,1.79144375,1.0,2268.370227430785,0.18790635599290953,1.3342665047087194,0.8867967591036399,0.2882936375,0.6437050504777284
0.019,1.790975,1.0,2300.8303691402184,0.1924615597550896,1.3337323069306923,0.8913608577474684,0.28827395,0.6448429442306064
0.0195,1.79049375,1.0,2331.488375800748,0.1969912117620214,1.333212451453988,0.8956378165074859,0.2882537375,0.6459485401658918
0.02,1.79,1.0,2360.4257698674182,0.201495455709914,1.332705748314766,0.8996508427381056,0.288233,0.647024505861963
0.0205,1.78949375,1.0,2387.714880952769,0.20597443328574788,1.3322111498230358,0.903420915499129,0.2882117375,0.64807318856268
0.021,1.788975,1.0,2413.449067429999,0.2104282893002269,1.331727449980426,0.9069669689518247,0.28818995000000003,0.6490972542394262
0.021500000000000002,1.78844375,1.0,2437.6913950205353,0.21485716358242696,1.331253778202001,0.9103062176901252,0.2881676375,0.6500986429429192
0.022,1.7879,1.0,2460.501668689379,0.21926119497135574,1.3307893286361,0.9134542865934181,0.2881448,0.6510791456010145
0.0225,1.78734375,1.0,2481.942782520385,0.22364052230602083,1.3303332954310625,0.9164253679049783,0.28812143749999997,0.6520405418675204
0.023,1.786775,1.0,2502.0804612809798,0.22799528442542985,1.329884872735227,0.9192323724238052,0.28809755,0.6529846005754563
0.0235,1.78619375,1.0,2520.977995310453,0.2323256192133125,1.3294433021866128,0.9218870713566913,0.28807313749999996,0.6539129803711101
0.024,1.7856,1.0,2538.697485964224,0.23663166426255258,1.329007858179725,0.9244002107826238,0.2880482,0.654827261658131
0.0245,1.78499375,1.0,2555.3082038375146,0.24091355816872767,1.3285777668983043,0.9267816016164518,0.2880227375,0.6557291170284554
0.025,1.784375,1.0,2570.855576530872,0.2451714345055081,1.328152495783203,0.9290402604127073,0.28799675,0.6566197050741549
0.025500000000000002,1.78374375,1.0,2585.386474265427,0.24940542684656422,1.327731512275273,0.9311844482698811,0.2879702375,0.6575001781306203
0.026000000000000002,1.7831000000000001,1.0,2598.9490894560836,0.25361566876556635,1.3273142838153669,0.9332217443852764,0.2879432,0.6583716824312291
0.0265,1.78244375,1.0,2611.592822572843,0.2578022938361848,1.3269002778443364,0.935159111551313,0.2879156375,0.6592353582439275
0.027,1.781775,1.0,2623.366114121981,0.26196543496202773,1.3264889809042377,0.9370029572316666,0.28788755,0.6600923002171948
0.0275,1.7810937500000001,1.0,2634.311242817789,0.2661052230741668,1.326079945629166,0.9387591919591382,0.2878589375,0.6609434600079085
0.028,1.7804,1.0,2644.4833246541048,0.27022179345084296,1.3256726138094286,0.9404332513952941,0.2878298,0.6617900147147155
0.0285,1.77969375,1.0,2653.9161724796672,0.2743152741611007,1.3252666313864665,0.9420301806770917,0.2878001375,0.6626327120743002
0.029,1.778975,1.0,2662.6442090944265,0.2783857932739842,1.3248616443017214,0.9435546428920796,0.28776995,0.6634722961147381
0.029500000000000002,1.7782437500000001,1.0,2670.7024137318535,0.2824334788585381,1.3244572984966347,0.945010952942133,0.2877392375,0.6643095071819696
0.03,1.7775,1.0,2678.126271320522,0.2864584589838065,1.3240532399126481,0.9464031080010968,0.287708,0.6651450819582772
0.0305,1.77674375,1.0,2684.951724525282,0.290460861718834,1.3236491144912033,0.9477348149460086,0.2876762375,0.6659797534727678
0.031,1.775975,1.0,2691.206760882911,0.2944408116435128,1.323244644771987,0.9490095237405037,0.28764395,0.6668140931958927
0.0315,1.7751937500000001,1.0,2696.9254665776334,0.2983984375227316,1.3228395005859181,0.9502304351514916,0.2876111375,0.6676487782571268
0.032,1.7744,1.0,2702.146594069008,0.3023338689551416,1.3224333121047334,0.9514005220795511,0.2875778,0.6684845639195524
0.0325,1.77359375,1.0,2706.8923951948573,0.3062472277848131,1.3220258628947508,0.9525225688982408,0.2875439375,0.6693218865653419
0.033,1.772775,1.0,2711.1853371498023,0.31013863585581636,1.3216169365222874,0.9535991707134992,0.28750955,0.6701611802998053
0.0335,1.7719437500000002,1.0,2715.0480819651584,0.31400821501222165,1.321206316553661,0.9546327485044478,0.2874746375,0.6710028769324916
0.034,1.7711000000000001,1.0,2718.5034670273126,0.31785608709809926,1.320793786555189,0.95562556288134,0.2874392,0.6718474059553055
0.0345,1.7702437500000001,1.0,2721.5744866348673,0.32168237395751936,1.3203791300931893,0.9565797266015638,0.2874032375,0.672695194517638
0.035,1.7693750000000001,1.0,2724.284274594401,0.3254871974345523,1.319962130733979,0.9574972159688895,0.28736675,0.673546667398508
0.035500000000000004,1.76849375,1.0,2726.656087854529,0.32927067937326826,1.3195425720438758,0.9583798812272839,0.2873297375,0.6744022469757157
0.036000000000000004,1.7676,1.0,2728.7042072348286,0.33303293490850006,1.3191203201707864,0.959229463030608,0.2872922,0.6752621851214757
0.0365,1.76669375,1.0,2730.457002928079,0.3367740914307391,1.318695113961773,0.9600475835187925,0.2872541375,0.6761269908701928
0.037,1.765775,1.0,2731.931103052378,0.3404942667761176,1.318266799749804,0.9608357736831141,0.28721555,0.6769969520950833
0.0375,1.76484375,1.0,2733.1400222850552,0.3441935762643278,1.3178352527199133,0.9615954737472356,0.2871764375,0.6778722963280257
0.038,1.7639,1.0,2734.0973275373244,0.34787213521506205,1.3174003480571348,0.9623280374232344,0.28713679999999997,0.6787532495319186
0.0385,1.76294375,1.0,2734.8166314516516,0.35153005894801265,1.3169619609465024,0.963034738055187,0.28709663750000003,0.6796400360744512
0.039,1.761975,1.0,2735.311586243571,0.355167462782872,1.3165199665730503,0.9637167742620882,0.28705595,0.6805328787008774
0.0395,1.7609937500000001,1.0,2735.5958778899885,0.3587844620393324,1.3160742401218122,0.9643752751258712,0.2870147375,0.6814319985058005
0.04,1.76,1.0,2735.683220661944,0.36238117203708614,1.3156246567778225,0.9650113049656839,0.286973,0.6823376149039597
0.0405,1.7589937500000001,1.0,2735.5873520033615,0.36595770809582556,1.3151710917261148,0.9656258677354709,0.2869307375,0.6832499456000285
0.041,1.757975,1.0,2735.31157601455,0.36951417178546675,1.314713515053026,0.9662199168849093,0.28688795,0.6841690160808953
0.0415,1.75694375,1.0,2734.881015885389,0.3730506945125548,1.3142516988695516,0.9667943412434794,0.2868446375,0.6850952479515326
0.042,1.7559,1.0,2734.3050351528127,0.3765673868523134,1.3137855584713884,0.9673499893510332,0.28680079999999997,0.686028773261476
0.0425,1.75484375,1.0,2733.5911830962755,0.38006435694949364,1.3133150257071802,0.9678876646670849,0.2867564375,0.6869696896240722
0.043000000000000003,1.753775,1.0,2732.7470159046984,0.38354171294884676,1.3128400324255705,0.9684081275170094,0.28671155,0.6879180934692859
0.043500000000000004,1.75269375,1.0,2731.780094835491,0.3869995629951239,1.3123605104752032,0.9689120978381619,0.28666613750000003,0.6888740800244595
0.044,1.7516,1.0,2730.6979844755256,0.39043801523307614,1.3118763917047218,0.9694002577246591,0.2866202,0.6898377432947798
0.0445,1.75049375,1.0,2729.50825110608,0.3938571778074548,1.31138760796277,0.9698732537874424,0.2865737375,0.6908091760434447
0.045,1.7493750000000001,1.0,2728.218461169804,0.3972571588630109,1.3108940910979916,0.9703316993447227,0.28652675,0.6917884697715361
0.0455,1.74824375,1.0,2726.8361798413516,0.40063806654449563,1.3103957729590299,0.9707761764565367,0.2864792375,0.6927757146975969
0.046,1.7471,1.0,2725.368969700832,0.4040000089966602,1.3098925853945287,0.9712072378159169,0.2864312,0.6937709997369093
0.0465,1.7459437500000001,1.0,2723.824389509936,0.4073430943642558,1.309384460253132,0.9716254085080664,0.28638263750000004,0.6947744124804791
0.047,1.744775,1.0,2722.2059948166343,0.41066742158628916,1.3088713657749331,0.9720311890715928,0.28633355,0.6957859674882891
0.0475,1.74359375,1.0,2720.519920533944,0.41397310021764444,1.3083532467066825,0.9724250552537812,0.28628393750000003,0.6968057246347188
0.048,1.7424,1.0,2718.7757341006204,0.417260246274725,1.307830016489557,0.9728074583222707,0.2862338,0.6978338040434917
0.0485,1.74119375,1.0,2716.976911152368,0.42052896020278097,1.3073016439725789,0.9731788297700632,0.2861831375,0.6988702155986939
0.049,1.739975,1.0,2715.1269245511685,0.4237793424470622,1.3067680980047702,0.9735395805839193,0.28613195,0.6999149682606367
0.0495,1.73874375,1.0,2713.2292440495135,0.42701149345281886,1.3062293474351534,0.9738901024029223,0.2860802375,0.7009680700556127
0.05,1.7375,1.0,2711.287335975106,0.43022551366530093,1.3056853611127506,0.9742307686014265,0.286028,0.7020295280655844
0.0505,1.73624375,1.0,2709.304662937243,0.4334215035297584,1.305136107886584,0.9745619353019659,0.2859752375,0.7030993484178156
0.051000000000000004,1.734975,1.0,2707.28468355497,0.4365995634914413,1.3045815566056762,0.974883942323238,0.28592195,0.7041775362744365
0.051500000000000004,1.73369375,1.0,2705.230852206592,0.43975979399559967,1.304021676119049,0.9751971140678632,0.2858681375,0.7052640958219516
0.052000000000000005,1.7324,1.0,2703.146618800434,0.44290229548748355,1.303456435275725,0.9755017603542435,0.2858138,0.7063590302606816
0.0525,1.73109375,1.0,2701.035428567806,0.44602716841234286,1.302885802924726,0.9757981771964982,0.28575893750000003,0.7074623417941454
0.053,1.729775,1.0,2698.900721876628,0.4491345132154278,1.302309747915075,0.9760866475361403,0.28570355000000003,0.7085740316183797
0.0535,1.72844375,1.0,2696.74593406726,0.4522244303419882,1.3017282390957936,0.9763674419288689,0.2856476375,0.7096940999111978
0.054,1.7271,1.0,2694.571418914665,0.4552969949192016,1.3011412734598182,0.9766408183831,0.2855912,0.7108224917697672
0.0545,1.7257437500000001,1.0,2692.3839388180195,0.45835233485851873,1.3005487893452619,0.9769070255056036,0.2855342375,0.7119592641042647
0.055,1.724375,1.0,2690.1855516540854,0.46139054845266286,1.2999507680650335,0.9771663009410121,0.28547675,0.7131043901058561
0.0555,1.72299375,1.0,2687.977521913281,0.4644117280018537,1.2993471981693647,0.9774188721503434,0.2854187375,0.714257828278543
0.056,1.7216,1.0,2685.7611120997653,0.4674159658063111,1.2987380682084875,0.9776649570761955,0.2853602,0.7154195363618019
0.0565,1.72019375,1.0,2683.537582708519,0.4704033541662548,1.2981233667326342,0.9779047646169072,0.28530113749999997,0.7165894713265284
0.057,1.718775,1.0,2681.308192205548,0.47337398538190445,1.2975030822920364,0.9781384950733627,0.28524155,0.7177675893709752
0.0575,1.71734375,1.0,2679.0741970100585,0.47632795175347986,1.2968772034369263,0.9783663405702139,0.2851814375,0.7189538459166771
0.058,1.7159,1.0,2676.8368514805425,0.4792653455812009,1.2962457187175354,0.9785884854531901,0.2851208,0.7201481956043716
0.0585,1.71444375,1.0,2674.5974079031885,0.4821862591652871,1.295608616684096,0.9788051066640253,0.2850596375,0.7213505922899079
0.059000000000000004,1.7129750000000001,1.0,2672.3571164833547,0.4850907848059584,1.2949658858868403,0.9790163740944341,0.28499795,0.7225609890401516
0.059500000000000004,1.71149375,1.0,2670.1172253401523,0.48797901480343453,1.2943175148759998,0.9792224509204599,0.2849357375,0.7237793381288764
0.06,1.71,1.0,2667.87898050331,0.4908510414579351,1.2936634922018067,0.9794234939184322,0.284873,0.7250055910326514
0.0605,1.7084937500000001,1.0,2665.643625913862,0.4937069570696801,1.2930038064144929,0.9796196537636754,0.2848097375,0.7262396984267168
0.061,1.7069750000000001,1.0,2663.41240342699,0.49654685393888914,1.2923384460642902,0.9798110753130376,0.28474595,0.727481610180855
0.0615,1.7054437500000001,1.0,2661.1865528178396,0.49937082436578195,1.2916673997014305,0.9799978978722327,0.2846816375,0.7287312753552486
0.062,1.7039,1.0,2658.9661627671726,0.5021789144515899,1.2909906664579562,0.980180252443444,0.2846168,0.7299886225585283
0.0625,1.70234375,1.0,2656.753764354968,0.504971265677187,1.2903082229621807,0.980358271230694,0.2845514375,0.7312536214302958
0.063,1.7007750000000001,1.0,2654.549955876013,0.507747973133293,1.289620063618268,0.9805320788509553,0.28448555,0.7325262077479286
0.0635,1.69919375,1.0,2652.3549863994554,0.5105091199923619,1.288926186041542,0.980701794568417,0.28441913750000003,0.7338063106488785
0.064,1.6976,1.0,2650.1691046009555,0.5132547894268473,1.2882265878473267,0.9808675332589534,0.2843522,0.735093858602957
0.0645,1.69599375,1.0,2647.992558767225,0.5159850646092029,1.2875212666509463,0.9810294056020648,0.2842847375,0.736388779411465
0.065,1.694375,1.0,2645.8255967995665,0.5187000287118824,1.2868102200677247,0.9811875182630652,0.28421675,0.7376910002063244
0.0655,1.69274375,1.0,2643.6684662183056,0.5213997649073394,1.2860934457129858,0.9813419740660773,0.2841482375,0.7390004474492056
0.066,1.6911,1.0,2641.521414166938,0.524084356368028,1.285370941202054,0.9814928721583611,0.2840792,0.7403170469306564
0.0665,1.6894437500000001,1.0,2639.384687416947,0.5267538862664014,1.2846427041502528,0.9816403081664686,0.2840096375,0.7416407237692335
0.067,1.687775,1.0,2637.2585323716467,0.5294084377749138,1.2839087321729066,0.9817843743446864,0.28393955,0.7429714024106275
0.0675,1.68609375,1.0,2635.143195071614,0.5320480940660185,1.2831690228853392,0.9819251597161981,0.2838689375,0.744309006626793
0.068,1.6844000000000001,1.0,2633.038921199072,0.5346729383121696,1.2824235739028749,0.9820627502073711,0.2837978,0.7456534595150746
0.0685,1.68269375,1.0,2630.9459560828586,0.5372830536858204,1.2816723828408372,0.9821972287755493,0.2837261375,0.747004683497337
0.069,1.680975,1.0,2628.864544703653,0.539878523359425,1.2809154473145505,0.9823286755307069,0.28365395,0.748362600319088
0.0695,1.67924375,1.0,2626.7949316989643,0.5424594305054369,1.280152764939339,0.982457167851298,0.28358123749999997,0.7497271310486082
0.07,1.6775,1.0,2624.737361368674,0.5450258582963098,1.2793843333305261,0.9825827804946182,0.283508,0.7510981960760761
0.07050000000000001,1.67574375,1.0,2622.6920776802485,0.5475778899044975,1.2786101501034364,0.9827055857019708,0.2834342375,0.7524757151126934
0.07100000000000001,1.673975,1.0,2620.659324274401,0.5501156085024537,1.2778302128733934,0.9828256532989172,0.28335995,0.7538596071898116
0.07150000000000001,1.67219375,1.0,2618.639344470752,0.5526390972626322,1.2770445192557216,0.9829430507908713,0.2832851375,0.7552497906580552
0.07200000000000001,1.6704,1.0,2616.633619846995,0.5551484365112064,1.2762530553673388,0.9830578427626787,0.2832098,0.7566462034445474
0.0725,1.66859375,1.0,2614.6385061253354,0.5576437020139061,1.275455854909239,0.9831700935528789,0.2831339375,0.7580486989675392
0.073,1.6667750000000001,1.0,2612.6530864986526,0.5601249719083228,1.27465292629452,0.9832798644262962,0.28305755,0.7594571749931662
0.0735,1.66494375,1.0,2610.6782041815995,0.5625923237893161,1.2738442615915757,0.9833872139097937,0.2829806375,0.7608715573768006
0.074,1.6631,1.0,2608.714701150075,0.565045835251746,1.2730298528687987,0.9834921986454878,0.2829032,0.7622917711812569
0.0745,1.6612437500000001,1.0,2606.763418157461,0.5674855838904721,1.2722096921945827,0.9835948734619769,0.2828252375,0.7637177406738858
0.075,1.659375,1.0,2604.8251947533463,0.5699116473003544,1.2713837716373204,0.9836952914424196,0.28274675,0.7651493893236694
0.0755,1.65749375,1.0,2602.9016898909267,0.5723241018748036,1.2705520756273285,0.9837935035901,0.2826677375,0.766586652977501
