Time [s],Phi [rad],STIM [ ],Fsee [N],Gamma [ ],Lcerel [ ],q [ ],Lmtc [m],fisomrel [ ]
0.0,1.8,1.0,17.967330402390335,1.0014486859392834e-05,1.3793397269237087,0.0050000267287420045,0.288653,0.5411395777342033
0.0005,1.79999375,1.0,18.276651273582093,0.005619167622302288,1.3793023981058428,0.012940554386202369,0.2886527375,0.541229881349352
0.001,1.799975,1.0,21.618271860593786,0.011196857843577684,1.3789383133176676,0.03560865267301787,0.28865195,0.5421101871809988
0.0015,1.79994375,1.0,31.06905654499265,0.01674326163361797,1.3780462190183118,0.07060180947482529,0.2886506375,0.5442635723404293
0.002,1.7999,1.0,53.58198847901652,0.022258554483705353,1.376368157595458,0.11471796023109393,0.2886488,0.5483004143756393
0.0025,1.79984375,1.0,97.11822190967891,0.027742910901033462,1.3739352017492732,0.16457480839170222,0.28864643749999996,0.5541213803977372
0.003,1.7997750000000001,1.0,160.95735514271172,0.033196504416426506,1.371214374138196,0.21728036605878928,0.28864354999999997,0.5605863789323582
0.0035,1.79969375,1.0,237.6824775769229,0.03861950758392915,1.3685847605375911,0.2706128002543027,0.2886401375,0.5667897777405824
0.004,1.7996,1.0,321.46592195684195,0.04401209199158923,1.3661561148930672,0.32291571573586525,0.2886362,0.5724799092041294
0.0045000000000000005,1.7994937500000001,1.0,409.2669346707751,0.04937442826664204,1.3639228333239997,0.3730344259287691,0.2886317375,0.577679117938241
0.005,1.799375,1.0,499.4127123942058,0.05470668606659986,1.3618583591719424,0.4202473846891549,0.28862675,0.5824570404891247
0.0055,1.79924375,1.0,590.7896567993996,0.06000903412672464,1.359938849893172,0.4641736283659241,0.2886212375,0.5868750776070812
0.006,1.7991000000000001,1.0,682.5173767968668,0.06528164020316661,1.3581464280446913,0.5046798986249245,0.2886152,0.5909793880064692
0.006500000000000001,1.79894375,1.0,773.8806383292922,0.07052467112858138,1.3564672641930915,0.541800702360523,0.2886086375,0.5948057702764437
0.007,1.798775,1.0,864.2851572866762,0.07573829279572912,1.3548904055592255,0.5756767299682723,0.28860155,0.5983826531951801
0.0075,1.79859375,1.0,953.2426671415279,0.08092267016720607,1.3534067876240916,0.6065098699978994,0.2885939375,0.6017335537666462
0.008,1.7984,1.0,1040.3445573591337,0.0860779668901909,1.3520088509540293,0.634532134288606,0.2885858,0.6048780894452295
0.0085,1.79819375,1.0,1125.3147611118575,0.09120434704322536,1.3506892339447103,0.6599843925092751,0.2885771375,0.6078350165665569
0.009000000000000001,1.797975,1.0,1207.8997943607224,0.09630197254499297,1.3494420403278233,0.6831041636272835,0.28856795,0.6106194529704334
0.0095,1.79774375,1.0,1287.8910493571605,0.10137100395176313,1.3482621391052034,0.704117457472489,0.2885582375,0.6132445231692217
0.01,1.7975,1.0,1365.1659600453675,0.10641160181980527,1.3471443992786853,0.7232342091728887,0.288548,0.6157231060250021
0.0105,1.79724375,1.0,1439.6595762019588,0.11142392606558213,1.346083945423615,0.740646636549602,0.2885372375,0.618067291836812
0.011,1.796975,1.0,1511.322473293932,0.11640813543852047,1.3450765504779238,0.7565291059958822,0.28852595000000003,0.6202875456321968
0.0115,1.79669375,1.0,1580.1205149042155,0.12136438711957667,1.344118489002788,0.7710385938159235,0.2885141375,0.6223930660919583
0.012,1.7964,1.0,1646.0552443578065,0.1262928376972599,1.3432061856331452,0.7843155816281826,0.28850180000000003,0.6243925833646272
0.0125,1.79609375,1.0,1709.1727301719502,0.13119364420365281,1.342336049089054,0.7964853172345631,0.2884889375,0.6262947369071967
0.013000000000000001,1.7957750000000001,1.0,1769.5062951827233,0.13606696142465935,1.341505075679002,0.8076594808318753,0.28847555,0.6281067706807373
0.0135,1.79544375,1.0,1827.0918243988417,0.14091294275306346,1.3407105917895055,0.8179374535216725,0.2884616375,0.6298351168445312
0.014,1.7951000000000001,1.0,1881.9928178019836,0.1457317415816491,1.3399499238070811,0.8274075193846583,0.2884472,0.631486126605739
0.0145,1.79474375,1.0,1934.2807039871343,0.1505235104147711,1.339220584570317,0.8361481798068406,0.2884322375,0.6330656728436623
0.015,1.794375,1.0,1984.0515742470157,0.15528840221107107,1.3385200590972293,0.8442292053600658,0.28841675,0.6345796224132921
0.0155,1.79399375,1.0,2031.372693589364,0.16002656693061898,1.3378463490348145,0.8517128330715704,0.2884007375,0.6360326672316527
0.016,1.7936,1.0,2076.3144178745792,0.16473815378131854,1.337197592582632,0.8586545270975073,0.2883842,0.6374291567489709
0.0165,1.7931937500000001,1.0,2118.961366776817,0.16942331197107344,1.3365719279402424,0.8651037381326042,0.2883671375,0.6387733970745801
0.017,1.792775,1.0,2159.398458391136,0.17408218968250214,1.3359676235083593,0.8711046532602618,0.28834955,0.6400693748537798
0.0175,1.7923437500000001,1.0,2197.7254161249525,0.17871493589741733,1.3353829136067414,0.8766967715564037,0.2883314375,0.6413211137138171
0.018000000000000002,1.7919,1.0,2234.017680060079,0.1833216964349363,1.3348163825111456,0.8819155560720956,0.2883128,0.6425318558742035
0.0185,1.79144375,1.0,2268.3488598635213,0.18790261618773776,1.334266717761159,0.886792837410192,0.2882936375,0.6437045962920336
0.019,1.790975,1.0,2300.8000703662365,0.19245784004850058,1.3337326068963682,0.8913572077214277,0.28827395,0.6448423057849304
0.0195,1.79049375,1.0,2331.4536935249234,0.19698751215680183,1.3332127925526012,0.8956344050615418,0.2882537375,0.6459478153038813
0.02,1.79,1.0,2360.394779274767,0.2014917768503584,1.3327060512316713,0.8996476326483559,0.288233,0.6470238631180757
0.0205,1.78949375,1.0,2387.7037882967866,0.20597077757208207,1.33221125762637,0.9034178568385615,0.2882117375,0.6480729601604133
0.021,1.788975,1.0,2413.4427563510026,0.21042465456394274,1.331727510986378,0.9069640804709559,0.28818995000000003,0.6490971251746891
0.021500000000000002,1.78844375,1.0,2437.6776338276354,0.21485354806791035,1.331253910561377,0.9103035103097069,0.2881676375,0.6500983633220512
0.022,1.7879,1.0,2460.477961383777,0.2192575983259548,1.3307895556010476,0.9134517515601096,0.2881448,0.6510786667897368
0.0225,1.78734375,1.0,2481.9124054023628,0.22363694483412283,1.3303335849916127,0.9164229865671814,0.28812143749999997,0.6520399318449904
0.023,1.786775,1.0,2502.046852290725,0.22799172645187676,1.3298851918108794,0.9192301275715462,0.28809755,0.6529839292853932
0.0235,1.78619375,1.0,2520.956768681857,0.2323220835065273,1.3294435029501253,0.9218849270564594,0.28807313749999996,0.6539125585585166
0.024,1.7856,1.0,2538.6915015763893,0.23662815112542657,1.3290079145826843,0.9243981550744096,0.2880482,0.6548271433097994
0.0245,1.78499375,1.0,2555.302244544611,0.2409100644359267,1.328577822881891,0.9267796519756887,0.2880227375,0.6557289997136375
0.025,1.784375,1.0,2570.8418845210426,0.24516795856537976,1.32815262402108,0.9290384214147694,0.28799675,0.6566194366966829
0.025500000000000002,1.78374375,1.0,2585.3648566822058,0.24940196864113795,1.3277317141735856,0.9311827129218408,0.2879702375,0.6574997561378928
0.026000000000000002,1.7831000000000001,1.0,2598.9219008243135,0.25361222860389043,1.3273145370814186,0.9332201025434173,0.2879432,0.6583711537473746
0.0265,1.78244375,1.0,2611.562307908905,0.257798872265248,1.3269005614040343,0.9351575541729756,0.2879156375,0.6592347670718341
0.027,1.781775,1.0,2623.344559805624,0.2619620349270295,1.3264891807491381,0.9370014625920001,0.28788755,0.6600918840999892
0.0275,1.7810937500000001,1.0,2634.305381399596,0.26610184626483857,1.3260799998613115,0.9387577473066343,0.2878589375,0.660943347227191
0.028,1.7804,1.0,2644.482276884649,0.27021843595427886,1.3256726234851361,0.9404318666770611,0.2878298,0.6617899946183314
0.0285,1.77969375,1.0,2653.913462747215,0.274311933670954,1.3252666563651936,0.9420288598927328,0.2878001375,0.6626326602583134
0.029,1.778975,1.0,2662.6378042134024,0.2783824690904678,1.324861703246065,0.9435533846207498,0.28776995,0.6634721739925562
0.029500000000000002,1.7782437500000001,1.0,2670.6947551603357,0.28243017188842384,1.3244573688723325,0.9450097508205157,0.2877392375,0.6643093615575357
0.03,1.7775,1.0,2678.118512788176,0.28645516895328815,1.3240533111080166,0.9464019572845767,0.287708,0.6651449348212086
0.0305,1.77674375,1.0,2684.948951649674,0.29045759116043457,1.3236491399038346,0.9477337074759409,0.2876762375,0.6659797010188396
0.031,1.775975,1.0,2691.2160976057335,0.2944375646762414,1.3232445593031223,0.9490084500432326,0.28764395,0.6668142693907214
0.0315,1.7751937500000001,1.0,2696.946596093601,0.29839521376684824,1.3228393073705782,0.9502293934486764,0.2876111375,0.6676491760729761
0.032,1.7744,1.0,2702.167384823102,0.302330662698395,1.3224331221709007,0.9513995222830297,0.2875778,0.6684849544870058
0.0325,1.77359375,1.0,2706.905665652209,0.30624403573702114,1.3220257417687882,0.9525216156285483,0.2875439375,0.6693221353260899
0.033,1.772775,1.0,2711.188877982812,0.31013545714886653,1.3216169042289387,0.9535982637043423,0.28750955,0.6701612465376073
0.0335,1.7719437500000002,1.0,2715.0434579158955,0.314005049865479,1.3212063586962537,0.9546318838753581,0.2874746375,0.6710027906029772
0.034,1.7711000000000001,1.0,2718.4910595959786,0.31785293110367996,1.320793899562049,0.9556247369765218,0.2874392,0.6718471747569326
0.0345,1.7702437500000001,1.0,2721.5662093375654,0.3216792361842794,1.3203792054402217,0.9565789279656997,0.2874032375,0.6726950405659828
0.035,1.7693750000000001,1.0,2724.285773229063,0.3254840828835297,1.3199621170989246,0.9574964388992606,0.28736675,0.6735466952218561
0.035500000000000004,1.76849375,1.0,2726.6667249578913,0.3292675889776831,1.3195424753063107,0.9583791253785353,0.2873297375,0.6744024441170784
0.036000000000000004,1.7676,1.0,2728.726134614173,0.33302987224299185,1.3191201208305332,0.95922872606821,0.2872922,0.6752625908198531
0.0365,1.76669375,1.0,2730.481158057101,0.3367710504557082,1.3186948944397443,0.9600468713944583,0.2872541375,0.6761274370473223
0.037,1.765775,1.0,2731.949026842604,0.34049124139208453,1.3182666369020974,0.9608350915019174,0.28721555,0.6769972826372082
0.0375,1.76484375,1.0,2733.1470387144855,0.344190562828373,1.3178351889857454,0.9615948235402156,0.2871764375,0.6778724255178429
0.038,1.7639,1.0,2734.0925486562633,0.347869132540826,1.317400391458841,0.9623274183433469,0.28713679999999997,0.6787531616765767
0.0385,1.76294375,1.0,2734.802960506418,0.3515270683056957,1.3169620850895372,0.9630341465585883,0.28709663750000003,0.6796397851265721
0.039,1.761975,1.0,2735.2926085855584,0.35516448330148725,1.3165201388897407,0.9637162059937849,0.28705595,0.6805325308584798
0.0395,1.7609937500000001,1.0,2735.5721908937994,0.35878148959400225,1.3160744551880996,0.9643747278182317,0.2870147375,0.6814315649794196
0.04,1.76,1.0,2735.6630177381016,0.3623782167655257,1.315624840207458,0.9650107729609335,0.286973,0.6823372456760735
0.0405,1.7589937500000001,1.0,2735.5742641187626,0.3659547749748199,1.3151712105577467,0.9656253483239174,0.2869307375,0.6832497067460603
0.041,1.757975,1.0,2735.315122741281,0.36951127438064707,1.3147134828488967,0.966219404344532,0.28688795,0.6841690807178483
0.0415,1.75694375,1.0,2734.8948010789495,0.37304782514176965,1.3142515736908391,0.9667938387462751,0.2868446375,0.6850954988291809
0.042,1.7559,1.0,2734.322518589505,0.3765645374169498,1.3137853996935052,0.9673495000030653,0.28680079999999997,0.6860290910050613
0.0425,1.75484375,1.0,2733.6075040862747,0.3800615213649499,1.3133148774668255,0.9678871905415727,0.2867564375,0.6869699858352938
0.043000000000000003,1.753775,1.0,2732.758993262492,0.3835388871445322,1.312839923620731,0.9684076697038848,0.28671155,0.6879183105515789
0.043500000000000004,1.75269375,1.0,2731.786226371459,0.38699674491445907,1.3123604547651535,0.9689116564906868,0.28666613750000003,0.6888741910041661
0.044,1.7516,1.0,2730.698446058989,0.3904352048334927,1.3118763875100232,0.9693998321032571,0.2866202,0.6898377516380672
0.0445,1.75049375,1.0,2729.504895351826,0.3938543770603955,1.3113876384652714,0.9698728423008928,0.2865737375,0.6908091154688184
0.045,1.7493750000000001,1.0,2728.2148157987417,0.3972543717539297,1.3108941242408294,0.9703312995888534,0.28652675,0.6917884040578053
0.0455,1.74824375,1.0,2726.8311303550126,0.4006352841671233,1.310395818879387,0.9707757874875604,0.2864792375,0.692775623795264
0.046,1.7471,1.0,2725.36473383496,0.4039972363969207,1.3098926239261333,0.9712068584310606,0.2864312,0.6937709235847453
0.0465,1.7459437500000001,1.0,2723.823509503377,0.407340340404016,1.309384468260389,0.9716250378353917,0.28638263750000004,0.6947743966812383
0.047,1.744775,1.0,2722.211710320848,0.41066469834146957,1.3088713137536323,0.9720308262097702,0.28633355,0.6957860699620703
0.0475,1.74359375,1.0,2720.533587179237,0.41397041236234167,1.3083531222773417,0.9724246995711737,0.28628393750000003,0.6968059693297666
0.048,1.7424,1.0,2718.7933883708015,0.4172575846196925,1.307829855702995,0.9728071108684414,0.2862338,0.697834119699851
0.0485,1.74119375,1.0,2716.9953590910477,0.42052631726658235,1.3073014759020707,0.9731784913107896,0.2861831375,0.6988705449885494
0.049,1.739975,1.0,2715.143740971984,0.42377671245607157,1.3067679447460467,0.9735392516079799,0.28613195,0.699915268100403
0.0495,1.73874375,1.0,2713.242771649246,0.42700887234122037,1.3062292241064015,0.97388978312877,0.2860802375,0.7009683109157887
0.05,1.7375,1.0,2711.296684360538,0.43022289907508904,1.3056852758546131,0.9742304589837287,0.286028,0.7020296942783453
0.0505,1.73624375,1.0,2709.309707576432,0.43341889481073775,1.3051360618621597,0.9745616350379893,0.2859752375,0.7030994379823094
0.051000000000000004,1.734975,1.0,2707.286064663734,0.4365969617012269,1.3045815440005197,0.9748836508590619,0.28592195,0.704177560759756
0.051500000000000004,1.73369375,1.0,2705.229973580621,0.43975720189961676,1.3040216841411711,0.9751968306044099,0.2858681375,0.7052640802677486
0.052000000000000005,1.7324,1.0,2703.14564660437,0.4428997175589675,1.3034564441555923,0.9755014838531146,0.2858138,0.7063590130753952
0.0525,1.73109375,1.0,2701.03131357944,0.4460245885015549,1.3028858405250006,0.9757979074822374,0.28575893750000003,0.7074622691628314
0.053,1.729775,1.0,2698.894489559017,0.44913193595089435,1.302309804884751,0.9760863843034518,0.28570355000000003,0.7085739217810707
0.0535,1.72844375,1.0,2696.7399717061303,0.45222186660224556,1.3017282936195638,0.976367184738673,0.2856476375,0.7096939949917931
0.054,1.7271,1.0,2694.5693940015317,0.45529447417598845,1.3011412919844254,0.9766405679270833,0.2855912,0.7108224561924459
0.0545,1.7257437500000001,1.0,2692.3843879999554,0.458349852392503,1.3005487852343216,0.9769067818787085,0.2855342375,0.711959271983972
0.055,1.724375,1.0,2690.186582781495,0.46138809497216926,1.2999507586242387,0.9771660640432979,0.28547675,0.7131044081656368
0.0555,1.72299375,1.0,2687.977604908756,0.4644092956353672,1.2993471974091628,0.977418641845538,0.2854187375,0.7142578297298461
0.056,1.7216,1.0,2685.759078387809,0.4674135481024768,1.29873808684408,0.9776647331888513,0.2853602,0.7154195008569479
0.0565,1.72019375,1.0,2683.5326246348536,0.47040094609387806,1.2981234121839764,0.9779045469298719,0.28530113749999997,0.716589384910022
0.057,1.718775,1.0,2681.299862447138,0.473371583329951,1.2975031586838381,0.978138283325522,0.28524155,0.7177674444296525
0.0575,1.71734375,1.0,2679.062407978804,0.47632555353107564,1.2968773115986512,0.9783661344544891,0.2851814375,0.7189536411286906
0.058,1.7159,1.0,2676.8218747215847,0.47926295041763184,1.2962458561834018,0.9785882846147554,0.2851208,0.720147935887
0.0585,1.71444375,1.0,2674.5798734907094,0.4821838677099997,1.295608777693076,0.978804910698727,0.2850596375,0.7213502887461911
0.059000000000000004,1.7129750000000001,1.0,2672.338012414751,0.4850883991285593,1.2949660613826601,0.9790161825473875,0.28499795,0.7225606589043392
0.059500000000000004,1.71149375,1.0,2670.097896931275,0.4879766383936904,1.29431769250714,0.9792222632848061,0.2849357375,0.7237790047106907
0.06,1.71,1.0,2667.861129786522,0.49084867922577313,1.2936636563215018,0.9794233096342364,0.284873,0.7250052836603535
0.0605,1.7084937500000001,1.0,2665.6273314573386,0.4937045952500785,1.293003956288693,0.9796194715775266,0.2848097375,0.7262394183647121
0.061,1.7069750000000001,1.0,2663.3973469559714,0.4965444840038721,1.292338584609647,0.9798108946362087,0.28474595,0.7274813518763659
0.0615,1.7054437500000001,1.0,2661.174074234682,0.4993684600063261,1.2916675145737804,0.9799977190749177,0.2846816375,0.7287310616784235
0.062,1.7039,1.0,2658.9578579992863,0.50217660822674,1.2909907429398815,0.980180078738263,0.2846168,0.7299884806227546
0.0625,1.70234375,1.0,2656.749042389109,0.5049690136344133,1.290308266466739,0.980358102432053,0.2845514375,0.7312535408835361
0.063,1.7007750000000001,1.0,2654.547970981674,0.5077457611986455,1.2896200819131411,0.980531914148937,0.28448555,0.732526173956076
0.0635,1.69919375,1.0,2652.354986796981,0.5105069358887361,1.2889261860378767,0.9807016332823144,0.28441913750000003,0.7338063106556323
0.064,1.6976,1.0,2650.170432301786,0.5132526226739846,1.2882265755997335,0.9808673748292019,0.2843522,0.7350938811162344
0.0645,1.69599375,1.0,2647.994649415056,0.5159829065236906,1.2875212473575006,0.9810292495827055,0.2842847375,0.7363888147894992
0.065,1.694375,1.0,2645.8279795126828,0.5186978724071534,1.2868101980699662,0.9811873643147022,0.28421675,0.7376910404434527
0.0655,1.69274375,1.0,2643.670763432887,0.5213976052936726,1.2860934244959186,0.9813418219492954,0.2841482375,0.7390004861613462
0.066,1.6911,1.0,2641.523341481785,0.5240821901525479,1.2853709233941464,0.9814927217275726,0.2840792,0.7403170793404728
0.0665,1.6894437500000001,1.0,2639.3860534394203,0.5267517119530785,1.284642691523438,0.9816401593641614,0.2840096375,0.7416407466909852
0.067,1.687775,1.0,2637.25923856528,0.5294062556645641,1.2839087256425816,0.9817842271960442,0.28393955,0.7429714142347108
0.0675,1.68609375,1.0,2635.1432356051782,0.5320459062563041,1.2831690225103662,0.9819250143240703,0.2838689375,0.7443090073039659
0.068,1.6844000000000001,1.0,2633.0383827974015,0.534670748697598,1.2824235788855796,0.9820626067475687,0.2837978,0.7456534505403725
0.0685,1.68269375,1.0,2630.9450178793477,0.5372808679577454,1.2816723915270107,0.982197087492443,0.2837261375,0.7470046678936684
0.069,1.680975,1.0,2628.863478094878,0.5398763490060458,1.2809154571934478,0.9823285367331115,0.28365395,0.7483625826205236
0.0695,1.67924375,1.0,2626.7929591260367,0.5424572631291678,1.2801527832164457,0.9824570315376505,0.28358123749999997,0.7497270983931097
0.07,1.6775,1.0,2624.73121673032,0.5450236658277121,1.2793843902867297,0.9825826460109447,0.283508,0.7510980945921949
0.07050000000000001,1.67574375,1.0,2622.683135234497,0.5475756959759498,1.2786102330255589,0.9827054538954109,0.2834342375,0.752475567772461
0.07100000000000001,1.673975,1.0,2620.648476251728,0.55011342945919,1.277830313504704,0.9828255247376977,0.28335995,0.7538594288835392
0.07150000000000001,1.67219375,1.0,2618.6270018340597,0.5526369421627415,1.277044633795936,0.9829429257811719,0.2832851375,0.7552495882808536
0.07200000000000001,1.6704,1.0,2616.6184744674515,0.5551463099719133,1.276253195971026,0.9830577220560811,0.2832098,0.7566459557263837
0.0725,1.66859375,1.0,2614.6226570661183,0.5576416087720143,1.2754560021017447,0.9831699764656004,0.2831339375,0.7580484403894248
0.073,1.6667750000000001,1.0,2612.6393129677454,0.5601229144483535,1.2746530542598629,0.9832797498679796,0.28305755,0.7594569508473497
0.0735,1.66494375,1.0,2610.6682059282157,0.5625903028862399,1.2738443545171518,0.9833871011549882,0.2829806375,0.7608713950863663
0.074,1.6631,1.0,2608.7091001166295,0.5650438499709824,1.273029904945382,0.9834920873268499,0.2829032,0.7622916805022822
0.0745,1.6612437500000001,1.0,2606.761760110639,0.5674836315878902,1.2722097076163246,0.9835947635638451,0.2828252375,0.7637177139012599
0.075,1.659375,1.0,2604.8259508916262,0.5699097236222718,1.2713837646017505,0.9836951832947489,0.28274675,0.7651494015005793
0.0755,1.65749375,1.0,2602.9014378399393,0.5723222019594364,1.2705520779734305,0.9837933982622625,0.2826677375,0.7665866489293967
