Time [s],Phi [rad],STIM [ ],Fsee [N],Gamma [ ],Lcerel [ ],q [ ],Lmtc [m],fisomrel [ ]
0.0,1.8,1.0,18.188604004370735,0.0004785730197503846,1.3793150128567035,0.00505919875210954,0.288653,0.5411993655022922
0.0005,1.79999375,1.0,18.6455688136361,0.006085097912419552,1.3792616231784325,0.014292418185848341,0.2886527375,0.541328511428765
0.001,1.799975,1.0,22.334914878212157,0.011660174633201497,1.378865715344028,0.03809200412787632,0.28865195,0.5422856177833479
0.0015,1.79994375,1.0,32.549555321892065,0.017203979582397992,1.3779215531001126,0.07397379901275943,0.2886506375,0.5445640934387718
0.002,1.7999,1.0,56.57845766387439,0.02271668816880649,1.376176405761556,0.11869384666612587,0.2886488,0.5487605604219299
0.0025,1.79984375,1.0,101.99254078664998,0.02819847481887957,1.3737031945368063,0.16888905060251247,0.28864643749999996,0.5546744974266131
0.003,1.7997750000000001,1.0,167.1976278885856,0.033649512980459054,1.3709830153079243,0.2217238755645636,0.28864354999999997,0.5611339360747462
0.0035,1.79969375,1.0,244.67528167998478,0.03906997512814909,1.3683709246894014,0.275027293360029,0.2886401375,0.5672922890416946
0.004,1.7996,1.0,328.87260198610124,0.044460032769380126,1.3659610571204674,0.32718653317899393,0.2886362,0.572935282752774
0.0045000000000000005,1.7994937500000001,1.0,416.91197034909624,0.0498198564400449,1.3637442053427635,0.3770860752367694,0.2886317375,0.5780936003812548
0.005,1.799375,1.0,507.2013373015198,0.055149615758509074,1.3616934917217423,0.42403625047924287,0.28862675,0.5828374299940497
0.0055,1.79924375,1.0,598.6340657856908,0.0604494793172051,1.3597860944594418,0.46768042350059086,0.2886212375,0.5872256576327222
0.006,1.7991000000000001,1.0,690.3626018563649,0.06571961486101338,1.3580042301161896,0.5079018932497301,0.2886152,0.5913041174072523
0.006500000000000001,1.79894375,1.0,781.6671274527984,0.07096018905342732,1.3563346763389923,0.5447463103219511,0.2886086375,0.5951071378775051
0.007,1.798775,1.0,871.9746969808343,0.0761713678700672,1.3547664698598012,0.5783608353962354,0.28860155,0.5986631118087207
0.0075,1.79859375,1.0,960.791038186403,0.08135331595782468,1.3532909147792556,0.6089510292859216,0.2885939375,0.6019946732603214
0.008,1.7984,1.0,1047.747704201497,0.08650619751348845,1.3519000470246008,0.6367500477990329,0.2885858,0.6051223115563896
0.0085,1.79819375,1.0,1132.5281387933992,0.09163017554799942,1.350587282181407,0.6619992850792803,0.2885771375,0.608063002463822
0.009000000000000001,1.797975,1.0,1214.8868216137569,0.09672541195205932,1.3493467085522999,0.6849354778569087,0.28856795,0.6108318789020232
0.0095,1.79774375,1.0,1294.6601642759558,0.10179206796134205,1.3481726829631224,0.7057831308421739,0.2885582375,0.6134431850709855
0.01,1.7975,1.0,1371.7377533756435,0.1068303045892249,1.3470600353440036,0.7247507374078004,0.288548,0.6159098592698309
0.0105,1.79724375,1.0,1446.0107723627189,0.11184028041668959,1.3460045428083687,0.7420293425323375,0.2885372375,0.6182425266453182
0.011,1.796975,1.0,1517.4327178419362,0.11682215401246344,1.3450019864941485,0.7577918051558602,0.28852595000000003,0.6204516240914905
0.0115,1.79669375,1.0,1585.9941272899525,0.12177608299616383,1.3440483847237092,0.7721935503550487,0.2885141375,0.6225469036001485
0.012,1.7964,1.0,1651.7182592410811,0.12670222522294114,1.3431399579096583,0.7853736578420832,0.28850180000000003,0.6245375296101974
0.0125,1.79609375,1.0,1714.6086369181946,0.13160073550567175,1.342273658153428,0.7974564101151145,0.2884889375,0.6264309404791782
0.013000000000000001,1.7957750000000001,1.0,1774.702392134161,0.13647176855441748,1.3414464591503372,0.8085523798716028,0.28847555,0.6282344245334729
0.0135,1.79544375,1.0,1832.060989375612,0.14131547853874832,1.3406554227252006,0.818759866245276,0.2884616375,0.6299549839538103
0.014,1.7951000000000001,1.0,1886.7590965548402,0.14613201972086512,1.3398977823544884,0.8281662601189308,0.2884472,0.6315991631074644
0.0145,1.79474375,1.0,1938.862603993123,0.15092154462770976,1.3391711402654312,0.8368493364126984,0.2884322375,0.6331726326882883
0.015,1.794375,1.0,1988.4312042574752,0.1556842037288394,1.3384733922078773,0.8448783284952187,0.28841675,0.6346803659671316
0.0155,1.79399375,1.0,2035.5427703245464,0.16042014749381123,1.3378024339316754,0.8523148289421618,0.2884007375,0.6361272819828956
0.016,1.7936,1.0,2080.287703523999,0.16512952601939251,1.3371562037681655,0.8592137054145734,0.2883842,0.6375181577188753
0.0165,1.7931937500000001,1.0,2122.7553420834724,0.16981248871258067,1.33653280548618,0.8656239341079193,0.2883671375,0.6388573687232173
0.017,1.792775,1.0,2163.0395941410247,0.17446918502706382,1.3359304293362617,0.8715892725791986,0.28834955,0.6401490645598051
0.0175,1.7923437500000001,1.0,2201.2076347064576,0.17909976086792978,1.3353476534074682,0.8771489553902574,0.2883314375,0.6413965285526295
0.018000000000000002,1.7919,1.0,2237.3359346618354,0.18370436214026634,1.3347830557888558,0.8823381180757961,0.2883128,0.6426030151679716
0.0185,1.79144375,1.0,2271.509487290829,0.18828313474916133,1.334235214569482,0.8871882755886634,0.2882936375,0.6437717517273353
0.019,1.790975,1.0,2303.8112147723223,0.19283622340144496,1.333702805439468,0.8917277648419175,0.28827395,0.6449057322762393
0.0195,1.79049375,1.0,2334.3334546316228,0.1973637739417309,1.3331844788675238,0.8959820799786763,0.2882537375,0.6460079816383182
0.02,1.79,1.0,2363.152085278365,0.20186592959604524,1.332679107779069,0.899974250167233,0.288233,0.6470810307631462
0.0205,1.78949375,1.0,2390.331632927351,0.20634283146058183,1.3321857260638579,0.9037251000319434,0.2882117375,0.648127051656338
0.021,1.788975,1.0,2415.941038270975,0.2107946206315346,1.331703367611645,0.9072534586039765,0.28818995000000003,0.6491482012598658
0.021500000000000002,1.78844375,1.0,2440.0532890923528,0.21522143820509745,1.3312310663121851,0.9105763779395131,0.2881676375,0.6501466221610104
0.022,1.7879,1.0,2462.7395602836236,0.21962342410973096,1.3307679088132751,0.9137093354404056,0.2881448,0.6511243319492759
0.0225,1.78734375,1.0,2484.0717568081823,0.2240007189758571,1.3303130060495323,0.9166663971667948,0.28812143749999997,0.6520832845488573
0.023,1.786775,1.0,2504.117270824833,0.2283534625554067,1.3298655397550079,0.9194603743321096,0.28809755,0.6530252732211012
0.0235,1.78619375,1.0,2522.9292984930635,0.23268179084981153,1.329424850180532,0.9221029680867638,0.28807313749999996,0.6539517477153511
0.024,1.7856,1.0,2540.5631422149418,0.23698583986050328,1.3289902775769353,0.9246048555954045,0.2880482,0.6548641494255454
0.0245,1.78499375,1.0,2557.07603375735,0.24126574558891373,1.3285611621950484,0.9269757937465343,0.2880227375,0.6557639116614769
0.025,1.784375,1.0,2572.5269670251587,0.24552164403647458,1.3281368442857018,0.9292247111015156,0.28799675,0.6566524598922867
0.025500000000000002,1.78374375,1.0,2586.96572612566,0.24975366852902578,1.327716765069733,0.9313598051641538,0.2879702375,0.657531000931854
0.026000000000000002,1.7831000000000001,1.0,2600.4517478103166,0.25396195644303127,1.327300288393927,0.9333885870503003,0.2879432,0.6584008967386867
0.0265,1.78244375,1.0,2613.034927121142,0.2581466416858401,1.3268868788732417,0.935317972451176,0.2879156375,0.6592632921572403
0.027,1.781775,1.0,2624.7539630234196,0.26230785465135464,1.3264761149298032,0.9371543395848092,0.28788755,0.6601190892230291
0.0275,1.7810937500000001,1.0,2635.6484341589185,0.26644572573347713,1.3260675749857378,0.9389035632352785,0.2878589375,0.6609691854047202
0.028,1.7804,1.0,2645.758723322175,0.2705603853261098,1.3256608374631718,0.9405710611414776,0.2878298,0.661814473669597
0.0285,1.77969375,1.0,2655.1259458779436,0.274651963823155,1.3252554807842314,0.9421618355500168,0.2878001375,0.6626558425376865
0.029,1.778975,1.0,2663.7918821186954,0.278720591618515,1.324851083371043,0.9436805104889601,0.28776995,0.6634941761245526
0.029500000000000002,1.7782437500000001,1.0,2671.7904179834427,0.28276639554271776,1.3244473016967955,0.9451313746267279,0.2877392375,0.6643301926711371
0.03,1.7775,1.0,2679.164441308286,0.28678950792756525,1.3240437141832364,0.9465183927074485,0.287708,0.6651647681707047
0.0305,1.77674375,1.0,2685.9481037403725,0.29079005673716307,1.3236399838030368,0.9478452514818955,0.2876762375,0.6659985997575576
0.031,1.775975,1.0,2692.1683668636083,0.29476816641226955,1.3232358429574853,0.9491153815426425,0.28764395,0.6668322379705482
0.0315,1.7751937500000001,1.0,2697.8525160827753,0.29872396139364277,1.3228310240478705,0.9503319711662557,0.2876111375,0.6676662305873831
0.032,1.7744,1.0,2703.0281303593415,0.3026575661220409,1.322425259475481,0.9514979864217122,0.2875778,0.6685011226153339
0.0325,1.77359375,1.0,2707.7230535355725,0.3065691050382222,1.3220182816416057,0.9526161893772512,0.2875439375,0.6693374562773836
0.033,1.772775,1.0,2711.9653672456043,0.31045870258294483,1.321609822947533,0.9536891546058859,0.28750955,0.6701757709938025
0.0335,1.7719437500000002,1.0,2715.7829438648178,0.31432648271711744,1.3211996196359457,0.9547192844743833,0.2874746375,0.6710165954901908
0.034,1.7711000000000001,1.0,2719.1962949218514,0.31817256118424814,1.3207874766892924,0.9557088279491038,0.2874392,0.6718603150488415
0.0345,1.7702437500000001,1.0,2722.2391722923157,0.3219970733339179,1.320373079930418,0.9566598790798237,0.2874032375,0.672707556300695
0.035,1.7693750000000001,1.0,2724.9283651732458,0.32580013696030885,1.3199562709386703,0.9575744091378585,0.28736675,0.6735586246397328
0.035500000000000004,1.76849375,1.0,2727.280768988504,0.3295818698576031,1.3195368912933962,0.9584542637550012,0.2873297375,0.6744138236688529
0.036000000000000004,1.7676,1.0,2729.313374311058,0.33334238981998293,1.3191147825739438,0.9593011723713063,0.2872922,0.6752734551746957
0.0365,1.76669375,1.0,2731.0432563426834,0.33708181464163034,1.3186897863596605,0.9601167568694556,0.2872541375,0.6761378191008736
0.037,1.765775,1.0,2732.487564949251,0.3408002621167277,1.3182617442298936,0.9609025394740844,0.28721555,0.6770072135195975
0.0375,1.76484375,1.0,2733.663515253313,0.3444978500394571,1.317830497763991,0.9616599499861327,0.2871764375,0.677881934601702
0.038,1.7639,1.0,2734.588378782108,0.34817469620400066,1.3173958885413,0.962390332414935,0.28713679999999997,0.6787622765850724
0.0385,1.76294375,1.0,2735.2794751731903,0.35183091840454056,1.316957758141168,0.963094951064255,0.28709663750000003,0.6796485317414696
0.039,1.761975,1.0,2735.7453684711095,0.3554666237586614,1.3165160280035553,0.9637750014294307,0.28705595,0.6805408291353718
0.0395,1.7609937500000001,1.0,2736.004066979696,0.3590819345985368,1.3160705341116965,0.9644316048685768,0.2870147375,0.6814394689615655
0.04,1.76,1.0,2736.0767467919977,0.3626769768454806,1.3156210839471671,0.965065816561327,0.286973,0.682344806658212
0.0405,1.7589937500000001,1.0,2735.9721371757028,0.3662518603727298,1.3151675981907684,0.9656786389253037,0.2869307375,0.6832569676360406
0.041,1.757975,1.0,2735.6989845424987,0.36980669505352115,1.314709997523301,0.9662710182155291,0.28688795,0.6841760760806247
0.0415,1.75694375,1.0,2735.266049687185,0.3733415907610917,1.314248202625565,0.9668438482519516,0.2868446375,0.685102254931766
0.042,1.7559,1.0,2734.6821051661527,0.3768566573686783,1.3137821341783622,0.9673979738624489,0.28680079999999997,0.6860356258624755
0.0425,1.75484375,1.0,2733.955932815979,0.3803520047495178,1.3133117128624925,0.9679341940657293,0.2867564375,0.6869763092575608
0.043000000000000003,1.753775,1.0,2733.09632141013,0.3838277427768472,1.312836859358757,0.9684532650162234,0.28671155,0.6879244241918028
0.043500000000000004,1.75269375,1.0,2732.112064457102,0.3872839813239034,1.3123574943479563,0.9689559027310009,0.28666613750000003,0.6888800884077373
0.044,1.7516,1.0,2731.011958135982,0.39072083026392324,1.3118735385108915,0.9694427856168604,0.2866202,0.689843418293034
0.0445,1.75049375,1.0,2729.80479937347,0.3941383994701437,1.311384912528363,0.9699145568140904,0.2865737375,0.6908145288574736
0.045,1.7493750000000001,1.0,2728.4993840587917,0.3975367988158016,1.3108915370811716,0.970371826371867,0.28652675,0.6917935337095233
0.0455,1.74824375,1.0,2727.1045053988178,0.400916138174134,1.3103933328501178,0.9708151732689245,0.2864792375,0.6927805450325126
0.046,1.7471,1.0,2725.6229276246368,0.4042765102929879,1.3098902753179567,0.9712451490129433,0.2864312,0.6937755652530645
0.0465,1.7459437500000001,1.0,2724.0669162777303,0.4076180419224272,1.3093822535300492,0.9716622758835376,0.28638263750000004,0.6947787665837639
0.047,1.744775,1.0,2722.4416537584807,0.41094083807852433,1.3088692209027866,0.9720670520670691,0.28633355,0.6957901925347756
0.0475,1.74359375,1.0,2720.7513009411473,0.4142450006070575,1.308351140122737,0.9724599516334427,0.28628393750000003,0.6968098672991334
0.048,1.7424,1.0,2719.000016080478,0.41753063135380486,1.3078279738764689,0.972841425698619,0.2862338,0.6978378140915433
0.0485,1.74119375,1.0,2717.191954333994,0.4207978321645445,1.30729968485055,0.9732119037454297,0.2861831375,0.6988740551363286
0.049,1.739975,1.0,2715.3312673133755,0.42404670488505464,1.3067662357315486,0.9735717948566287,0.28613195,0.6999186116552805
0.0495,1.73874375,1.0,2713.422102668518,0.42727735136111333,1.306227589206033,0.973921488866767,0.2860802375,0.7009715038554243
0.05,1.7375,1.0,2711.468603701414,0.43048987343849876,1.3056837079605714,0.9742613574389221,0.286028,0.7020327509166967
0.0505,1.73624375,1.0,2709.4749090110577,0.43368437296298906,1.3051345546817317,0.9745917550718155,0.2859752375,0.7031023709795322
0.051000000000000004,1.734975,1.0,2707.445152169558,0.4368609517803624,1.3045800920560822,0.9749130200424079,0.28592195,0.7041803811323614
0.051500000000000004,1.73369375,1.0,2705.383461428689,0.4400197117363968,1.304020282770191,0.9752254752886333,0.2858681375,0.7052667973990214
0.052000000000000005,1.7324,1.0,2703.2939594574405,0.44316075467687055,1.3034550895106263,0.9755294292365758,0.2858138,0.7063616347260772
0.0525,1.73109375,1.0,2701.1754756727737,0.44628416523124603,1.3028845232760728,0.975825177813702,0.28575893750000003,0.7074648136474047
0.053,1.729775,1.0,2699.0318308130413,0.44939005039931684,1.3023085494622502,0.976113003400343,0.28570355000000003,0.7085763422258617
0.0535,1.72844375,1.0,2696.871669079059,0.4524785291377273,1.3017270893057953,0.976393174490852,0.2856476375,0.7096963124332036
0.054,1.7271,1.0,2694.6964775660513,0.4555496948216251,1.3011401293934195,0.9766659493250961,0.2855912,0.7108246889952633
0.0545,1.7257437500000001,1.0,2692.5077411521493,0.45860364082615795,1.300547656311834,0.9769315750613873,0.2855342375,0.7119614358592591
0.055,1.724375,1.0,2690.3069424572664,0.4616404605264736,1.2999496566477506,0.9771902883425017,0.28547675,0.7131065161890833
0.0555,1.72299375,1.0,2688.0955618059093,0.46466024729771976,1.2993461169878802,0.9774423158282246,0.2854187375,0.7142598923605816
0.056,1.7216,1.0,2685.8750771937775,0.4676630945150441,1.2987370239189342,0.9776878746966661,0.2853602,0.7154215259568181
0.0565,1.72019375,1.0,2683.6469642584793,0.4706490955535944,1.298122364027624,0.9779271731164143,0.28530113749999997,0.7165913777633317
0.057,1.718775,1.0,2681.412696254633,0.4736183437885184,1.2975021239006612,0.9781604106914542,0.28524155,0.7177694077633789
0.0575,1.71734375,1.0,2679.1737440318147,0.47657093259496375,1.2968762901247568,0.97838777888062,0.2851814375,0.7189555751331672
0.058,1.7159,1.0,2676.9315760178956,0.4795069553480782,1.2962448492866223,0.9786094613932426,0.2851208,0.7201498382370741
0.0585,1.71444375,1.0,2674.6876582054883,0.4824265054230095,1.2956077879729693,0.978825634562511,0.2850596375,0.7213521546228573
0.059000000000000004,1.7129750000000001,1.0,2672.443454142482,0.48532967619490536,1.2949650927705088,0.9790364676979803,0.28499795,0.7225624810168532
0.059500000000000004,1.71149375,1.0,2670.200424927053,0.4882165610389134,1.294316750265952,0.9792421234185349,0.2849357375,0.7237807733191621
0.06,1.71,1.0,2667.9600292058185,0.4910872533301815,1.293662747046011,0.9794427579670429,0.284873,0.7250069865988221
0.0605,1.7084937500000001,1.0,2665.723723176956,0.4939418464438573,1.2930030696973962,0.9796385215078389,0.2848097375,0.7262410750889757
0.061,1.7069750000000001,1.0,2663.4881202460765,0.4967804082451088,1.2923377493456287,0.9798295587588116,0.28474595,0.727482909143917
0.0615,1.7054437500000001,1.0,2661.2572552880306,0.4996030502499134,1.291666748850664,0.9800160087473768,0.2846816375,0.7287324860168487
0.062,1.7039,1.0,2659.034398433659,0.5024098742780166,1.2909900380529673,0.9801980048000468,0.2846168,0.7299897887561628
0.0625,1.70234375,1.0,2656.8198145477286,0.5052009650160056,1.2903076144306083,0.9803756753306521,0.2845514375,0.7312547480982439
0.063,1.7007750000000001,1.0,2654.6137680685692,0.5079764071504678,1.289619475461656,0.9805491439580861,0.28448555,0.7325272941113371
0.0635,1.69919375,1.0,2652.4165230120257,0.5107362853679903,1.2889256186241798,0.9807185297192567,0.28441913750000003,0.733807356194627
0.064,1.6976,1.0,2650.2283429749364,0.5134806843551606,1.2882260413962487,0.9808839472710521,0.2843522,0.7350948630773211
0.0645,1.69599375,1.0,2648.049491139913,0.5162096887985659,1.2875207412559322,0.9810455070819682,0.2842847375,0.7363897428177274
0.065,1.694375,1.0,2645.8802302790054,0.5189233833847935,1.2868097156812996,0.9812033156139932,0.28421675,0.7376919228023344
0.0655,1.69274375,1.0,2643.720822758604,0.5216218528004306,1.28609296215042,0.9813574754953126,0.2841482375,0.7390013297448927
0.066,1.6911,1.0,2641.571530543707,0.5243051817320646,1.2853704781413626,0.9815080856843627,0.2840792,0.7403178896854914
0.0665,1.6894437500000001,1.0,2639.432615202913,0.5269734548662829,1.2846422611321966,0.9816552416257213,0.2840096375,0.7416415279896378
0.067,1.687775,1.0,2637.3043379126784,0.5296267568896726,1.2839083086009917,0.9817990353982964,0.28393955,0.7429721693473343
0.0675,1.68609375,1.0,2635.1869594630434,0.5322651724888211,1.2831686180258166,0.9819395558562477,0.2838689375,0.7443097377721594
0.068,1.6844000000000001,1.0,2633.080740262304,0.5348887863503157,1.2824231868847409,0.9820768887630422,0.2837978,0.7456541566003403
0.0685,1.68269375,1.0,2630.9859403423056,0.5374976831607435,1.2816720126558336,0.9822111169190245,0.2837261375,0.7470053484898338
0.069,1.680975,1.0,2628.902819363947,0.5400919476066921,1.2809150928171642,0.982342320282861,0.28365395,0.7483632354194005
0.0695,1.67924375,1.0,2626.8316366226936,0.5426716643747487,1.2801524248468017,0.9824705760871841,0.28358123749999997,0.7497277386876822
0.07,1.6775,1.0,2624.7730371664925,0.5452368741331529,1.2793840026438705,0.9825959560323303,0.283508,0.7510987852891893
0.07050000000000001,1.67574375,1.0,2622.7270403261095,0.547787710349349,1.2786098259007794,0.9827185354373346,0.2834342375,0.7524762911719942
0.07100000000000001,1.673975,1.0,2620.6934773842445,0.5503242547880481,1.2778298960546013,0.9828383839892737,0.28335995,0.7538601685532189
0.07150000000000001,1.67219375,1.0,2618.6722037713885,0.5528465835525571,1.2770442143212748,0.9829555687120423,0.2832851375,0.7552503294359297
0.07200000000000001,1.6704,1.0,2616.663075196738,0.5553547727461822,1.2762527819167386,0.9830701544243691,0.2832098,0.7566466852144862
0.0725,1.66859375,1.0,2614.6659476449477,0.5578488984722301,1.2754556000569317,0.983182203825504,0.2831339375,0.7580491466749862
0.073,1.6667750000000001,1.0,2612.680677373816,0.5603290368340075,1.2746526699577931,0.9832917775770201,0.28305755,0.7594576239957129
0.0735,1.66494375,1.0,2610.7071209111355,0.5627952639348208,1.2738439928352614,0.9833989343809352,0.2829806375,0.7608720267475807
0.074,1.6631,1.0,2608.745135051869,0.5652476558779767,1.2730295699052758,0.9835037310543346,0.2829032,0.7622922638945795
0.0745,1.6612437500000001,1.0,2606.794576855771,0.5676862887667815,1.272209402383775,0.98360622260068,0.2828252375,0.7637182437942224
0.075,1.659375,1.0,2604.8553036444346,0.5701112387045422,1.2713834914866975,0.9837064622779649,0.28274675,0.7651498741979899
