Time [s],Phi [rad],STIM [ ],Fsee [N],Gamma [ ],Lcerel [ ],q [ ],Lmtc [m],fisomrel [ ]
0.0,1.8,1.0,17.97154928795655,6.815271866831147e-05,1.3793392542974412,0.005001219310218327,0.288653,0.5411407211385881
0.0005,1.79999375,1.0,18.3002158369429,0.005676979744625549,1.3792997813780743,0.013102745565151248,0.2886527375,0.5412362112453605
0.001,1.799975,1.0,21.685079654896338,0.01125434568560538,1.3789314951310583,0.0359122462567707,0.28865195,0.542126664533612
0.0015,1.79994375,1.0,31.2281730617601,0.016800427014329714,1.378032680110652,0.07101697796031951,0.2886506375,0.5442962141848136
0.002,1.7999,1.0,53.9252902080953,0.02231539921178252,1.3763459214254463,0.11520939829651379,0.2886488,0.5483537864363259
0.0025,1.79984375,1.0,97.69546923289792,0.027799436775168333,1.373907426686911,0.1651093016887072,0.28864643749999996,0.5541876156516976
0.003,1.7997750000000001,1.0,161.7085069127814,0.033252713225093475,1.3711862904685772,0.21783169008376801,0.28864354999999997,0.5606528627811769
0.0035,1.79969375,1.0,238.53121181199703,0.03867540110558726,1.3685586405280628,0.2711610986107982,0.2886401375,0.566851175038604
0.004,1.7996,1.0,322.3688846710714,0.04406767199476502,1.3661322155989255,0.3234465811292679,0.2886362,0.5725357165198404
0.0045000000000000005,1.7994937500000001,1.0,410.2019499497898,0.04942969651004759,1.36390089745114,0.3735383309591227,0.2886317375,0.5777300281704558
0.005,1.799375,1.0,500.3667529073547,0.05476164429956066,1.361838095547098,0.4207188079515063,0.28862675,0.5825038029682694
0.0055,1.79924375,1.0,591.752079868018,0.06006368408638537,1.3599200541199175,0.4646100823052967,0.2886212375,0.5869182227114659
0.006,1.7991000000000001,1.0,683.4809223418389,0.06533598361944594,1.3581289195192585,0.5050809888706691,0.2886152,0.5910193782014301
0.006500000000000001,1.79894375,1.0,774.8397004932328,0.07057870972590885,1.356450897435364,0.5421674153643781,0.2886086375,0.5948429774155728
0.007,1.798775,1.0,865.2218180835232,0.07579202805717171,1.3548752795773238,0.5760110258892057,0.28860155,0.5984168875794524
0.0075,1.79859375,1.0,954.1694647792151,0.08097610406972197,1.353392535977754,0.6068138568569446,0.2885939375,0.6017656744745273
0.008,1.7984,1.0,1041.2857330776721,0.08613110181253987,1.3519949970778475,0.6348080481934449,0.2885858,0.604909190153591
0.0085,1.79819375,1.0,1126.2237607753518,0.09125718371953241,1.3506763684522,0.6602351153097032,0.2885771375,0.6078637902078343
0.009000000000000001,1.797975,1.0,1208.7543596485928,0.0963545121876587,1.3494303657716533,0.6833322349341252,0.28856795,0.6106454702700529
0.0095,1.79774375,1.0,1288.7201211011263,0.1014232488848392,1.3482511700290185,0.7043248844355497,0.2885582375,0.6132688857570779
0.01,1.7975,1.0,1365.9800796075856,0.10646355404095247,1.3471339371969306,0.7234229941572807,0.288548,0.6157462680043285
0.0105,1.79724375,1.0,1440.4417919654998,0.1114755868374318,1.3460741567227514,0.7408187822859019,0.2885372375,0.6180888968387643
0.011,1.796975,1.0,1512.0640398613932,0.11645950585435334,1.3450674930333426,0.7566863642697553,0.28852595000000003,0.6203074784811353
0.0115,1.79669375,1.0,1580.8463544164906,0.12141546997572727,1.3441098187249856,0.7711823545662658,0.2885141375,0.6224120939319437
0.012,1.7964,1.0,1646.7666265550279,0.1263436348288053,1.3431978599236711,0.7844472174192594,0.28850180000000003,0.6244108065810339
0.0125,1.79609375,1.0,1709.8436892358877,0.1312441560408391,1.3423283427553898,0.796606181179709,0.2884889375,0.6263115616911619
0.013000000000000001,1.7957750000000001,1.0,1770.128771836287,0.1361171888986067,1.3414980490633197,0.8077706894115075,0.28847555,0.628122074253656
0.0135,1.79544375,1.0,1827.6855966200585,0.14096288821466846,1.340703995620316,0.8180398810218487,0.2884616375,0.6298494495164277
0.014,1.7951000000000001,1.0,1882.576396351223,0.1457814078059479,1.3399435361138048,0.8275019538336386,0.2884472,0.6314999753011553
0.0145,1.79474375,1.0,1934.8527609338696,0.1505728990159445,1.3392144081792603,0.8362354001522276,0.2884322375,0.6330790347053386
0.015,1.794375,1.0,1984.5871581534648,0.1553375131881578,1.338514349452156,0.8443099884316072,0.28841675,0.634591949027371
0.0155,1.79399375,1.0,2031.866705993166,0.16007540128715175,1.33784114423507,0.8517877998397679,0.2884007375,0.6360438815750595
0.016,1.7936,1.0,2076.7804324725766,0.16478671368635586,1.337192736165607,0.8587241707107732,0.2883842,0.6374396003735692
0.0165,1.7931937500000001,1.0,2119.4210290388473,0.16947160060932057,1.3365671861628916,0.8651684764577726,0.2883671375,0.6387835752499792
0.017,1.792775,1.0,2159.8549838051445,0.17413020889397451,1.3359629583865118,0.871164915590024,0.28834955,0.6400793705107874
0.0175,1.7923437500000001,1.0,2198.1594651549817,0.17876268537824636,1.3353785169960553,0.8767530045972515,0.2883314375,0.6413305176579295
0.018000000000000002,1.7919,1.0,2234.4214296005407,0.18336917690006468,1.3348123261511105,0.8819681285491373,0.2883128,0.6425405174020486
0.0185,1.79144375,1.0,2268.7248877174998,0.18794982898295906,1.3342629685968577,0.8868420533548133,0.2882936375,0.6437125887270924
0.019,1.790975,1.0,2301.1657524136244,0.1925047885397503,1.333728986681718,0.8914033056392098,0.28827395,0.6448500109961536
0.0195,1.79049375,1.0,2331.818467705069,0.19703419922665916,1.3332092051420192,0.8956776193756487,0.2882537375,0.6459554388030093
0.02,1.79,1.0,2360.750341829677,0.20153820312867501,1.3327025759123148,0.8996882143386559,0.288233,0.6470312371853011
0.0205,1.78949375,1.0,2388.033759526321,0.2060169423307872,1.3322080509271572,0.9034560492279802,0.2882117375,0.6480797541427912
0.021,1.788975,1.0,2413.745757411889,0.2104705589179852,1.3317245821211,0.9070000726194912,0.28818995000000003,0.6491033214814466
0.021500000000000002,1.78844375,1.0,2437.957420676204,0.21489919328828067,1.3312512195590263,0.910337463111226,0.2881676375,0.6501040482801588
0.022,1.7879,1.0,2460.7496563074724,0.21930298800111667,1.3307869545601916,0.9134837903067585,0.2881448,0.6510841539948781
0.0225,1.78734375,1.0,2482.1866192698985,0.22368208224115083,1.3303309711963167,0.9164532339780338,0.28812143749999997,0.6520454383561805
0.023,1.786775,1.0,2502.323448628548,0.22803661306468434,1.3298825659356721,0.9192587143483938,0.28809755,0.6529894537362786
0.0235,1.78619375,1.0,2521.2176839850467,0.23236671752801843,1.3294410352465276,0.921912002489938,0.28807313749999996,0.6539177432898475
0.024,1.7856,1.0,2538.9290647033476,0.23667253268745436,1.3290056755971535,0.924423838403887,0.2880482,0.6548318412782543
0.0245,1.78499375,1.0,2555.5193401094016,0.24095419559929337,1.3285757834558198,0.926804035545638,0.2880227375,0.6557332733622263
0.025,1.784375,1.0,2571.041773060104,0.24521183986090186,1.3281507519206333,0.9290615883933248,0.28799675,0.6566233546362341
0.025500000000000002,1.78374375,1.0,2585.560825372508,0.24944560512948077,1.3277298839467533,0.931204726176102,0.2879702375,0.6575035815314019
0.026000000000000002,1.7831000000000001,1.0,2599.119951379126,0.2536556236502376,1.327312692242069,0.9332410301727347,0.2879432,0.6583750047743897
0.0265,1.78244375,1.0,2611.7621220510914,0.2578420270669842,1.3268987046469136,0.9351774671765793,0.2879156375,0.6592386380745215
0.027,1.781775,1.0,2623.531340761735,0.26200494702353255,1.3264874490016199,0.9370204455781812,0.28788755,0.6600954899375469
0.0275,1.7810937500000001,1.0,2634.4725531192416,0.2661445151636945,1.3260784531465206,0.9387758675623147,0.2878589375,0.6609465637550139
0.028,1.7804,1.0,2644.631561742294,0.2702608631312819,1.325671244921949,0.9404491757915691,0.2878298,0.6617928578794258
0.0285,1.77969375,1.0,2654.0439938653453,0.27435411945760685,1.3252654531239287,0.9420454085184339,0.2878001375,0.6626351562630273
0.029,1.778975,1.0,2662.752960897424,0.2784244163437764,1.324860643465902,0.9435692150974739,0.28776995,0.6634743696649237
0.029500000000000002,1.7782437500000001,1.0,2670.8078813648654,0.2824718863347191,1.324456329349892,0.9450248908438114,0.2877392375,0.6643115125790636
0.03,1.7775,1.0,2678.236754887692,0.28649665492253723,1.324052226082826,0.946416439616094,0.287708,0.6651471772026946
0.0305,1.77674375,1.0,2685.0679889897806,0.2904988475993333,1.323648048971631,0.9477475744065295,0.2876762375,0.6659819527960995
0.031,1.775975,1.0,2691.3303630340856,0.29447858985720976,1.3232435133232334,0.9490217421301251,0.28764395,0.6668164256838414
0.0315,1.7751937500000001,1.0,2697.052993954242,0.29843600718826896,1.3228383344445611,0.9502421460103999,0.2876111375,0.6676511792508346
0.032,1.7744,1.0,2702.2653037835657,0.3023712250846133,1.3224322276425404,0.9514117658205828,0.2875778,0.6684867939332557
0.0325,1.77359375,1.0,2706.996988981219,0.3062843690383452,1.3220249082240987,0.9525333762088463,0.2875439375,0.6693238472042755
0.033,1.772775,1.0,2711.2752263610596,0.31017556288792003,1.3216161167150564,0.9536095657887937,0.28750955,0.6701628618275741
0.0335,1.7719437500000002,1.0,2715.12417505038,0.3140449288453679,1.3212056230627622,0.9546427524732666,0.2874746375,0.6710042975537713
0.034,1.7711000000000001,1.0,2718.577324880152,0.3178925952910041,1.3207931138633473,0.9556351863397633,0.2874392,0.6718487821998007
0.0345,1.7702437500000001,1.0,2721.6527636081128,0.3217186813949312,1.3203784175549653,0.9565889835939577,0.2874032375,0.6726966503985213
0.035,1.7693750000000001,1.0,2724.368703833395,0.32552330632725157,1.3199613625757696,0.9575061237491848,0.28736675,0.6735482348809214
0.035500000000000004,1.76849375,1.0,2726.7434701694283,0.32930658925806766,1.3195417773639138,0.958388460038747,0.2873297375,0.6744038664512468
0.036000000000000004,1.7676,1.0,2728.795487068832,0.3330686493574818,1.319119490357551,0.9592377289206047,0.2872922,0.6752638739602581
0.0365,1.76669375,1.0,2730.5432673012233,0.3368096057955965,1.318694329994835,0.9600555587629419,0.2872541375,0.6761285842766045
0.037,1.765775,1.0,2732.0054010837694,0.3405295777425142,1.318266124713919,0.9608434777896094,0.28721555,0.6769983222563273
0.0375,1.76484375,1.0,2733.200395154377,0.3442286841539421,1.3178347043219212,0.9616029214442142,0.2871764375,0.677873407935577
0.038,1.7639,1.0,2734.1398712004734,0.34790703243139903,1.3173999616780718,0.9623352426278942,0.28713679999999997,0.6787540316542046
0.0385,1.76294375,1.0,2734.8519605977285,0.3515647565596463,1.3169616401312483,0.9630417052495749,0.28709663750000003,0.6796406845832559
0.039,1.761975,1.0,2735.34735793457,0.35520196882892896,1.3165196417685585,0.9637235094602891,0.28705595,0.6805335343581103
0.0395,1.7609937500000001,1.0,2735.6367883520516,0.3588187815294921,1.3160738686771098,0.9643817857973676,0.2870147375,0.6814327472560113
0.04,1.76,1.0,2735.731003376507,0.3624153069515808,1.3156242229440103,0.9650175999631224,0.286973,0.6823384881727987
0.0405,1.7589937500000001,1.0,2735.640776965875,0.36599165738544015,1.3151706066563666,0.9656319572266661,0.2869307375,0.6832509205990365
0.041,1.757975,1.0,2735.376901767563,0.36954794512131534,1.3147129219012872,0.9662258064822472,0.28688795,0.6841702065955175
0.0415,1.75694375,1.0,2734.9501855896574,0.3730842824494513,1.3142510707658792,0.9668000439942208,0.2868446375,0.6850965067681709
0.042,1.7559,1.0,2734.3714480843623,0.37660078166009325,1.3137849553372503,0.9673555168558451,0.28680079999999997,0.6860299802423465
0.0425,1.75484375,1.0,2733.65151764409,0.38009755504348625,1.3133144777025079,0.9678930261864935,0.2867564375,0.6869707846364945
0.043000000000000003,1.753775,1.0,2732.801228509621,0.3835747148898754,1.3128395399487598,0.968413330089539,0.28671155,0.6879190760352307
0.043500000000000004,1.75269375,1.0,2731.8242961986343,0.3870323598039274,1.312360108870846,0.9689171494532336,0.28666613750000003,0.688874880058014
0.044,1.7516,1.0,2730.7331497781297,0.3904706094346851,1.3118760721365605,0.9694051642600598,0.2866202,0.6898383789179556
0.0445,1.75049375,1.0,2729.541349621353,0.39388958487780357,1.3113873071111404,0.9698780184835343,0.2865737375,0.6908097735015062
0.045,1.7493750000000001,1.0,2728.2541588199715,0.39728939030156946,1.3108937665447022,0.970336326225392,0.28652675,0.6917891132769394
0.0455,1.74824375,1.0,2726.876840779548,0.4006701298742696,1.3103954031873635,0.9707806703079145,0.2864792375,0.6927764466841648
0.046,1.7471,1.0,2725.414658333407,0.4040319077641905,1.3098921697892407,0.9712116041655546,0.2864312,0.6937718211202692
0.0465,1.7459437500000001,1.0,2723.872872905671,0.4073748281396191,1.3093840191004509,0.9716296536046434,0.28638263750000004,0.6947752829249103
0.047,1.744775,1.0,2722.2567437238313,0.41069899516884195,1.308870903871111,0.9720353184415489,0.28633355,0.6957868773655704
0.0475,1.74359375,1.0,2720.571527081664,0.41400451302014585,1.3083527768513383,0.9724290740287563,0.28628393750000003,0.6968066486226683
0.048,1.7424,1.0,2718.82247565011,0.4172914858618175,1.3078295907912492,0.9728113726775152,0.2862338,0.6978346397745283
0.0485,1.74119375,1.0,2717.0148378391605,0.42056001786214364,1.3073012984409609,0.9731826449849665,0.2861831375,0.698870892782205
0.049,1.739975,1.0,2715.1538572081586,0.4238102131894109,1.3067678525505901,0.9735433010729819,0.28613195,0.699915448474169
0.0495,1.73874375,1.0,2713.244771926158,0.4270421760119061,1.306229205870254,0.9738937317453502,0.2860802375,0.7009683465308469
0.05,1.7375,1.0,2711.29281428188,0.4302560104979159,1.3056853111500695,0.9742343095693824,0.286028,0.7020296254690217
0.0505,1.73624375,1.0,2709.3032102425427,0.433451820815727,1.3051361211401535,0.9745653898875146,0.2859752375,0.7030993226260891
0.051000000000000004,1.734975,1.0,2707.2801992346463,0.4366296864857322,1.304581597533365,0.9748873095965628,0.28592195,0.7041774567730334
0.051500000000000004,1.73369375,1.0,2705.2269559433753,0.4397897384202013,1.3040217116931274,0.9752003966407236,0.2858681375,0.705264026846878
0.052000000000000005,1.7324,1.0,2703.1458019169627,0.4429320752976906,1.3034564427369943,0.9755049611476534,0.2858138,0.7063590158208204
0.0525,1.73109375,1.0,2701.0390080676575,0.4460567928723445,1.3028857702174452,0.9758012991535133,0.28575893750000003,0.7074624049738041
0.053,1.729775,1.0,2698.9088422283485,0.4491639868983075,1.302309673686959,0.9760896936372532,0.28570355000000003,0.7085741747298608
0.0535,1.72844375,1.0,2696.7575690479957,0.45225375312972405,1.3017281326980148,0.9763704152058801,0.2856476375,0.7096943046510497
0.054,1.7271,1.0,2694.5874498958783,0.4553261873207386,1.3011411268030915,0.976643722738109,0.2855912,0.7108227734303711
0.0545,1.7257437500000001,1.0,2692.400742775236,0.4583813852254956,1.3005486355546685,0.9769098639892521,0.2855342375,0.7119595588846526
0.055,1.724375,1.0,2690.199702246125,0.4614194425981395,1.2999506385052244,0.9771690761599905,0.28547675,0.7131046379474113
0.0555,1.72299375,1.0,2687.986579357697,0.4644404551928147,1.2993471152072387,0.9774215864314653,0.2854187375,0.7142579866616843
0.056,1.7216,1.0,2685.7636215896255,0.46744451876366566,1.29873804521319,0.977667612468944,0.2853602,0.7154195801728381
0.0565,1.72019375,1.0,2683.533072802763,0.4704317290648368,1.298123408075558,0.9779073628961544,0.28530113749999997,0.7165893927213469
0.057,1.718775,1.0,2681.297173199401,0.47340218185047267,1.2975031833468211,0.9781410377422157,0.28524155,0.7177673976355476
0.0575,1.71734375,1.0,2679.0581592921735,0.4763559728747177,1.2968773505794589,0.9783688288629618,0.2851814375,0.7189535673243657
0.058,1.7159,1.0,2676.818263882693,0.47929319789171626,1.2962458893259503,0.9785909203383157,0.2851208,0.7201478732700153
0.0585,1.71444375,1.0,2674.5748942673736,0.48221390365901534,1.295608823414674,0.9788074871188541,0.2850596375,0.7213502025490817
0.059000000000000004,1.7129750000000001,1.0,2672.3322458517628,0.48511822899020907,1.2949661143561955,0.9790187015995678,0.28499795,0.722560559252576
0.059500000000000004,1.71149375,1.0,2670.0931351941463,0.488006287209475,1.2943177362683576,0.9792247278405597,0.2849357375,0.7237789225697371
0.06,1.71,1.0,2667.8580415629735,0.4908781643737161,1.2936636847147205,0.9794257223618131,0.284873,0.7250052304839708
0.0605,1.7084937500000001,1.0,2665.6274434232528,0.49373394653983566,1.2930039552588442,0.9796218356063568,0.2848097375,0.7262394202891367
0.061,1.7069750000000001,1.0,2663.4018184394918,0.49657371976473674,1.2923385434642887,0.9798132122210398,0.28474595,0.7274814285879407
0.0615,1.7054437500000001,1.0,2661.181643478907,0.49939757010532254,1.291667444894614,0.9799999913222567,0.2846816375,0.7287311912903296
0.062,1.7039,1.0,2658.96739461582,0.5022055836184961,1.29099065511338,0.9801823067475337,0.2846168,0.729988643611881
0.0625,1.70234375,1.0,2656.759547135349,0.5049978463611606,1.290308169684147,0.9803602872938292,0.2845514375,0.7312537200721956
0.063,1.7007750000000001,1.0,2654.558575538582,0.5077744443902192,1.2896199841704747,0.9805340569433459,0.28448555,0.7325263544932843
0.0635,1.69919375,1.0,2652.3649535476943,0.510535463762575,1.2889260941359233,0.9807037350775938,0.28441913750000003,0.733806479997958
0.064,1.6976,1.0,2650.179154111246,0.5132809905351312,1.2882264951440527,0.9808694366803993,0.2843522,0.7350940290082122
0.0645,1.69599375,1.0,2648.0016494108204,0.5160111107647908,1.287521182758423,0.9810312725305077,0.2842847375,0.7363889332436147
0.065,1.694375,1.0,2645.832910867033,0.5187259105084571,1.2868101525425941,0.9811893493843813,0.28421675,0.7376911237196873
0.0655,1.69274375,1.0,2643.673409146558,0.5214254758230331,1.286093400060126,0.9813437701497645,0.2841482375,0.7390005307462904
0.066,1.6911,1.0,2641.523614169656,0.524109892765422,1.285370920874579,0.9814946340505395,0.2840792,0.7403170839260038
0.0665,1.6894437500000001,1.0,2639.3839951180084,0.5267792473925269,1.2846427105495126,0.9816420367833716,0.2840096375,0.7416407121525076
0.067,1.687775,1.0,2637.2550204424087,0.5294336257612511,1.2839087646484872,0.9817860706666081,0.28393955,0.7429713436089601
0.0675,1.68609375,1.0,2635.137157872339,0.5320731139284974,1.2831690787350627,0.9819268247818624,0.2838689375,0.7443089057663772
0.068,1.6844000000000001,1.0,2633.030874424374,0.5346977979511693,1.282423648372799,0.9820643851086969,0.2837978,0.7456533253820075
0.0685,1.68269375,1.0,2630.936636411825,0.5373077638861696,1.2816724691252566,0.9821988346527802,0.2837261375,0.7470045284977085
0.069,1.680975,1.0,2628.855277619708,0.5399030976269845,1.2809155331460607,0.9823302533967193,0.28365395,0.7483624465473996
0.0695,1.67924375,1.0,2626.789153414978,0.542483877400207,1.2801528184787285,0.9824587174464755,0.28358123749999997,0.7497270353903845
0.07,1.6775,1.0,2624.735151121314,0.545050181293066,1.2793843538178589,0.9825843026743013,0.283508,0.7510981595719944
0.07050000000000001,1.67574375,1.0,2622.692377847966,0.5476020900822995,1.278610147320023,0.9827070816316954,0.2834342375,0.7524757200584026
0.07100000000000001,1.673975,1.0,2620.659942139774,0.5501396845446457,1.2778302071417929,0.9828271244500423,0.28335995,0.753859617345499
0.07150000000000001,1.67219375,1.0,2618.6361939550834,0.5526630450545507,1.2770445484926207,0.9829444992339661,0.2832851375,0.7552497390003825
0.07200000000000001,1.6704,1.0,2616.6324958110204,0.5551722518530544,1.276253065802428,0.9830592663629855,0.2832098,0.7566461850598194
0.0725,1.66859375,1.0,2614.637767385843,0.5576673838884636,1.2754558617700096,0.9831714935086401,0.2831339375,0.7580486869149916
0.073,1.6667785467414742,1.0,2612.8118320615945,0.5601485200212197,1.2746530532202969,0.9832812468080351,0.2830576989631419,0.7594569526682677
0.0735,1.664962963138707,1.0,2611.554075987549,0.5626157388512454,1.2738447986723558,0.9833885921492643,0.2829814444518257,0.7608706193880642
0.074,1.6631473795359402,1.0,2610.8287727391944,0.565069118857874,1.2730315981211342,0.983493608489791,0.2829051899405095,0.7622887322302917
0.0745,1.6613317959331733,1.0,2610.592130559353,0.567508737344365,1.2722138565187837,0.983596368225131,0.2828289354291933,0.7637105112218464
0.075,1.6595162123304061,1.0,2610.8046796033145,0.5699346713003242,1.2713919400771536,0.9836969399188285,0.2827526809178771,0.7651352514705315
