Time [s],Phi [rad],STIM [ ],Fsee [N],Gamma [ ],Lcerel [ ],q [ ],Lmtc [m],fisomrel [ ]
0.0,1.8,1.0,18.100551879396374,0.0003728241323101081,1.379324829298676,0.005035999866065478,0.288653,0.5411756182319207
0.0005,1.79999375,1.0,18.525882376814703,0.005979942192609152,1.379274807054695,0.013978425806656022,0.2886527375,0.5412966222373212
0.001,1.799975,1.0,22.136836253153135,0.011555608753828961,1.3788856633252293,0.037524286089326536,0.28865195,0.5422374174955389
0.0015,1.79994375,1.0,32.17600594484573,0.017100000235022235,1.3779527358411479,0.07320763069723939,0.2886506375,0.5444889332595393
0.002,1.7999,1.0,55.855969012115374,0.022613292063376214,1.376222165759117,0.11779353873194603,0.2886488,0.5486507716566312
0.0025,1.79984375,1.0,100.84795663922982,0.028095658683568597,1.373757167280713,0.1679140929121576,0.28864643749999996,0.5545458542930395
0.003,1.7997750000000001,1.0,165.75100305292247,0.033547273562745256,1.3710362593111167,0.2207210233742032,0.28864354999999997,0.5610079536875439
0.0035,1.79969375,1.0,243.06610831062483,0.038968309192525946,1.3684198587209577,0.2740318992828332,0.2886401375,0.5671773204720331
0.004,1.7996,1.0,327.174582880412,0.044358937098870364,1.366005579439153,0.3262241943305995,0.2886362,0.5728313642200569
0.0045000000000000005,1.7994937500000001,1.0,415.1657634089093,0.049719327847620794,1.3637848605683007,0.3761735491796061,0.2886317375,0.5779992832311927
0.005,1.799375,1.0,505.4212905004379,0.055049651035658675,1.3617310590362488,0.42318327365526914,0.28862675,0.5827507682669448
0.0055,1.79924375,1.0,596.8448500454011,0.06035007533019037,1.359820847615225,0.4668911377126422,0.2886212375,0.5871459107827203
0.006,1.7991000000000001,1.0,688.5720703299306,0.06562076843496895,1.3580366127816867,0.5071768720491882,0.2886152,0.591230178277476
0.006500000000000001,1.79894375,1.0,779.8928790349189,0.07086189710198648,1.3563648298254276,0.5440835448187981,0.2886086375,0.5950386098963458
0.007,1.798775,1.0,870.2222700957882,0.07607362722775556,1.3547946662629529,0.5777569652797891,0.28860155,0.5985993137479588
0.0075,1.79859375,1.0,959.0720327096917,0.08125612355924404,1.3533172625910341,0.6084018333328052,0.2885939375,0.6019353059795225
0.008,1.7984,1.0,1046.067989109769,0.08640955035409618,1.3519246999697698,0.6362510335203597,0.2885858,0.605066981987205
0.0085,1.79819375,1.0,1130.8904853703134,0.09153407041333077,1.3506103997395762,0.6615459562321008,0.2885771375,0.608011312482317
0.009000000000000001,1.797975,1.0,1213.2952708571338,0.09662984579472746,1.3493683996867682,0.6845234840283997,0.28856795,0.610783550064753
0.0095,1.79774375,1.0,1293.1259303284448,0.10169703823577968,1.3481929378487658,0.7054083366606455,0.2885582375,0.613398208010987
0.01,1.7975,1.0,1370.244316201733,0.10673580763972233,1.3470791892364364,0.7244095148204335,0.288548,0.615867463006945
0.0105,1.79724375,1.0,1444.561068867797,0.11174631332795898,1.3460226516091764,0.741718255075302,0.2885372375,0.618202565603809
0.011,1.796975,1.0,1516.0416252601244,0.11672871406722385,1.34501894893159,0.7575076810916626,0.28852595000000003,0.620414301269582
0.0115,1.79669375,1.0,1584.672290653609,0.12168316786341063,1.3440641501200603,0.7719335730032426,0.2885141375,0.6225123105936243
0.012,1.7964,1.0,1650.441120838029,0.12660983080201355,1.343154883837329,0.7851354883470119,0.28850180000000003,0.6245048651102972
0.0125,1.79609375,1.0,1713.3734199730677,0.1315088586837362,1.342287826734312,0.7972378515645622,0.2884889375,0.6264000117012171
0.013000000000000001,1.7957750000000001,1.0,1773.523115422275,0.136380407040612,1.3414597548898324,0.808351400933542,0.28847555,0.6282054712709682
0.0135,1.79544375,1.0,1830.9498047281652,0.14122463071926594,1.3406677529079674,0.8185746728267325,0.2884616375,0.6299281955632529
0.014,1.7951000000000001,1.0,1885.696272311278,0.146041681854384,1.339909403575946,0.827995384423784,0.2884472,0.631573971175525
0.0145,1.79474375,1.0,1937.8289377190579,0.15083171258065214,1.339182289680997,0.8366914661798258,0.2884322375,0.6331485152001155
0.015,1.794375,1.0,1987.431670728079,0.15559487469487773,1.3384840381487,0.8447322066016213,0.28841675,0.634657384944354
0.0155,1.79399375,1.0,2034.5915196365563,0.1603313193396181,1.3378124475951805,0.8521793054655976,0.2884007375,0.636105708704571
0.016,1.7936,1.0,2079.3993647554857,0.16504119746435955,1.3371654539583973,0.8590877562487297,0.2883842,0.6374982674012369
0.0165,1.7931937500000001,1.0,2121.9204361225766,0.16972465674244275,1.3365414118099106,0.8655067196010007,0.2883671375,0.6388388971205108
0.017,1.792775,1.0,2162.2320469256583,0.17438184484720837,1.3359386757212792,0.8714800883407999,0.28834955,0.640131397176764
0.0175,1.7923437500000001,1.0,2200.4225802639567,0.1790129094519971,1.3353556002640634,0.8770471100067398,0.2883314375,0.6413795324347249
0.018000000000000002,1.7919,1.0,2236.5760328790766,0.18361799677575272,1.3347906856410292,0.8822429709209461,0.2883128,0.6425867245153367
0.0185,1.79144375,1.0,2270.791435599128,0.18819725467736503,1.3342423697424328,0.8870992168097656,0.2882936375,0.6437564995821519
0.019,1.790975,1.0,2303.1413315667273,0.19275082717912395,1.3337094336241007,0.8916442720756664,0.28827395,0.6448916259894195
0.0195,1.79049375,1.0,2333.6956208971096,0.1972788572626942,1.3331907485144696,0.8959037340673109,0.2882537375,0.6459946591338248
0.02,1.79,1.0,2362.5299558118036,0.2017814879097406,1.3326851856419757,0.8999006724331683,0.288233,0.6470681353774368
0.0205,1.78949375,1.0,2389.7252568299264,0.20625886210192798,1.3321916162350553,0.9036559127803437,0.2882117375,0.6481145730329775
0.021,1.788975,1.0,2415.3298210340718,0.2107111207200443,1.331709273255825,0.9071883638297161,0.28818995000000003,0.6491357080232536
0.021500000000000002,1.78844375,1.0,2439.4850728184615,0.21513840767672862,1.3312365292552737,0.9105149660430503,0.2881676375,0.6501350819098222
0.022,1.7879,1.0,2462.231901641856,0.21954086192224986,1.3307727669787222,0.9136512952502135,0.2881448,0.651114083626403
0.0225,1.787349971287956,1.0,2483.888325091199,0.22391862146734084,1.3303175634474447,0.9166115376301619,0.28812169879409416,0.6520736839226511
0.023,1.7867999425428607,1.0,2504.782071112509,0.22827182432273432,1.3298704956827152,0.9194085973782248,0.2880985975868001,0.6530148471876269
0.0235,1.7862499137977652,1.0,2524.9471468529036,0.23260060849916306,1.3294311407058081,0.9220542302312995,0.28807549637950614,0.6539385316749682
0.024,1.78569988505267,1.0,2544.4180514528484,0.2369051117690071,1.3289990815001547,0.9245591624550139,0.28805239517221215,0.6548456772068068
0.0245,1.7851498563075745,1.0,2563.217806050693,0.2411854707039775,1.328574018532828,0.9269332145391161,0.2880292939649181,0.6557369717639947
0.025,1.7845998275624793,1.0,2581.366965272017,0.24544182058632674,1.3281556828430245,0.9291853759445374,0.2880061927576241,0.656613035133381
0.025500000000000002,1.7840497988173838,1.0,2598.8880739822953,0.249674295401075,1.3277437935866112,0.9313238798696005,0.2879830915503301,0.6574745081806658
0.026000000000000002,1.7834997700722885,1.0,2615.8043688630214,0.25388302913324245,1.327338069919455,0.9333562796438618,0.2879599903430361,0.6583220280019324
0.0265,1.782949741327193,1.0,2632.1259323820505,0.2580681442202264,1.3269383587958052,0.9352895290222951,0.2879368891357421,0.6591559615685757
0.027,1.7823997125820978,1.0,2647.897591368312,0.2622297913851396,1.3265441906788913,0.9371299877509787,0.28791378792844813,0.6599773326972829
0.0275,1.7818496838370024,1.0,2663.1399918357524,0.26636810175129577,1.3261553261244416,0.9388835395197903,0.2878906867211541,0.6607866812521017
0.028,1.7812996550919071,1.0,2677.869854877643,0.2704832028668025,1.325771566213514,0.9405556142897729,0.2878675855138601,0.6615844599706442
0.0285,1.7807496263468117,1.0,2692.1043182896033,0.2745752222797675,1.3253927120271665,0.9421512251388721,0.28784448430656606,0.6623711191313952
0.029,1.7801995976017164,1.0,2705.860914495659,0.2786442875382984,1.3250185646464565,0.9436750057001624,0.2878213830992721,0.6631471066172104
0.029500000000000002,1.7796495688566212,1.0,2719.1575493504597,0.2826905261905027,1.324648925152442,0.9451312437895261,0.2877982818919781,0.6639128679762886
0.03,1.7790995401115257,1.0,2732.0124818196377,0.2867140657844882,1.3242835946261808,0.9465239116521146,0.2877751806846841,0.6646688464806213
0.0305,1.7785495113664305,1.0,2744.444304536983,0.2907150338683625,1.3239223741487307,0.9478566932043886,0.28775207947739007,0.6654154831819188
0.031,1.777999482621335,1.0,2756.4719252395007,0.29469355799023317,1.3235650648011497,0.9491330086028472,0.2877289782700961,0.6661532169650122
0.0315,1.7774494538762398,1.0,2768.11454907895,0.2986497656982079,1.323211467664495,0.9503560364308268,0.28770587706280204,0.6668824845987343
0.032,1.7768994251311443,1.0,2779.389622793524,0.3025837822464557,1.3228614021866296,0.9515287353010419,0.28768277585550805,0.6676036829658272
0.0325,1.776349396386049,1.0,2790.3072579684244,0.3064957261820357,1.3225147559940378,0.9526538665364392,0.28765967464821407,0.6683170668562062
0.033,1.7757993676409536,1.0,2800.8942099004653,0.31038573573922346,1.322171268960393,0.9537339923987116,0.28763657344092003,0.6690231934198025
0.0335,1.7752493388958583,1.0,2811.161399759476,0.3142539304228772,1.3218308253728248,0.9547715147895172,0.28761347223362604,0.6697223209178774
0.034,1.7746993101507629,1.0,2821.1199063718714,0.31810042973785513,1.3214933095184633,0.9557686767679672,0.287590371026332,0.6704147064249539
0.0345,1.7741492814056676,1.0,2830.7809585616315,0.3219253531890154,1.321158605684438,0.9567275749380424,0.287567269819038,0.6711006058508535
0.035,1.7735992526605722,1.0,2840.1559277870833,0.32572882028121625,1.3208265981578788,0.9576501707317248,0.28754416861174403,0.6717802739618717
0.035500000000000004,1.773049223915477,1.0,2849.256321075348,0.32951095051931584,1.320497171225916,0.9585383006978558,0.28752106740445005,0.6724539644011032
0.036000000000000004,1.7724991951703815,1.0,2858.093774253051,0.3332718634081724,1.3201702091756786,0.9593936858946911,0.287497966197156,0.6731219297079152
0.0365,1.7719491664252862,1.0,2866.680045474498,0.337011678452644,1.3198455962942972,0.9602179404735218,0.287474864989862,0.6737844213365608
0.037,1.771399137680191,1.0,2875.0270090459826,0.34073051515758906,1.3195232168689013,0.9610125795313517,0.28745176378256804,0.6744416896739448
0.0375,1.7708491089350955,1.0,2883.146649547656,0.3444284930278656,1.319202955186621,0.96177902630236,0.287428662575274,0.6750939840565309
0.038,1.7702990801900003,1.0,2891.044409616323,0.3481057198516285,1.318884754237764,0.9625186219405092,0.28740556136798,0.6757414334015335
0.0385,1.7697490514449048,1.0,2898.7353944504794,0.35176232397747,1.3185684723510032,0.9632326244298257,0.287382460160686,0.6763843380865693
0.039,1.7691990226998096,1.0,2906.2306682459475,0.3553984257129415,1.3182540044299336,0.9639222198701358,0.287359358953392,0.6770229230367086
0.0395,1.768648993954714,1.0,2913.536704840141,0.3590141366209651,1.317941286505445,0.9645885277930705,0.287336257746098,0.6776573288751995
0.04,1.7680989652096188,1.0,2920.6600354343223,0.3626095682644628,1.3176302546084266,0.9652326037282818,0.28731315653880396,0.6782876956549301
0.0405,1.7675489364645234,1.0,2927.607246157373,0.3661848322063565,1.3173208447697684,0.9658554435426695,0.28729005533151,0.6789141628654354
0.041,1.7669989077194281,1.0,2934.3849757195344,0.3697400400095682,1.3170129930203596,0.9664579874414317,0.287266954124216,0.6795368694396475
0.0415,1.7664488789743327,1.0,2940.999913157288,0.37327530323702,1.3167066353910897,0.9670411236605627,0.28724385291692195,0.6801559537603807
0.042,1.7658988502292374,1.0,2947.4587956692703,0.37679073345163383,1.316401707912848,0.9676056918775578,0.28722075170962796,0.6807715536665586
0.0425,1.765348821484142,1.0,2953.768406541888,0.3802864422163316,1.3160981466165245,0.9681524863645112,0.287197650502334,0.681383806459178
0.043000000000000003,1.7647987927390467,1.0,2959.9355731667547,0.3837625410940354,1.3157958875330085,0.9686822589055034,0.28717454929503994,0.6819928489070136
0.043500000000000004,1.7642487639939515,1.0,2965.967165148479,0.38721914164766724,1.3154948666931894,0.9691957214981151,0.28715144808774595,0.6825988172520621
0.044,1.763698735248856,1.0,2971.8700925026983,0.390656355440149,1.315195020127957,0.969693548857051,0.28712834688045197,0.683201847214722
0.0445,1.7631487065037608,1.0,2977.643837743895,0.3940742707793035,1.3148963488438232,0.970176382327357,0.287105245673158,0.6838019435102972
0.045,1.7625986777586653,1.0,2983.301976034546,0.3974730260807024,1.3145987313962086,0.9706448283583035,0.28708214446586394,0.6843993565175261
0.0455,1.76204864901357,1.0,2988.848694404352,0.40085272705341685,1.3143021284185519,0.9710994640490906,0.28705904325856996,0.6849941711465821
0.046,1.7614986202684746,1.0,2994.287453898558,0.4042134768864304,1.3140065070517086,0.9715408376635234,0.2870359420512759,0.6855864589578612
0.0465,1.7609485915233793,1.0,2999.621735878017,0.4075553787687267,1.3137118344365346,0.9719694702306934,0.28701284084398193,0.686176291245103
0.047,1.7603985627782839,1.0,3004.855041315955,0.4108785358892894,1.313418077713885,0.9723858571564429,0.28698973963668795,0.6867637390374142
0.0475,1.7598485340331886,1.0,3009.9908901184635,0.4141830514371021,1.3131252040246155,0.9727904697247912,0.2869666384293939,0.687348873101221
0.048,1.7592985052880932,1.0,3015.0328204696193,0.41746902860114843,1.3128331805095819,0.9731837564978002,0.2869435372220999,0.6879317639421536
0.0485,1.758748476542998,1.0,3019.9843881997213,0.42073657057041197,1.3125419743096394,0.973566144621634,0.2869204360148059,0.6885124818068646
0.049,1.7581984477979025,1.0,3024.8491661783905,0.4239857805338764,1.3122515525656435,0.9739380410459135,0.2868973348075119,0.6890910966847741
0.0495,1.7576484190528072,1.0,3029.630743730443,0.42721676168052536,1.31196188241845,0.9742998336628627,0.2868742336002179,0.6896676783097486
0.05,1.757098390307712,1.0,3034.3327260769747,0.4304296171993424,1.3116729310089144,0.9746518923722072,0.2868511323929239,0.6902422961617108
0.0505,1.7565483615626165,1.0,3038.958733799177,0.43362445027931124,1.311384665477892,0.9749945700772965,0.2868280311856299,0.6908150194681801
0.051000000000000004,1.7559983328175213,1.0,3043.5124023274057,0.4368013641094154,1.3110970529662385,0.9753282036174665,0.2868049299783359,0.6913859172057444
0.051500000000000004,1.7554483040724258,1.0,3047.9957139586295,0.43996045077005125,1.3108100749579552,0.9756531143537629,0.28678182877104186,0.6919550296703771
0.052000000000000005,1.7548982753273306,1.0,3052.409768670074,0.44310180101939656,1.3105237205988587,0.9759696096625871,0.2867587275637479,0.6925223818413327
0.0525,1.754348246582235,1.0,3056.7618040887646,0.446225547844497,1.3102379263706259,0.976277984463328,0.2867356263564539,0.6930881028101216
0.053,1.7537982178371399,1.0,3061.053491930181,0.44933178545975205,1.3099526767286898,0.9765785196328478,0.2867125251491599,0.693652226367093
0.0535,1.7532481890920444,1.0,3065.2865110004855,0.45242060807956114,1.3096679561284827,0.9768714838600172,0.28668942394186586,0.6942147861836994
0.054,1.7526981603469491,1.0,3069.4625470117217,0.4554921099183237,1.3093837490254374,0.9771571342780414,0.2866663227345719,0.6947758158130266
0.0545,1.7521481316018537,1.0,3073.583292401776,0.45854638519043905,1.3091000398749864,0.9774357170588144,0.28664322152727784,0.695335348690312
0.055,1.7515981028567584,1.0,3077.6504461606064,0.4615835281103067,1.3088168131325624,0.9777074679718829,0.28662012031998385,0.6958934181334441
0.0555,1.751048074111663,1.0,3081.6657136608137,0.4646036328923259,1.308534053253598,0.9779726129104059,0.28659701911268987,0.69645005734345
0.056,1.7504980453665677,1.0,3085.6308064942,0.4676067937508963,1.3082517446935258,0.9782313683863161,0.2865739179053958,0.6970052994049662
0.0565,1.7499480166214725,1.0,3089.547442313998,0.4705931049004171,1.3079698719077784,0.9784839419967248,0.28655081669810184,0.697559177286692
0.057,1.749397987876377,1.0,3093.4173446811665,0.4735626605552879,1.3076884193517881,0.9787305328634645,0.2865277154908078,0.6981117238418308
0.0575,1.7488479591312818,1.0,3097.242242917685,0.47651555492990794,1.3074073714809882,0.9789713320475166,0.2865046142835138,0.6986629718085132
0.058,1.7482979303861863,1.0,3101.0238719638405,0.47945188223867674,1.3071267127508108,0.9792065229399569,0.28648151307621983,0.6992129538102071
0.0585,1.747747901641091,1.0,3104.76397224168,0.4823717366959937,1.3068464276166887,0.9794362816309217,0.28645841186892584,0.6997617023561105
0.059000000000000004,1.7471978728959956,1.0,3108.464289523572,0.4852752125162582,1.3065665005340543,0.9796607772579957,0.2864353106616318,0.7003092498415295
0.059500000000000004,1.7466478441509004,1.0,3112.126574806232,0.48816240391386967,1.3062869159583403,0.9798801723353265,0.2864122094543378,0.7008556285482417
0.06,1.7460978154058049,1.0,3115.752338410642,0.49103340131282897,1.306007660435962,0.9800946228736577,0.2863891082470438,0.7014008665641229
0.0605,1.7455477866607096,1.0,3119.3392649684624,0.49388824133338605,1.3057287530795543,0.9803042763703556,0.2863660070397498,0.7019449283814443
0.061,1.7449977579156142,1.0,3122.8934680389007,0.4967270942651969,1.3054501413366488,0.9805092813791948,0.2863429058324558,0.7024879182315729
0.0615,1.744447729170519,1.0,3126.4156730430645,0.4995500444537038,1.3051718185416818,0.9807097765134412,0.2863198046251618,0.7030298506631467
0.062,1.7438977004254235,1.0,3129.906607734681,0.5023571762443491,1.3048937780290897,0.9809058951905013,0.2862967034178678,0.7035707401758553
0.0625,1.7433476716803282,1.0,3133.367002158562,0.505148573982575,1.304616013133308,0.9810977658657153,0.2862736022105738,0.7041106012205622
0.063,1.742797642935233,1.0,3136.7975886083873,0.5079243220138239,1.3043385171887734,0.9812855122539461,0.28625050100327976,0.7046494481994219
0.0635,1.7422476141901375,1.0,3140.199101587419,0.5106845046835379,1.3040612835299215,0.9814692535396832,0.28622739979598577,0.7051872954659972
0.064,1.7416975854450423,1.0,3143.572277768615,0.5134292063371594,1.3037843054911888,0.9816491045763405,0.2862042985886918,0.7057241573253701
0.0645,1.7411475566999468,1.0,3146.9178559564953,0.5161585113201307,1.3035075764070112,0.9818251760753749,0.28618119738139774,0.7062600480342547
0.065,1.7405975279548516,1.0,3150.236577050214,0.518872503977894,1.3032310896118249,0.9819975747858204,0.28615809617410376,0.7067949818011016
0.0655,1.740047499209756,1.0,3153.529184006659,0.5215712686558917,1.3029548384400658,0.9821664036647864,0.2861349949668097,0.7073289727862042
0.066,1.7394974704646609,1.0,3156.7964218057373,0.5242548896995659,1.3026788162261702,0.9823317620394355,0.28611189375951573,0.7078620351017995
0.0665,1.7389474417195654,1.0,3160.0390374155527,0.526923451454359,1.3024030163045741,0.9824937457609288,0.28608879255222175,0.7083941828121667
0.067,1.7383974129744701,1.0,3163.257779759344,0.5295770382657135,1.3021274320097136,0.9826524473507852,0.28606569134492776,0.7089254299337242
0.0675,1.7378473842293747,1.0,3166.4533996829823,0.5322157344790713,1.301852056676025,0.9828079561400856,0.2860425901376337,0.7094557904351205
0.068,1.7372973554842794,1.0,3169.6266499238827,0.5348396244398749,1.3015768836379442,0.9829603584019142,0.28601948893033974,0.7099852782373274
0.0685,1.736747326739184,1.0,3172.7782850801896,0.5374487924935665,1.3013019062299074,0.983109737477412,0.2859963877230457,0.7105139072137249
0.069,1.7361972979940887,1.0,3175.9090615817277,0.5400433229855884,1.3010271177863504,0.9832561738957952,0.2859732865157517,0.7110416911901873
0.0695,1.7356472692489935,1.0,3179.0197376613337,0.542623300261383,1.3007525116417098,0.9833997454886615,0.2859501853084577,0.7115686439451634
0.07,1.735097240503898,1.0,3182.111073327602,0.5451888086663923,1.3004780811304213,0.9835405274988993,0.28592708410116374,0.7120947792097576
