Time [s],Phi [rad],STIM [ ],Fsee [N],Gamma [ ],Lcerel [ ],q [ ],Lmtc [m],fisomrel [ ]
0.0,1.8,1.0,17.96689758013293,1.1445541582643906e-05,1.379339775414336,0.005000034876758285,0.288653,0.5411394604228354
0.0005,1.79999375,1.0,18.276740529608215,0.005620590649940949,1.3793023881912225,0.01294452864866132,0.2886527375,0.5412299053330203
0.001,1.799975,1.0,21.619451194112813,0.011198272889156225,1.378938192867444,0.035616112979842254,0.28865195,0.5421104782728183
0.0015,1.79994375,1.0,31.072502217937192,0.01674466874191046,1.3780459254660995,0.07061202276547578,0.2886506375,0.5442642800971951
0.002,1.7999,1.0,53.58994721550399,0.02225995369923151,1.376367641290894,0.11473005666991103,0.2886488,0.5483016536643142
0.0025,1.79984375,1.0,97.13194861274874,0.027744302268067823,1.3739345403131473,0.1645879683255039,0.28864643749999996,0.554122957783148
0.003,1.7997750000000001,1.0,160.975407187159,0.033197887978991716,1.371213698450233,0.21729394232081173,0.28864354999999997,0.5605879785806744
0.0035,1.79969375,1.0,237.7029831611518,0.0386208833858013,1.3685841289238412,0.27062630321946224,0.2886401375,0.5667912624536137
0.004,1.7996,1.0,321.4878081622073,0.044013460076300116,1.3661555352201824,0.3229287902093731,0.2886362,0.5724812628431817
0.0045000000000000005,1.7994937500000001,1.0,409.289648530475,0.049375788677482296,1.3639223001500012,0.3730468369628281,0.2886317375,0.5776803554002949
0.005,1.799375,1.0,499.4359278887621,0.05470803884662707,1.3618578658499527,0.42025899604672334,0.28862675,0.5824581789621097
0.0055,1.79924375,1.0,590.8131110561103,0.06001037931869828,1.3599383916581267,0.46418437855369077,0.2886212375,0.5868761294979623
0.006,1.7991000000000001,1.0,682.540889955426,0.06528297784966604,1.358146000641507,0.5046897777827664,0.2886152,0.5909803642362683
0.006500000000000001,1.79894375,1.0,773.887573830163,0.07052600103834107,1.356467145799759,0.5418099128769994,0.2886086375,0.5948060394303998
0.007,1.798775,1.0,864.3156554450878,0.07573961554828261,1.354889912920401,0.5756848870722763,0.28860155,0.5983837681994584
0.0075,1.79859375,1.0,953.279660767866,0.08092398559932415,1.3534062186292442,0.6065172226688326,0.2885939375,0.6017348362059276
0.008,1.7984,1.0,1040.381549800273,0.08607927517206071,1.352008306316067,0.6345388090411853,0.2885858,0.6048793121316771
0.0085,1.79819375,1.0,1125.3406104018668,0.0912056478059021,1.3506888680159914,0.6599905392532712,0.2885771375,0.6078358349797913
0.009000000000000001,1.797975,1.0,1207.9055328164084,0.09630326554366457,1.3494419619187283,0.6831098961270444,0.28856795,0.6106196277117029
0.0095,1.79774375,1.0,1287.8936872536547,0.10137228957821615,1.3482621041987808,0.7041226909969028,0.2885582375,0.6132446006984615
0.01,1.7975,1.0,1365.1812981650135,0.10641288053901782,1.3471442021428608,0.7232388892465449,0.288548,0.6157235424700147
0.0105,1.79724375,1.0,1439.6800503553368,0.11142519790412049,1.346083689174791,0.7406508688754379,0.2885372375,0.6180678574208123
0.011,1.796975,1.0,1511.332130092458,0.11640939986764288,1.3450764325161526,0.7565330286731279,0.28852595000000003,0.6202878052357308
0.0115,1.79669375,1.0,1580.1168309586255,0.12136564395908656,1.3441185330132301,0.7710422505485817,0.2885141375,0.6223929695051735
0.012,1.7964,1.0,1646.0672073605767,0.12629408829960187,1.343206045608465,0.7843188523883108,0.28850180000000003,0.6243928898526796
0.0125,1.79609375,1.0,1709.1915942742614,0.13119488811181687,1.342335832403806,0.7964882834942643,0.2884889375,0.6262952099884991
0.013000000000000001,1.7957750000000001,1.0,1769.5141768011902,0.13606819781742074,1.3415049867023117,0.8076622534216904,0.28847555,0.628106964468922
0.0135,1.79544375,1.0,1827.0909227164402,0.1409141718381026,1.3407106018070398,0.8179400420183648,0.2884616375,0.6298350950774386
0.014,1.7951000000000001,1.0,1881.9884278978336,0.14573296360373553,1.3399499718615395,0.82740992026509,0.2884472,0.63148602242136
0.0145,1.79474375,1.0,1934.2932056646357,0.1505247266530269,1.3392204495823,0.8361503346057587,0.2884322375,0.6330659648762191
0.015,1.794375,1.0,1984.063706317603,0.15528961160474006,1.3385199297535635,0.8442311992942969,0.28841675,0.634579901657023
0.0155,1.79399375,1.0,2031.372519288478,0.16002776883568887,1.3378463508713199,0.8517147216857814,0.2884007375,0.6360326632746589
0.016,1.7936,1.0,2076.305400752513,0.1647393484007391,1.337197686556962,0.858656308721106,0.2883842,0.6374289546576304
0.0165,1.7931937500000001,1.0,2118.953472422468,0.16942449983434865,1.3365720093812015,0.8651053916519794,0.2883671375,0.6387732222611622
0.017,1.792775,1.0,2159.4084643982437,0.1740833723698458,1.3359675212541275,0.8711061416969395,0.28834955,0.6400695939488437
0.0175,1.7923437500000001,1.0,2197.7391116473123,0.17871611213186908,1.3353827748741214,0.8766981486078504,0.2883314375,0.6413214104519592
0.018000000000000002,1.7919,1.0,2234.023609249776,0.18332286524505698,1.3348163229395635,0.881916861627795,0.2883128,0.6425319830779015
0.0185,1.79144375,1.0,2268.348820982593,0.18790377783404794,1.3342667181488352,0.8867940730843566,0.2882936375,0.643704595465584
0.019,1.790975,1.0,2300.793588081174,0.1924589942303508,1.3337326710729187,0.8913583802166325,0.28827395,0.6448421691917572
0.0195,1.79049375,1.0,2331.457305895032,0.19698866125201347,1.333212757024986,0.8956354819313551,0.2882537375,0.6459478908029579
0.02,1.79,1.0,2360.4077062297224,0.20149292103872873,1.3327059248771762,0.8996486234457386,0.288233,0.647024131223287
0.0205,1.78949375,1.0,2387.7115584996527,0.20597191498189216,1.3322111821120777,0.9034187988912027,0.2882117375,0.6480731201520917
0.021,1.788975,1.0,2413.4401467285556,0.21042578447289942,1.3317275362122785,0.9069649881976006,0.28818995000000003,0.6490970718065417
0.021500000000000002,1.78844375,1.0,2437.6688902102305,0.2148546709031462,1.3312539946603665,0.9103043779708906,0.2881676375,0.6500981856554524
0.022,1.7879,1.0,2460.465950521025,0.21925871375909536,1.3307896705890085,0.9134525762602151,0.2881448,0.6510784242079567
0.0225,1.78734375,1.0,2481.909913577222,0.2236380551146678,1.3303336087442492,0.916423748499323,0.28812143749999997,0.652039881804851
0.023,1.786775,1.0,2502.06126606423,0.22799283311427604,1.3298850549697254,0.9192308184775217,0.28809755,0.6529842171799147
0.0235,1.78619375,1.0,2520.9734313548815,0.2323231840589579,1.329443345352876,0.9218855765112741,0.28807313749999996,0.6539128896769951
0.024,1.7856,1.0,2538.701963264097,0.23662924424975132,1.3290078159811396,0.9243987798267036,0.2880482,0.6548273502019151
0.0245,1.78499375,1.0,2555.304367093104,0.24091114998769414,1.3285778029419544,0.9267802573102322,0.2880227375,0.6557290414982087
0.025,1.784375,1.0,2570.839930446284,0.24516903757382424,1.3281526423227594,0.9290390023689057,0.28799675,0.6566193983947421
0.025500000000000002,1.78374375,1.0,2585.359435438791,0.24940303975587738,1.3277317648056453,0.9311832695094071,0.2879702375,0.6574996503105142
0.026000000000000002,1.7831000000000001,1.0,2598.925310278798,0.25361329560302576,1.3273145053217825,0.9332206194612441,0.2879432,0.6583712200445051
0.0265,1.78244375,1.0,2611.579406869272,0.25779993673910706,1.326900402510518,0.935158027402411,0.2879156375,0.6592350983369302
0.027,1.781775,1.0,2623.362508389733,0.26196309399261736,1.3264890143354058,0.9370019119587316,0.28788755,0.6600922306068087
0.0275,1.7810937500000001,1.0,2634.316308449346,0.2661028981920525,1.3260798987600002,0.9387581845852097,0.2878589375,0.66094355747662
0.028,1.7804,1.0,2644.483331321753,0.27021948016590847,1.3256726137478556,0.9404322963484358,0.2878298,0.6617900148426021
0.0285,1.77969375,1.0,2653.906856512424,0.27431297074268124,1.3252667172625263,0.9420292798270455,0.2878001375,0.6626325339325885
0.029,1.778975,1.0,2662.6260699641866,0.27838349842455756,1.3248618112369541,0.9435537919829434,0.28776995,0.6634719502546097
0.029500000000000002,1.7782437500000001,1.0,2670.676130114434,0.28243119122434623,1.324457540020936,0.9450101478031622,0.2877392375,0.66430900740932
0.03,1.7775,1.0,2678.106946169929,0.28645618553319296,1.3240534172480825,0.9464023299988404,0.287708,0.6651447154650516
0.0305,1.77674375,1.0,2684.944933370578,0.29045860570476323,1.3236491767302647,0.9477340568686502,0.2876762375,0.6659796250058097
0.031,1.775975,1.0,2691.2168648914276,0.2944385760927224,1.3232445522793541,0.9490087801997541,0.28764395,0.6668142838702804
0.0315,1.7751937500000001,1.0,2696.949840006721,0.2983962210507358,1.3228392777072218,0.9502297076929577,0.2876111375,0.6676492371475745
0.032,1.7744,1.0,2702.171253824387,0.302331664932469,1.322433086825739,0.951399823239542,0.2875778,0.6684850271684486
0.0325,1.77359375,1.0,2706.9087685923682,0.30624503209158715,1.3220257134467768,0.9525219052787065,0.2875439375,0.6693221934920103
0.033,1.772775,1.0,2711.190286574856,0.31013644688175585,1.3216168913822066,0.9535985434379122,0.28750955,0.6701612728879016
0.0335,1.7719437500000002,1.0,2715.0439245005587,0.31400603365664037,1.3212063544438994,0.9546321536350921,0.2874746375,0.671002799313967
0.034,1.7711000000000001,1.0,2718.4940611365973,0.31785391393824736,1.3207938722239994,0.9556249950618061,0.2874392,0.6718472306872844
0.0345,1.7702437500000001,1.0,2721.562323153271,0.32168020913724843,1.3203792408156307,0.9565791820615192,0.2874032375,0.6726949682857146
0.035,1.7693750000000001,1.0,2724.278854816865,0.3254850475429743,1.319962180044869,0.9574966859048448,0.28736675,0.6735465667759399
0.035500000000000004,1.76849375,1.0,2726.6597985019416,0.3292685466585604,1.3195425382979196,0.9583793630959867,0.2873297375,0.6744023157465644
0.036000000000000004,1.7676,1.0,2728.7213902673107,0.3330308239871421,1.3191201639609869,0.9592289531379473,0.2872922,0.6752625030405386
0.0365,1.76669375,1.0,2730.4799498105735,0.3367719970318549,1.3186949054202763,0.9600470872359088,0.2872541375,0.6761274147294678
0.037,1.765775,1.0,2731.9518709323556,0.34049218329583425,1.318266611061993,0.9608352962590173,0.28721555,0.6769973350864609
0.0375,1.76484375,1.0,2733.153612510253,0.34419150028221557,1.3178351292723418,0.9615950180313234,0.2871764375,0.6778725465575057
0.038,1.7639,1.0,2734.101689982068,0.34787006549413424,1.317400308437528,0.9623276040151991,0.28713679999999997,0.6787533297313841
0.0385,1.76294375,1.0,2734.8126673393886,0.3515279964347257,1.3169619969437567,0.9630343254439742,0.28709663750000003,0.6796399633081185
0.039,1.761975,1.0,2735.3017120362106,0.3551654085991883,1.3165200562305475,0.9637163797716001,0.28705595,0.6805326977162343
0.0395,1.7609937500000001,1.0,2735.5781391016303,0.3587824094545196,1.3160744011812073,0.964374898334611,0.2870147375,0.6814316738454758
0.04,1.76,1.0,2735.667129265002,0.3623791310384504,1.3156248028773667,0.9650109392886915,0.286973,0.6823373208183144
0.0405,1.7589937500000001,1.0,2735.57761955881,0.365955683565206,1.3151711800919546,0.9656255097819388,0.2869307375,0.6832497679829234
0.041,1.757975,1.0,2735.3185644991904,0.369512177249012,1.3147134515978998,0.9662195604813307,0.28688795,0.6841691434417615
0.0415,1.75694375,1.0,2734.8989332402857,0.3730487223040937,1.3142515361681313,0.9667939893248525,0.2868446375,0.6850955740305156
0.042,1.7559,1.0,2734.3277068751054,0.3765654289446766,1.3137853525755778,0.967349644986962,0.28680079999999997,0.6860291852966209
0.0425,1.75484375,1.0,2733.6138758825127,0.38006240738498615,1.3133148195931683,0.9678873300820172,0.2867564375,0.686970101477361
0.043000000000000003,1.753775,1.0,2732.7664377200667,0.3835397678392477,1.312839855993832,0.9684078041279457,0.28671155,0.6879184454775463
0.043500000000000004,1.75269375,1.0,2731.7943945642965,0.3869976205216868,1.3123603805504973,0.9689117862903508,0.28666613750000003,0.6888743388467746
0.044,1.7516,1.0,2730.706751195748,0.39043607564652866,1.3118763120360935,0.9693999579253586,0.2866202,0.6898379017562668
0.0445,1.75049375,1.0,2729.5125130317992,0.393855243427999,1.3113875692235493,0.9698729649378252,0.2865737375,0.6908092529752848
0.045,1.7493750000000001,1.0,2728.220684304731,0.39725523408032304,1.3108940708857937,0.970331419970003,0.28652675,0.6917885098471273
0.0455,1.74824375,1.0,2726.8351962642746,0.4006361397016727,1.3103957819037404,0.9707759053629487,0.2864792375,0.6927756969909619
0.046,1.7471,1.0,2725.3685010599856,0.40399809056676905,1.3098925896575242,0.9712069736423773,0.2864312,0.6937709913117134
0.0465,1.7459437500000001,1.0,2723.8258126247288,0.40734119178710976,1.3093844473040883,0.9716251510712645,0.28638263750000004,0.694774438030433
0.047,1.744775,1.0,2722.211624011252,0.41066554576141023,1.3088713145392037,0.9720309380096083,0.28633355,0.6957860684146184
0.0475,1.74359375,1.0,2720.5304259939535,0.41397125488838576,1.308353151058642,0.9724248103319921,0.28628393750000003,0.6968059127302499
0.048,1.7424,1.0,2718.786706501141,0.4172584215667518,1.3078299165581742,0.9728072208512715,0.2862338,0.6978340002289144
0.0485,1.74119375,1.0,2716.9849500845585,0.42052714819522363,1.3073015707335718,0.9731786006466999,0.2861831375,0.6988703591348201
0.049,1.739975,1.0,2715.129637423849,0.4237775371725166,1.3067680732806064,0.9735393603037279,0.28613195,0.6999150166317107
0.0495,1.73874375,1.0,2713.225244867915,0.42700969089734614,1.3062293838950487,0.9738898910721122,0.2860802375,0.7009679988496775
0.05,1.7375,1.0,2711.276244011704,0.43022371176842755,1.3056854622726706,0.9742305659484007,0.286028,0.7020293308518613
0.0505,1.73624375,1.0,2709.2871013091462,0.4334197021844762,1.305136268109243,0.9745617406883833,0.2859752375,0.703099036621059
0.051000000000000004,1.734975,1.0,2707.262277722399,0.4365977645442074,1.3045817611005377,0.9748837547546123,0.28592195,0.7041771390462213
0.051500000000000004,1.73369375,1.0,2705.206228406749,0.4397580012463366,1.3040219009423255,0.9751969322037083,0.2858681375,0.7052636599088482
0.052000000000000005,1.7324,1.0,2703.122385418881,0.44290050419655,1.3034566566196315,0.9755015819839404,0.2858138,0.7063586018916934
0.0525,1.73109375,1.0,2701.012284634788,0.4460253609800849,1.3028860144003582,0.9757979999425994,0.28575893750000003,0.70746193329294
0.053,1.729775,1.0,2698.8813474137523,0.4491327075618975,1.3023099250174455,0.9760864716873449,0.28570355000000003,0.7085736901656458
0.0535,1.72844375,1.0,2696.731336422916,0.4522226375556978,1.3017283725864066,0.9763672679737132,0.2856476375,0.7096938430368578
0.054,1.7271,1.0,2694.5640117944536,0.455295244575196,1.3011413412227553,0.9766406478288473,0.2855912,0.7108223616280616
0.0545,1.7257437500000001,1.0,2692.3811310637752,0.4583506222341021,1.300548815042005,0.9769068591561171,0.2855342375,0.7119592148496385
0.055,1.724375,1.0,2690.18444911414,0.4613888641461263,1.299950778159669,0.9771661393036593,0.28547675,0.7131043707953093
0.0555,1.72299375,1.0,2687.9757181262767,0.46441006392497863,1.2993472146912608,0.9774187155992708,0.2854187375,0.7142577967365569
0.056,1.7216,1.0,2685.7566875339876,0.4674143151843692,1.298738108752294,0.9776648058539118,0.2853602,0.7154194591170362
0.0565,1.72019375,1.0,2683.5291039850567,0.4704017115380082,1.298123444458282,0.9779046188358997,0.28530113749999997,0.7165893235469694
0.057,1.718775,1.0,2681.2947113081414,0.4733723465996056,1.2975032059247382,0.9781383547177274,0.28524155,0.7177673547975217
0.0575,1.71734375,1.0,2679.055250484542,0.4763263139828716,1.2968773772671762,0.9783662054972948,0.2851814375,0.7189535167951617
0.058,1.7159,1.0,2676.8124596263447,0.4792637073015163,1.2962459426011093,0.9785883553952103,0.2851208,0.7201477726160086
0.0585,1.71444375,1.0,2674.5680739599698,0.48218462016924973,1.295608886042051,0.9788049812297042,0.2850596375,0.7213500844801586
0.059000000000000004,1.7129750000000001,1.0,2672.323825814721,0.48508914619978205,1.2949661917055146,0.9790162527705822,0.28499795,0.722560413746
0.059500000000000004,1.71149375,1.0,2670.0814446178456,0.48797737900682336,1.294317843707014,0.9792223330735444,0.2849357375,0.7237787209045079
0.06,1.71,1.0,2667.8426568944033,0.49084941220408373,1.293663826162062,0.9794233787961066,0.284873,0.7250049655735273
0.0605,1.7084937500000001,1.0,2665.6091862732546,0.49370533940527334,1.2930041231861729,0.9796195404962679,0.2848097375,0.7262391064920346
0.061,1.7069750000000001,1.0,2663.3795086617447,0.49654520794804297,1.292338748753055,0.9798109608345735,0.28474595,0.7274810458466139
0.0615,1.7054437500000001,1.0,2661.156063865766,0.4993691534924096,1.291667680369792,0.9799977820609539,0.2846816375,0.7287307532771201
0.062,1.7039,1.0,2658.9402473892765,0.5021772801356851,1.2909909051234192,0.9801801390130503,0.2846168,0.7299881796411137
0.0625,1.70234375,1.0,2656.732317755181,0.5049696717769249,1.2903084205549509,0.9803581604299685,0.2845514375,0.7312532555959496
0.063,1.7007750000000001,1.0,2654.5325330698456,0.5077464123151847,1.289620224205401,0.9805319702423337,0.28448555,0.7325259111326956
0.0635,1.69919375,1.0,2652.3411510263372,0.5105075856495204,1.2889263136157838,0.9807016877858843,0.28441913750000003,0.7338060755752351
0.064,1.6976,1.0,2650.1584289079606,0.5132532756789874,1.2882266863271135,0.9808674280040462,0.2843522,0.7350936775793742
0.0645,1.69599375,1.0,2647.9846235924165,0.5159835663026415,1.2875213398804044,0.981029301640133,0.2842847375,0.7363886451319419
0.065,1.694375,1.0,2645.8199915558002,0.5186985414195385,1.2868102718166703,0.9811874154197732,0.28421675,0.737690905549897
0.0655,1.69274375,1.0,2643.66478887625,0.5213982849287341,1.2860934796769254,0.9813418722241303,0.2841482375,0.739000385479428
0.066,1.6911,1.0,2641.519271238604,0.5240828807292837,1.2853709610021844,0.981492771254441,0.2840792,0.7403170108950566
0.0665,1.6894437500000001,1.0,2639.3836939387356,0.5267524127202432,1.2846427133334608,0.9816402081883671,0.2840096375,0.7416407070987413
0.067,1.687775,1.0,2637.258311887703,0.5294069648006683,1.2839087342117692,0.9817842753286201,0.28393955,0.7429713987189763
0.0675,1.68609375,1.0,2635.1433796169667,0.5320466208696146,1.2831690211781235,0.9819250617442966,0.2838689375,0.7443090097098963
0.068,1.6844000000000001,1.0,2633.0391512826786,0.5346714648261378,1.2824235717735377,0.982062653405325,0.2837978,0.7456534633503744
0.0685,1.68269375,1.0,2630.9458806706507,0.5372815805692936,1.2816723835390265,0.9821971333104088,0.2837261375,0.7470046822431237
0.069,1.680975,1.0,2628.8638212016203,0.5398770519981377,1.2809154540156036,0.9823285816088211,0.28365395,0.7483625883137988
0.0695,1.67924375,1.0,2626.7932259362974,0.5424579630117259,1.2801527807442834,0.9824570757163863,0.28358123749999997,0.749727102810094
0.07,1.6775,1.0,2624.734347580637,0.5450243975091136,1.2793843612660798,0.9825826904259648,0.283508,0.7510981463008438
0.07050000000000001,1.67574375,1.0,2622.687438491316,0.5475764393893566,1.2786101931220073,0.9827054980127354,0.2834342375,0.7524756386751206
0.07100000000000001,1.673975,1.0,2620.6527506812745,0.5501141725515107,1.2778302738530798,0.9828255683345551,0.28335995,0.7538594991413351
0.07150000000000001,1.67219375,1.0,2618.6330378887424,0.5526376760982825,1.2770445777810477,0.9829429675782144,0.2832851375,0.7552496872516613
0.07200000000000001,1.6704,1.0,2616.6227006421445,0.5551470252147256,1.2762531567368578,0.9830577630202446,0.2832098,0.7566460248498759
0.0725,1.66859375,1.0,2614.6235138956913,0.5576422987674643,1.275455994144233,0.9831700168898635,0.2831339375,0.7580484543686618
0.073,1.6667750000000001,1.0,2612.637790417893,0.5601235756044156,1.2746530684053932,0.9832797891578331,0.28305755,0.7594569260698419
0.0735,1.66494375,1.0,2610.663342342609,0.5625909343289328,1.2738443997202606,0.9833871396938565,0.2829806375,0.7608713161411037
0.074,1.6631,1.0,2608.7048153871037,0.5650444534468315,1.2730299447834383,0.9834921236313601,0.2829032,0.7622916111337775
0.0745,1.6612437500000001,1.0,2606.760661352316,0.5674842103248736,1.272209717836043,0.9835947967936054,0.2828252375,0.7637176961595085
0.075,1.659375,1.0,2604.822396447703,0.5699102818856151,1.2713837976744644,0.9836952160395742,0.28274675,0.7651493442595196
0.0755,1.6574993348459623,1.0,2603.152834788003,0.5723227449906712,1.270552260204096,0.9837934363374259,0.28266797206353045,0.7665863344976249
