Time [s],Phi [rad],STIM [ ],Fsee [N],Gamma [ ],Lcerel [ ],q [ ],Lmtc [m],fisomrel [ ]
0.0,1.8,1.0,18.417600490053932,0.0006836695222817631,1.3792895940026795,0.005120456828353978,0.288653,0.5412608542132735
0.0005,1.79999375,1.0,18.93367892390012,0.006289043985760475,1.3792300593245335,0.014916083189330902,0.2886527375,0.5414048536502258
0.001,1.799975,1.0,22.775534636332853,0.011862976730347733,1.3788216565154892,0.03920501171808285,0.28865195,0.542392068095857
0.0015,1.79994375,1.0,33.34109738292286,0.017405644120044673,1.377856063505352,0.07546813588232912,0.2886506375,0.5447219236997429
0.002,1.7999,1.0,58.05535395785671,0.02291722152790897,1.3760837643803254,0.12044482807301211,0.2886488,0.5489827875303694
0.0025,1.79984375,1.0,104.28897982518686,0.02839788334366352,1.3735958119496459,0.17078193039811665,0.28864643749999996,0.5549303867783318
0.003,1.7997750000000001,1.0,170.05859248789977,0.03384780298171365,1.3708783895101957,0.22366892674127054,0.28864354999999997,0.5613814419461849
0.0035,1.79969375,1.0,247.84082919534805,0.03926715287956432,1.3682751296027624,0.27695636302161125,0.2886401375,0.5675173115946064
0.004,1.7996,1.0,332.2022722247784,0.04465610450943696,1.3658740850814741,0.32905047131303655,0.2886362,0.5731382457455174
0.0045000000000000005,1.7994937500000001,1.0,420.33945765308806,0.05001482838197043,1.3636646533263979,0.37885264339183666,0.2886317375,0.5782781247480577
0.005,1.799375,1.0,510.6685763672334,0.05534349401897535,1.361620505538316,0.4256873101643103,0.28862675,0.583005771601444
0.0055,1.79924375,1.0,602.1297006470406,0.06064227013075509,1.359718345892902,0.46920769550883734,0.2886212375,0.5873810957527885
0.006,1.7991000000000001,1.0,693.8446563038867,0.0659113242451117,1.3579413754222405,0.5093047548515824,0.2886152,0.591447614033274
0.006500000000000001,1.79894375,1.0,785.1213106211675,0.07115082312331085,1.3562760702386512,0.5460285225349194,0.2886086375,0.5952403117834939
0.007,1.798775,1.0,875.3817031332356,0.07636093259781593,1.3547117323857163,0.5795290662929509,0.28860155,0.5987869480482271
0.0075,1.79859375,1.0,964.1336622406874,0.08154181733861497,1.3532397485749004,0.6100134390030107,0.2885939375,0.6021099490648634
0.008,1.7984,1.0,1051.017312928174,0.08669364166215722,1.3518521160363801,0.637715337088917,0.2885858,0.6052298738543422
0.0085,1.79819375,1.0,1135.712882123999,0.09181656820179324,1.350542373291544,0.6628762251334853,0.2885771375,0.6081634072931499
0.009000000000000001,1.797975,1.0,1217.981905624267,0.09691075899146329,1.3493045665110883,0.6857324685240891,0.28856795,0.6109257647146068
0.0095,1.79774375,1.0,1297.6669749677274,0.10197637569013582,1.3481330219657386,0.7065080187154331,0.2885582375,0.6135312468654419
0.01,1.7975,1.0,1374.6348375662515,0.10701357825693678,1.347022908859802,0.7254109110002538,0.288548,0.615992030377811
0.0105,1.79724375,1.0,1448.7982719056588,0.11202252591328085,1.345969748575107,0.742631387487583,0.2885372375,0.618319301884175
0.011,1.796975,1.0,1520.1206351007872,0.11700337719075399,1.3449692330965761,0.7583416131705912,0.28852595000000003,0.6205236869156892
0.0115,1.79669375,1.0,1588.597763323327,0.12195629040957018,1.34401735065377,0.7726963894768211,0.2885141375,0.6226149950547226
0.012,1.7964,1.0,1654.2151901824495,0.12688142144053707,1.343110792916118,0.7858344323719775,0.28850180000000003,0.6246013513535487
0.0125,1.79609375,1.0,1716.9984690891595,0.13177892611881473,1.3422462600168599,0.7978793820744523,0.2884889375,0.6264907445933416
0.013000000000000001,1.7957750000000001,1.0,1776.9879253887257,0.13664895924530093,1.3414207035072963,0.8089413294154257,0.28847555,0.6282905077059404
0.0135,1.79544375,1.0,1834.26781401317,0.14149167644163047,1.3406309459322547,0.8191180623374689,0.2884616375,0.6300081590347493
0.014,1.7951000000000001,1.0,1888.8797200335748,0.1463072298148326,1.3398746046331405,0.8284967455232995,0.2884472,0.631649404099064
0.0145,1.79474375,1.0,1940.8824742233687,0.15109577118274975,1.3391493619510095,0.8371548423278424,0.2884322375,0.6332197394394871
0.015,1.794375,1.0,1990.3558770390719,0.15585745236322424,1.3384529002269188,0.8451612127328083,0.28841675,0.6347245992601638
0.0155,1.79399375,1.0,2037.379235108412,0.16059242396021,1.3377831083780196,0.8525771882018459,0.2884007375,0.6361689148421016
0.016,1.7936,1.0,2082.0571302643134,0.16530083725447184,1.3371377847725945,0.8594573657680513,0.2883842,0.6375577617303181
0.0165,1.7931937500000001,1.0,2124.457318408995,0.16998284009698877,1.3365152665238262,0.8658505939882036,0.2883671375,0.6388950108303515
0.017,1.792775,1.0,2164.6550543897883,0.1746385800462603,1.33591393744912,0.8718005039858258,0.28834955,0.6401843961333824
0.0175,1.7923437500000001,1.0,2202.7364891565385,0.17926820466078586,1.3353321813658812,0.8773461122542057,0.2883314375,0.6414296177946421
0.018000000000000002,1.7919,1.0,2238.7832891722264,0.183871860191469,1.3347685270981766,0.8825224008555468,0.2883128,0.642634034644507
0.0185,1.79144375,1.0,2272.8962084194713,0.18844969420999072,1.3342213995034233,0.8873607235713556,0.2882936375,0.6438011993430265
0.019,1.790975,1.0,2305.1467057343116,0.19300185053335048,1.333689594248748,0.891889341983467,0.28827395,0.6449338478638584
0.0195,1.79049375,1.0,2335.6059144986148,0.197528472316779,1.333171973661458,0.89613370370219,0.2882537375,0.6460345534646963
0.02,1.79,1.0,2364.3507162138744,0.20202970271550696,1.33266740006886,0.900116745556746,0.288233,0.647105870317044
0.0205,1.78949375,1.0,2391.460121438044,0.20650568436025368,1.3321747662244305,0.9038591816736574,0.2882117375,0.648150270037452
0.021,1.788975,1.0,2417.010204017151,0.21095655922524792,1.3316930390176032,0.9073797590690976,0.28818995000000003,0.6491700505971518
0.021500000000000002,1.78844375,1.0,2441.080606948018,0.2153824699695107,1.3312211910904856,0.910695458671174,0.2881676375,0.6501674826932398
0.022,1.7879,1.0,2463.729334235708,0.2197835549905533,1.3307584383652304,0.913821731733076,0.2881448,0.6511443094712821
0.0225,1.78734375,1.0,2485.017397970954,0.2241599526858871,1.3303039967639902,0.9167726152657345,0.28812143749999997,0.6521022631432842
0.023,1.786775,1.0,2505.008568895995,0.22851180145302344,1.3298570822089175,0.9195608810571073,0.28809755,0.6530430654228936
0.0235,1.78619375,1.0,2523.76914060134,0.23283923968947365,1.329416910622165,0.9221981672276236,0.28807313749999996,0.6539684279213922
0.024,1.7856,1.0,2541.3554275816155,0.23714240258872948,1.328982813602195,0.9246951138435584,0.2880482,0.6548798098035185
0.0245,1.78499375,1.0,2557.8383857922017,0.24142143102787064,1.3285540034193504,0.9270614264320736,0.2880227375,0.6557789121081554
0.025,1.784375,1.0,2573.2649822372064,0.2456764587504493,1.3281299348659197,0.9293060255000575,0.28799675,0.6566669191482376
0.025500000000000002,1.78374375,1.0,2587.6814574470923,0.24990761886175378,1.3277100829842408,0.9314370886053996,0.2879702375,0.6575449665512183
0.026000000000000002,1.7831000000000001,1.0,2601.135349858534,0.25411504446707234,1.3272939228166518,0.9334621194812426,0.2879432,0.6584141839518098
0.0265,1.78244375,1.0,2613.675384086349,0.25829886867169316,1.326880929405491,0.9353880126514852,0.2879156375,0.6592756951243699
0.027,1.781775,1.0,2625.3513653059454,0.26245922458090465,1.326470577793096,0.9372211110619554,0.28788755,0.6601306180977105
0.0275,1.7810937500000001,1.0,2636.2037752635497,0.2665962419774784,1.3260624383285462,0.9389672705285707,0.2878589375,0.6609798670639127
0.028,1.7804,1.0,2646.2824652053478,0.2707100557331825,1.3256560023340764,0.9406318820436839,0.2878298,0.6618245157646301
0.0285,1.77969375,1.0,2655.630933656672,0.2748007974873755,1.325250827012963,0.9422199316935268,0.2878001375,0.662665495941912
0.029,1.778975,1.0,2664.281287920692,0.2788685944018485,1.324846580532241,0.9437360426306385,0.28776995,0.663503504835811
0.029500000000000002,1.7782437500000001,1.0,2672.2661670777798,0.28291357363839253,1.3244429310589445,0.9451844933373224,0.2877392375,0.664339236243243
0.03,1.7775,1.0,2679.6186948397713,0.2869358623587987,1.3240395467601085,0.9465692477301029,0.287708,0.665173380534131
0.0305,1.77674375,1.0,2686.372434845633,0.2909355877248581,1.3236360958027675,0.9478939822773474,0.2876762375,0.666006624660529
0.031,1.775975,1.0,2692.5613483982743,0.2949128768983618,1.3232322463539565,0.9491621104588565,0.28764395,0.6668396521587219
0.0315,1.7751937500000001,1.0,2698.2197546430925,0.2988678570411009,1.32282766658071,0.9503768048567736,0.2876111375,0.6676731431443048
0.032,1.7744,1.0,2703.3748044330537,0.3028006501005616,1.322422093048082,0.9515410238836387,0.2875778,0.6685076336559121
0.0325,1.77359375,1.0,2708.060790223271,0.30671138723801683,1.3220151995186882,0.9526575178300879,0.2875439375,0.6693437859660059
0.033,1.772775,1.0,2712.300018560114,0.3106001904582019,1.3216067713697341,0.9537288607924594,0.28750955,0.670182030003621
0.0335,1.7719437500000002,1.0,2716.1139170519536,0.3144671808937033,1.3211966037186311,0.9547574552817555,0.2874746375,0.6710227734681653
0.034,1.7711000000000001,1.0,2719.5240815785523,0.3183124796771073,1.320784491682791,0.9557455448960902,0.2874392,0.6718664218616497
0.0345,1.7702437500000001,1.0,2722.552259014998,0.3221362079410004,1.320370230379626,0.9566952267053316,0.2874032375,0.6727133784646215
0.035,1.7693750000000001,1.0,2725.2203308858984,0.32593848681796894,1.3199536149265474,0.9576084625322937,0.28736675,0.6735640443094217
0.035500000000000004,1.76849375,1.0,2727.5502979505645,0.3297194374405994,1.3195344404409672,0.9584870892403256,0.2873297375,0.6744188181507589
0.036000000000000004,1.7676,1.0,2729.5595098409826,0.3334791762874348,1.3191125452689376,0.9593328315062224,0.2872922,0.6752780084565697
0.0365,1.76669375,1.0,2731.265316337291,0.33721782057234645,1.3186877685296083,0.9601473070595401,0.2872541375,0.676141920247509
0.037,1.765775,1.0,2732.6995000181514,0.34093550325287,1.3182598189109436,0.9609320247600606,0.28721555,0.6770111213863949
0.0375,1.76484375,1.0,2733.874307799069,0.3446323382934186,1.3178285832359709,0.961688415222377,0.2871764375,0.6778858153004323
0.038,1.7639,1.0,2734.8020355365697,0.34830843965840574,1.317393948327718,0.962417823249605,0.28713679999999997,0.6787662039698403
0.0385,1.76294375,1.0,2735.495022250714,0.3519639213122445,1.3169558010092126,0.96312151391867,0.28709663750000003,0.6796524879037258
0.039,1.761975,1.0,2735.965644630723,0.3555988972193484,1.316514028103483,0.9638006781704057,0.28705595,0.6805448661151389
0.0395,1.7609937500000001,1.0,2736.2263118261717,0.35921348134413067,1.3160685164335566,0.9644564379496687,0.2870147375,0.6814435360953144
0.04,1.76,1.0,2736.2894605205415,0.3628077876510045,1.3156191528224614,0.9650898509361193,0.286973,0.6823486937870911
0.0405,1.7589937500000001,1.0,2736.1675502900102,0.36638193010438336,1.315165824093225,0.9657019149022672,0.2869307375,0.6832605335575205
0.041,1.757975,1.0,2735.873059245128,0.36993602266868053,1.3147084170688754,0.966293571731771,0.28688795,0.6841792481696517
0.0415,1.75694375,1.0,2735.4184799575946,0.3734701793083092,1.31424681857244,0.9668657111277481,0.2868446375,0.6851050287535074
0.042,1.7559,1.0,2734.816315670258,0.37698451398768285,1.3137809154269473,0.967419174037983,0.28680079999999997,0.6860380647762339
0.0425,1.75484375,1.0,2734.0689510983902,0.38047912633480463,1.3133106864171282,0.9679547610755865,0.2867564375,0.6869783602577422
0.043000000000000003,1.753775,1.0,2733.1962862753335,0.3839541448710327,1.3128359513222216,0.9684732216254118,0.28671155,0.6879262358428591
0.043500000000000004,1.75269375,1.0,2732.2058992835946,0.3874096776200273,1.3123566418399821,0.9689752710201812,0.28666613750000003,0.688881786665973
0.044,1.7516,1.0,2731.104286277874,0.39084583090462677,1.3118726995224033,0.9694615875594269,0.2866202,0.6898450870300025
0.0445,1.75049375,1.0,2729.8979453111083,0.3942627110476693,1.3113840659214788,0.9699328143074912,0.2865737375,0.690816210109082
0.045,1.7493750000000001,1.0,2728.5933750604213,0.39766042437199317,1.3108906825892017,0.9703895612656972,0.28652675,0.691795227931187
0.0455,1.74824375,1.0,2727.1970736284884,0.40103907720043663,1.3103924910775657,0.9708324073901635,0.2864792375,0.6927822113605335
0.046,1.7471,1.0,2725.715537421532,0.40439877585583794,1.3098894329385642,0.9712619024676252,0.2864312,0.6937772300797677
0.0465,1.7459437500000001,1.0,2724.155260102201,0.40773962666103536,1.3093814497241907,0.9716785688605164,0.28638263750000004,0.6947803525719327
0.047,1.744775,1.0,2722.522731618554,0.411061735938867,1.3088684829864385,0.9720829031315953,0.28633355,0.6957916461022198
0.0475,1.74359375,1.0,2720.824437309311,0.41436521001217136,1.3083504742773013,0.9724753775574825,0.28628393750000003,0.6968111766995004
0.048,1.7424,1.0,2719.0668570835023,0.41765015520378646,1.3078273651487724,0.9728564415396832,0.2862338,0.6978390091376414
0.0485,1.74119375,1.0,2717.281173525692,0.420916661544048,1.3072988720538394,0.9732265052592933,0.2861831375,0.6988756480689988
0.049,1.739975,1.0,2715.453154874898,0.42416484652385483,1.3067651249453305,0.9735859912333679,0.28613195,0.6999207848127417
0.0495,1.7387482851135427,1.0,2713.7623367000565,0.42739482364608744,1.3062265356714853,0.9739353206364413,0.2860804279747688,0.7009735613859711
0.05,1.7375214330165554,1.0,2712.5686422760787,0.4306066911635885,1.3056833562781334,0.9742748824188155,0.28602890018669536,0.7020334365259432
0.0505,1.736294580919568,1.0,2711.850899765718,0.43380054732920087,1.3051358388111047,0.9746050475513509,0.28597737239862187,0.7030998720441439
0.051000000000000004,1.7350677288225804,1.0,2711.581282453793,0.4369764903957672,1.3045842353162294,0.9749261700234261,0.2859258446105484,0.7041723328980479
0.051500000000000004,1.733840876725593,1.0,2711.7320848787394,0.4401346186161303,1.3040287978393368,0.9752385877771617,0.2858743168224749,0.7052502872588255
0.052000000000000005,1.7326140246286057,1.0,2712.2757007033333,0.4432750302431329,1.3034697784262572,0.9755426235824948,0.28582278903440145,0.7063332065749948
0.0525,1.7313871725316183,1.0,2713.1846019935424,0.44639782352961777,1.3029074291228202,0.9758385858573215,0.28577126124632796,0.7074205656320269
0.053,1.730160320434631,1.0,2714.431319906555,0.4495030967284277,1.3023420019748555,0.9761267694365902,0.2857197334582545,0.7085118426078969
0.0535,1.7289334683376436,1.0,2715.988426786127,0.4525909480924054,1.3017737490281933,0.9764074562939278,0.28566820567018103,0.7096065191245823
0.054,1.7277066162406562,1.0,2717.828519667627,0.45566147587439365,1.3012029223286632,0.976680916219095,0.28561667788210754,0.7107040802955144
0.0545,1.7264797641436689,1.0,2719.9242051910837,0.4587147783272352,1.300629773922095,0.9769474074543227,0.2855651500940341,0.7118040147689737
0.055,1.7252529120466815,1.0,2722.248085922072,0.4617509537037728,1.3000545558543184,0.9772071772923322,0.2855136223059606,0.7129058147674354
0.0555,1.7240260599496942,1.0,2724.772748082528,0.46477010025684923,1.2994775201711635,0.9774604626386474,0.2854620945178872,0.7140089761228647
0.056,1.7227992078527066,1.0,2727.4778658931937,0.46777231248227874,1.2988988542199262,0.9777074864078529,0.2854105667298137,0.7151131216390794
0.0565,1.7215723557557192,1.0,2730.354468548945,0.47075768527367484,1.2983186419536825,0.9779484563826365,0.2853590389417402,0.7162180735424445
0.057,1.7203455036587318,1.0,2733.3842491146647,0.4737263170329633,1.2977370520999945,0.9781835770324451,0.2853075111536667,0.7173234942819042
0.0575,1.7191186515617445,1.0,2736.5574020788918,0.4766782993949959,1.297154175961927,0.9784130395540447,0.28525598336559327,0.7184291954986868
0.058,1.7178917994647571,1.0,2739.8641101428975,0.4796137239946242,1.2965701048425444,0.978637027478976,0.2852044555775198,0.7195349901584254
0.0585,1.7166649473677698,1.0,2743.2945417093406,0.48253268246669995,1.2959849300449116,0.9788557170442643,0.28515292778944634,0.7206406925583827
0.059000000000000004,1.7154380952707824,1.0,2746.838848555416,0.48543526644607493,1.295398742872093,0.9790692775424027,0.28510140000137285,0.7217461183341425
0.059500000000000004,1.714211243173795,1.0,2750.4871636914922,0.48832156756760076,1.2948116346271534,0.9792778716519155,0.28504987221329936,0.722851084465771
0.06,1.7129843910768077,1.0,2754.22959940375,0.49119167746612913,1.2942236966131573,0.9794816557497278,0.2849983444252259,0.7239554092834464
0.0605,1.7117575389798203,1.0,2758.0562454820806,0.49404568777651175,1.2936350201331692,0.9796807802064688,0.28494681663715243,0.7250589124725553
0.061,1.7105306868828327,1.0,2761.9571676330047,0.4968836901336004,1.2930456964902541,0.9798753896657694,0.284895288849079,0.7261614150782585
0.0615,1.7093038347858454,1.0,2765.9284553562948,0.49970576932693306,1.2924557623650763,0.9800656198996902,0.2848437610610055,0.7272628413885907
0.062,1.708076982688858,1.0,2769.958189695244,0.5025120233103628,1.2918653266165172,0.9802516063766875,0.284792233272932,0.728362981884674
0.0625,1.7068501305918706,1.0,2774.0414382092035,0.5053025395949975,1.2912744348114178,0.9804334754610555,0.2847407054848586,0.7294617462541108
0.063,1.7056232784948833,1.0,2778.1740814816158,0.5080774045580914,1.2906831250707997,0.9806113483958505,0.2846891776967851,0.730559058670516
0.0635,1.704396426397896,1.0,2782.35198873932,0.5108367045768988,1.2900914355156852,0.9807853419942846,0.28463764990871165,0.731654843878983
0.064,1.7031695743009085,1.0,2786.571017514665,0.5135805260286744,1.2894994042670958,0.9809555688353332,0.28458612212063816,0.7327490271970557
0.0645,1.7019427222039212,1.0,2790.827013341294,0.5163089552906724,1.2889070694460532,0.9811221374493345,0.28453459433256467,0.733841534515604
0.065,1.7007158701069338,1.0,2795.1158094811576,0.5190220787401474,1.2883144691735795,0.9812851524941566,0.28448306654449124,0.734932292299608
0.0655,1.6994890180099462,1.0,2799.4332266837446,0.5217199827543536,1.2877216415706965,0.9814447149224814,0.28443153875641775,0.736021227588851
0.066,1.6982621659129589,1.0,2803.7750729784634,0.5244027537105456,1.287128624758426,0.9816009221407097,0.28438001096834425,0.7371082679985174
0.0665,1.6970353138159715,1.0,2808.1398105434323,0.527070468539413,1.2865354329572065,0.9817538663622734,0.2843284831802708,0.7381933853954917
0.067,1.6958084617189841,1.0,2812.524013939156,0.5297232143206126,1.2859420972478008,0.9819036381066215,0.28427695539219733,0.7392765211145702
0.0675,1.6945816096219968,1.0,2816.9209616046437,0.5323610909907013,1.2853486781074681,0.9820503270343709,0.28422542760412384,0.7403575634640324
0.068,1.6933547575250094,1.0,2821.329312876928,0.5349841786507112,1.2847551877176335,0.9821940161617689,0.2841738998160504,0.7414364893746661
0.0685,1.692127905428022,1.0,2825.747722871238,0.5375925574016754,1.2841616382597227,0.9823347857004576,0.2841223720279769,0.7425132759615768
0.069,1.6909010533310347,1.0,2830.174842463872,0.5401863073446262,1.2835680419151616,0.9824727131720584,0.2840708442399035,0.7435879005242384
0.0695,1.6896742012340473,1.0,2834.6093182774202,0.5427655085805966,1.2829744108653751,0.982607873517323,0.28401931645183,0.7446603405465366
0.07,1.68844734913706,1.0,2839.049792670248,0.545330241210619,1.2823807572917891,0.9827403392001398,0.2839677886637565,0.7457305736967974
0.07050000000000001,1.6872204970400726,1.0,2843.4949037282986,0.5478805853357261,1.2817870933758293,0.9828701803066741,0.28391626087568306,0.7467985778278114
0.07100000000000001,1.685993644943085,1.0,2847.943285260925,0.5504166210569507,1.2811934312989208,0.9829974646399016,0.28386473308760957,0.7478643309768467
0.07150000000000001,1.6847667928460976,1.0,2852.3935667997403,0.5529384284753253,1.2805997832424894,0.9831222578097757,0.28381320529953613,0.7489278113656506
0.07200000000000001,1.6835399407491103,1.0,2856.844373600489,0.5554460876918825,1.2800061613879605,0.98324462331926,0.28376167751146264,0.7499889974004446
0.0725,1.682313088652123,1.0,2861.2943266488865,0.557939678807655,1.27941257791676,0.9833646226464429,0.28371014972338915,0.7510478676719086
