Time [s],Phi [rad],STIM [ ],Fsee [N],Gamma [ ],Lcerel [ ],q [ ],Lmtc [m],fisomrel [ ]
0.0,1.8,1.0,17.967045260775297,2.1569185952681018e-05,1.379339758869079,0.0050001232421391295,0.288653,0.5411395004500925
0.0005,1.79999375,1.0,18.28029006790402,0.005630657508675714,1.379301993925713,0.01297266466501791,0.2886527375,0.5412308590688087
0.001,1.799975,1.0,21.630542394999207,0.011208283280772625,1.3789370602377922,0.03566889118932006,0.28865195,0.5421132154921553
0.0015,1.79994375,1.0,31.099618915733085,0.016754622983149347,1.3780436158417737,0.07068425537782805,0.2886506375,0.5442698486010122
0.002,1.7999,1.0,53.64906006413459,0.022269852105038974,1.3763638076812557,0.11481559626991512,0.2886488,0.5483108554453662
0.0025,1.79984375,1.0,97.23181468469932,0.027754145151651487,1.373929729564033,0.1646810259107675,0.28864643749999996,0.5541344303194171
0.003,1.7997750000000001,1.0,161.10565153267837,0.03320767565177982,1.3712088245271634,0.217389945679577,0.28864354999999997,0.5605995171975817
0.0035,1.79969375,1.0,237.85030993681397,0.03863061615747756,1.3685795917599348,0.2707217906139452,0.2886401375,0.5668019277362238
0.004,1.7996,1.0,321.6446451299553,0.044023138254819176,1.3661513818503543,0.323021249388554,0.2886362,0.5724909616360843
0.0045000000000000005,1.7994937500000001,1.0,409.4521184397655,0.049385412569090605,1.3639184868423653,0.3731346059490615,0.2886317375,0.577689205785597
0.005,1.799375,1.0,499.60174229998955,0.054717608755903556,1.361854342678986,0.42034111122082063,0.28862675,0.5824663095802264
0.0055,1.79924375,1.0,590.9804551986524,0.060019895548196686,1.359935122453673,0.4642604045225749,0.2886212375,0.5868836340059291
0.006,1.7991000000000001,1.0,682.7084840540927,0.0652924407005796,1.3581429544647092,0.5047596449446006,0.2886152,0.5909873219620192
0.006500000000000001,1.79894375,1.0,774.0727056143111,0.07053541104179363,1.3564639856806147,0.5418735948619267,0.2886086375,0.5948132235736305
0.007,1.798775,1.0,864.4777567594105,0.07574897247251317,1.3548872946327162,0.5757431289338582,0.28860155,0.5983896942228052
0.0075,1.79859375,1.0,953.4329522197946,0.0809332899316315,1.3534038609881418,0.606570251052951,0.2885939375,0.6017401499957722
0.008,1.7984,1.0,1040.5466242369869,0.08608852748501623,1.3520058760509397,0.6345868606203071,0.2885858,0.604884767938809
0.0085,1.79819375,1.0,1125.5044784275522,0.09121484821990544,1.3506865483588721,0.6600341674987982,0.2885771375,0.6078410229596316
0.009000000000000001,1.797975,1.0,1208.0658541998196,0.09631241435315445,1.3494397713951378,0.6831495367695234,0.28856795,0.6106245094620977
0.0095,1.79774375,1.0,1288.0437433022437,0.10138138691647665,1.3482601186149517,0.7041587822788119,0.2885582375,0.6132490107853948
0.01,1.7975,1.0,1365.3349985715963,0.10642192715645782,1.3471422267430584,0.7232716950300002,0.288548,0.6157279158541806
0.0105,1.79724375,1.0,1439.828133313044,0.11143419370437144,1.3460818358638158,0.7406807813342163,0.2885372375,0.6180719479755449
0.011,1.796975,1.0,1511.472757679264,0.11641834511044076,1.3450747147349642,0.756560354577327,0.28852595000000003,0.6202915856204818
0.0115,1.79669375,1.0,1580.2571971848358,0.12137453922559291,1.3441168561572738,0.7710672159784423,0.2885141375,0.622396649580466
0.012,1.7964,1.0,1646.200124295745,0.12630293369200718,1.343204489875163,0.7843417353185079,0.28850180000000003,0.6243962950558967
0.0125,1.79609375,1.0,1709.3082115958975,0.13120368361079787,1.342334492888566,0.7965093370688026,0.2884889375,0.6262981344984958
0.013000000000000001,1.7957750000000001,1.0,1769.61873467748,0.13607694382047397,1.3415038063526141,0.8076816415663486,0.28847555,0.6281095352253707
0.0135,1.79544375,1.0,1827.1876760496434,0.14092286848142235,1.3407095269084717,0.8179579111127598,0.2884616375,0.6298374307200428
0.014,1.7951000000000001,1.0,1882.094539448746,0.1457416121737454,1.3399488103181318,0.8274263511443118,0.2884472,0.6314885406992565
0.0145,1.79474375,1.0,1934.3991717681924,0.15053332683886192,1.3392193054210306,0.83616550250228,0.2884322375,0.6330684401456428
0.015,1.794375,1.0,1984.1632371999085,0.15529816330320761,1.3385188686397236,0.8442452471595896,0.28841675,0.6345821925219438
0.0155,1.79399375,1.0,2031.4669049726863,0.16003627239321813,1.3378453563967654,0.8517277502964018,0.2884007375,0.6360348059985415
0.016,1.7936,1.0,2076.3943914182364,0.16474780400870573,1.3371967591260578,0.8586684129775902,0.2883842,0.637430949090827
0.0165,1.7931937500000001,1.0,2119.0446739390873,0.1694329087000947,1.3365710685232595,0.8651166329267949,0.2883671375,0.6387752418147685
0.017,1.792775,1.0,2159.4935774613264,0.17409173405113548,1.3359666514691164,0.8711166211928949,0.28834955,0.6400714575912922
0.0175,1.7923437500000001,1.0,2197.8150000383584,0.17872442659022883,1.3353820061492976,0.8767079419150892,0.2883314375,0.6413230546915578
0.018000000000000002,1.7919,1.0,2234.092503856904,0.18333113284577549,1.3348156307494718,0.8819260220449708,0.2883128,0.64253346111554
0.0185,1.79144375,1.0,2268.412201487649,0.18791199859659685,1.3342660861953402,0.886802650236846,0.2882936375,0.6437059426646985
0.019,1.790975,1.0,2300.8640698767717,0.19246716989064708,1.3337319732870296,0.8913663925951325,0.28827395,0.644843654355693
0.0195,1.79049375,1.0,2331.530566174781,0.19699679147886998,1.333212036516989,0.8956429857012821,0.2882537375,0.6459494219394157
0.02,1.79,1.0,2360.4774961570874,0.20150100530114612,1.3327052427216493,0.8996556733821347,0.288233,0.6470255786528332
0.0205,1.78949375,1.0,2387.7757024345588,0.20597995329735613,1.3322105587374402,0.9034254356557682,0.2882117375,0.6480744408908092
0.021,1.788975,1.0,2413.500645910648,0.21043377740738056,1.331726951400793,0.9069712400142179,0.28818995000000003,0.649098309038061
0.021500000000000002,1.78844375,1.0,2437.725156288617,0.21486261824630717,1.331253453477347,0.9103102752355631,0.2881676375,0.6500993289519487
0.022,1.7879,1.0,2460.5260494125832,0.21926661772664793,1.3307890952252424,0.9134581311112202,0.2881448,0.6510796380104131
0.0225,1.78734375,1.0,2481.9711310206503,0.2236459159063973,1.330333025209287,0.9164289914274628,0.28812143749999997,0.652041111148216
0.023,1.786775,1.0,2502.1158362087244,0.228000649715256,1.3298845368965049,0.9192357857561995,0.28809755,0.6529853071319469
0.0235,1.78619375,1.0,2521.0180070581036,0.23233095608292476,1.3294429237539194,0.9218902935692347,0.28807313749999996,0.6539137754734352
0.024,1.7856,1.0,2538.7376909718873,0.23663697193910432,1.3290074792485544,0.9244032624269958,0.2880482,0.6548280567554592
0.0245,1.78499375,1.0,2555.336950079034,0.24091883421349547,1.3285774968474333,0.9267845125984366,0.2880227375,0.6557296829256216
0.025,1.784375,1.0,2570.866986433866,0.2451766767110449,1.3281523889195521,0.9290430487586104,0.28799675,0.656619928719359
0.025500000000000002,1.78374375,1.0,2585.3939752371243,0.24941063860824406,1.327731442219835,0.9311871029460989,0.2879702375,0.657500324555188
0.026000000000000002,1.7831000000000001,1.0,2598.9647304786995,0.2536208532749867,1.3273141381175706,0.9332242573373657,0.2879432,0.6583719865699997
0.0265,1.78244375,1.0,2611.6201887769766,0.25780745210516787,1.3269000235433357,0.9351614869650495,0.2879156375,0.6592358884163475
0.027,1.781775,1.0,2623.402297217274,0.26197056649268285,1.326488645427706,0.9370052076633526,0.28788755,0.6600929987461149
0.0275,1.7810937500000001,1.0,2634.353926880414,0.26611032783142685,1.3260795507012582,0.9387613283488064,0.2878589375,0.6609442812961277
0.028,1.7804,1.0,2644.5187909231863,0.2702268675152949,1.325672286294568,0.9404352977782204,0.2878298,0.6617906949606791
0.0285,1.77969375,1.0,2653.941367209874,0.2743203169381823,1.3252663991382119,0.9420321464270909,0.2878001375,0.6626331938509613
0.029,1.778975,1.0,2662.657654031163,0.2783908022272291,1.3248615205677297,0.9435565339003422,0.28776995,0.6634725524694597
0.029500000000000002,1.7782437500000001,1.0,2670.7177862078684,0.28243845954694174,1.3244571572370818,0.9450127585714884,0.2877392375,0.6643097994822436
0.03,1.7775,1.0,2678.150894360444,0.2864634147911424,1.3240530139625553,0.9464048253786238,0.287708,0.665145548921505
0.0305,1.77674375,1.0,2684.985724190055,0.2904657934132522,1.3236488028948277,0.9477364491104713,0.2876762375,0.6659803966350286
0.031,1.775975,1.0,2691.251395615436,0.29444572086669235,1.323244236184576,0.9490110783300814,0.28764395,0.6668149355020729
0.0315,1.7751937500000001,1.0,2696.9773680962294,0.29840332260488406,1.322839025982478,0.9502319177747188,0.2876111375,0.6676497554294798
0.032,1.7744,1.0,2702.193407793593,0.30233872408124846,1.3224328844392108,0.9514019486097016,0.2875778,0.668485443342508
0.0325,1.77359375,1.0,2706.929556567746,0.3062520507492067,1.3220255237054521,0.9525239467649163,0.2875439375,0.669322583170374
0.033,1.772775,1.0,2711.2081266110686,0.31014342267710915,1.3216167286766463,0.9536005065341273,0.28750955,0.6701616066177695
0.0335,1.7719437500000002,1.0,2715.0590156323037,0.3140129666684111,1.3212062169067074,0.9546340423114862,0.2874746375,0.6710030810602081
0.034,1.7711000000000001,1.0,2718.5156277018477,0.31786081236225977,1.3207936757960395,0.9556268059656158,0.2874392,0.671847632555056
0.0345,1.7702437500000001,1.0,2721.5956006357405,0.3216870783061579,1.320378937896033,0.9565809152200996,0.2874032375,0.6726955872213326
0.035,1.7693750000000001,1.0,2724.316695613534,0.3254918830476081,1.3199618357580776,0.9574983509980931,0.28736675,0.6735472693186256
0.035500000000000004,1.76849375,1.0,2726.6967846871366,0.3292753451341133,1.3195422019335639,0.9583809678434142,0.2873297375,0.6744030012227344
0.036000000000000004,1.7676,1.0,2728.7538389105666,0.333037583113176,1.3191198689738814,0.9592305034332402,0.2872922,0.6752631033995304
0.0365,1.76669375,1.0,2730.505917091967,0.336778715532299,1.318694669430421,0.9600485872709766,0.2872541375,0.6761278943770241
0.037,1.765775,1.0,2731.971155166991,0.3404988609389851,1.3182664358545721,0.9608367486383687,0.28721555,0.676997690715649
0.0375,1.76484375,1.0,2733.167756193921,0.344198137880737,1.3178350007977253,0.9615964238775337,0.2871764375,0.6778728069767537
0.038,1.7639,1.0,2734.113980970393,0.34787666490505736,1.3174001968112705,0.9623289630661815,0.28713679999999997,0.6787535556893072
0.0385,1.76294375,1.0,2734.825277361486,0.35153455653573035,1.3169618824349383,0.9630356377842417,0.28709663750000003,0.6796401947809323
0.039,1.761975,1.0,2735.31523993183,0.3551719285469979,1.316519933397715,0.9637176468563957,0.28705595,0.6805329456693435
0.0395,1.7609937500000001,1.0,2735.601877483471,0.35878890447561257,1.3160741856485991,0.9643761174074292,0.2870147375,0.6814321083117822
0.04,1.76,1.0,2735.695322669257,0.362385595694982,1.3156245468996555,0.965012116042639,0.286973,0.6823378360790409
0.0405,1.7589937500000001,1.0,2735.60573004052,0.36596211357851416,1.3151709248629484,0.9656266488817654,0.2869307375,0.6832502809981944
0.041,1.757975,1.0,2735.343272551796,0.36951856949961664,1.3147132272505422,0.9662206656208959,0.28688795,0.6841695937294279
0.0415,1.75694375,1.0,2734.9181382549136,0.3730550748316974,1.3142513617745013,0.966795063280744,0.2868446375,0.6850959235423199
0.042,1.7559,1.0,2734.3405271818165,0.3765717409481642,1.31378523614689,0.96735068966852,0.28680079999999997,0.6860294182915831
0.0425,1.75484375,1.0,2733.620648416255,0.3800686792224249,1.3133147580797728,0.9678883465780022,0.2867564375,0.6869702243922622
0.043000000000000003,1.753775,1.0,2732.768717353822,0.3835460010278871,1.3128398352852142,0.9684087927500725,0.28671155,0.6879184867943879
0.043500000000000004,1.75269375,1.0,2731.7949531520417,0.38700381773795883,1.3123603754752786,0.9689127466138954,0.28666613750000003,0.6888743489570885
0.044,1.7516,1.0,2730.7092468660903,0.39044224023842705,1.311876289356411,0.9694008889895627,0.2866202,0.6898379468663143
0.0445,1.75049375,1.0,2729.519018233706,0.3938613768055464,1.311387510093893,0.9698738666352118,0.2865737375,0.6908093704002733
0.045,1.7493750000000001,1.0,2728.2313309958045,0.39726133590817136,1.3108939740888026,0.9703322932835261,0.28652675,0.6917887017706343
0.0455,1.74824375,1.0,2726.8520545166457,0.4006422239462749,1.3103956285939775,0.9707767519125511,0.2864792375,0.6927760004775179
0.046,1.7471,1.0,2725.3870571404254,0.4040041473198302,1.3098924208622555,0.9712077960910032,0.2864312,0.693771324911131
0.0465,1.7459437500000001,1.0,2723.8422052445458,0.4073472124288102,1.3093842981464747,0.9716259517400769,0.28638263750000004,0.6947747323355014
0.047,1.744775,1.0,2722.2237754324574,0.4106715256478273,1.3088712039397385,0.9720317184976576,0.28633355,0.6957862862781137
0.0475,1.74359375,1.0,2720.540786171337,0.41397719242422243,1.3083530567335226,0.9724255696293005,0.28628393750000003,0.6968060982241485
0.048,1.7424,1.0,2718.7944570662185,0.4172643170546159,1.3078298459698505,0.9728079603245264,0.2862338,0.6978341388079659
0.0485,1.74119375,1.0,2716.9894370448505,0.4205330034104635,1.3073015298549913,0.9731793216799423,0.2861831375,0.6988704392499423
0.049,1.739975,1.0,2715.136709663049,0.42378335510455856,1.306768008826773,0.9735400602880909,0.28613195,0.6999151427310488
0.0495,1.7387465085743574,1.0,2713.3675674120777,0.42701547491030933,1.3062293321876148,0.9738905736113884,0.286080353360123,0.7009680998339524
0.05,1.737517313052603,1.0,2712.1012259603053,0.4302294649770809,1.3056857577095289,0.9742312544596731,0.2860287271482093,0.7020287548901505
0.0505,1.7362881175308487,1.0,2711.335390534738,0.433425427197801,1.305137621092036,0.9745624825740662,0.28597710093629564,0.7030964036807814
0.051000000000000004,1.7350589220090944,1.0,2711.0293024243556,0.4366034625973968,1.3045852921420835,0.9748846223968597,0.28592547472438196,0.7041702800086787
0.051500000000000004,1.73382972648734,1.0,2711.150291240171,0.43976367042467823,1.304029068113561,0.9751980169146794,0.2858738485124683,0.7052497632079073
0.052000000000000005,1.7326005309655856,1.0,2711.663434943196,0.44290615069297595,1.3034692677365582,0.9755029951439438,0.2858222223005546,0.7063341949599399
0.0525,1.7313713354438314,1.0,2712.522715200032,0.44603100750124297,1.302906311620559,0.9757998783129557,0.2857705960886409,0.7074227244273877
0.053,1.7301421399220769,1.0,2713.7060012161287,0.4491383377351315,1.3023404030095584,0.9760889591288758,0.28571896987672724,0.7085149257270975
0.0535,1.7289129444003226,1.0,2715.1912034864017,0.4522282382802939,1.3017717451475523,0.9763705175271072,0.28566734366481356,0.709610375735334
0.054,1.7276837488785683,1.0,2716.9562609482577,0.4553008060223823,1.3012005412785366,0.9766448213427985,0.2856157174528999,0.710708654124734
0.0545,1.726454553356814,1.0,2718.979129051144,0.4583561378470491,1.3006269946465066,0.9769121269416494,0.2855640912409862,0.7118093433986267
0.055,1.7252253578350596,1.0,2721.2377687412977,0.4613943306399464,1.3000513084954586,0.9771726798127968,0.2855124650290725,0.7129120289227141
0.0555,1.7239961623133053,1.0,2723.7101363628904,0.4644154812867266,1.2994736860693876,0.9774267151263568,0.28546083881715884,0.7140162989541259
0.056,1.722766966791551,1.0,2726.377989894312,0.4674196844836451,1.298894295911704,0.977674456021861,0.28540921260524516,0.7151218108145623
0.0565,1.7215377712697966,1.0,2729.2239501848217,0.47040703614742707,1.2983132985940087,0.9779161160843345,0.2853575863933314,0.7162282394195212
0.057,1.7203085757480423,1.0,2732.2270396879503,0.4733776348154335,1.2977308872118434,0.9781519022673528,0.28530596018141774,0.7173352002552571
0.0575,1.719079380226288,1.0,2735.3769225415244,0.4763315724313545,1.2971471579438898,0.9783820070431141,0.2852543339695041,0.7184424952993272
0.058,1.7178501847045335,1.0,2738.663250615682,0.4792689409388804,1.2965622069688303,0.9786066151588938,0.2852027077575904,0.7195499279265838
0.0585,1.7166209891827793,1.0,2742.0756608059164,0.48218983228170126,1.2959761304653463,0.9788259040111589,0.2851510815456767,0.7206573029169652
0.059000000000000004,1.715391793661025,1.0,2745.6037725294336,0.48509433840350735,1.2953890246121202,0.9790400439987339,0.285099455333763,0.721764426462692
0.059500000000000004,1.7141625981392705,1.0,2749.2371854283515,0.48798255124798884,1.294800985587834,0.9792491988563513,0.28504782912184934,0.7228711061748779
0.06,1.7129334026175163,1.0,2752.9654772767717,0.4908545627588358,1.2942121095711692,0.9794535259698147,0.28499620290993566,0.7239771510895483
0.0605,1.711704207095762,1.0,2756.7782020936406,0.49371046487973863,1.293622492740808,0.9796531766739253,0.284944576698022,0.7250823716730681
0.061,1.7104750115740077,1.0,2760.6721789374315,0.4965503404530468,1.2930321653829004,0.979848292308509,0.2848929504861083,0.7261867029687771
0.0615,1.7092458160522532,1.0,2764.6324201378166,0.4993742908163015,1.2924412643639154,0.9800390159400515,0.2848413242741946,0.7272898816876102
0.062,1.708016620530499,1.0,2768.651642164242,0.5021824066172837,1.2918498566507517,0.9802254807860457,0.28478969806228094,0.7283917766994124
0.0625,1.7067874250087447,1.0,2772.7257168145256,0.5049747741820134,1.2912579805764866,0.9804078132991053,0.28473807185036726,0.7294923110666678
0.063,1.7055582294869902,1.0,2776.8505049328637,0.5077514798365107,1.2906656744741976,0.9805861352703358,0.2846864456384536,0.7305914084262112
0.0635,1.704329033965236,1.0,2781.0218560282224,0.5105126099067958,1.2900729766769625,0.9807605640368913,0.2846348194265399,0.7316889929903264
0.064,1.7030998384434817,1.0,2785.235607925248,0.5132582507188885,1.2894799255178586,0.9809312126788189,0.2845831932146262,0.7327849895477521
0.0645,1.7018706429217272,1.0,2789.4875864473215,0.5159884885988093,1.2888865593299634,0.9810981902058221,0.28453156700271254,0.7338793234645904
0.065,1.700641447399973,1.0,2793.7736051328225,0.518703409872578,1.2882929164463548,0.9812616017345257,0.28447994079079886,0.7349719206851246
0.0655,1.6994122518782186,1.0,2798.0894649835786,0.5214031008662148,1.2876990352001096,0.9814215486567934,0.2844283145788852,0.7360627077325449
0.066,1.6981830563564642,1.0,2802.430954246054,0.5240876479057398,1.287104953924306,0.9815781287996106,0.2843766883669715,0.7371516117095731
0.0665,1.69695386083471,1.0,2806.793848224792,0.526757137317173,1.286510710952021,0.9817314365770075,0.2843250621550578,0.7382385602990034
0.067,1.6957246653129556,1.0,2811.1768371592107,0.5294116446572585,1.2859163183911246,0.9818815611510283,0.28427343594314414,0.7393235295843912
0.0675,1.6944954697912011,1.0,2815.576561154666,0.5320512586374748,1.2853218066610304,0.9820285903720721,0.28422180973123046,0.7404064625117526
0.068,1.6932662742694469,1.0,2819.9872292132027,0.5346760770987401,1.2847272278275081,0.9821726107127846,0.2841701835193168,0.7414872631813211
0.0685,1.6920370787476926,1.0,2824.407591626176,0.5372861797426182,1.284132593214823,0.9823137026239245,0.2841185573074031,0.7425659103093747
0.069,1.6908078832259381,1.0,2828.83639474044,0.5398816462706731,1.283537914147239,0.98245194385631,0.2840669310954894,0.7436423827839062
0.0695,1.6895786877041838,1.0,2833.272380945502,0.5424625563844687,1.2829432019490206,0.9825874095704203,0.28401530488357574,0.7447166596646548
0.07,1.6883494921824296,1.0,2837.714288663979,0.5450289897855691,1.2823484679444324,0.9827201724408295,0.28396367867166206,0.7457887201831372
0.07050000000000001,1.6871202966606753,1.0,2842.160852344635,0.547581026175538,1.2817537234577387,0.9828503027557501,0.2839120524597484,0.746858543742666
0.07100000000000001,1.6858911011389208,1.0,2846.610802458396,0.5501187452559396,1.281158979813204,0.9829778685119505,0.2838604262478347,0.7479261099183623
0.07150000000000001,1.6846619056171666,1.0,2851.0628654969037,0.5526422267283375,1.2805642483350927,0.9831029355052847,0.283808800035921,0.7489913984571569
0.07200000000000001,1.6834327100954123,1.0,2855.5157639744853,0.555151550294296,1.2799695403476692,0.9832255674170719,0.28375717382400734,0.7500543892777897
0.0725,1.6822035145736578,1.0,2859.96821643236,0.5576467956553787,1.2793748671751979,0.9833458258965355,0.28370554761209366,0.7511150624707925
