Time [s],Phi [rad],STIM [ ],Fsee [N],Gamma [ ],Lcerel [ ],q [ ],Lmtc [m],fisomrel [ ]
0.0,1.8,1.0,17.96833708238553,1.0741227976491964e-05,1.379339614144003,0.005000030731854434,0.288653,0.5411398505774199
0.0005,1.79999375,1.0,18.27780965570836,0.005619890286976348,1.3793022694338484,0.01294257006179637,0.2886527375,0.541230192609478
0.001,1.799975,1.0,21.61991697093018,0.011197576454674566,1.3789381452966307,0.03561243311930616,0.28865195,0.5421105932370842
0.0015,1.79994375,1.0,31.07184475397664,0.016743976213874755,1.3780459814771235,0.07060698227681496,0.2886506375,0.5442641450542041
0.002,1.7999,1.0,53.58708857826062,0.022259265055731614,1.3763678267339403,0.11472408610791708,0.2886488,0.5483012085445493
0.0025,1.79984375,1.0,97.1262323806899,0.02774361748731276,1.3739348157503306,0.16458147432153186,0.28864643749999996,0.5541223009239997
0.003,1.7997750000000001,1.0,160.96748375858158,0.03319720703931546,1.3712139950194726,0.2172872452022449,0.28864354999999997,0.5605872764722033
0.0035,1.79969375,1.0,237.69375143986724,0.03862020626565907,1.3685844132762837,0.2706196443325617,0.2886401375,0.5667905940362811
0.004,1.7996,1.0,321.47780099824445,0.044012786754266967,1.3661558002651235,0.32292234419992516,0.2886362,0.5724806439164764
0.0045000000000000005,1.7994937500000001,1.0,409.2791503132785,0.04937511913225124,1.3639225465781621,0.3730407191968285,0.2886317375,0.5776797834568412
0.005,1.799375,1.0,499.42510536728,0.054707373056998354,1.3618580958237185,0.42025327339636875,0.28862675,0.5824576482360732
0.0055,1.79924375,1.0,590.8021115513762,0.06000971726365071,1.3599386065586476,0.46417908095387395,0.2886212375,0.5868756361881986
0.006,1.7991000000000001,1.0,682.5297992986208,0.06528231950823486,1.3581462022375814,0.5046849100237792,0.2886152,0.5909799037716755
0.006500000000000001,1.79894375,1.0,773.8929507825748,0.07052534662328533,1.3564670540121877,0.541805284835531,0.2886086375,0.5948062480990819
0.007,1.798775,1.0,864.2972969852477,0.07573896450144144,1.3548902094648085,0.5756809062692819,0.28860155,0.5983830970217612
0.0075,1.79859375,1.0,953.2545817523816,0.08092333810517958,1.3534066043655835,0.6065136685457071,0.2885939375,0.6017339668073596
0.008,1.7984,1.0,1040.3561305707838,0.08607863107817856,1.3520086805611404,0.6345355865090286,0.2885858,0.6048784719694037
0.0085,1.79819375,1.0,1125.3260153404083,0.09120500750486554,1.3506890746266482,0.6599875289035372,0.2885771375,0.6078353728874527
0.009000000000000001,1.797975,1.0,1207.9108577514567,0.09630262930681566,1.3494418891600621,0.6831070129871696,0.28856795,0.610619789860481
0.0095,1.79774375,1.0,1287.9019138070903,0.10137165703372542,1.3482619953397157,0.7041200479975148,0.2885582375,0.613244842480867
0.01,1.7975,1.0,1365.176458611013,0.10641225123529136,1.3471442643439424,0.723236567947529,0.288548,0.6157234047611704
0.0105,1.79724375,1.0,1439.6694957528277,0.11142457183530549,1.3460838212730406,0.7406487884758098,0.2885372375,0.6180675658579404
0.011,1.796975,1.0,1511.3320489811633,0.11640877758610907,1.3450764335069587,0.7565310708470373,0.28852595000000003,0.6202878030552217
0.0115,1.79669375,1.0,1580.1298586167954,0.12136502566766942,1.3441183773778833,0.7710403901454299,0.2885141375,0.6223933110676425
0.012,1.7964,1.0,1646.0644899279198,0.12629347267978908,1.3432060774154544,0.7843172259939262,0.28850180000000003,0.6243928202330904
0.0125,1.79609375,1.0,1709.181520257346,0.13119427561783462,1.3423359481203139,0.7964868267394607,0.2884889375,0.6262949573487429
0.013000000000000001,1.7957750000000001,1.0,1769.51458114412,0.13606758928210852,1.3415049821376333,0.8076608692217646,0.28847555,0.628106974410634
0.0135,1.79544375,1.0,1827.099675308213,0.14091356707818223,1.3407105045673755,0.8179387325334543,0.2884616375,0.6298353063694018
0.014,1.7951000000000001,1.0,1882.0004272720614,0.1457323624116272,1.3399498405095034,0.8274086989893429,0.2884472,0.6314863071988623
0.0145,1.79474375,1.0,1934.2873162103413,0.15052412776893,1.339220513174172,0.8361492725439543,0.2884322375,0.6330658273018224
0.015,1.794375,1.0,1984.0579039425745,0.15528901612716012,1.3385199916143853,0.8442302169047318,0.28841675,0.634579768103943
0.0155,1.79399375,1.0,2031.3785794871005,0.1600271773900471,1.3378462870186403,0.8517137715453652,0.2884007375,0.6360328008536944
0.016,1.7936,1.0,2076.319866886792,0.16473876079538002,1.3371975357944041,0.8586553992142865,0.2883842,0.6374292788717524
0.0165,1.7931937500000001,1.0,2118.966561555664,0.16942391558094805,1.336571874349144,0.8651045493766498,0.2883671375,0.6387735121081125
0.017,1.792775,1.0,2159.402645621368,0.17408278992755022,1.3359675807178342,0.8711054113599349,0.28834955,0.6400694665389208
0.0175,1.7923437500000001,1.0,2197.7294359751313,0.1787155328149564,1.335382872886501,0.8766974787884545,0.2883314375,0.6413212008112155
0.018000000000000002,1.7919,1.0,2234.0216318178245,0.18332228997438332,1.3348163428071516,0.8819162164773934,0.2883128,0.6425319406544769
0.0185,1.79144375,1.0,2268.353028232217,0.18790320635103033,1.3342666761989732,0.8867934542008035,0.2882936375,0.6437046848944222
0.019,1.790975,1.0,2300.8049303490156,0.19245842689009685,1.3337325587811526,0.8913577833809976,0.28827395,0.6448424081931905
0.0195,1.79049375,1.0,2331.4588780300805,0.19698809565234784,1.3332127415630664,0.8956349438082182,0.2882537375,0.6459479236607946
0.02,1.79,1.0,2360.4018373606987,0.20149235730036047,1.332705982242382,0.899648134126623,0.288233,0.6470240095029716
0.0205,1.78949375,1.0,2387.7108079147292,0.20597135476604814,1.3322111894065907,0.9034183280520577,0.2882117375,0.6480731046972523
0.021,1.788975,1.0,2413.448848257318,0.2104252284035512,1.331727452099054,0.9069645255933171,0.28818995000000003,0.6490972497572378
0.021500000000000002,1.78844375,1.0,2437.682956822544,0.21485411856700998,1.3312538593631345,0.9103039310214494,0.2881676375,0.6500984714828724
0.022,1.7879,1.0,2460.4837438047116,0.2192581656105648,1.3307895002421943,0.9134521473462452,0.2881448,0.6510787835762734
0.0225,1.78734375,1.0,2481.9188120426975,0.22363750854113135,1.3303335239221332,0.916423358696596,0.28812143749999997,0.6520400605012291
0.023,1.786775,1.0,2502.05913755476,0.22799228759549078,1.3298850751772953,0.9192304686831348,0.28809755,0.6529841746660403
0.0235,1.78619375,1.0,2520.969841256438,0.23232264170226413,1.3294433793083467,0.921885248182776,0.28807313749999996,0.6539128183351302
0.024,1.7856,1.0,2538.7020466156887,0.23662870612840067,1.3290078151955504,0.9243984632099201,0.2880482,0.6548273518502887
0.0245,1.78499375,1.0,2555.308755141952,0.24091061614084974,1.3285777617191696,0.9267799505133569,0.2880227375,0.6557291278814432
0.025,1.784375,1.0,2570.8446884810196,0.24516850700656068,1.3281525977594675,0.9290387105346657,0.28799675,0.6566194916572485
0.025500000000000002,1.78374375,1.0,2585.366139063734,0.24940251399248278,1.327731702196707,0.9311829899370445,0.2879702375,0.6574997811710745
0.026000000000000002,1.7831000000000001,1.0,2598.9219183297487,0.25361277010330824,1.3273145369183528,0.9332203674967405,0.2879432,0.6583711540877688
0.0265,1.78244375,1.0,2611.5663070853425,0.25779941108853766,1.326900524241307,0.9351578006265382,0.2879156375,0.659234844549613
0.027,1.781775,1.0,2623.3509228000667,0.2619625710922984,1.3264891217533525,0.9370016940174694,0.28788755,0.6600920069410859
0.0275,1.7810937500000001,1.0,2634.312780838001,0.26610237974829143,1.3260799313988083,0.9387579664681849,0.2878589375,0.6609434896012387
0.028,1.7804,1.0,2644.4896798425884,0.2702189666902176,1.3256725551219926,0.9404320757001122,0.2878298,0.66179013660814
0.0285,1.77969375,1.0,2653.9201341482226,0.2743124615517778,1.3252665948672244,0.9420290603255767,0.2878001375,0.6626327878299774
0.029,1.778975,1.0,2662.643309705771,0.278382993966673,1.3248616525788224,0.9435535774898455,0.28776995,0.6634722789660603
0.029500000000000002,1.7782437500000001,1.0,2670.6989635202076,0.2824306935686041,1.3244573302011051,0.9450099366801173,0.2877392375,0.6643094415777138
0.03,1.7775,1.0,2678.119814966551,0.28645568714855724,1.3240532991587046,0.946402138431784,0.287708,0.6651449595164511
0.0305,1.77674375,1.0,2684.943880010951,0.2904581049170988,1.3236491863840227,0.9477338880450049,0.2876762375,0.6659796050795922
0.031,1.775975,1.0,2691.2080495683836,0.2944380755351229,1.3232446329752818,0.9490086266698136,0.28764395,0.6668141175149086
0.0315,1.7751937500000001,1.0,2696.9379174440464,0.29839572270130116,1.322839386730952,0.950229564007147,0.2876111375,0.6676490126759655
0.032,1.7744,1.0,2702.1593635075205,0.30233117011430494,1.3224331954495034,0.9513996857904293,0.2875778,0.6684848038017293
0.0325,1.77359375,1.0,2706.898526706349,0.3062445414728059,1.322025806929406,0.9525217721566159,0.2875439375,0.6693220015033958
0.033,1.772775,1.0,2711.1817794890694,0.3101359604754754,1.3216169689691302,0.9535984142989559,0.28750955,0.6701611137471606
0.0335,1.7719437500000002,1.0,2715.035703639483,0.314005550820985,1.3212064293671457,0.9546320295805388,0.2874746375,0.6710026458329363
0.034,1.7711000000000001,1.0,2718.48706752012,0.3178534362080063,1.320793935921923,0.9556248752672717,0.2874392,0.671847100369009
0.0345,1.7702437500000001,1.0,2721.5535082526662,0.3216797321400156,1.3203793210565709,0.9565790682123996,0.2874032375,0.6726948043346004
0.035,1.7693750000000001,1.0,2724.2679770137092,0.32548457129511243,1.319962279014791,0.9574965779649829,0.28736675,0.6735463648203479
0.035500000000000004,1.76849375,1.0,2726.6479558201877,0.3292680723171848,1.3195426459995883,0.9583792600203392,0.2873297375,0.6744020962614217
0.036000000000000004,1.7676,1.0,2728.709499860498,0.3330303524076508,1.3191202720558277,0.9592288540338404,0.2872922,0.675262283045327
0.0365,1.76669375,1.0,2730.4687473353283,0.33677152876792843,1.3186950072283734,0.960046991355484,0.2872541375,0.6761272078051882
0.037,1.765775,1.0,2731.941910050385,0.3404917185994358,1.3182667015620901,0.9608352029920263,0.28721555,0.6769971513928172
0.0375,1.76484375,1.0,2733.145264509001,0.344191039103591,1.3178352051018423,0.9615949268982731,0.2871764375,0.6778723928503503
0.038,1.7639,1.0,2734.0951435023153,0.3478696074818121,1.3174003678924942,0.9623275146608412,0.28713679999999997,0.6787532093804508
0.0385,1.76294375,1.0,2734.8079281988967,0.3515275409355172,1.3169620399789104,0.9630342376311333,0.28709663750000003,0.6796398763150754
0.039,1.761975,1.0,2735.3000407318204,0.35516495666612424,1.3165200714059553,0.9637162925584162,0.28705595,0.6805326670828092
0.0395,1.7609937500000001,1.0,2735.579576673385,0.35878196022457,1.31607438812875,0.9643748114661581,0.2870147375,0.6814317001563658
0.04,1.76,1.0,2735.6664569011614,0.3623786781008466,1.315624808982008,0.9650108557786369,0.286973,0.6823373085302009
0.0405,1.7589937500000001,1.0,2735.5761235397176,0.36595522999900376,1.3151711936750907,0.9656254290393899,0.2869307375,0.6832497406805436
0.041,1.757975,1.0,2735.3172805990894,0.36951172552666195,1.3147134632556488,0.9662194820184549,0.28688795,0.6841691200434803
0.0415,1.75694375,1.0,2734.898646564493,0.37304827429144183,1.3142515387713327,0.9667939127551685,0.2868446375,0.6850955688132958
0.042,1.7559,1.0,2734.328951787219,0.376564985900964,1.3137853412697926,0.9673495700234577,0.28680079999999997,0.6860292079215554
0.0425,1.75484375,1.0,2733.6169360135345,0.38006196996284913,1.3133147917986794,0.9678872565351391,0.2867564375,0.6869701570157851
0.043000000000000003,1.753775,1.0,2732.771346051795,0.38353933608471785,1.312839811405643,0.9684077319034974,0.28671155,0.6879185344377606
0.043500000000000004,1.75269375,1.0,2731.8009335780516,0.3869971938741907,1.3123603211383341,0.9689117153873296,0.28666613750000003,0.6888744572013927
0.044,1.7516,1.0,2730.714453079211,0.39043565293888827,1.311876242044403,0.9693998884337569,0.2866202,0.6898380409702198
0.0445,1.75049375,1.0,2729.520659935287,0.39385482288643137,1.3113874951715003,0.96987289703642,0.2865737375,0.6908094000344989
0.045,1.7493750000000001,1.0,2728.228308639165,0.3972548133244404,1.3108940015672765,0.9703313539241483,0.28652675,0.6917886472879027
0.0455,1.74824375,1.0,2726.8461511548053,0.40063573386053614,1.3103956822793819,0.9707758405938383,0.2864792375,0.6927758942038171
0.046,1.7471,1.0,2725.3770190948894,0.40399768073219566,1.3098925121732021,0.9712069113660804,0.2864312,0.6937711444482837
0.0465,1.7459437500000001,1.0,2723.830715026676,0.4073407721206638,1.3093844026967372,0.971625091218326,0.28638263750000004,0.6947745260458648
0.047,1.744775,1.0,2722.2157346319827,0.4106651211323044,1.3088712771252433,0.9720308793053601,0.28633355,0.6957861421142256
0.0475,1.74359375,1.0,2720.5359990313614,0.41397082933647444,1.308353100318425,0.9724247517989345,0.28628393750000003,0.696806012512804
0.048,1.7424,1.0,2718.7954270210944,0.4172579983025307,1.3078298371359869,0.9728071617973806,0.2862338,0.6978341561506116
0.0485,1.74119375,1.0,2716.9979346251666,0.4205267295998299,1.3073014524376338,0.9731785406543468,0.2861831375,0.6988705909748746
0.049,1.739975,1.0,2715.147434672677,0.42377712479772894,1.30676791108307,0.9735392992191878,0.28613195,0.6999153339595969
0.0495,1.73874375,1.0,2713.2478364040085,0.4270092854655846,1.3062291779320006,0.9738898289956324,0.2860802375,0.7009684010940407
0.05,1.7375,1.0,2711.3030451040477,0.43022331317275364,1.3056852178441296,0.9742305032248093,0.286028,0.7020298073711322
0.0505,1.73624375,1.0,2709.3169617621916,0.433419309488593,1.3051359956791622,0.9745616778982069,0.2859752375,0.7030995667757856
0.051000000000000004,1.734975,1.0,2707.293482760719,0.4365973759824593,1.3045814762968027,0.974883692705689,0.28592195,0.7041776922731513
0.051500000000000004,1.73369375,1.0,2705.2364995895523,0.4397576142237095,1.3040216245567555,0.9751968719232644,0.2858681375,0.7052641957967831
0.052000000000000005,1.7324,1.0,2703.1498985891208,0.44290012578170046,1.3034564053187259,0.9755015252449438,0.2858138,0.7063590882367257
0.0525,1.73109375,1.0,2701.037560720311,0.4460250122257888,1.3028857834424177,0.9757979485626558,0.28575893750000003,0.7074623794275283
0.053,1.7297768924707366,1.0,2698.9966360285025,0.44913237291739916,1.3023097258353724,0.9760864245973163,0.2857036294837709,0.7085740741879527
0.0535,1.7284587708258023,1.0,2697.4562468155846,0.4522223049908036,1.3017285275566461,0.9763672437518626,0.2856482683746837,0.7096935448293948
0.054,1.7271406491808683,1.0,2696.4384275631137,0.4552949054058356,1.301142554072963,0.9766406881181865,0.2855929072655965,0.7108200322908562
0.0545,1.725822527535934,1.0,2695.905178199993,0.45835027063982076,1.3005521502311252,0.9769070263739292,0.2855375461565092,0.7119528220390534
0.055,1.724504405891,1.0,2695.8186511638946,0.4613884971700846,1.2999576608779344,0.9771665157660576,0.285482185047422,0.7130912043387695
0.0555,1.7231862842460657,1.0,2696.1411188457923,0.46440968147395295,1.2993594308601921,0.9774194027024324,0.28542682393833474,0.7142344743464983
0.056,1.7218681626011316,1.0,2696.8394006993285,0.4674139189365974,1.2987577642674057,0.9776659208181633,0.2853714628292475,0.7153820098531289
0.0565,1.7205500409561976,1.0,2697.878561151453,0.4704013060478138,1.298152981839811,0.9779062951595281,0.2853161017201603,0.7165331614159098
0.057,1.7192319193112633,1.0,2699.233311735312,0.4733719366141653,1.2975453165245476,0.9781407362750439,0.28526074061107304,0.7176874509384782
0.0575,1.7179137976663292,1.0,2700.880131531192,0.4763259039489701,1.296934985417174,0.9783694452286873,0.2852053795019858,0.7188444337860419
0.058,1.716595676021395,1.0,2702.7955205810044,0.47926330136554635,1.2963222056132477,0.9785926150039803,0.28515001839289855,0.7200036685602683
0.0585,1.715277554376461,1.0,2704.9559875801856,0.48218422217721224,1.295707194208327,0.978810430899052,0.28509465728381134,0.7211647171346902
0.059000000000000004,1.7139594327315266,1.0,2707.3412194828516,0.48508875854522826,1.295090139266976,0.9790230691983908,0.2850392961747241,0.7223271993220558
0.059500000000000004,1.7126413110865926,1.0,2709.9294631407306,0.48797700382754683,1.2944712419292845,0.9792307001064654,0.2849839350656369,0.7234907132545434
0.06,1.7113231894416585,1.0,2712.705456089893,0.4908490485972153,1.2938506439926372,0.9794334837829248,0.28492857395654964,0.7246549713810984
0.0605,1.7100050677967242,1.0,2715.6546693974506,0.4937049831073093,1.293228480465244,0.9796315738403694,0.2848732128474624,0.7258197010333035
0.061,1.7086869461517902,1.0,2718.76255922346,0.4965448976109043,1.2926048863553141,0.9798251180372594,0.28481785173837515,0.7269846316358218
0.0615,1.707368824506856,1.0,2722.014562337168,0.49936888236107574,1.2919799966710572,0.9800142585492864,0.28476249062928793,0.7281494947192901
0.062,1.7060507028619218,1.0,2725.405417183455,0.5021770202842198,1.2913538615948992,0.9801991272223984,0.2847071295202007,0.7293141815489169
0.0625,1.7047325812169876,1.0,2728.9093380699073,0.5049694119980987,1.2907267178572799,0.980379862026847,0.2846517684111135,0.7304782382778494
0.063,1.7034144595720535,1.0,2732.51798177577,0.507746144367289,1.2900986431949932,0.9805565866417195,0.28459640730202623,0.7316415089809438
0.0635,1.7020963379271195,1.0,2736.224343879701,0.5105073031635112,1.2894697030407294,0.9807294195174004,0.284541046192939,0.7328038616757396
0.064,1.7007782162821852,1.0,2740.0214056707796,0.5132529741584857,1.288839962827178,0.9808984748096924,0.28448568508385175,0.733965165414523
0.0645,1.6994600946372511,1.0,2743.9021329407246,0.5159832431239328,1.2882094879870294,0.9810638625687205,0.28443032397476453,0.7351252902878009
0.065,1.6981419729923168,1.0,2747.859474870318,0.5186981958315733,1.2875783439529735,0.9812256889182219,0.2843749628656773,0.7362841074275039
0.0655,1.6968238513473828,1.0,2751.8863630114756,0.5213979180531273,1.2869465961577007,0.9813840562257719,0.2843196017565901,0.7374414890099152
0.066,1.6955057297024485,1.0,2755.97571036352,0.5240824955603155,1.2863143100339005,0.9815390632644646,0.28426424064750283,0.7385973082583275
0.0665,1.6941876080575144,1.0,2760.120410545238,0.5267520141248583,1.2856815510142632,0.9816908053665409,0.2842088795384156,0.739751439445424
0.067,1.6928694864125804,1.0,2764.3133370607397,0.529406559518476,1.2850483845314788,0.981839374569412,0.28415351842932834,0.7409037578953896
0.0675,1.6915513647676461,1.0,2768.5536417814005,0.5320462057701069,1.2844148191668558,0.9819848562523503,0.28409815732024113,0.7420542431067751
0.068,1.690233243122712,1.0,2772.8307605256177,0.5346710504128669,1.283780951107515,0.9821273385945997,0.2840427962111539,0.7432027161623541
0.0685,1.6889151214777778,1.0,2777.139739089843,0.5372811785248223,1.28314682569745,0.9822669035870564,0.28398743510206664,0.7443490915097508
0.069,1.6875969998328437,1.0,2781.4780980046803,0.5398766700034044,1.2825124658612415,0.9824036290888252,0.28393207399297943,0.7454933247225793
0.0695,1.6862788781879094,1.0,2785.843350246101,0.542457604746045,1.2818778945234681,0.9825375903670953,0.2838767128838922,0.746635371744313
0.07,1.6849607565429754,1.0,2790.233001122014,0.5450240626501754,1.2812431346087103,0.9826688602018182,0.28382135177480494,0.7477751888886061
0.07050000000000001,1.6836426348980413,1.0,2794.6445481709575,0.5475761236132273,1.2806082090415474,0.9827975089854808,0.2837659906657177,0.7489127328395895
0.07100000000000001,1.682324513253107,1.0,2799.0754810716817,0.5501138675326321,1.2799731407465589,0.9829236048182345,0.2837106295566305,0.7500479606521286
0.07150000000000001,1.681006391608173,1.0,2803.523281565006,0.5526373743058216,1.2793379526483248,0.9830472135986283,0.2836552684475433,0.7511808297520479
0.07200000000000001,1.6796882699632387,1.0,2807.98542338697,0.5551467238302271,1.2787026676714244,0.9831683991101736,0.283599907338456,0.7523112979363252
0.0725,1.6783701483183047,1.0,2812.4593722139653,0.5576419960032802,1.2780673087404375,0.9832872231039607,0.2835445462293688,0.7534393233732468
0.073,1.6770520266733706,1.0,2816.9425856189882,0.5601232707224126,1.277431898779944,0.9834037453775326,0.28348918512028154,0.7545648646025348
