Time [s],Phi [rad],STIM [ ],Fsee [N],Gamma [ ],Lcerel [ ],q [ ],Lmtc [m],fisomrel [ ]
0.0,1.8,1.0,20.20386784724229,0.001528345815328106,1.3790965080556634,0.005597590469329419,0.288653,0.5417277984056197
0.0005,1.79999375,1.0,20.932999584103264,0.007128982312649943,1.3790173353370505,0.0176863976853068,0.2886527375,0.5419191948788323
0.001,1.799975,1.0,25.4156731230693,0.012698203667642858,1.3785661462833643,0.0439511980855808,0.28865195,0.543009160995416
0.0015,1.79994375,1.0,37.54004507341497,0.018236186094342268,1.3775209682757656,0.08173549386415066,0.2886506375,0.5455290768881644
0.002,1.7999,1.0,65.19142083442053,0.023743104818379195,1.3756518917014096,0.12772090198096914,0.2886488,0.5500180365470424
0.0025,1.79984375,1.0,114.68964653681513,0.02921913408300422,1.3731236562234481,0.17860490751390626,0.28864643749999996,0.5560546465766776
0.003,1.7997750000000001,1.0,182.63083720330795,0.03466444715291462,1.3704287256394203,0.23167812977483573,0.28864354999999997,0.5624443852715404
0.0035,1.79969375,1.0,261.5379289620375,0.040079216321270796,1.3678675148976676,0.2848788845784141,0.2886401375,0.5684741437596121
0.004,1.7996,1.0,346.47862803051055,0.04546361291261698,1.3655060315824536,0.33669075762194794,0.2886362,0.5739966226940255
0.0045000000000000005,1.7994937500000001,1.0,434.92525005553347,0.05081780730759003,1.3633296894923486,0.38608388518343917,0.2886317375,0.5790546451957703
0.005,1.799375,1.0,525.4048010143119,0.05614196889072549,1.3613130344145175,0.4324382696014248,0.28862675,0.5837145764099928
0.0055,1.79924375,1.0,616.8808128746626,0.06143626616198801,1.3594345988349814,0.47544866187717233,0.2886212375,0.5880317894143368
0.006,1.7991000000000001,1.0,708.5104283123947,0.0667008665599437,1.3576783581641982,0.5150343852772523,0.2886152,0.592047806444399
0.006500000000000001,1.79894375,1.0,799.6249774383988,0.07193593679410887,1.356031386636198,0.5512638480605087,0.2886086375,0.5957960833224049
0.007,1.798775,1.0,889.6409431419579,0.07714164229507717,1.354483788914745,0.584298301986536,0.28860155,0.5993024343005311
0.0075,1.79859375,1.0,978.1154056526489,0.082318148057084,1.3530266826222561,0.6143501564145184,0.2885939375,0.6025898002446584
0.008,1.7984,1.0,1064.6623313482928,0.087465617668832,1.3516528864622928,0.6416556685018562,0.2885858,0.6056768094475059
0.0085,1.79819375,1.0,1148.981331387705,0.09258421384468427,1.3503559456376926,0.6664561241639791,0.2885771375,0.6085800744780556
0.009000000000000001,1.797975,1.0,1230.8654280435198,0.09767409905139146,1.3491297197303753,0.688986259397432,0.28856795,0.6113151747480535
0.0095,1.79774375,1.0,1310.1374056912218,0.10273543401054455,1.347969020561701,0.7094680201541425,0.2885582375,0.6138952829379163
0.01,1.7975,1.0,1386.674241857332,0.10776837866153342,1.3468690399431569,0.7281068121427384,0.288548,0.616332490844747
0.0105,1.79724375,1.0,1460.4079224634315,0.11277309231862749,1.3458251929032237,0.745090085725039,0.2885372375,0.6186381886270669
0.011,1.796975,1.0,1531.3118893515866,0.11774973408281295,1.3448331732480638,0.7605873337636517,0.28852595000000003,0.6208229675627257
0.0115,1.79669375,1.0,1599.3519155116448,0.12269846060326911,1.343889435074161,0.7747510360159118,0.2885141375,0.622895588151704
0.012,1.7964,1.0,1664.5361809235724,0.12761942838586277,1.342990473163463,0.7877174627308107,0.28850180000000003,0.6248645896655096
0.0125,1.79609375,1.0,1726.8922022085228,0.13251279309411795,1.3421330360576655,0.7996081363889356,0.2884889375,0.626737836855753
0.013000000000000001,1.7957750000000001,1.0,1786.4918474788099,0.13737871083288375,1.341313781160954,0.8105311070173294,0.28847555,0.6285232869566724
0.0135,1.79544375,1.0,1843.3709831075682,0.14221733461485506,1.340530134268479,0.8205826830489639,0.2884616375,0.6302271290022056
0.014,1.7951000000000001,1.0,1897.5816453704354,0.14702881703437884,1.3397796313939736,0.8298484563744158,0.2884472,0.6318552362556615
0.0145,1.79474375,1.0,1949.1992451543076,0.15181331067801382,1.339059809391794,0.8384044766658313,0.2884322375,0.6334134108903071
0.015,1.794375,1.0,1998.3069735336983,0.15657096686957198,1.3383683497714287,0.8463184041625064,0.28841675,0.634907078676531
0.0155,1.79399375,1.0,2044.9951278964643,0.16130193737713971,1.3377030573391266,0.8536504872558498,0.2884007375,0.6363413426779545
0.016,1.7936,1.0,2089.3293833446355,0.16600637070718602,1.3370621657066126,0.8604545265809985,0.2883842,0.637720333064949
0.0165,1.7931937500000001,1.0,2131.388916063667,0.17068441536617998,1.336443908485612,0.866778505897779,0.2883671375,0.6390481391674911
0.017,1.792775,1.0,2171.261472296224,0.17533621946428238,1.3358465579019072,0.8726652920617595,0.28834955,0.64032872941786
0.0175,1.7923437500000001,1.0,2209.0345337651984,0.1799619303390426,1.3352685015590995,0.8781532595717859,0.2883314375,0.6415657903772836
0.018000000000000002,1.7919,1.0,2244.808831921564,0.18456169640934408,1.3347080925057904,0.8832767776383993,0.2883128,0.6427630510559161
0.0185,1.79144375,1.0,2278.6494392529,0.1891356615509778,1.3341641284975825,0.8880667962332889,0.2882936375,0.6439232628362602
0.019,1.790975,1.0,2310.6283979079394,0.19368396963973472,1.3336354072900791,0.8925511277763426,0.28827395,0.6450491549820887
0.0195,1.79049375,1.0,2340.8241468925803,0.1982067645514058,1.3331207266388831,0.8967548061687703,0.2882537375,0.6461434358532605
0.02,1.79,1.0,2369.3209813127437,0.20270419016178193,1.3326188842995974,0.900700401384826,0.288233,0.6472087940283515
0.0205,1.78949375,1.0,2396.1892951893433,0.2071763877689493,1.332128864761332,0.9044083355234649,0.2882117375,0.6482475038021327
0.021,1.788975,1.0,2421.5228303794556,0.2116235021182516,1.3316494702832566,0.9078970423034997,0.28818995000000003,0.6492622093776635
0.021500000000000002,1.78844375,1.0,2445.379810257413,0.21604567210712805,1.3311798869861815,0.9111832993299614,0.2881676375,0.6502547272188139
0.022,1.7879,1.0,2467.821577781353,0.22044303660598943,1.3307193027536377,0.9142823289041087,0.2881448,0.6512268583741956
0.0225,1.78734375,1.0,2488.9125051791293,0.22481573448524647,1.3302669054691572,0.917207963392887,0.28812143749999997,0.6521803927035295
0.023,1.786775,1.0,2508.7197375782507,0.22916390461530994,1.329821883016271,0.9199727913913506,0.28809755,0.6531171093227083
0.0235,1.78619375,1.0,2527.3047643549444,0.2334876837247491,1.3293835006138286,0.9225882999996852,0.28807313749999996,0.6540386145515944
0.024,1.7856,1.0,2544.7331406141657,0.23778721162703523,1.328951005834562,0.9250649728535224,0.2880482,0.654946542603412
0.0245,1.78499375,1.0,2561.058303367517,0.24206262418038688,1.3285237789301683,0.9274124141081604,0.2880227375,0.6558422406806184
0.025,1.784375,1.0,2576.3283291395496,0.24631405502328357,1.3281012658946472,0.929639424800368,0.28799675,0.6567269110916136
0.025500000000000002,1.78374375,1.0,2590.592737324854,0.2505416377942048,1.3276829127219985,0.931754071628972,0.2879702375,0.6576017497130968
0.026000000000000002,1.7831000000000001,1.0,2603.902366349183,0.25474550613163005,1.3272681654062217,0.9337637581870828,0.2879432,0.6584679461468301
0.0265,1.78244375,1.0,2616.3092566349605,0.2589257936740389,1.326856469941317,0.9356752884153406,0.2879156375,0.659326683856827
0.027,1.781775,1.0,2627.8554207509746,0.26308263091262346,1.3264473753305255,0.9374949377157152,0.28788755,0.6601789258284791
0.0275,1.7810937500000001,1.0,2638.5913123897235,0.2672161529876291,1.326040360837156,0.9392284791007459,0.2878589375,0.6610257752078351
0.028,1.7804,1.0,2648.564375042494,0.2713264927020477,1.325634941567948,0.9408812421357422,0.2878298,0.6618682551978287
0.0285,1.77969375,1.0,2657.807611226604,0.2754137777743189,1.3252307726599235,0.94245816689912,0.2878001375,0.6627070934790471
0.029,1.778975,1.0,2666.3546111657042,0.27947813592288234,1.3248275092501047,0.9439638207735626,0.28776995,0.6635430141402205
0.029500000000000002,1.7782437500000001,1.0,2674.2395013843607,0.2835196948661776,1.3244248064755135,0.9454024313641829,0.2877392375,0.6643767377019312
0.03,1.7775,1.0,2681.496895938853,0.2875385823226443,1.3240223194731724,0.946777916116605,0.287708,0.6652089811327342
0.0305,1.77674375,1.0,2688.1618502857254,0.291534926010722,1.3236197033801032,0.9480939090016979,0.2876762375,0.6660404578576979
0.031,1.775975,1.0,2694.269817786513,0.2955088536488504,1.323216613333328,0.9493537845893556,0.28764395,0.6668718777593555
0.0315,1.7751937500000001,1.0,2699.8486182463453,0.29946048812554243,1.3228127774991323,0.950560687350152,0.2876111375,0.6677037968217339
0.032,1.7744,1.0,2704.9341188028343,0.30338996056562173,1.322407853201305,0.9517175370690518,0.2875778,0.6685369138843296
0.0325,1.77359375,1.0,2709.5507275971017,0.3072973942755396,1.3220016049177283,0.9528270636757712,0.2875439375,0.6693717041785944
0.033,1.772775,1.0,2713.720672275889,0.31118291088268557,1.3215938189804564,0.9538918142600405,0.28750955,0.670208595642747
0.0335,1.7719437500000002,1.0,2717.4663687603525,0.31504663201444905,1.3211842817215431,0.9549141655967518,0.2874746375,0.6710480139509453
0.034,1.7711000000000001,1.0,2720.8104022928933,0.3188886792982197,1.3207727794730428,0.9558963375581495,0.2874392,0.6718903824908757
0.0345,1.7702437500000001,1.0,2723.775509497372,0.3227091743613868,1.3203590985670097,0.9568404053191116,0.2874032375,0.6727361223384342
0.035,1.7693750000000001,1.0,2726.384561450633,0.32650823883133995,1.3199430253354978,0.9577483104768014,0.28736675,0.6735856522294931
0.035500000000000004,1.76849375,1.0,2728.6587540432497,0.330285992535128,1.3195243624173418,0.9586218724741628,0.2873297375,0.6744393552990791
0.036000000000000004,1.7676,1.0,2730.611896603405,0.3340425479688613,1.319102980497062,0.959462801807393,0.2872922,0.6752974739728689
0.0365,1.76669375,1.0,2732.278874424899,0.3377780410249109,1.318678559501658,0.960272688851963,0.2872541375,0.6761606368429474
0.037,1.765775,1.0,2733.672578005204,0.34149258630940266,1.318250979965954,0.9610530417035535,0.28721555,0.6770290617050698
0.0375,1.76484375,1.0,2734.8059537319214,0.34518629842846227,1.3178201224247759,0.9618052770853958,0.2871764375,0.6779029648657542
0.038,1.7639,1.0,2735.6919974544635,0.34885929198821564,1.3173858674129477,0.9625307268912434,0.28713679999999997,0.678782561117764
0.0385,1.76294375,1.0,2736.3437483725875,0.3525116815947884,1.3169480954652948,0.9632306441909024,0.28709663750000003,0.679668063714676
0.039,1.761975,1.0,2736.774283240742,0.3561435818543064,1.3165066871166413,0.9639062087478157,0.28705595,0.6805596843445425
0.0395,1.7609937500000001,1.0,2736.9967108895275,0.35975510737289534,1.3160615229018127,0.9645585320931864,0.2870147375,0.681457633102637
0.04,1.76,1.0,2737.0241670630353,0.3633463727566811,1.3156124833556335,0.9651886621966397,0.286973,0.6823621184632971
0.0405,1.7589937500000001,1.0,2736.869809573101,0.36691749261178935,1.3151594490129286,0.9657975877694464,0.2869307375,0.6832733472508523
0.041,1.757975,1.0,2736.5468137694393,0.3704685815443459,1.3147023004085228,0.9663862422327798,0.28688795,0.6841915246096426
0.0415,1.75694375,1.0,2736.066164721403,0.3739997500855919,1.3142409380831266,0.966955508384999,0.2868446375,0.685116813879581
0.042,1.7559,1.0,2735.4373449631416,0.3775111081246698,1.3137752763148287,0.9675062217841709,0.28680079999999997,0.686049349405462
0.0425,1.75484375,1.0,2734.675346875132,0.3810027780212202,1.3133051794214485,0.9680391706840209,0.2867564375,0.686989363991371
0.043000000000000003,1.753775,1.0,2733.7871022929367,0.38447486699430616,1.3128305849504018,0.9685551046213131,0.28671155,0.6879369423456295
0.043500000000000004,1.75269375,1.0,2732.779547670635,0.3879274822629908,1.3123514304491046,0.9690547334339231,0.28666613750000003,0.6888921680369839
0.044,1.7516,1.0,2731.659622534251,0.3913607310463372,1.311867653464973,0.9695387297551138,0.2866202,0.6898551234765675
0.0445,1.75049375,1.0,2730.4342680230707,0.3947747205634086,1.3113791915454223,0.9700077313272707,0.2865737375,0.6908258898996149
0.045,1.7493750000000001,1.0,2729.110425516514,0.3981695580332681,1.3108859822378691,0.9704623431498156,0.28652675,0.6918045473469239
0.0455,1.74824375,1.0,2727.695035347909,0.40154535067497876,1.3103879630897288,0.9709031394746849,0.2864792375,0.6927911746460751
0.046,1.7471,1.0,2726.1950356044154,0.40490220570760377,1.3098850716484178,0.9713306656615625,0.2864312,0.6937858493923946
0.0465,1.7459437500000001,1.0,2724.617361013853,0.4082402303502063,1.3093772454613517,0.9717454399039777,0.28638263750000004,0.6947886479296765
0.047,1.744775,1.0,2722.9689419176048,0.41155953182184934,1.3088644220759464,0.9721479548364043,0.28633355,0.6957996453306493
0.0475,1.74359375,1.0,2721.249672393735,0.4148602035078893,1.3083466030449398,0.9725386818164643,0.28628393750000003,0.6968187895109896
0.048,1.7424,1.0,2719.465722018984,0.41814235527405297,1.3078237328014584,0.9729180675011244,0.2862338,0.6978461400643379
0.0485,1.74119375,1.0,2717.631679410478,0.421406110718608,1.3072956790356123,0.9732865334965071,0.2861831375,0.6988819057590624
0.049,1.739975,1.0,2715.7505415640085,0.42465156882859556,1.3067624149043622,0.9736444856093918,0.28613195,0.6999260867412116
0.0495,1.73874375,1.0,2713.825302706152,0.42787882859105686,1.3062239135646685,0.9739923105966928,0.2860802375,0.7009786822740385
0.05,1.7375,1.0,2711.8589540433245,0.43108798899303297,1.3056801481734919,0.9743303772288028,0.286028,0.7020396907290563
0.0505,1.73624375,1.0,2709.8544835270104,0.434279149021565,1.3051310918877927,0.9746590372843544,0.2859752375,0.7031091095770516
0.051000000000000004,1.734975,1.0,2707.8148756349956,0.4374524076636942,1.3045767178645316,0.9749786264814002,0.28592195,0.7041869353790483
0.051500000000000004,1.73369375,1.0,2705.743111168351,0.44060786390646156,1.304016999260669,0.975289465349596,0.2858681375,0.7052731637772272
0.052000000000000005,1.7324,1.0,2703.6421670646196,0.4437456167369084,1.3034519092331656,0.975591860047615,0.2858138,0.7063677894857994
0.0525,1.73109375,1.0,2701.5150162271752,0.4468657651420756,1.3028814209389816,0.9758861031296815,0.28575893750000003,0.7074708062818349
0.053,1.729775,1.0,2699.3646273697054,0.44996840810900457,1.3023055075350778,0.9761724742647968,0.28570355000000003,0.7085822069960428
0.0535,1.72844375,1.0,2697.193964877947,0.4530536446247363,1.3017241421784145,0.9764512409119659,0.2856476375,0.7097019835035074
0.054,1.7271,1.0,2695.005988686187,0.45612157367631195,1.3011372980259526,0.9767226589544639,0.2855912,0.7108301267143771
0.0545,1.7257437500000001,1.0,2692.8036541706556,0.45917229425077266,1.3005449482346523,0.9769869732959557,0.2855342375,0.7119666265645095
0.055,1.724375,1.0,2690.589912058074,0.4622059053351596,1.299947065961474,0.9772444184210605,0.28547675,0.7131114720060687
0.0555,1.72299375,1.0,2688.3624856042934,0.4652224882249477,1.299343672197986,0.9774952200793733,0.2854187375,0.7142645596780124
0.056,1.7216,1.0,2686.1264521531266,0.4682221527990688,1.298734720588078,0.9777395933356269,0.2853602,0.7154259142702902
0.0565,1.72019375,1.0,2683.886347798062,0.4712050031594896,1.2981201696605102,0.9779777440612094,0.28530113749999997,0.7165955498775147
0.057,1.718775,1.0,2681.6430459277753,0.4741711299452365,1.2975000114633928,0.9782098703575615,0.28524155,0.7177734157502589
0.0575,1.71734375,1.0,2679.3974184911704,0.477120623795336,1.2968742380448357,0.9784361622618202,0.2851814375,0.7189594604123031
0.058,1.7159,1.0,2677.150335991954,0.4800535753488145,1.2962428414529488,0.9786568021376597,0.2851208,0.7201536316577903
0.0585,1.71444375,1.0,2674.902667483733,0.4829700752446985,1.295605813735842,0.9788719650441811,0.2850596375,0.7213558765483761
0.059000000000000004,1.7129750000000001,1.0,2672.655280567,0.4858702141220144,1.2949631469416254,0.9790818190842397,0.28499795,0.7225661414103735
0.059500000000000004,1.71149375,1.0,2670.40904138723,0.48875408261978875,1.2943148331184091,0.979286525733515,0.2849357375,0.7237843718318973
0.06,1.71,1.0,2668.1648146345756,0.4916217713770479,1.293660864314303,0.9794862401515232,0.284873,0.7250105126600016
0.0605,1.7084937500000001,1.0,2665.9234635449907,0.49447337103281835,1.2930012325774172,0.9796811114756995,0.2848097375,0.7262445079978135
0.061,1.7069750000000001,1.0,2663.685849902505,0.49730897222612663,1.2923359299558614,0.9798712830995928,0.28474595,0.7274863012016635
0.0615,1.7054437500000001,1.0,2661.4528340429897,0.5001286655959991,1.2916649484977458,0.9800568929361457,0.2846816375,0.728735834878212
0.062,1.7039,1.0,2659.225274859818,0.5029325417814622,1.2909882802511805,0.9802380736669655,0.2846168,0.7299930508815703
0.0625,1.70234375,1.0,2657.0040298099498,0.5057206914215424,1.2903059172642752,0.9804149529784318,0.2845514375,0.7312578903104203
0.063,1.7007750000000001,1.0,2654.789935577546,0.5084932032202872,1.2896178517634336,0.980587653650307,0.28448555,0.7325302931758093
0.0635,1.69919375,1.0,2652.584705425592,0.5112501343766646,1.2889240678798128,0.9807562911813037,0.28441913750000003,0.7338102136472617
0.064,1.6976,1.0,2650.390231738062,0.5139916187676433,1.288224548066201,0.9809209823353439,0.2843522,0.7350976080740887
0.0645,1.69599375,1.0,2648.2065708826294,0.516717738772766,1.2875192916896776,0.9810818367127367,0.2842847375,0.7363924008490628
0.065,1.694375,1.0,2646.033779169193,0.5194285767715755,1.2868082981173226,0.9812389599480605,0.28421675,0.7376945157239956
0.0655,1.69274375,1.0,2643.87191285097,0.5221242151436141,1.2860915667162158,0.9813924538806935,0.2841482375,0.7390038758095059
0.066,1.6911,1.0,2641.721028126115,0.5248047362684244,1.285369096853437,0.981542416716822,0.2840792,0.7403204035747886
0.0665,1.6894437500000001,1.0,2639.581181139123,0.5274702225255492,1.2846408878960658,0.9816889431834094,0.2840096375,0.7416440208473831
0.067,1.687775,1.0,2637.4524279813995,0.530120756294531,1.283906939211182,0.9818321246745757,0.28393955,0.7429746488129408
0.0675,1.68609375,1.0,2635.3348246935834,0.5327564199549125,1.2831672501658653,0.9819720493908185,0.2838689375,0.7443122080149944
0.068,1.6844000000000001,1.0,2633.228427266137,0.5353772958862362,1.2824218201271955,0.9821088024714647,0.2837978,0.7456566183547259
0.0685,1.68269375,1.0,2631.1332916410406,0.5379834664680447,1.2816706484622524,0.9822424661207323,0.2837261375,0.7470077990907341
0.069,1.680975,1.0,2629.0494737129493,0.5405750140798806,1.2809137345381159,0.9823731197277513,0.28365395,0.7483656688388042
0.0695,1.67924375,1.0,2626.977029330743,0.5431520211012867,1.2801510777218654,0.9825008399808697,0.28358123749999997,0.7497301455716752
0.07,1.6775,1.0,2624.916014298799,0.5457145699118052,1.2793826773805808,0.9826257009765567,0.283508,0.7511011466188084
0.07050000000000001,1.67574375,1.0,2622.8664843783636,0.5482627428909791,1.278608532881342,0.9827477743231899,0.2834342375,0.7524785886661551
0.07100000000000001,1.673975,1.0,2620.8284952887825,0.5507966224183508,1.2778286435912285,0.9828671292400045,0.28335995,0.7538623877559252
0.07150000000000001,1.67219375,1.0,2618.8021027092736,0.5533162908734629,1.2770430088773201,0.9829838326514525,0.2832851375,0.7552524592863556
0.07200000000000001,1.6704,1.0,2616.7874531128746,0.555821822361895,1.2762516272634663,0.9830979487463594,0.2832098,0.7566487194970883
0.0725,1.66859375,1.0,2614.7862521601373,0.558313235750878,1.2754544827919052,0.9832095357122853,0.2831339375,0.7580511094063903
0.073,1.6667750000000001,1.0,2612.7980632042318,0.5607907035721359,1.2746515793841189,0.9833186597185986,0.28305755,0.7594595342532177
0.0735,1.66494375,1.0,2610.822613652054,0.563254298799223,1.273842919443676,0.9834253789343921,0.2829806375,0.7608739013729732
0.074,1.6631,1.0,2608.859631385231,0.5657040944056932,1.2730285053741461,0.9835297496660287,0.2829032,0.7622941175164537
0.0745,1.6612437500000001,1.0,2606.9088447548284,0.5681401633651011,1.2722083395790977,0.9836318264273622,0.2828252375,0.7637200888507354
0.075,1.659375,1.0,2604.969982575092,0.5705625786510009,1.2713824244621006,0.9837316620068642,0.28274675,0.7651517209600519
0.0755,1.65749375,1.0,2603.0427741181575,0.5729714132369467,1.2705507624267232,0.983829307531816,0.2826677375,0.7665889188466799
