Time [s],Phi [rad],STIM [ ],Fsee [N],Gamma [ ],Lcerel [ ],q [ ],Lmtc [m],fisomrel [ ]
0.0,1.8,1.0,17.96766258054183,1.3570539085974598e-05,1.379339689708997,0.005000048963660286,0.288653,0.5411396677662053
0.0005,1.79999375,1.0,18.27815097850366,0.0056227037278892954,1.3793022315208119,0.012950429034313874,0.2886527375,0.5412302843218508
0.001,1.799975,1.0,21.622403956568075,0.011200374114408135,1.3789378913039771,0.035627183157806046,0.28865195,0.5421112070602526
0.0015,1.79994375,1.0,31.078812254033647,0.016746758180950786,1.378045387928236,0.07062717393325742,0.2886506375,0.5442655761039209
0.002,1.7999,1.0,53.60298291139486,0.022262031418169317,1.3763667957131849,0.1147479999825739,0.2886488,0.5483036833054521
0.0025,1.79984375,1.0,97.15352754083335,0.027746368332646383,1.3739335006034943,0.16460749043849565,0.28864643749999996,0.5541254372653589
0.003,1.7997750000000001,1.0,161.0033178333654,0.033199942454581396,1.3712126538294072,0.21731408441488495,0.28864354999999997,0.5605904516483697
0.0035,1.79969375,1.0,237.7344207231012,0.038622926337406216,1.368583160635815,0.27064633873750504,0.2886401375,0.5667935385705135
0.004,1.7996,1.0,321.52118531981034,0.044015491568561195,1.3661546512386302,0.32294819158723426,0.2886362,0.5724833270928479
0.0045000000000000005,1.7994937500000001,1.0,409.3241583961012,0.04937780877468151,1.3639214901106602,0.37306525507140403,0.2886317375,0.57768223544527
0.005,1.799375,1.0,499.4710936642402,0.05471004761269176,1.3618571186100727,0.4202762284232029,0.28862675,0.5824599034158666
0.0055,1.79924375,1.0,590.84856291484,0.06001237681714974,1.3599376990384728,0.4642003335398263,0.2886212375,0.5868777194224801
0.006,1.7991000000000001,1.0,682.5763577379273,0.06528496414372102,1.358145355950762,0.5047044406867591,0.2886152,0.5909818367694581
0.006500000000000001,1.79894375,1.0,773.9416583611421,0.07052797642602933,1.3564662225612274,0.5418231161888117,0.2886086375,0.5948081383065353
0.007,1.798775,1.0,864.3454885354919,0.07574157954914278,1.3548894310328743,0.5756971553066287,0.28860155,0.5983848588685037
0.0075,1.79859375,1.0,953.3009465300303,0.08092593848882476,1.3534058912403106,0.606528456640784,0.2885939375,0.6017355740964341
0.008,1.7984,1.0,1040.4163280331763,0.08608121726856452,1.3520077942866187,0.6345488947733459,0.2885858,0.604880461611829
0.0085,1.79819375,1.0,1125.370724355501,0.09120757882502122,1.3506884417209761,0.6599997318706748,0.2885771375,0.6078367884034233
0.009000000000000001,1.797975,1.0,1207.9377873409355,0.09630518573996297,1.3494415212029107,0.6831182273100923,0.28856795,0.6106206098832772
0.0095,1.79774375,1.0,1287.9406022919864,0.1013741994586834,1.348261483393373,0.704130158302275,0.2885582375,0.6132459795428806
0.01,1.7975,1.0,1365.2250851839158,0.10641477966108318,1.3471436393687513,0.7232456995799568,0.288548,0.6157247884114108
0.0105,1.79724375,1.0,1439.7104055678203,0.11142708598983626,1.3460833092607256,0.740657151973853,0.2885372375,0.6180686959539061
0.011,1.796975,1.0,1511.3636473473791,0.11641127730165302,1.3450760475225254,0.7565387524951421,0.28852595000000003,0.6202886525071167
0.0115,1.79669375,1.0,1580.1699786352256,0.12136751170229054,1.3441178980867934,0.7710473630140221,0.2885141375,0.6223943629347171
0.012,1.7964,1.0,1646.1131770414192,0.12629594525583682,1.343205507546798,0.7843235635007431,0.28850180000000003,0.6243940675687016
0.0125,1.79609375,1.0,1709.2175757920213,0.13119673395911724,1.3423355339652903,0.7964926947956525,0.2884889375,0.6262958615583534
0.013000000000000001,1.7957750000000001,1.0,1769.530765256527,0.13607003286446875,1.3415047994335734,0.8076663460301939,0.28847555,0.628107372333657
0.0135,1.79544375,1.0,1827.1229177926928,0.1409159974457169,1.3407102463488323,0.8179437429144711,0.2884616375,0.6298358674519069
0.014,1.7951000000000001,1.0,1882.0334392673144,0.14573477980900706,1.33994947914342,0.8274132782491025,0.2884472,0.631487090657262
0.0145,1.79474375,1.0,1934.3253734483383,0.15052653206048472,1.3392201022496901,0.8361534805977608,0.2884322375,0.6330667162937175
0.015,1.794375,1.0,1984.0809784384853,0.155291406106792,1.3385197456109532,0.8442341605040425,0.28841675,0.6345802992075751
0.0155,1.79399375,1.0,2031.3852181883087,0.16002955282717393,1.3378462170707355,0.8517174798396077,0.2884007375,0.636032951565668
0.016,1.7936,1.0,2076.3345039115707,0.16474112358884477,1.3371973832514015,0.8586588155793143,0.2883842,0.6374296069145646
0.0165,1.7931937500000001,1.0,2118.9931691508527,0.16942626606992975,1.3365715998572099,0.8651076882499726,0.2883671375,0.6387741013059893
0.017,1.792775,1.0,2159.437689836702,0.17408512794855407,1.3359672225924197,0.8711083079280668,0.28834955,0.6400702338760698
0.0175,1.7923437500000001,1.0,2197.7556681193537,0.17871785690284295,1.33538260716129,0.8767002019955109,0.2883314375,0.641321769176326
0.018000000000000002,1.7919,1.0,2234.0315432242382,0.18332459924803554,1.3348162432256905,0.8819188008260304,0.2883128,0.6425321532915667
0.0185,1.79144375,1.0,2268.363974266696,0.18790550280236573,1.334266567057869,0.8867958680500125,0.2882936375,0.6437049175616937
0.019,1.790975,1.0,2300.8268812987003,0.19246071180564842,1.3337323414611222,0.8913600171062759,0.28827395,0.6448428707362148
0.0195,1.79049375,1.0,2331.489770670956,0.1969903692480309,1.3332124377355559,0.895637017229754,0.2882537375,0.645948569318649
0.02,1.79,1.0,2360.427931984063,0.20149461811966052,1.332705727181276,0.8996500905521838,0.288233,0.6470245507040129
0.0205,1.78949375,1.0,2387.721952536658,0.20597360141068466,1.3322110810983883,0.9034201981477634,0.2882117375,0.6480733341691329
0.021,1.788975,1.0,2413.4432634853933,0.21042746013879446,1.3317275060841678,0.9069663193826171,0.28818995000000003,0.6490971355458497
0.021500000000000002,1.78844375,1.0,2437.679377622026,0.21485633810677865,1.3312538937890068,0.9103056178678334,0.2881676375,0.6500983987551703
0.022,1.7879,1.0,2460.4924673655846,0.21926037453149916,1.3307894167260301,0.9134537158714418,0.2881448,0.6510789597641989
0.0225,1.78734375,1.0,2481.940195369742,0.22363970743110836,1.3303333200922127,0.9164248171835554,0.28812143749999997,0.6520404899134431
0.023,1.786775,1.0,2502.0829524736064,0.22799447482375856,1.3298848490845303,0.9192318428422411,0.28809755,0.6529846503331527
0.0235,1.78619375,1.0,2520.9836292975506,0.23232481472760216,1.3294432488999581,0.9218865647305219,0.28807313749999996,0.6539130923285723
0.024,1.7856,1.0,2538.7032811550357,0.23663086440095277,1.3290078035600146,0.9243997303527329,0.2880482,0.6548273762647158
0.0245,1.78499375,1.0,2555.298654976696,0.24091276009814452,1.3285778566035213,0.9267811699992287,0.2880227375,0.6557289290492212
0.025,1.784375,1.0,2570.8418371626562,0.24517064036829153,1.3281526244646338,0.9290398575100477,0.28799675,0.656619435768409
0.025500000000000002,1.78374375,1.0,2585.3757287376957,0.24940463793508091,1.3277316126334684,0.9311840615542932,0.2879702375,0.6574999683694713
0.026000000000000002,1.7831000000000001,1.0,2598.944496412528,0.25361488552219985,1.327314326600141,0.9332213681407443,0.2879432,0.6583715931195671
0.0265,1.78244375,1.0,2611.593467129164,0.2578015158533355,1.3269002718547687,0.9351587461923611,0.2879156375,0.6592353707311172
0.027,1.781775,1.0,2623.369028028562,0.261964661652175,1.3264889538874673,0.9370026060227742,0.28788755,0.6600923564715153
0.0275,1.7810937500000001,1.0,2634.31853183972,0.26610445564240565,1.3260798781883538,0.9387588515591619,0.2878589375,0.6609436002572332
0.028,1.7804,1.0,2644.4846484187437,0.2702210266467507,1.325672601585025,0.9404329330182069,0.2878298,0.6617900401047243
0.0285,1.77969375,1.0,2653.915333742573,0.2743145102180607,1.3252666391180716,0.9420298789190653,0.2878001375,0.6626326960358232
0.029,1.778975,1.0,2662.6437957834387,0.2783850339181249,1.3248616481054345,0.9435543541069148,0.28776995,0.6634722882341226
0.029500000000000002,1.7782437500000001,1.0,2670.7033020766503,0.28243272498663613,1.324457290333515,0.9450106755858553,0.2877392375,0.6643095240734476
0.03,1.7775,1.0,2678.127614325354,0.28645771066328723,1.3240532275887136,0.9464028424554313,0.287708,0.6651451074277341
0.0305,1.77674375,1.0,2684.9509425888546,0.29046011818777107,1.323649121657431,0.9477345633576282,0.2876762375,0.6659797386810375
0.031,1.775975,1.0,2691.207902006909,0.2944400747997805,1.3232446343260682,0.9490092812296871,0.28764395,0.6668141147302502
0.0315,1.7751937500000001,1.0,2696.9272696777084,0.2983977036146797,1.32283948409774,0.9502302014389085,0.2876111375,0.6676488122050546
0.032,1.7744,1.0,2702.136594533269,0.3023331292101619,1.3224334034557033,0.9514003079218145,0.2875778,0.6684843760713384
0.0325,1.77359375,1.0,2706.8796051576405,0.30624648837682594,1.322025979635964,0.9525223653893029,0.2875439375,0.669321646809623
0.033,1.772775,1.0,2711.176317441193,0.31013790140275943,1.3216170187845484,0.953598971641972,0.28750955,0.6701610115693222
0.0335,1.7719437500000002,1.0,2715.0469305417378,0.3140074885760501,1.3212063270474834,0.9546325501587616,0.2874746375,0.6710028554357945
0.034,1.7711000000000001,1.0,2718.511809644236,0.3178553701847856,1.3207937105707954,0.9556253638704124,0.2874392,0.6718475614101427
0.0345,1.7702437500000001,1.0,2721.591469553702,0.3216816665170537,1.320378975500511,0.9565795276897638,0.2874032375,0.6726955103866166
0.035,1.7693750000000001,1.0,2724.306559121198,0.32548649786094214,1.3199619279826569,0.9574970199241745,0.28736675,0.6735470811276183
0.035500000000000004,1.76849375,1.0,2726.677846503475,0.3292699845045386,1.319542374163259,0.9583796926814746,0.2873297375,0.6744026502363131
0.036000000000000004,1.7676,1.0,2728.726205254896,0.33303224673593074,1.3191201201883447,0.9592292813686855,0.2872922,0.6752625921268383
0.0365,1.76669375,1.0,2730.47260125359,0.3367734048432063,1.3186949722039398,0.9600474133719751,0.2872541375,0.6761272789921238
0.037,1.765775,1.0,2731.9380804599837,0.34049357911445294,1.3182667363560716,0.9608356159968472,0.28721555,0.6769970807693074
0.0375,1.76484375,1.0,2733.129256628286,0.34419288080659516,1.3178353505105773,0.9615953347001597,0.2871764375,0.6778720981052885
0.038,1.7639,1.0,2734.073992785983,0.3478714368236688,1.3174005599832597,0.9623279128290468,0.28713679999999997,0.6787528205430906
0.0385,1.76294375,1.0,2734.7897739596997,0.3515293645869844,1.3169622048341432,0.9630346210249827,0.28709663750000003,0.6796395430697661
0.039,1.761975,1.0,2735.2876377660837,0.35516677696909205,1.316520184024764,0.9637166599490631,0.28705595,0.680532439747862
0.0395,1.7609937500000001,1.0,2735.578652845774,0.3587837868425414,1.3160743965166584,0.9643751606077005,0.2870147375,0.6814316832481832
0.04,1.76,1.0,2735.673914541718,0.36238050707988245,1.315624741271362,0.9650111891349163,0.286973,0.6823374448258477
0.0405,1.7589937500000001,1.0,2735.584540804389,0.3659570505536651,1.3151711172504112,0.9656257511974162,0.2869307375,0.6832498942956873
0.041,1.757975,1.0,2735.321668323346,0.3695135301364391,1.314713423415342,0.9662197960558545,0.28688795,0.6841692000070017
0.0415,1.75694375,1.0,2734.8964488846495,0.37305005870075447,1.31425155872769,0.9667942203124505,0.2868446375,0.685095528817657
0.042,1.7559,1.0,2734.3200459553736,0.37656674911916094,1.3137854221489915,0.967349871372171,0.28680079999999997,0.6860290460675357
0.0425,1.75484375,1.0,2733.603631493968,0.3800637142642085,1.3133149126407826,0.9678875506421026,0.2867564375,0.6869699155513354
0.043000000000000003,1.753775,1.0,2732.752487701047,0.3835410602310794,1.312839982718591,0.9684080197709436,0.28671155,0.6879181926423203
0.043500000000000004,1.75269375,1.0,2731.7795837435765,0.3869989032054424,1.3123605151188966,0.9689119959244957,0.28666613750000003,0.6888740707737805
0.044,1.7516,1.0,2730.696533399777,0.39043735607735747,1.31187640489156,0.9694001590179013,0.2866202,0.6898377170660577
0.0445,1.75049375,1.0,2729.509400525346,0.39385652485531236,1.3113875975150002,0.9698731564907833,0.2865737375,0.6908091967915696
0.045,1.7493750000000001,1.0,2728.22424997234,0.3972565155477947,1.310894038467635,0.970331602454414,0.28652675,0.6917885741239944
0.0455,1.74824375,1.0,2726.847146476484,0.400637434163292,1.3103956732278832,0.9707760797282164,0.2864792375,0.6927759121218404
0.046,1.7471,1.0,2725.3841536101063,0.403999386710292,1.3098924472741629,0.9712071417327974,0.2864312,0.6937712727118309
0.0465,1.7459437500000001,1.0,2723.8413328006714,0.4073424791972823,1.3093843060848922,0.9716253142508964,0.28638263750000004,0.6947747166720974
0.047,1.744775,1.0,2722.2247424155,0.4106668176327505,1.30887119513849,0.9720310970666475,0.28633355,0.6957863036151815
0.0475,1.74359375,1.0,2720.540436912766,0.41397250802518415,1.3083530599133744,0.97242496549263,0.28628393750000003,0.6968060919708513
0.048,1.7424,1.0,2718.7944660573803,0.41725965638307105,1.3078298458879636,0.9728073717933768,0.2862338,0.6978341389687264
0.0485,1.74119375,1.0,2716.9907152560922,0.4205283608058937,1.3073015182098169,0.9731787469055581,0.2861831375,0.6988704620725179
0.049,1.739975,1.0,2715.134477124534,0.42377872834916847,1.3067680291733137,0.9735395014966256,0.28613195,0.6999151029244929
0.0495,1.73874375,1.0,2713.2326892864685,0.4270108728981166,1.3062293160255039,0.973890026664325,0.2860802375,0.7009681313984442
0.05,1.7375,1.0,2711.2884224408585,0.43022489331799507,1.3056853512040751,0.9742306958330393,0.286028,0.7020295473827847
0.0505,1.73624375,1.0,2709.304744032709,0.43342088847406085,1.3051361071467145,0.9745618651793392,0.2859752375,0.7030993498576174
0.051000000000000004,1.734975,1.0,2707.2847180210924,0.436598957231571,1.3045815562911092,0.9748838745794249,0.28592195,0.704177536885478
0.051500000000000004,1.73369375,1.0,2705.2314046638908,0.43975919845578243,1.3040216710749464,0.9751970484964059,0.2858681375,0.7052641056020317
0.052000000000000005,1.7324,1.0,2703.1478603192472,0.4429017110119522,1.3034564239359134,0.9755016968117316,0.2858138,0.7063590522067194
0.0525,1.73109375,1.0,2701.0371372645163,0.44602659376533726,1.3028857873116975,0.9757981156047524,0.28575893750000003,0.7074623719533584
0.053,1.729775,1.0,2698.90228353114,0.4491339455811947,1.3023097336399858,0.97608658788406,0.28570355000000003,0.7085740591406915
0.0535,1.72844375,1.0,2696.746342757121,0.4522238653247814,1.3017282353584656,0.9763673842739883,0.2856476375,0.7096941071028904
0.054,1.7271,1.0,2694.572354055948,0.4552964518613545,1.3011412649048242,0.9766407636593755,0.2855912,0.710822508200008
0.0545,1.7257437500000001,1.0,2692.3833519024597,0.4583518040561709,1.3005487947167487,0.9769069737914625,0.2855342375,0.7119592538083854
0.055,1.724375,1.0,2690.1819548318845,0.46139001369247146,1.2999508009968264,0.9771662514006653,0.28547675,0.7131043271089359
0.0555,1.72299375,1.0,2687.9695733916346,0.4644111575821736,1.299347270974371,0.9774188224626956,0.2854187375,0.714257689286341
0.056,1.7216,1.0,2685.7501834054156,0.46741537311439724,1.298738168351905,0.9776649077922346,0.2853602,0.7154193455668012
0.0565,1.72019375,1.0,2683.524869020952,0.47040275071256876,1.2981234832808382,0.977904716166019,0.28530113749999997,0.7165892497337367
0.057,1.718775,1.0,2681.294712633927,0.47337338080011443,1.2975032059125793,0.978138447773781,0.28524155,0.7177673548205914
0.0575,1.71734375,1.0,2679.060794874779,0.4763273538004605,1.2968773263985383,0.9783662946386683,0.2851814375,0.7189536131073208
0.058,1.7159,1.0,2676.8241945986206,0.47926476013703334,1.2962458348901245,0.9785884410138147,0.2851208,0.7201479761168785
0.0585,1.71444375,1.0,2674.5859888769887,0.48218569023325925,1.2956087215387475,0.9788050637565842,0.2850596375,0.721350394611694
0.059000000000000004,1.7129750000000001,1.0,2672.347252991482,0.4850902345125645,1.2949659764958164,0.9790163326819202,0.28499795,0.7225608185901451
0.059500000000000004,1.71149375,1.0,2670.10906042984,0.4879784833983754,1.2943175899127408,0.9792224108961162,0.2849357375,0.7237791972830221
0.06,1.71,1.0,2667.872482883951,0.4908505273141182,1.2936635519409303,0.9794234551122385,0.284873,0.7250054791499889
0.0605,1.7084937500000001,1.0,2665.6385902503275,0.4937064566832194,1.293003852731794,0.979619615948343,0.2848097375,0.726239611876037
0.061,1.7069750000000001,1.0,2663.408450632446,0.49654636192910506,1.2923384824367417,0.9798110382095518,0.28474595,0.7274815423679302
0.0615,1.7054437500000001,1.0,2661.1831303451386,0.49937033347520166,1.2916674312071825,0.9799978611549754,0.2846816375,0.7287312167506488
0.062,1.7039,1.0,2658.9636939219104,0.5021784617449354,1.2909906891945262,0.9801802187504086,0.2846168,0.7299885803638222
0.0625,1.70234375,1.0,2656.751204123017,0.5049708371617327,1.290308246550182,0.9803582399076535,0.2845514375,0.7312535777581592
0.063,1.7007750000000001,1.0,2654.5467219471843,0.5077475501490197,1.2896200934255595,0.9805320487112782,0.28448555,0.7325261526918692
0.0635,1.69919375,1.0,2652.351306644565,0.5105086911302229,1.2889262199720681,0.9807017646335549,0.28441913750000003,0.7338062481270794
0.064,1.6976,1.0,2650.1639440761905,0.5132543492633452,1.2882266354514602,0.9808675036152079,0.2843522,0.7350937710979945
0.0645,1.69599375,1.0,2647.9853801777513,0.5159846076250335,1.2875213328982809,0.9810293761030721,0.2842847375,0.7363886579349361
0.065,1.694375,1.0,2645.817370177732,0.5186995514479213,1.286810296017876,0.9811874882240393,0.28421675,0.737690861282329
0.0655,1.69274375,1.0,2643.6595139035358,0.5213992663570897,1.2860935283966268,0.9813419432891097,0.2841482375,0.7390002965866342
0.066,1.6911,1.0,2641.511002286299,0.5240838378671197,1.2853710374053426,0.9814928410921554,0.2840792,0.7403168718437454
0.0665,1.6894437500000001,1.0,2639.375602047305,0.526753351216573,1.2846427881308595,0.9816402758008141,0.2840096375,0.7416405713172532
0.067,1.687775,1.0,2637.2540608589284,0.5294078909332712,1.2839087735219703,0.9817843395522046,0.28393955,0.7429713275422531
0.0675,1.68609375,1.0,2635.1404153144244,0.532047540593788,1.2831690486006777,0.9819251241769476,0.2838689375,0.7443089601868209
0.068,1.684402065697289,1.0,2633.1295155581297,0.5346723837746973,1.2824236683889843,0.9820627183294223,0.28379788675928613,0.7456532893294294
0.0685,1.682709251964207,1.0,2631.6579683402592,0.5372825036052628,1.2816727921482465,0.982197212537456,0.28372678858249667,0.7470039482251618
0.069,1.6810164382311252,1.0,2630.728049584528,0.5398779830938776,1.2809169046895574,0.9823287096139978,0.28365569040570726,0.7483599893483358
0.0695,1.6793236244980436,1.0,2630.298310229168,0.5424589038865885,1.2801563871496053,0.982457304101286,0.28358459222891785,0.7497206592451545
0.07,1.6776308107649618,1.0,2630.328054163006,0.545025347560471,1.2793916152134979,0.9825830872288217,0.2835134940521284,0.7510852211364565
0.07050000000000001,1.6759379970318802,1.0,2630.78425221708,0.5475773940170454,1.2786228947559033,0.9827061439786738,0.283442395875339,0.752453069253319
0.07100000000000001,1.6742451832987983,1.0,2631.6197894422444,0.5501151267221,1.2778506629504465,0.9828265628716298,0.2833712976985495,0.753823370848206
0.07150000000000001,1.6725523695657167,1.0,2632.802075057565,0.5526386262302889,1.2770752230971787,0.9829444233884217,0.2833001995217601,0.7551955380919919
0.07200000000000001,1.670859555832635,1.0,2634.307158510708,0.5551479711770664,1.2762967989560932,0.9830597988067211,0.28322910134497065,0.7565691291027303
0.0725,1.669166742099553,1.0,2636.111123920611,0.557643240197886,1.2755156142871837,0.9831727601172339,0.28315800316818124,0.7579437062626142
0.073,1.6674739283664715,1.0,2638.1900758271267,0.5601245119282021,1.274731892850444,0.9832833761159276,0.2830869049913918,0.7593188362589672
0.0735,1.6657811146333896,1.0,2640.5201260509534,0.5625918650034684,1.2739458584058678,0.9833917134920164,0.28301580681460237,0.7606940901220416
0.074,1.664088300900308,1.0,2643.0773816633055,0.5650453780591388,1.2731577347134482,0.9834978369119164,0.28294470863781296,0.7620690432596221
0.0745,1.6623954871672262,1.0,2645.8457114551934,0.5674851265042207,1.2723676737307277,0.9836018057550389,0.2828736104610235,0.7634434002120914
