Time [s],Phi [rad],STIM [ ],Fsee [N],Gamma [ ],Lcerel [ ],q [ ],Lmtc [m],fisomrel [ ]
0.0,1.8,1.0,18.00089463728605,0.00019095768283920522,1.3793359683794244,0.005009494758462486,0.288653,0.541148670579223
0.0005,1.79999375,1.0,18.36956291095439,0.0057990958700855225,1.3792920904886614,0.013450522990523097,0.2886527375,0.5412548153467509
0.001,1.799975,1.0,21.845679169907008,0.01137577683616689,1.3789151477108843,0.03655778112122903,0.28865195,0.5421661697552256
0.0015,1.79994375,1.0,31.586200429295793,0.01692117703218959,1.378002341838101,0.07189697361400303,0.2886506375,0.5443693544799469
0.002,1.7999,1.0,54.67591786426917,0.022435471917424385,1.3762975474028936,0.1162492515359619,0.2886488,0.5484698846255328
0.0025,1.79984375,1.0,98.93951381400981,0.027918835967946802,1.3738478453697154,0.16623909544030532,0.28864643749999996,0.5543296827564458
0.003,1.7997750000000001,1.0,163.31570628629964,0.033371442682784164,1.371126419594318,0.21899629541618112,0.28864354999999997,0.5607945812471372
0.0035,1.79969375,1.0,240.34081425714012,0.038793464584832266,1.368503104272919,0.27231877075269717,0.2886401375,0.5669817032564484
0.004,1.7996,1.0,324.29040903634,0.044185073231207364,1.3660814685269513,0.32456705852550316,0.2886362,0.5726542040853021
0.0045000000000000005,1.7994937500000001,1.0,412.18923786888746,0.04954643921856887,1.3638543576780728,0.37460163456334816,0.2886317375,0.5778380306080262
0.005,1.799375,1.0,502.39262106128757,0.05487773217500795,1.3617951304883742,0.4217133893061062,0.28862675,0.5826029450092485
0.0055,1.79924375,1.0,593.794278481681,0.060179120798656824,1.359880221282506,0.4655307689246203,0.2886212375,0.587009650285888
0.006,1.7991000000000001,1.0,685.523268192913,0.06545077282296,1.3580918489380267,0.5059270145456346,0.2886152,0.5911040424877088
0.006500000000000001,1.79894375,1.0,776.8663898866304,0.0706928550351615,1.3564163445013502,0.5429409407061373,0.2886086375,0.5949215222330833
0.007,1.798775,1.0,867.2336741784785,0.07590553334602482,1.3548428180971315,0.5767158159418616,0.28860155,0.598490352183948
0.0075,1.79859375,1.0,956.1358282958514,0.08108897256396112,1.3533623215167174,0.6074549549144687,0.2885939375,0.601833768279069
0.008,1.7984,1.0,1043.1941970930727,0.08624333693999749,1.3519669241610812,0.6353907006058478,0.2885858,0.6049722075784048
0.0085,1.79819375,1.0,1128.0871527673767,0.09136878930356579,1.350650011224347,0.6607644015647745,0.2885771375,0.6079227347843283
0.009000000000000001,1.797975,1.0,1210.5729607915246,0.09646549183105037,1.349405534866481,0.6838131872321472,0.28856795,0.6107008042240698
0.0095,1.79774375,1.0,1290.4886681206513,0.10153360616884056,1.3482277829618985,0.7047622797856412,0.2885582375,0.6133208264459213
0.01,1.7975,1.0,1367.6916114794888,0.10657329221677013,1.3471119528175295,0.7238212507233687,0.288548,0.6157949368979629
0.0105,1.79724375,1.0,1442.095391255373,0.1115847093421731,1.3460534722139645,0.7411818872745204,0.2885372375,0.618134548369448
0.011,1.796975,1.0,1513.668966198928,0.1165680168304475,1.3450478981720364,0.7570178637425072,0.28852595000000003,0.6203505993847577
0.0115,1.79669375,1.0,1582.3844084192776,0.1215233719813235,1.3440914529806114,0.7714855836852585,0.2885141375,0.6224523979135577
0.012,1.7964,1.0,1648.2373295037917,0.12645093115777026,1.3431806531526365,0.7847250624256616,0.28850180000000003,0.6244484671611283
0.0125,1.79609375,1.0,1711.2561083989776,0.1313508502765515,1.342312125284959,0.7968611707823378,0.2884889375,0.6263469671010666
0.013000000000000001,1.7957750000000001,1.0,1771.4980665169787,0.13622328531754693,1.341482596593465,0.8080050517944131,0.28847555,0.6281557277544162
0.0135,1.79544375,1.0,1829.009134599051,0.14106839016744616,1.3406892963953072,0.8182556768892141,0.2884616375,0.629881388143082
0.014,1.7951000000000001,1.0,1883.8367107253714,0.14588631739039762,1.3399297444298892,0.8277010732214989,0.2884472,0.6315298751652749
0.0145,1.79474375,1.0,1936.0522545332335,0.15067721955054966,1.3392014604366143,0.8364194466344369,0.2884322375,0.6331070447629721
0.015,1.794375,1.0,1985.7287800058184,0.15544124815632315,1.3385021816505491,0.8444803880331082,0.28841675,0.6346182175313095
0.0155,1.79399375,1.0,2032.9718438536036,0.1601785554343576,1.3378295030501766,0.8519457613621974,0.2884007375,0.6360689632298175
0.016,1.7936,1.0,2077.8484696434552,0.16488929024227028,1.337181608024392,0.8588708452977156,0.2883842,0.6374635306444048
0.0165,1.7931937500000001,1.0,2120.4318133569172,0.1695736010052063,1.336556760936789,0.8653049508619425,0.2883671375,0.6388059523843657
0.017,1.792775,1.0,2160.8075285941522,0.17423163614831083,1.3359532261509621,0.8712921040705314,0.28834955,0.6401002227001291
0.0175,1.7923437500000001,1.0,2199.058618424864,0.1788635429730686,1.335369410588074,0.876871709531933,0.2883314375,0.641349995031275
0.018000000000000002,1.7919,1.0,2235.286302214817,0.18346946964801336,1.3348036382481683,0.8820790323100064,0.2883128,0.6425590682901456
0.0185,1.79144375,1.0,2269.564121390338,0.1880495609828542,1.3342546021856942,0.8869457967146035,0.2882936375,0.6437304238446533
0.019,1.790975,1.0,2301.9650255732167,0.1926039610975973,1.3337210749609725,0.8915005203430303,0.28827395,0.6448668498944292
0.0195,1.79049375,1.0,2332.568562710051,0.1971328141122488,1.3332018291343233,0.895768862028581,0.2882537375,0.6459711130788943
0.02,1.79,1.0,2361.4538264657153,0.201636263227643,1.3326957007237503,0.8997739605428419,0.288233,0.6470458249997857
0.0205,1.78949375,1.0,2388.7054642324647,0.20611445231784897,1.3322015239062803,0.9035367032091721,0.2882117375,0.6480935826350289
0.021,1.788975,1.0,2414.3983450239953,0.21056752350657726,1.331718274710691,0.9070760054797766,0.28818995000000003,0.6491166652517937
0.021500000000000002,1.78844375,1.0,2438.593627900449,0.21499561630885866,1.3312451010643611,0.9104090314593268,0.2881676375,0.6501169739185625
0.022,1.7879,1.0,2461.355939406395,0.2193988702397239,1.3307811508946685,0.9135513481714101,0.2881448,0.6510963973622403
0.0225,1.78734375,1.0,2482.7530846277064,0.22377742481420387,1.330325572128992,0.9165170962486706,0.28812143749999997,0.6520568124925197
0.023,1.786775,1.0,2502.851834852872,0.22813141833348125,1.3298775500894022,0.9193191468977302,0.28809755,0.6530000062085903
0.0235,1.7861969459063025,1.0,2521.864882151397,0.2324609898370306,1.3294363579926252,0.9219692445682843,0.2880732717280647,0.6539275702568716
0.024,1.7856183844552656,1.0,2540.243870500509,0.23676627802256064,1.3290015883632518,0.9244781637466709,0.28804897214712116,0.6548404172654894
0.0245,1.7850398230042284,1.0,2558.0295063265376,0.2410474172738313,1.3285730160552638,0.9268557781638038,0.2880246725661776,0.6557390724500873
0.025,1.7844612615531914,1.0,2575.2389532732077,0.2453045419746024,1.328150415922643,0.9291111206339089,0.28800037298523407,0.656624057811851
0.025500000000000002,1.7838827001021542,1.0,2591.8899403966675,0.2495377865086338,1.3277335628193712,0.9312524661168169,0.2879760734042905,0.6574958922248766
0.026000000000000002,1.7833041386511173,1.0,2608.0007329156865,0.2537472852596854,1.32732223159943,0.9332874055703697,0.2879517738233469,0.6583550915203098
0.0265,1.7827255772000803,1.0,2623.588608187167,0.2579331708773454,1.3269162109856845,0.9352229131120982,0.2879274742424034,0.6592021396516692
0.027,1.782147015749043,1.0,2638.6721310789667,0.2620955763039264,1.3265152820865258,0.9370654021091455,0.2879031746614598,0.6600375336860858
0.0275,1.7815684542980061,1.0,2653.273199119407,0.26623463787081875,1.3261191994211858,0.9388207761336121,0.28787887508051624,0.6608618232426174
0.028,1.780989892846969,1.0,2667.4070604596136,0.27035048406935297,1.3257277828330492,0.9404944849355188,0.2878545754995727,0.6616754192942156
0.0285,1.780411331395932,1.0,2681.0893197821224,0.2744432433908595,1.3253408521655006,0.9420915595208206,0.28783027591862914,0.6624787305874551
0.029,1.7798327699448948,1.0,2694.3359200230866,0.27851304432666874,1.324958227261925,0.943616649782464,0.28780597633768557,0.6632721636951122
0.029500000000000002,1.7792542084938578,1.0,2707.163124813805,0.2825600153681111,1.324579727965707,0.9450740582991249,0.28778167675674204,0.6640561230666698
0.03,1.7786756470428209,1.0,2719.5875016414348,0.286584285006517,1.3242051741202316,0.9464677707335927,0.28775737717579847,0.6648310110767548
0.0305,1.7780970855917837,1.0,2731.625905730119,0.2905859817332169,1.3238343855688834,0.9478014832099133,0.2877330775948549,0.6655972280715043
0.031,1.7775185241407467,1.0,2743.284541183694,0.2945652198100028,1.3234672811952777,0.949078634989256,0.28770877801391137,0.6663549680999208
0.0315,1.7769399626897096,1.0,2754.5913654225983,0.2985221423339969,1.3231035845736139,0.9503024070302811,0.2876844784329678,0.6671048266443927
0.032,1.7763614012386726,1.0,2765.563902056133,0.3024568793054698,1.3227431165008794,0.9514757661997378,0.2876601788520242,0.6678471962732775
0.0325,1.7757828397876354,1.0,2776.212597704979,0.3063695512948195,1.3223857636270053,0.952601480231813,0.2876358792710807,0.6685823323043133
0.033,1.7752042783365984,1.0,2786.548061704841,0.31026027887244406,1.322031412601922,0.9536821288916486,0.2876115796901371,0.6693104888316669
0.0335,1.7746257168855613,1.0,2796.581058420303,0.3141291826087414,1.3216799500755596,0.9547201190099739,0.28758728010919354,0.6700319187480405
0.034,1.7740471554345243,1.0,2806.3224998428273,0.3179763830741096,1.3213312626978493,0.9557176981449185,0.28756298052825,0.6707468737659623
0.0345,1.7734685939834873,1.0,2815.783438473944,0.3218020008389465,1.3209852371187212,0.9566769670108939,0.28753868094730645,0.67145560443826
0.035,1.7728900325324501,1.0,2824.975060493573,0.3256061564736502,1.3206417599881057,0.9575998907988044,0.28751438136636287,0.6721583601777105
0.035500000000000004,1.7723114710814132,1.0,2833.908679213013,0.3293889705486187,1.3203007179559338,0.9584883094980986,0.28749008178541935,0.6728553892758715
0.036000000000000004,1.771732909630376,1.0,2842.5957288122927,0.33315056363425,1.319961997672136,0.959343947319079,0.2874657822044758,0.6735469389210972
0.0365,1.771154348179339,1.0,2851.047758363558,0.33689105630094196,1.3196254857866423,0.9601684213032177,0.28744148262353225,0.67423325521573
0.037,1.7705757867283018,1.0,2859.27642613795,0.34061056911909277,1.3192910689493837,0.9609632491998247,0.2874171830425887,0.6749145831924741
0.0375,1.7699972252772649,1.0,2867.2877518050923,0.3443092115523034,1.3189586847368657,0.9617298592779144,0.28739288346164515,0.6755910632363797
0.038,1.769418663826228,1.0,2875.093603857658,0.34798710830275476,1.3186282195225945,0.9624695925003821,0.2873685838807016,0.6762629391704763
0.0385,1.7688401023751907,1.0,2882.7065031888715,0.3516443846421937,1.3182995547517822,0.9631837099863568,0.287344284299758,0.6769304637908713
0.039,1.7682615409241538,1.0,2890.132609004992,0.3552811525214676,1.3179726288898959,0.9638734016243886,0.2873199847188145,0.6775937732042365
0.0395,1.7676829794731166,1.0,2897.3781369291173,0.35889752389142393,1.3176473804024025,0.9645397884615353,0.2872956851378709,0.6782530029448068
0.04,1.7671044180220796,1.0,2904.449356671182,0.36249361070291014,1.3173237477547686,0.9651839274248252,0.28727138555692733,0.6789082879810843
0.0405,1.7665258565710424,1.0,2911.352589781032,0.36606952490677364,1.317001669412461,0.96580681567064,0.2872470859759838,0.6795597627222982
0.041,1.7659472951200055,1.0,2918.0942074860195,0.36962537845386184,1.316681083840947,0.9664093945949683,0.28722278639504023,0.6802075610246272
0.0415,1.7653687336689683,1.0,2924.6806286125616,0.37316128329502224,1.3163619295056932,0.9669925535342454,0.28719848681409665,0.6808518161971774
0.042,1.7647901722179313,1.0,2931.1183175914352,0.37667735138110225,1.3160441448721667,0.9675571331836286,0.28717418723315313,0.6814926610077198
0.0425,1.7642116107668944,1.0,2937.4137825468997,0.38017369466294937,1.3157276684058339,0.9681039287569694,0.28714988765220956,0.6821302276881882
0.043000000000000003,1.7636330493158572,1.0,2943.5735734702375,0.38365042509141095,1.3154124385721622,0.9686336929104565,0.287125588071266,0.68276464793993
0.043500000000000004,1.7630544878648202,1.0,2949.604280476985,0.38710765461733443,1.315098393836618,0.9691471384498158,0.28710128849032246,0.6833960529387231
0.044,1.762475926413783,1.0,2955.509912224625,0.3905454859312912,1.3147854955501277,0.9696449412378001,0.2870769889093789,0.6840245273956012
0.0445,1.761897364962746,1.0,2961.294497638992,0.3939640253046552,1.3144737051191595,0.9701277426755923,0.2870526893284353,0.6846501555759819
0.045,1.7613188035117089,1.0,2966.968493571042,0.39736340260627745,1.3141629281332499,0.9705961504228701,0.2870283897474918,0.6852731332485411
0.0455,1.760740242060672,1.0,2972.535188988229,0.4007437211606632,1.3138531330392869,0.9710507421828344,0.2870040901665482,0.6858935295963766
0.046,1.760161680609635,1.0,2977.997892984928,0.4041050842923178,1.3135442882841588,0.9714920666592559,0.28697979058560463,0.686511413534376
0.0465,1.7595831191585978,1.0,2983.3599341063536,0.40744759532574637,1.3132363623147547,0.971920645289942,0.2869554910046611,0.6871268537111599
0.047,1.7590045577075608,1.0,2988.6246596948963,0.41077135758545436,1.3129293235779624,0.9723369738606508,0.28693119142371754,0.6877399185109658
0.0475,1.7584259962565236,1.0,2993.795435258121,0.4140764743959469,1.312623140520671,0.9727415240087591,0.28690689184277396,0.6883506760554619
0.048,1.7578474348054867,1.0,2998.875643859731,0.41736304908172933,1.3123177815897684,0.9731347446251817,0.28688259226183044,0.6889591942055029
0.0485,1.7572688733544495,1.0,3003.868685531096,0.42063118496730695,1.3120132152321435,0.9735170631623113,0.28685829268088686,0.6895655405628192
0.049,1.7566903119034125,1.0,3008.7779767066077,0.423880985377185,1.3117094098946844,0.9738888868550969,0.28683399309994334,0.6901697824716442
0.0495,1.7561117504523753,1.0,3013.6069496795553,0.4271125536358688,1.3114063340242799,0.9742506038617712,0.28680969351899976,0.6907719870202763
0.05,1.7555331890013384,1.0,3018.359052081359,0.43032599306786357,1.3111039560678182,0.9746025843302019,0.2867853939380562,0.69137222104258
0.0505,1.7549546275503014,1.0,3023.0377463818695,0.4335214069976746,1.3108022444721878,0.9749451813953469,0.28676109435711267,0.691970551119421
0.051000000000000004,1.7543760660992642,1.0,3027.6465094122623,0.4366988987498072,1.3105011676842773,0.9752787321128447,0.2867367947761691,0.6925670435800393
0.051500000000000004,1.7537975046482273,1.0,3032.186734315906,0.439858556869041,1.3102007122406516,0.9756035578872201,0.28671249519522557,0.693161728716175
0.052000000000000005,1.75321894319719,1.0,3036.660326927543,0.4430004787076319,1.3099008603224311,0.9759199664634056,0.286688195614282,0.6937546453170186
0.0525,1.752640381746153,1.0,3041.0737032006286,0.446124794124368,1.3096015553460372,0.9762282529427869,0.2866638960333384,0.6943459085692433
0.053,1.752061820295116,1.0,3045.4284590390957,0.44923159731324414,1.3093027823881167,0.9765286983107047,0.2866395964523949,0.6949355510426318
0.0535,1.751483258844079,1.0,3049.726197226488,0.45232098246825503,1.3090045265253165,0.9768215713572799,0.2866152968714513,0.6955236051877072
0.054,1.7509046973930418,1.0,3053.968527252535,0.4553930437833954,1.3087067728342834,0.9771071293102727,0.28659099729050774,0.6961101033362314
0.0545,1.7503261359420048,1.0,3058.1570651447364,0.45844787545265986,1.3084095063916645,0.9773856184299293,0.2865666977095642,0.6966950777016896
0.055,1.7497475744909678,1.0,3062.2934333041917,0.4614855716700432,1.3081127122741065,0.9776572745684008,0.28654239812862065,0.6972785603797629
0.0555,1.7491690130399307,1.0,3066.379260347266,0.46450622662954016,1.3078163755582564,0.9779223236961196,0.28651809854767707,0.6978605833487834
0.056,1.7485904515888937,1.0,3070.41618095178,0.46750993452514533,1.3075204813207608,0.9781809823973485,0.28649379896673355,0.6984411784701773
0.0565,1.7480118901378565,1.0,3074.4058357076856,0.47049678955085356,1.307225014638267,0.9784334583369413,0.28646949938578997,0.6990203774888926
0.057,1.7474333286868196,1.0,3078.3498709736864,0.47346688590065944,1.3069299605874214,0.9786799507002144,0.2864451998048464,0.6995982120338137
0.0575,1.7468547672357824,1.0,3082.2499387379953,0.47642031776855776,1.3066353042448713,0.9789206506076796,0.2864209002239029,0.7001747136181609
0.058,1.7462762057847454,1.0,3086.107696483964,0.4793571793485432,1.3063410306872636,0.9791557415062719,0.2863966006429593,0.7007499136398758
0.0585,1.7456976443337084,1.0,3089.924807061724,0.4822775648346105,1.3060471249912449,0.9793853995385731,0.2863723010620157,0.7013238433819942
0.059000000000000004,1.7451190828826713,1.0,3093.7029385633086,0.48518156842075433,1.3057535722334621,0.979609793891444,0.2863480014810722,0.7018965340130009
0.059500000000000004,1.7445405214316343,1.0,3097.4437642035773,0.4880692843009694,1.3054603574905623,0.97982908712536,0.2863237019001286,0.7024680165871744
0.06,1.743961959980597,1.0,3101.1489622061526,0.4909408066692505,1.3051674658391925,0.9800434354856633,0.28629940231918505,0.7030383220449148
0.0605,1.7433833985295601,1.0,3104.816276822414,0.4937961691779078,1.3048749159252069,0.9802529862064706,0.2862751027382415,0.7036074159425958
0.061,1.742804837078523,1.0,3108.450924512935,0.49663553336347216,1.3045826627117527,0.9804578875748524,0.28625080315729795,0.7041753876767177
0.0615,1.742226275627486,1.0,3112.054191521309,0.4994589931986705,1.3042906947292734,0.9806582787175844,0.28622650357635443,0.7047422611644648
0.062,1.741647714176449,1.0,3115.6267736850864,0.5022666329170129,1.303999005562519,0.9808542930563833,0.28620220399541085,0.7053080504368607
0.0625,1.7410691527254119,1.0,3119.1693690967263,0.5050585367520095,1.3037075887962395,0.9810460590504184,0.2861779044144673,0.7058727694756834
0.063,1.7404905912743749,1.0,3122.6826780644983,0.5078347889371705,1.3034164380151851,0.9812337004179466,0.28615360483352376,0.7064364322135757
0.0635,1.7399120298233377,1.0,3126.1674030737036,0.5105954737060057,1.303125546804106,0.9814173363464627,0.2861293052525802,0.7069990525341572
0.064,1.7393334683723007,1.0,3129.6242487501413,0.5133406752920254,1.302834908747752,0.981597081692038,0.28610500567163666,0.7075606442721325
0.0645,1.7387549069212636,1.0,3133.0539218226945,0.5160704779287396,1.3025445174308734,0.9817730471684778,0.2860807060906931,0.7081212212133927
0.065,1.7381763454702266,1.0,3136.457131088519,0.5187849658496585,1.30225436643822,0.9819453395268882,0.2860564065097495,0.7086807970951219
0.0655,1.7375977840191894,1.0,3139.8345873780863,0.5214842232882921,1.3019644493545421,0.9821140617262066,0.286032106928806,0.7092393856058934
0.066,1.7370192225681524,1.0,3143.187003521318,0.5241683344781505,1.3016747597645897,0.9822793130952094,0.2860078073478624,0.7097970003857689
0.0665,1.7364406611171155,1.0,3146.5150943151566,0.5268373836527438,1.3013852912531125,0.9824411894864825,0.28598350776691883,0.710353655026392
0.067,1.7358620996660783,1.0,3149.8195764914203,0.529491455045582,1.3010960374048612,0.9825997834228057,0.2859592081859753,0.7109093630710791
0.0675,1.7352835382150413,1.0,3153.1011686856705,0.5321306328901754,1.3008069918045855,0.9827551842363792,0.28593490860503173,0.7114641380149109
0.068,1.7347049767640041,1.0,3156.3605914074897,0.5347550014200338,1.3005181480370356,0.9829074782012839,0.28591060902408816,0.7120179933048163
0.0685,1.7341264153129672,1.0,3159.598567011211,0.5373646448686676,1.3002294996869612,0.9830567486595561,0.28588630944314464,0.7125709423396587
0.069,1.73354785386193,1.0,3162.815819667277,0.5399596474695867,1.299941040339113,0.9832030761412196,0.28586200986220106,0.7131229984703145
0.0695,1.732969292410893,1.0,3166.0130753355393,0.5425400934563012,1.2996527635782404,0.9833465384786104,0.2858377102812575,0.7136741749997549
0.07,1.7323907309598559,1.0,3169.191061738439,0.5451060670623212,1.2993646629890938,0.9834872109152987,0.28581341070031396,0.7142244851831195
