Time [s],Phi [rad],STIM [ ],Fsee [N],Gamma [ ],Lcerel [ ],q [ ],Lmtc [m],fisomrel [ ]
0.0,1.8,1.0,17.96752517541019,1.0002744629499594e-05,1.3793397051027803,0.005000026666343948,0.288653,0.5411396305246675
0.0005,1.79999375,1.0,18.27682408062213,0.005619155945936943,1.3793023789103407,0.012940521394053703,0.2886527375,0.5412299277836619
0.001,1.799975,1.0,21.61842530313553,0.011196846232707574,1.3789382976457585,0.03560859020516458,0.28865195,0.5421102250552761
0.0015,1.79994375,1.0,31.069190181067363,0.016743250087875583,1.3780462076329563,0.07060172352299014,0.2886506375,0.5442635997906242
0.002,1.7999,1.0,53.582088215615414,0.022258543002725527,1.3763681511250405,0.1147178583146129,0.2886488,0.5483004299066285
0.0025,1.79984375,1.0,97.11827138568609,0.027742899484452816,1.373935199365134,0.16457469774010486,0.28864643749999996,0.5541213860834102
0.003,1.7997750000000001,1.0,160.95735689081468,0.033196493063883864,1.3712143740727625,0.2172802522663374,0.28864354999999997,0.5605863790872678
0.0035,1.79969375,1.0,237.6824434773193,0.03861949629506537,1.368584761587951,0.2706126873971224,0.2886401375,0.566789775271535
0.004,1.7996,1.0,321.4658615645372,0.04401208076604708,1.3661561164926308,0.32291560670297187,0.2886362,0.5724799054688616
0.0045000000000000005,1.7994937500000001,1.0,409.2668544326738,0.04937441710406617,1.363922835207496,0.37303432260703545,0.2886317375,0.5776791135667659
0.005,1.799375,1.0,499.41261597024686,0.05470667496663568,1.3618583612209452,0.4202472881690544,0.28862675,0.5824570357604975
0.0055,1.79924375,1.0,590.7895491354822,0.06000902308902493,1.359938851996665,0.4641735391010831,0.2886212375,0.586875072778453
0.006,1.7991000000000001,1.0,682.5172589533609,0.06528162922738064,1.358146430186774,0.5046798166867041,0.2886152,0.5909793831137442
0.006500000000000001,1.79894375,1.0,773.8805117867882,0.07052466021436096,1.3564672663532562,0.5418006275302748,0.2886086375,0.5948057653655507
0.007,1.798775,1.0,864.2850305311465,0.07573828194272669,1.3548904076067345,0.5756766617844689,0.28860155,0.598382648560988
0.0075,1.79859375,1.0,953.2425410443067,0.08092265937507645,1.3534067895635977,0.6065098079940191,0.2885939375,0.6017335493952518
0.008,1.7984,1.0,1040.3440672500524,0.08607795614212713,1.3520088581699472,0.634532081094484,0.2885858,0.6048780732458228
0.0085,1.79819375,1.0,1125.314172587402,0.09120433635150167,1.350689242276052,0.6599843450747609,0.2885771375,0.6078349979331906
0.009000000000000001,1.797975,1.0,1207.8998408605394,0.09630196193671314,1.3494420396924585,0.683104115878326,0.28856795,0.6106194543863976
0.0095,1.79774375,1.0,1287.8917636641788,0.10137099342297295,1.3482621296530084,0.7041174093531494,0.2885582375,0.6132445441631096
0.01,1.7975,1.0,1365.166573701511,0.10641159133549262,1.3471443913915429,0.7232341658651582,0.288548,0.6157231234865923
0.0105,1.79724375,1.0,1439.6591132741803,0.11142391562486725,1.3460839512175118,0.7406466036460223,0.2885372375,0.6180672790487083
0.011,1.796975,1.0,1511.3220185804134,0.11640812505618461,1.345076556032446,0.7565290759811819,0.28852595000000003,0.620287533408119
0.0115,1.79669375,1.0,1580.1206684412443,0.12136437680733973,1.3441184871685512,0.771038563136143,0.2885141375,0.6223930701174352
0.012,1.7964,1.0,1646.0565631554387,0.12629282751318816,1.3432061701968439,0.7843155476949722,0.28850180000000003,0.6243926171518337
0.0125,1.79609375,1.0,1709.1735997804283,0.13119363404559953,1.3423360391001435,0.7964852880472498,0.2884889375,0.6262947587156409
0.013000000000000001,1.7957750000000001,1.0,1769.5065033044311,0.13606695125868173,1.3415050733294844,0.8076594567872712,0.28847555,0.6281067757979064
0.0135,1.79544375,1.0,1827.091570436569,0.1409129326008749,1.3407105946109816,0.8179374332683453,0.2884616375,0.6298351107137479
0.014,1.7951000000000001,1.0,1881.9927389034726,0.1457317315206192,1.3399499246707498,0.8274075000869893,0.2884472,0.6314861247332639
0.0145,1.79474375,1.0,1934.278470174832,0.1505235004448034,1.3392206086901575,0.8361481703739063,0.2884322375,0.6330656206628797
0.015,1.794375,1.0,1984.0500124773375,0.15528839239330616,1.3385200757477556,0.8442291945319014,0.28841675,0.634579586465988
0.0155,1.79399375,1.0,2031.3703903707283,0.1600265571057878,1.3378463733024724,0.8517128256476849,0.2884007375,0.6360326149437707
0.016,1.7936,1.0,2076.3109625542716,0.16473814392154654,1.3371976285931453,0.8586545240656395,0.2883842,0.6374290793085435
0.0165,1.7931937500000001,1.0,2118.957400415661,0.16942330217988072,1.3365719688586115,0.8651037371984586,0.2883671375,0.6387733092431054
0.017,1.792775,1.0,2159.390523333267,0.17408218000982995,1.3359677045991398,0.8711046646679746,0.28834955,0.6400692011045443
0.0175,1.7923437500000001,1.0,2197.7175627404863,0.17871492642558418,1.335382993159988,0.8766967826652806,0.2883314375,0.6413209435556357
0.018000000000000002,1.7919,1.0,2234.010152432738,0.1833216869180773,1.3348164581426174,0.8819155659382175,0.2883128,0.642531694377656
0.0185,1.79144375,1.0,2268.342440550978,0.1879026065672553,1.3342667817672467,0.8867928440135164,0.2882936375,0.6437044598436477
0.019,1.790975,1.0,2300.796094956612,0.19245783045306447,1.3337326462540953,0.8913572080993138,0.28827395,0.644842222016068
0.0195,1.79049375,1.0,2331.4512554940457,0.19698750255818523,1.33321281653062,0.8956344018704383,0.2882537375,0.6459477643486331
0.02,1.79,1.0,2360.3966389710563,0.20149176793525592,1.3327060330540523,0.8996476203904493,0.288233,0.6470239016882521
0.0205,1.78949375,1.0,2387.7033799988276,0.2059707686323377,1.3322112615943948,0.9034178502068315,0.2882117375,0.6480729517533819
0.021,1.788975,1.0,2413.437017384156,0.21042464527054133,1.3317275664620856,0.9069640853382621,0.28818995000000003,0.649097007809766
0.021500000000000002,1.78844375,1.0,2437.6670908149013,0.21485353847097746,1.3312540119675615,0.9103035247892218,0.2881676375,0.6500981490924573
0.022,1.7879,1.0,2460.4668036676185,0.2192575888547567,1.3307896624212607,0.9134517669422827,0.2881448,0.651078441438866
0.0225,1.78734375,1.0,2481.8987619925324,0.223636934523202,1.3303337150438042,0.9164230057080841,0.28812143749999997,0.6520396578614758
0.023,1.786775,1.0,2502.0451409105262,0.22799171790029366,1.3298852080583676,0.9192301251968756,0.28809755,0.6529838951029576
0.0235,1.78619375,1.0,2520.9598859825323,0.2323220754609227,1.3294434734663403,0.9218849165081833,0.28807313749999996,0.6539126205052065
0.024,1.7856,1.0,2538.694610916771,0.23662814280140604,1.3290078852770888,0.9243981447926662,0.2880482,0.6548272048006951
0.0245,1.78499375,1.0,2555.3028174333176,0.24091005551806058,1.3285778174999805,0.9267796460127813,0.2880227375,0.6557290109915482
0.025,1.784375,1.0,2570.839735951241,0.24516794920720322,1.328152644144382,0.9290384198948014,0.28799675,0.6566193945824317
0.025500000000000002,1.78374375,1.0,2585.362174964259,0.2494019594651509,1.3277317392196604,0.9311827124516223,0.2879702375,0.6574997037884456
0.026000000000000002,1.7831000000000001,1.0,2598.918140432519,0.25361221819554514,1.3273145721101185,0.9332201031980836,0.2879432,0.65837108062618
0.0265,1.78244375,1.0,2611.56922375093,0.25779886384198386,1.3269004971379326,0.9351575399636037,0.2879156375,0.6592349010553972
0.027,1.781775,1.0,2623.355368737158,0.2619620272929637,1.3264890805319929,0.9370014435807864,0.28788755,0.6600920927722381
0.0275,1.7810937500000001,1.0,2634.3151608844555,0.2661018385988567,1.3260799093777065,0.9387577302993445,0.2878589375,0.6609435353961313
0.028,1.7804,1.0,2644.4879863696087,0.27021842781003513,1.325672570760481,0.9404318555287859,0.2878298,0.6617901041271028
0.0285,1.77969375,1.0,2653.9139617048963,0.27431192497687107,1.3252666517657243,0.9420288557834895,0.2878001375,0.662632669799474
0.029,1.778975,1.0,2662.633867170508,0.2783824601497367,1.3248617394788433,0.9435533863039511,0.28776995,0.6634720989246815
0.029500000000000002,1.7782437500000001,1.0,2670.6868136723892,0.28243016209036415,1.3244574418478954,0.9450097572350523,0.2877392375,0.664309210553315
0.03,1.7775,1.0,2678.1043111135955,0.28645515564172486,1.3240534414284797,0.9464019700350614,0.287708,0.6651446654922158
0.0305,1.77674375,1.0,2684.9363337799255,0.29045757827101415,1.3236492555432566,0.9477337182186901,0.2876762375,0.6659794623287493
0.031,1.775975,1.0,2691.2078846195645,0.29443755357882895,1.3232446344852333,0.9490084560171109,0.28764395,0.6668141144021298
0.0315,1.7751937500000001,1.0,2696.9442802467483,0.2983952051657662,1.322839328547417,0.9502293933789028,0.2876111375,0.6676491324714701
0.032,1.7744,1.0,2702.1711227884193,0.3023306566324228,1.3224330880228143,0.9513995162639701,0.2875778,0.6684850247068624
0.0325,1.77359375,1.0,2706.914273113557,0.3062440315793957,1.3220256632044327,0.9525216050165751,0.2875439375,0.6693222966764837
0.033,1.772775,1.0,2711.199825444614,0.3101354536072819,1.3216168043852792,0.9535982510198948,0.28750955,0.6701614513297228
0.0335,1.7719437500000002,1.0,2715.0540833521873,0.3140050463166783,1.3212062618583609,0.9546318718112,0.2874746375,0.6710029889763333
0.034,1.7711000000000001,1.0,2718.5035371310737,0.3178529333081819,1.3207937859166845,0.9556247248163093,0.2874392,0.6718474072616084
0.0345,1.7702437500000001,1.0,2721.5722030653983,0.321679235805087,1.3203791508801783,0.9565789218728882,0.2874032375,0.6726951520449488
0.035,1.7693750000000001,1.0,2724.2800576656878,0.3254840727104514,1.319962169100957,0.9574964419662799,0.28736675,0.6735465891078143
0.035500000000000004,1.76849375,1.0,2726.656955157756,0.32926757392947487,1.3195425641563077,0.9583791311290799,0.2873297375,0.6744022630497832
0.036000000000000004,1.7676,1.0,2728.718119474422,0.33302985611891545,1.3191201936955084,0.9592287298422568,0.2872922,0.675262442524685
0.0365,1.76669375,1.0,2730.4788552275095,0.33677103593553115,1.3186949153678382,0.9600468702266971,0.2872541375,0.6761273945111175
0.037,1.765775,1.0,2731.954538843887,0.34049123003608006,1.3182665868225758,0.9608350840094817,0.28721555,0.6769973842866959
0.0375,1.76484375,1.0,2733.160610151007,0.3441905550773202,1.3178350657089999,0.9615948098189969,0.2871764375,0.6778726754010068
0.038,1.7639,1.0,2734.112564411407,0.3478691277160096,1.317400209676389,0.9623273998722331,0.28713679999999997,0.6787535296472713
0.0385,1.76294375,1.0,2734.825944806806,0.3515270646089063,1.3169618763740223,0.9630341261110278,0.28709663750000003,0.6796402070327137
0.039,1.761975,1.0,2735.316335370989,0.3551644824127684,1.316519923451178,0.9637161858381682,0.28705595,0.6805329657476418
0.0395,1.7609937500000001,1.0,2735.5993543727905,0.3587814977843538,1.316074208557135,0.9643747068990882,0.2870147375,0.6814320621332293
0.04,1.76,1.0,2735.6810580328124,0.36237821485166605,1.3156246764130803,0.9650107579278331,0.286973,0.6823375753799055
0.0405,1.7589937500000001,1.0,2735.5836066124302,0.3659547617190699,1.3151711257324152,0.9656253384543149,0.2869307375,0.6832498772466904
0.041,1.757975,1.0,2735.3208012942614,0.3695112552214951,1.314713431287918,0.9662193965045951,0.28688795,0.6841691842059467
0.0415,1.75694375,1.0,2734.9007690355766,0.3730478044402288,1.3142515194979272,0.9667938305763146,0.2868446375,0.685095607440191
0.042,1.7559,1.0,2734.3316483426916,0.376564518456558,1.3137853167807814,0.9673494898768763,0.28680079999999997,0.6860292569285227
0.0425,1.75484375,1.0,2733.621587001729,0.3800615063517698,1.313314749554819,0.9678871775283774,0.2867564375,0.6869702414266616
0.043000000000000003,1.753775,1.0,2732.7787399288222,0.3835388772071513,1.3128397442383788,0.9684076535327202,0.28671155,0.6879186684466383
0.043500000000000004,1.75269375,1.0,2731.8112671417157,0.38699674010398954,1.3123602272497992,0.9689116375170854,0.28666613750000003,0.6888746442361411
0.044,1.7516,1.0,2730.7273318495977,0.3904352041235716,1.3118761250074187,0.9693998112780833,0.2866202,0.6898382737575158
0.0445,1.75049375,1.0,2729.535098664717,0.3938543783471845,1.3113873639295759,0.9698728211412005,0.2865737375,0.6908096606664218
0.045,1.7493750000000001,1.0,2728.2427319328267,0.3972543718561155,1.3108938704346094,0.970331280150643,0.28652675,0.6917889072901413
0.0455,1.74824375,1.0,2726.8583941840643,0.4006352937316515,1.3103955709408577,0.9707757701033103,0.2864792375,0.6927761146055453
0.046,1.7471,1.0,2725.3902447042337,0.40399725305507966,1.3098923918666592,0.971206843439401,0.2864312,0.6937713822167122
0.0465,1.7459437500000001,1.0,2723.8428670836583,0.40734034282922804,1.3093842921243628,0.9716250252209454,0.28638263750000004,0.6947747442178156
0.047,1.744775,1.0,2722.2250452919607,0.4106646874173874,1.308871192381781,0.9720308159725082,0.28633355,0.6957863090454617
0.0475,1.74359375,1.0,2720.541916152225,0.4139703935676032,1.3083530464455262,0.972424691723484,0.28628393750000003,0.6968061184558775
0.048,1.7424,1.0,2718.797551432853,0.4172575624776618,1.3078298177879137,0.9728071053966663,0.2862338,0.6978341941347571
0.0485,1.74119375,1.0,2716.996019954986,0.42052629534534974,1.3073014698812602,0.9731784881811968,0.2861831375,0.6988705567883193
0.049,1.739975,1.0,2715.141387151297,0.42377669336845325,1.3067679661978813,0.9735392507721139,0.28613195,0.6999152261314272
0.0495,1.73874375,1.0,2713.237714655124,0.4270088577447586,1.306229270210093,0.973889784528246,0.2860802375,0.700968220875618
0.05,1.7375,1.0,2711.289059919019,0.4302228896720523,1.3056853453902117,0.974230462554526,0.286028,0.7020295587170502
0.0505,1.73624375,1.0,2709.299475862523,0.43341889034812064,1.3051361552105534,0.9745616407142922,0.2859752375,0.7030992563243657
0.051000000000000004,1.734975,1.0,2707.273010550008,0.43659696097074996,1.3045816631434342,0.9748836585766968,0.28592195,0.7041773293264656
0.051500000000000004,1.73369375,1.0,2705.2137068977167,0.43975720273772667,1.3040218326611699,0.9751968403039182,0.2858681375,0.7052637923002029
0.052000000000000005,1.7324,1.0,2703.12560241061,0.44289971684683704,1.3034566272360766,0.9755014954824968,0.2858138,0.7063586587579875
0.0525,1.73109375,1.0,2701.0127289487327,0.44602460449586745,1.3028860103404705,0.975797919902776,0.28575893750000003,0.7074619411353075
0.053,1.729775,1.0,2698.879518237572,0.44913196676067346,1.3023099417380157,0.9760863960457067,0.28570355000000003,0.7085736579284361
0.0535,1.72844375,1.0,2696.7295743673053,0.45222190084691655,1.301728388699845,0.9763671940954338,0.2856476375,0.7096938120299594
0.054,1.7271,1.0,2694.561389297509,0.4552945030247922,1.3011413652143007,0.9766405752829539,0.2855912,0.7108223155512347
0.0545,1.7257437500000001,1.0,2692.3770902732176,0.458349870143107,1.3005488520235982,0.9769067876579279,0.2855342375,0.711959143964596
0.055,1.724375,1.0,2690.179191397587,0.46138809893353766,1.2999508262982995,0.9771660684740557,0.28547675,0.7131042787084418
0.0555,1.72299375,1.0,2687.969908897367,0.4644092858685397,1.299347267901282,0.977418645094816,0.2854187375,0.7142576951531826
0.056,1.7216,1.0,2685.750497946387,0.46741352643508416,1.298738165469654,0.9776647357802843,0.2853602,0.7154193510581176
0.0565,1.72019375,1.0,2683.523773802471,0.4704009153929984,1.2981234933208765,0.9779045488277833,0.28530113749999997,0.7165892306446343
0.057,1.718775,1.0,2681.2867752092143,0.47337154734279,1.2975032787064886,0.9781382869808737,0.28524155,0.7177672167056421
0.0575,1.71734375,1.0,2679.053572400934,0.4763255166519578,1.2968773926632575,0.9783661358006531,0.2851814375,0.7189534876449809
0.058,1.715904421681561,1.0,2677.027209418836,0.4792629165643268,1.2962459684177394,0.9785882879882133,0.28512098571062555,0.7201477238400374
0.0585,1.714464935578984,1.0,2675.5590532645856,0.48218383979580326,1.2956093549062708,0.9788049405094164,0.2850605272943173,0.7213492005481454
0.059000000000000004,1.7130254494764072,1.0,2674.6184669873487,0.4850883788623045,1.2949679004935626,0.9790162824841208,0.2850000688780091,0.7225571992296549
0.059500000000000004,1.7115859633738304,1.0,2674.160778064486,0.4879766260425184,1.2943220128606303,0.9792224988456341,0.28493961046170085,0.7237708952349075
0.06,1.7101464772712536,1.0,2674.1480760289724,0.4908486724195969,1.29367203900805,0.9794237639639561,0.28487915204539266,0.7249895838802753
0.0605,1.7087069911686767,1.0,2674.545115010886,0.49370460870961175,1.293018302551945,0.9796202442184571,0.2848186936290844,0.7262126095968648
0.061,1.7072675050661,1.0,2675.3261253375763,0.49654452283462003,1.2923610409257755,0.9798120948345205,0.2847582352127762,0.7274394826173374
0.0615,1.705828018963523,1.0,2676.4451301319223,0.4993685091463345,1.2917006777053928,0.979999475510078,0.28469777679646796,0.7286693706193067
0.062,1.704388532860946,1.0,2677.873179638798,0.5021766574213,1.291037480501679,0.9801825314597526,0.2846373183801597,0.7299017377016415
0.0625,1.7029490467583692,1.0,2679.5899167974394,0.5049690549091065,1.290371638334097,0.98036139823863,0.2845768599638515,0.7311361978672587
0.063,1.7015095606557924,1.0,2681.5750069702603,0.5077457888593435,1.289703340222109,0.9805362064108242,0.28451640154754326,0.7323723681892633
0.0635,1.7000700745532156,1.0,2683.8081272550316,0.5105069465216009,1.2890327751851767,0.9807070817753538,0.28445594313123507,0.7336098688416937
0.064,1.6986305884506387,1.0,2686.2689565875335,0.5132526151454684,1.2883601322427625,0.98087414558024,0.2843954847149268,0.7348483231279864
0.0645,1.6971911023480617,1.0,2688.937166638171,0.5159828819805357,1.2876856004143291,0.9810375147255207,0.2843350262986186,0.7360873575071651
0.065,1.6957516162454849,1.0,2691.7924134991845,0.5186978342763926,1.2870093687193382,0.9811973019558272,0.28427456788231037,0.7373266016177518
0.0655,1.694312130142908,1.0,2694.8217169347195,0.5213975553541785,1.2863315586036292,0.9813536124231085,0.2842141094660021,0.7385658116952054
0.066,1.6928726440403312,1.0,2698.003606660546,0.5240821353671274,1.2856523690200727,0.9815065518757093,0.2841536510496939,0.7398046048253195
0.0665,1.6914331579377544,1.0,2701.3241981898595,0.5267516597851247,1.2849719292692423,0.9816562186833798,0.28409319263338567,0.7410427280885394
0.067,1.6899936718351776,1.0,2704.774120943448,0.5294062113493957,1.284290327218897,0.981802705638746,0.2840327342170774,0.7422800058985092
0.0675,1.6885541857326007,1.0,2708.3439892420415,0.5320458728011656,1.283607650736796,0.9819461023578788,0.2839722758007692,0.7435162641695012
0.068,1.6871146996300237,1.0,2712.0244001273563,0.5346707268816596,1.282923987690698,0.9820864954135188,0.283911817384461,0.7447513303226844
0.0685,1.6856752135274469,1.0,2715.805931354747,0.5372808563321033,1.2822394259483625,0.9822239684618467,0.2838513589681528,0.7459850332918967
0.069,1.68423572742487,1.0,2719.6791395565856,0.5398763438937219,1.2815540533775485,0.9823586023631498,0.2837909005518445,0.7472172035289304
0.0695,1.6827962413222932,1.0,2723.63455857747,0.5424572723077405,1.280867957846015,0.9824904752967237,0.28373044213553633,0.74844767300832
0.07,1.6813567552197164,1.0,2727.6626979794723,0.5450237243153846,1.2801812272215212,0.9826196628703144,0.2836699837192281,0.7496762752316402
0.07050000000000001,1.6799172691171393,1.0,2731.7626402947308,0.547575772104775,1.2794938712463446,0.9827462339735832,0.28360952530291983,0.7509029844889406
0.07100000000000001,1.6784777830145625,1.0,2735.9178533802774,0.5501135113135216,1.2788060414221196,0.9828702631723282,0.28354906688661163,0.7521275231713244
0.07150000000000001,1.6770382969119857,1.0,2740.123835179068,0.5526370206785772,1.2781177796704957,0.9829918166414999,0.2834886084703034,0.7533498106860766
0.07200000000000001,1.6755988108094089,1.0,2744.3769136045535,0.555146377785092,1.277429120272848,0.9831109580241328,0.2834281500539952,0.7545697806907959
0.0725,1.674159324706832,1.0,2748.6734059585633,0.5576416602182156,1.2767400975105523,0.9832277489399655,0.28336769163768694,0.7557873674421238
0.073,1.6727198386042552,1.0,2753.009618642918,0.5601229455630984,1.2760507456649839,0.983342249064008,0.28330723322137874,0.7570025057965765
0.0735,1.6712803525016784,1.0,2757.3818468953878,0.56259031140489,1.2753610990175182,0.983454516201579,0.2832467748050705,0.7582151312113028
