Time [s],Phi [rad],STIM [ ],Fsee [N],Gamma [ ],Lcerel [ ],q [ ],Lmtc [m],fisomrel [ ]
0.0,1.8,1.0,17.990790520661488,0.00015764846320488927,1.379337099475876,0.005006481098460499,0.288653,0.5411459341875937
0.0005,1.79999375,1.0,18.34866969684059,0.005765973488827333,1.3792944061058467,0.013355497443630484,0.2886527375,0.5412492139566742
0.001,1.799975,1.0,21.800010694911236,0.011342840245274946,1.3789197901718802,0.03638211482261057,0.28865195,0.5421549509441912
0.0015,1.79994375,1.0,31.486645757140664,0.016888425189520134,1.3780107604975746,0.07165787375318634,0.2886506375,0.5443490591455524
0.002,1.7999,1.0,54.46941173007761,0.02240290378672012,1.3763108223545641,0.11596695777841717,0.2886488,0.5484380260804582
0.0025,1.79984375,1.0,98.59927446111406,0.02788645051868433,1.373864103136447,0.1659325408665769,0.28864643749999996,0.5542909195981511
0.003,1.7997750000000001,1.0,162.87749153378408,0.03333923889029247,1.3711427145062536,0.2186803984980923,0.28864354999999997,0.5607560123371478
0.0035,1.79969375,1.0,239.84814974838983,0.03876144143016996,1.3685182032533698,0.27200482792455777,0.2886401375,0.5669462177005996
0.004,1.7996,1.0,323.7676907825091,0.04415322970113114,1.3660952584901136,0.32426325487600144,0.2886362,0.5726220080071969
0.0045000000000000005,1.7994937500000001,1.0,411.64889979927386,0.04951477430547002,1.3638670005872988,0.3743133695213849,0.2886317375,0.577808692230876
0.005,1.799375,1.0,501.84201669983764,0.05484624487676968,1.3618067992412142,0.4214437795548957,0.28862675,0.5825760204809558
0.0055,1.79924375,1.0,593.2393629836096,0.06014781011963583,1.35989103805582,0.4652812070595182,0.2886212375,0.5869848237471439
0.006,1.7991000000000001,1.0,684.9681899050237,0.0654196377718651,1.3581019186826893,0.5056977034868066,0.2886152,0.5910810453946959
0.006500000000000001,1.79894375,1.0,776.3160173820958,0.07066189463158898,1.3564257233144352,0.5427312829028419,0.2886086375,0.5949002033156303
0.007,1.798775,1.0,866.6901518168603,0.0758747465986978,1.3548515841642308,0.5765247642751299,0.28860155,0.5984705140820659
0.0075,1.79859375,1.0,955.5995478267869,0.08105835846496376,1.3533705587330584,0.6072812180510486,0.2885939375,0.6018152047853511
0.008,1.7984,1.0,1042.6714035775874,0.08621289460896345,1.351974611736872,0.6352328233128056,0.2885858,0.604954951188387
0.0085,1.79819375,1.0,1127.5790307249479,0.09133851776643231,1.350657196327366,0.6606209656915354,0.2885771375,0.6079066666576249
0.009000000000000001,1.797975,1.0,1210.0782471274938,0.09643539006304275,1.3494122877642611,0.6836828401067969,0.28856795,0.6106857562479119
0.0095,1.79774375,1.0,1290.005926168337,0.10150367318630903,1.348234165096266,0.7046437481825034,0.2885582375,0.6133066526138604
0.01,1.7975,1.0,1367.2255544279476,0.10654352721104678,1.347117937889432,0.7237133170689458,0.288548,0.6157816874852948
0.0105,1.79724375,1.0,1441.6459945306276,0.11155511140903264,1.3460590924444327,0.7410834738182218,0.2885372375,0.6181221445680345
0.011,1.796975,1.0,1513.2321988001008,0.11653858466383377,1.345053229721848,0.7569280184829004,0.28852595000000003,0.6203388668957959
0.0115,1.79669375,1.0,1581.969620693763,0.12149410498177113,1.344096405038806,0.7714033785344783,0.2885141375,0.6224415307377869
0.012,1.7964,1.0,1647.843524757382,0.12642182843522132,1.343185259793913,0.7846497235955341,0.28850180000000003,0.6244383847582414
0.0125,1.79609375,1.0,1710.8795612398428,0.13132191101512442,1.342316448164565,0.7967920210884057,0.2884889375,0.6263375297066219
0.013000000000000001,1.7957750000000001,1.0,1771.1272914957904,0.13619450783751585,1.3414867801942074,0.8079415204968912,0.28847555,0.6281466165580136
0.0135,1.79544375,1.0,1828.6521905535096,0.14103977419000283,1.3406932600952726,0.8181971721818571,0.2884616375,0.6298727759108895
0.014,1.7951000000000001,1.0,1883.4960210162344,0.14585786221331273,1.3399334721594907,0.8276470926518208,0.2884472,0.6315217937040587
0.0145,1.79474375,1.0,1935.7242455705887,0.15064892404817284,1.3392050006785912,0.836369566040062,0.2884322375,0.6330993862073884
0.015,1.794375,1.0,1985.4187627225308,0.15541311141647135,1.3385054855762395,0.8444341971585327,0.28841675,0.6346110849323798
0.0155,1.79399375,1.0,2032.667738753239,0.16015057563908644,1.3378327060848667,0.8519029544961466,0.2884007375,0.6360620621791329
0.016,1.7936,1.0,2077.561734698558,0.16486146763477785,1.337184595305206,0.8588310736015937,0.2883842,0.637457106788471
0.0165,1.7931937500000001,1.0,2120.165763176758,0.16954593509153254,1.3365595047364813,0.8652679286941749,0.2883671375,0.6388000630469848
0.017,1.792775,1.0,2160.5569743777583,0.17420412569733737,1.3359557858779159,0.8712576008937023,0.28834955,0.6400947383136223
0.0175,1.7923437500000001,1.0,2198.8236384766346,0.17883618714017932,1.3353717902287334,0.8768395038591833,0.2883314375,0.6413449053532347
0.018000000000000002,1.7919,1.0,2235.0508950665508,0.18344226575920236,1.3348060028165651,0.8820489674630108,0.2883128,0.642554019381359
0.0185,1.79144375,1.0,2269.3364768621914,0.1880225092905704,1.3342568714456833,0.8869176706978367,0.2882936375,0.6437255863882142
0.019,1.790975,1.0,2301.7543510901955,0.1925770619682181,1.3337231602194302,0.8914741494661578,0.28827395,0.6448624117766472
0.0195,1.79049375,1.0,2332.3740656189616,0.19710606676754172,1.3332037415942022,0.8957441042420873,0.2882537375,0.645967049067679
0.02,1.79,1.0,2361.2709355897177,0.20160966666393754,1.3326974880263955,0.8997506961554874,0.288233,0.6470420327197908
0.0205,1.78949375,1.0,2388.525559079377,0.20608800463280186,1.3322032719724064,0.9035148320829359,0.2882117375,0.6480898791161588
0.021,1.788975,1.0,2414.20905995435,0.2105412216378063,1.3317201041069524,0.9070554437571702,0.28818995000000003,0.6491127950614562
0.021500000000000002,1.78844375,1.0,2438.4092991006582,0.21496946152326557,1.3312468736983127,0.9103896510383578,0.2881676375,0.6501132291616519
0.022,1.7879,1.0,2461.1880131074845,0.21937286342076007,1.3307827583032807,0.9135330385592997,0.2881448,0.6510930064071216
0.0225,1.78734375,1.0,2482.60288637636,0.22375156533859664,1.330327003631318,0.9164997755892362,0.28812143749999997,0.6520537967855716
0.023,1.786775,1.0,2502.714324501653,0.22810570528508203,1.3298788553918857,0.9193027522621687,0.28809755,0.6529972600935567
0.0235,1.78619375,1.0,2521.5852263470933,0.23243542126852298,1.3294375592944456,0.9219537127517818,0.28807313749999996,0.6539250463205313
0.024,1.7856,1.0,2539.276436619014,0.23674085049416901,1.329002401874045,0.9244633800161863,0.2880482,0.6548387103351705
0.0245,1.78499375,1.0,2555.845161440576,0.24102212929643033,1.3285727228072657,0.9268415611961712,0.2880227375,0.6557396869484049
0.025,1.784375,1.0,2571.362765234792,0.24527939610778476,1.328147745749487,0.9290972111175173,0.28799675,0.6566296459168688
0.025500000000000002,1.78374375,1.0,2585.872139928068,0.24951278364028884,1.3277269766032087,0.9312385801598811,0.2879702375,0.6575096581840558
0.026000000000000002,1.7831000000000001,1.0,2599.417439899968,0.25372242460599914,1.3273099212709303,0.9332732378101852,0.2879432,0.6583807890230148
0.0265,1.78244375,1.0,2612.043976750593,0.2579084517169721,1.3268960856551513,0.9352081380446765,0.2879156375,0.6592440981611608
0.027,1.781775,1.0,2623.7981194801687,0.2620709976852644,1.3264849756583714,0.9370496776359838,0.28788755,0.6601006398895173
0.0275,1.7810937500000001,1.0,2634.7272000818257,0.2662101952229325,1.3260760971830905,0.9388037482266217,0.2878589375,0.6609514631563894
0.028,1.7804,1.0,2644.8739179827526,0.270326173090967,1.3256690069788135,0.9404757887766492,0.2878298,0.6617975060377345
0.0285,1.77969375,1.0,2654.2861988013124,0.2744190668941889,1.3252632205471624,0.9420708176911964,0.2878001375,0.6626397874977297
0.029,1.778975,1.0,2662.9971364898006,0.2784890041248489,1.324858396408152,0.9435934906490238,0.28776995,0.6634790251375129
0.029500000000000002,1.7782437500000001,1.0,2671.0399681440745,0.2825361120064383,1.3244541967616,0.9450481162062789,0.2877392375,0.6643159253947226
0.03,1.7775,1.0,2678.4484235269874,0.2865605177624483,1.3240502838073238,0.9464386857483126,0.287708,0.6651511912129875
0.0305,1.77674375,1.0,2685.2566793766473,0.2905623486163702,1.3236463197451414,0.9477689008642097,0.2876762375,0.6659855220517402
0.031,1.775975,1.0,2691.4993162446785,0.2945417317916952,1.32324196677487,0.9490421980350925,0.28764395,0.6668196138887559
0.0315,1.7751937500000001,1.0,2697.2050239718515,0.2984987903730309,1.3228369442811176,0.950261776762224,0.2876111375,0.6676540414771382
0.032,1.7744,1.0,2702.401192365863,0.3024336488396336,1.3224309862735468,0.9514306156566026,0.2875778,0.6684893465901398
0.0325,1.77359375,1.0,2707.131868583342,0.3063464441253302,1.3220236771495346,0.952551474094597,0.2875439375,0.6693263754945545
0.033,1.772775,1.0,2711.4170078798757,0.3102372964859379,1.3216148236674286,0.9536269453134041,0.28750955,0.670165514022222
0.0335,1.7719437500000002,1.0,2715.2767479637037,0.31410632617727413,1.3212042325855764,0.9546594485915245,0.2874746375,0.6710071459474201
0.034,1.7711000000000001,1.0,2718.7313918397663,0.31795365345515614,1.3207917106623257,0.9556512429892312,0.2874392,0.6718516529666414
0.0345,1.7702437500000001,1.0,2721.8013914821504,0.32177939857540117,1.3203770646560242,0.9566044398492327,0.2874032375,0.6726994146759875
0.035,1.7693750000000001,1.0,2724.5073323338397,0.32558368179382663,1.3199601013250193,0.9575210141824323,0.28736675,0.6735508085461843
0.035500000000000004,1.76849375,1.0,2726.869918635168,0.3293666233662498,1.3195406274276589,0.9584028150498699,0.2873297375,0.6744062098952108
0.036000000000000004,1.7676,1.0,2728.909959579472,0.3331283435484879,1.3191184497222903,0.9592515750397885,0.2872922,0.6752659918585526
0.0365,1.76669375,1.0,2730.6483562971534,0.3368689625963583,1.3186933749672614,0.9600689189280446,0.2872541375,0.6761305253570682
0.037,1.765775,1.0,2732.1060896676036,0.3405886007656783,1.3182652099209196,0.9608563716006276,0.28721555,0.6770001790624778
0.0375,1.76484375,1.0,2733.290974687717,0.3442873697104816,1.3178338815525399,0.961615375230662,0.2871764375,0.677875075692749
0.038,1.7639,1.0,2734.2290625212154,0.3479653954803317,1.3173991516574652,0.9623472724897525,0.28713679999999997,0.6787556713237289
0.0385,1.76294375,1.0,2734.9383871051527,0.35162279606562313,1.3169608553222052,0.9630533316584134,0.28709663750000003,0.6796422710249238
0.039,1.761975,1.0,2735.42999180603,0.3552596843042008,1.3165188914668147,0.9637347515334093,0.28705595,0.6805350489305446
0.0395,1.7609937500000001,1.0,2735.7149509155092,0.3588761730339094,1.3160731590113488,0.9643926613857416,0.2870147375,0.6814341777824828
0.04,1.76,1.0,2735.804365331336,0.36247237509259367,1.3156235568758627,0.9650281257327021,0.286973,0.6823398289063426
0.0405,1.7589937500000001,1.0,2735.70935846492,0.36604840331809835,1.3151699839804118,0.965642148733621,0.2869307375,0.6832521721868207
0.041,1.757975,1.0,2735.441072375842,0.36960437054826817,1.3147123392450508,0.96623567824263,0.28688795,0.6841713760424364
0.0415,1.75694375,1.0,2735.0106641323605,0.37314038962094787,1.3142505215898348,0.966809609548516,0.2868446375,0.6850976073996071
0.042,1.7559,1.0,2734.429302398916,0.3766565733739821,1.3137844299348191,0.9673647888288163,0.28680079999999997,0.6860310316660733
0.0425,1.75484375,1.0,2733.7081642499597,0.3801530346452157,1.313313963200059,0.9679020163427083,0.2867564375,0.6869718127036737
0.043000000000000003,1.753775,1.0,2732.853052350244,0.3836298797818783,1.31283906917647,0.9684220523281453,0.28671155,0.6879200152959178
0.043500000000000004,1.75269375,1.0,2731.8762214589665,0.38708722439428644,1.3123596370929214,0.9689256133985025,0.28666613750000003,0.6888758198825844
0.044,1.7516,1.0,2730.7893259293955,0.3905251817558667,1.3118755616345055,0.9694133785596306,0.2866202,0.6898393943085517
0.0445,1.75049375,1.0,2729.59843931446,0.39394385784948366,1.311386788194047,0.9698859943565231,0.2865737375,0.6908108040121035
0.045,1.7493750000000001,1.0,2728.309636128837,0.39734335865800186,1.31089326216437,0.9703440740608222,0.28652675,0.6917901133316208
0.0455,1.74824375,1.0,2726.9289907351363,0.40072379016428583,1.310394928938299,0.9707881997034212,0.2864792375,0.6927773854891209
0.046,1.7471,1.0,2725.462576296333,0.4040852583512,1.309891733908658,0.9712189239639052,0.2864312,0.6937726825736146
0.0465,1.7459437500000001,1.0,2723.9164637943786,0.407427869201609,1.3093836224682711,0.9716367719282009,0.28638263750000004,0.6947760655242676
0.047,1.744775,1.0,2722.296721114404,0.4107517286983773,1.308870540009963,0.972042242724786,0.28633355,0.6957875941133733
0.0475,1.74359375,1.0,2720.6094121962774,0.41405694282436944,1.3083524319265574,0.9724358110489361,0.28628393750000003,0.6968073269291384
0.048,1.7424,1.0,2718.860596250481,0.41734361756245,1.307829243610879,0.972817928583635,0.2862338,0.6978353213582722
0.0485,1.74119375,1.0,2717.0533138203887,0.4206118509307976,1.3073009479074524,0.9731890262524461,0.2861831375,0.6988715797677972
0.049,1.739975,1.0,2715.193105566244,0.4238617495315435,1.306767494857888,0.9735495139844988,0.28613195,0.6999161482736469
0.0495,1.73874375,1.0,2713.2886135826084,0.4270934280905775,1.306228806175829,0.9738997814329503,0.2860802375,0.7009691271305057
0.05,1.7375,1.0,2711.342673747097,0.43030698539841095,1.3056848564293053,0.9742402017269511,0.286028,0.7020305119572545
0.0505,1.73624375,1.0,2709.3581189611573,0.4335025202455549,1.3051356201863473,0.974571130765301,0.2859752375,0.7031002974920064
0.051000000000000004,1.734975,1.0,2707.3377789408896,0.4366801314225207,1.3045810720149849,0.974892908162784,0.28592195,0.7041784775835542
0.051500000000000004,1.73369375,1.0,2705.2844800218813,0.4398399177198194,1.304021186483248,0.9752058581364231,0.2858681375,0.7052650451827747
0.052000000000000005,1.7324,1.0,2703.201044978511,0.4429819779279622,1.3034559381591668,0.9755102903359673,0.2858138,0.706359992333992
0.0525,1.73109375,1.0,2701.090292857592,0.4461064108374602,1.3028853016107713,0.9758065006225726,0.28575893750000003,0.7074633101663013
0.053,1.729775,1.0,2698.955038826228,0.4492133152388248,1.3023092514060914,0.9760947717993312,0.28570355000000003,0.7085749888848489
0.0535,1.72844375,1.0,2696.7980940342345,0.452302789922567,1.3017277621131575,0.9763753742970169,0.2856476375,0.7096950177620721
0.054,1.7271,1.0,2694.6222654906423,0.4553749336791981,1.3011408082999996,0.9766485668181484,0.2855912,0.7108233851288996
0.0545,1.7257437500000001,1.0,2692.4303559549294,0.4584298452992292,1.3005483645346474,0.9769145969422368,0.2855342375,0.7119600783659079
0.055,1.724375,1.0,2690.225163841814,0.4614676235731715,1.2999504053851312,0.9771737016948654,0.28547675,0.713105083894437
0.0555,1.72299375,1.0,2688.010934404508,0.46448833651353993,1.299346892126633,0.9774261043840392,0.2854187375,0.7142584125450446
0.056,1.7216,1.0,2685.7899320682604,0.4674921209847788,1.2987378041220945,0.9776720264969873,0.2853602,0.7154200395035366
0.0565,1.72019375,1.0,2683.5632187940078,0.4704790683321665,1.2981231317237873,0.9779116766962005,0.28530113749999997,0.7165899181479635
0.057,1.718775,1.0,2681.3318626313326,0.47344926924137454,1.2975028652123817,0.978145254997881,0.28524155,0.7177680012449728
0.0575,1.71734375,1.0,2679.0969298857726,0.4764028143980743,1.2968769948685481,0.9783729532597012,0.2851814375,0.7189542408093752
0.058,1.7159,1.0,2676.85948510942,0.47933979448793734,1.2962455109729565,0.9785949555769469,0.2851208,0.7201485881006757
0.0585,1.71444375,1.0,2674.6205910926064,0.48226030019663507,1.2956084038062774,0.978811438656366,0.2850596375,0.7213509936195945
0.059000000000000004,1.7129750000000001,1.0,2672.381308858402,0.4851644222098391,1.2949656636491809,0.9790225721691423,0.28499795,0.7225614071045865
0.059500000000000004,1.71149375,1.0,2670.142697658779,0.48805225121322077,1.294317280782337,0.9792285190843139,0.2849357375,0.7237797775283512
0.06,1.71,1.0,2667.9058149730713,0.49092387789245157,1.2936632454864165,0.9794294359838648,0.284873,0.7250060530943389
0.0605,1.7084937500000001,1.0,2665.671716508654,0.49377939293320305,1.2930035480420894,0.9796254733606323,0.2848097375,0.7262401812332494
0.061,1.7069750000000001,1.0,2663.441456203364,0.49661888702114676,1.2923381787300259,0.9798167759000891,0.28474595,0.7274821085995262
0.0615,1.7054437500000001,1.0,2661.216086230076,0.499442450841954,1.2916671278308962,0.9800034827469896,0.2846816375,0.7287317810678433
0.062,1.7039,1.0,2658.9966570041556,0.5022501750812964,1.2909903856253706,0.9801857277578059,0.2846168,0.7299891437295858
0.0625,1.70234375,1.0,2656.7842171914454,0.5050421504248453,1.2903079423941193,0.9803636397398069,0.2845514375,0.7312541408893263
0.063,1.7007750000000001,1.0,2654.5798137199067,0.5078184675582724,1.2896197884178127,0.9805373426775841,0.28448555,0.7325267160612928
0.0635,1.69919375,1.0,2652.3798556385723,0.5105791781742889,1.2889259567262412,0.9807069552541612,0.28441913750000003,0.7338067331945988
0.064,1.6976,1.0,2650.186704436607,0.5133243930153496,1.2882264254950153,0.9808725933545734,0.2843522,0.7350941570356071
0.0645,1.69599375,1.0,2648.004830200914,0.5160542334631192,1.287521153404704,0.9810343683724698,0.2842847375,0.736388987068969
0.065,1.694375,1.0,2645.8342673665757,0.5187687807050649,1.2868101400190926,0.9811923867962048,0.28421675,0.7376911466270042
0.0655,1.69274375,1.0,2643.675050352453,0.5214681159286537,1.2860933849019665,0.9813467512835656,0.2841482375,0.7390005584034927
0.066,1.6911,1.0,2641.5272135620844,0.5241523203213527,1.285370887617111,0.9814975608254631,0.2840792,0.7403171444535146
0.0665,1.6894437500000001,1.0,2639.3907913848793,0.5268214750706289,1.2846426477283117,0.9816449109014905,0.2840096375,0.7416408261932916
0.067,1.687775,1.0,2637.2658181964466,0.5294756613639493,1.283908664799354,0.981788893627809,0.28393955,0.7429715244000256
0.0675,1.68609375,1.0,2635.1523283602487,0.5321149603887811,1.2831689383940232,0.9819295978977898,0.2838689375,0.7443091592117407
0.068,1.6844000000000001,1.0,2633.05035622813,0.5347394533325914,1.2824234680761049,0.9820671095158134,0.2837978,0.7456536501271218
0.0685,1.68269375,1.0,2630.959936141368,0.537349221382847,1.281672253409384,0.9822015113246083,0.2837261375,0.7470049160053562
0.069,1.680975,1.0,2628.8811024316287,0.5399443457270152,1.2809152939576465,0.9823328833264776,0.28365395,0.7483628750659728
0.0695,1.67924375,1.0,2626.8138894218005,0.542524907552563,1.2801525892846775,0.9824613027987503,0.28358123749999997,0.7497274448886826
0.07,1.6775,1.0,2624.7583314273465,0.5450909880469574,1.2793841389542624,0.98258684440377,0.283508,0.7510985424132188
0.07050000000000001,1.67574375,1.0,2622.7144627569196,0.5476426683976655,1.2786099425301864,0.9827095802937106,0.2834342375,0.752476083939178
0.07100000000000001,1.673975,1.0,2620.682317713239,0.5501800297921543,1.2778299995762352,0.9828295802105,0.28335995,0.7538599851258583
0.07150000000000001,1.67219375,1.0,2618.6619305944573,0.552703153417891,1.277044309656194,0.9829469115811079,0.2832851375,0.755250160992101
0.07200000000000001,1.6704,1.0,2616.6533356949476,0.5552121204623425,1.2762528723338484,0.9830616396084423,0.2832098,0.7566465259161302
0.0725,1.66859375,1.0,2614.6565673061614,0.5577070121129759,1.2754556871729839,0.9831738273580861,0.2831339375,0.758048993635393
0.073,1.6667750000000001,1.0,2612.6716597180075,0.5601879095572583,1.2746527537373855,0.9832835358410889,0.28305755,0.7594574772464001
0.0735,1.66494375,1.0,2610.698647219331,0.5626548939826568,1.2738440715908386,0.9833908240930174,0.2829806375,0.7608718892045654
0.074,1.6631,1.0,2608.737564099172,0.5651080465766383,1.273029640297129,0.9834957492494573,0.2829032,0.7622921413240444
0.0745,1.6612437500000001,1.0,2606.7886534091695,0.5675474110403902,1.272209457478332,0.9835983644101021,0.2828252375,0.7637181481484444
0.075,1.659375,1.0,2604.851466520151,0.5699730939736924,1.2713835271894423,0.9836987248113076,0.28274675,0.7651498124050296
0.0755,1.65749375,1.0,2602.92562726314,0.5723851893561235,1.2705518528176922,0.9837968832022679,0.2826677375,0.7665870374263833
