Time [s],Phi [rad],STIM [ ],Fsee [N],Gamma [ ],Lcerel [ ],q [ ],Lmtc [m],fisomrel [ ]
0.0,1.8,1.0,17.966881460652125,3.452521042188173e-05,1.3793397772202702,0.00500031459522666,0.288653,0.541139456053813
0.0005,1.79999375,1.0,18.28452598039366,0.005643540860098073,1.3793015234711776,0.0130087436879599,0.2886527375,0.5412319971060067
0.001,1.799975,1.0,21.644462132858074,0.011221094366779642,1.378935639169736,0.035736497251511665,0.28865195,0.5421166497672947
0.0015,1.79994375,1.0,31.134083674837708,0.016767362209098968,1.3780406818099518,0.07077674534196607,0.2886506375,0.5442769225021262
0.002,1.7999,1.0,53.7245106517089,0.022282519873992487,1.3763589175971245,0.11492510110279042,0.2886488,0.5483225929372477
0.0025,1.79984375,1.0,97.3594216181757,0.027766741864445544,1.3739235860757706,0.16480013853614936,0.28864643749999996,0.5541490809191192
0.003,1.7997750000000001,1.0,161.27212041819863,0.03322020170697332,1.3712025978992006,0.21751281733810698,0.28864354999999997,0.5606142580130242
0.0035,1.79969375,1.0,238.03864207618722,0.03864307195139728,1.3685737938159805,0.2708439935295923,0.2886401375,0.566815556479895
0.004,1.7996,1.0,321.8451617524044,0.044035524181578946,1.366146073226847,0.323139570826942,0.2886362,0.5725033579737261
0.0045000000000000005,1.7994937500000001,1.0,409.6598604316997,0.04939772902061803,1.3639136120622342,0.37324692104626545,0.2886317375,0.5777005196295208
0.005,1.799375,1.0,499.81379555777386,0.054729856122034855,1.3618498378918027,0.4204461882160431,0.28862675,0.582476705413508
0.0055,1.79924375,1.0,591.1944487296156,0.06003207421603418,1.3599309425896413,0.46435768803225125,0.2886212375,0.5868932288473607
0.006,1.7991000000000001,1.0,682.9228133236943,0.06530455105563902,1.3581390593779956,0.504849046277543,0.2886152,0.5909962185836879
0.006500000000000001,1.79894375,1.0,774.2812827784495,0.07054745341208847,1.356460425811696,0.5419553858341007,0.2886086375,0.5948213164226545
0.007,1.798775,1.0,864.6905395299763,0.07576094740806791,1.3548838581022062,0.5758175988299072,0.28860155,0.5983974721252971
0.0075,1.79859375,1.0,953.6343210019248,0.0809451976483921,1.353400764199872,0.6066380552913335,0.2885939375,0.6017471296650079
0.008,1.7984,1.0,1040.7421571613354,0.08610036837685602,1.3520029976181036,0.6346484830877153,0.2885858,0.6048912298082569
0.0085,1.79819375,1.0,1125.6958933858396,0.09122662274554325,1.350683838971056,0.6600901420552412,0.2885771375,0.6078470825399314
0.009000000000000001,1.797975,1.0,1208.243380343168,0.09632412257646915,1.3494373459668538,0.683200469289128,0.28856795,0.6106299146799787
0.0095,1.79774375,1.0,1288.2266886138977,0.10139302977124169,1.348257697987602,0.7042050287299679,0.2885582375,0.6132543870930365
0.01,1.7975,1.0,1365.514871680778,0.10643350471840664,1.3471399151056962,0.7233137834646648,0.288548,0.6157330336110014
0.0105,1.79724375,1.0,1439.9997025038485,0.11144570621299608,1.3460796887334379,0.7407191673944891,0.2885372375,0.6180766870094603
0.011,1.796975,1.0,1511.6362576445897,0.11642979301356662,1.3450727176656587,0.7565954157597611,0.28852595000000003,0.6202959806212902
0.0115,1.79669375,1.0,1580.4187635942253,0.12138592299020234,1.3441149261299261,0.7710992592067175,0.2885141375,0.6224008852506234
0.012,1.7964,1.0,1646.3601846011309,0.12631425365552726,1.3432026165242001,0.784371066736627,0.28850180000000003,0.6244003954430575
0.0125,1.79609375,1.0,1709.4638940935104,0.13121494000655096,1.3423327047256235,0.7965362455813008,0.2884889375,0.6263020385052267
0.013000000000000001,1.7957750000000001,1.0,1769.769306786857,0.13608813704028297,1.3415021066113377,0.8077063741239602,0.28847555,0.6281132371811815
0.0135,1.79544375,1.0,1827.3283627906706,0.14093399878466417,1.3407079639745785,0.8179807043505961,0.2884616375,0.6298408267994176
0.014,1.7951000000000001,1.0,1882.2301059960541,0.1457526801934624,1.3399473263950992,0.8274473762772238,0.2884472,0.6314917578980355
0.0145,1.79474375,1.0,1934.5294720917507,0.15054433286295574,1.3392178985557561,0.8361849310765924,0.2884322375,0.633071483735385
0.015,1.794375,1.0,1984.287884643543,0.15530910761359068,1.3385175397919464,0.8442632327123806,0.28841675,0.6345850613941582
0.0155,1.79399375,1.0,2031.5852569569406,0.16004715526581384,1.3378441094390676,0.8517444304342938,0.2884007375,0.6360374927210565
0.016,1.7936,1.0,2076.5088532109908,0.16475862586388365,1.3371955662728214,0.8586839004739002,0.2883842,0.6374335143046916
0.0165,1.7931937500000001,1.0,2119.153379550381,0.16944366972520752,1.3365699471150925,0.8651310418850175,0.2883671375,0.6387776489124486
0.017,1.792775,1.0,2159.596753957325,0.17410243471115805,1.3359655971137643,0.8711300475190352,0.28834955,0.6400737166964026
0.0175,1.7923437500000001,1.0,2197.9127075335236,0.17873506727773358,1.335381016423559,0.8767204718750367,0.2883314375,0.6413251716285089
0.018000000000000002,1.7919,1.0,2234.184626775294,0.1833417138809324,1.3348147051991992,0.8819377333926623,0.2883128,0.6425354374437926
0.0185,1.79144375,1.0,2268.4991870162426,0.18792252031482115,1.3342652188955642,0.8868136113362455,0.2882936375,0.6437077915711116
0.019,1.790975,1.0,2300.9444183418086,0.19247763234835522,1.3337311778318943,0.8913766695824813,0.28827395,0.6448453473945681
0.0195,1.79049375,1.0,2331.6069315474097,0.19700719527664357,1.3332112854827431,0.8956526285957157,0.2882537375,0.6459510179430417
0.02,1.79,1.0,2360.5511614662396,0.2015113508994159,1.3327045226974823,0.8996647304827968,0.288233,0.6470271064306139
0.0205,1.78949375,1.0,2387.846539573465,0.205990241016402,1.3322098703254837,0.9034339536859667,0.2882117375,0.6480758994206803
0.021,1.788975,1.0,2413.5670812651565,0.2104440074273316,1.3317263092161191,0.906979264246152,0.28818995000000003,0.6490996676462109
0.021500000000000002,1.78844375,1.0,2437.787660341148,0.21487279133780685,1.3312528523030547,0.9103178428957277,0.2881676375,0.6501005989830697
0.022,1.7879,1.0,2460.5786969598657,0.21927673302426845,1.3307885912035657,0.9134652875350492,0.2881448,0.6510807013059958
0.0225,1.78734375,1.0,2482.018919754517,0.22365597423901964,1.3303325696840433,0.9164357579262341,0.28812143749999997,0.652042070809747
0.023,1.786775,1.0,2502.162166792502,0.22801065172456741,1.329884097051733,0.9192421846800177,0.28809755,0.6529862325011571
0.0235,1.78619375,1.0,2521.0646492640753,0.23234090222341872,1.32944248261388,0.9218963481719621,0.28807313749999996,0.6539147023252659
0.024,1.7856,1.0,2538.7847547213255,0.23664686247808053,1.32900703567773,0.924408996744763,0.2880482,0.6548289874826305
0.0245,1.78499375,1.0,2555.3828608939675,0.24092866923105988,1.3285770655505282,0.9267899513408081,0.2880227375,0.6557305867162113
0.025,1.784375,1.0,2570.9122237899774,0.24518645721061438,1.3281519652347569,0.9290482116977007,0.28799675,0.6566208154099711
0.025500000000000002,1.78374375,1.0,2585.43361066252,0.24942036361261907,1.3277310720458697,0.9311920157106275,0.2879702375,0.6575010982642377
0.026000000000000002,1.7831000000000001,1.0,2599.0008712932895,0.2536305233849244,1.3273138014636996,0.9332289334563748,0.2879432,0.6583726893220084
0.0265,1.78244375,1.0,2611.654417208685,0.25781706784934155,1.326899705476823,0.935165939637018,0.2879156375,0.659236551527954
0.027,1.781775,1.0,2623.4356630548527,0.26198012832768175,1.3264883360738162,0.9370094497834556,0.28788755,0.6600936428818586
0.0275,1.7810937500000001,1.0,2634.386941215134,0.2661198361417562,1.3260792452432564,0.9387653725328454,0.2878589375,0.6609449165229218
0.028,1.7804,1.0,2644.5514208779678,0.2702363226133761,1.3256719849737195,0.9404391563837496,0.2878298,0.6617913208012673
0.0285,1.77969375,1.0,2653.9730315547117,0.27432971906435266,1.3252661072537828,0.9420358315721866,0.2878001375,0.6626337993366411
0.029,1.778975,1.0,2662.688529602804,0.27840015210324237,1.3248612364204777,0.9435600559972863,0.28776995,0.6634731411714239
0.029500000000000002,1.7782437500000001,1.0,2670.74720338164,0.28244775709933434,1.324456886920225,0.9450161280329277,0.2877392375,0.6643103588330243
0.03,1.7775,1.0,2678.1783416401163,0.2864726600191489,1.3240527620974214,0.9464080516931798,0.287708,0.6651460694420663
0.0305,1.77674375,1.0,2685.0109409178935,0.2904749864454528,1.3236485717926172,0.9477395408306493,0.2876762375,0.6659808736498696
0.031,1.775975,1.0,2691.274373437718,0.29445486196101267,1.3232440258463616,0.9490140431503382,0.28764395,0.6668153691155508
0.0315,1.7751937500000001,1.0,2696.998352142545,0.2984124121485953,1.3228388340992048,0.9502347626022422,0.2876111375,0.6676501505021242
0.032,1.7744,1.0,2702.212897600406,0.30234776259096735,1.3224327063916965,0.9514046796286337,0.2875778,0.6684858094672387
0.0325,1.77359375,1.0,2706.948306775431,0.3062610388708955,1.3220253525643864,0.9525265694946775,0.2875439375,0.6693229346485416
0.033,1.772775,1.0,2711.2169386702294,0.3101523580076675,1.321616648308676,0.9536030358680616,0.28750955,0.6701617714626704
0.0335,1.7719437500000002,1.0,2715.064998470022,0.3140218544469411,1.3212061623805709,0.9546364772755926,0.2874746375,0.671003192757482
0.034,1.7711000000000001,1.0,2718.5194171320063,0.31786965173007925,1.3207936412820456,0.9556291505808481,0.2874392,0.6718477031664741
0.0345,1.7702437500000001,1.0,2721.597806662174,0.3216958686321478,1.3203789178149927,0.9565831733392999,0.2874032375,0.6726956282515757
0.035,1.7693750000000001,1.0,2724.317902082577,0.32550062392821233,1.3199618247813039,0.9575005263154562,0.28736675,0.6735472917175326
0.035500000000000004,1.76849375,1.0,2726.6975489788733,0.3292840363933386,1.3195421949828714,0.9583830639033671,0.2873297375,0.6744030153875274
0.036000000000000004,1.7676,1.0,2728.754691667198,0.3330462248025924,1.319119861221587,0.9592325236387793,0.2872922,0.6752631191770249
0.0365,1.76669375,1.0,2730.507361981429,0.3367873079310392,1.3186946562993431,0.9600505348914952,0.2872541375,0.6761279210658278
0.037,1.765775,1.0,2731.973668679738,0.340507404553745,1.3182664130180315,0.960838626817008,0.28721555,0.676997737068354
0.0375,1.76484375,1.0,2733.171787471411,0.3442066334457754,1.3178349641795444,0.9615982356380942,0.2871764375,0.6778728812021293
0.038,1.7639,1.0,2734.119951662953,0.347885113382196,1.3174001425857735,0.962330711319616,0.28713679999999997,0.6787536654544982
0.0385,1.76294375,1.0,2734.8246750113694,0.35154295502179433,1.3169618879047402,0.9630373321432406,0.28709663750000003,0.6796401837240527
0.039,1.761975,1.0,2735.3109150058904,0.35518028285437075,1.3165199726678625,0.9637192885719085,0.28705595,0.6805328663977539
0.0395,1.7609937500000001,1.0,2735.5954235300146,0.3587972135997678,1.316074244247169,0.9643777073571675,0.2870147375,0.6814319901899906
0.04,1.76,1.0,2735.688123701293,0.362393858880686,1.3156246122614612,0.9650136552688912,0.286973,0.6823377045114869
0.0405,1.7589937500000001,1.0,2735.598960203055,0.3659703303198257,1.3151709863295407,0.9656281385785318,0.2869307375,0.6832501574491854
0.041,1.757975,1.0,2735.3378958848716,0.36952673953988735,1.314713276070209,0.9662221071221655,0.28688795,0.6841694957434836
0.0415,1.75694375,1.0,2734.914908544065,0.37306319816357136,1.3142513911022677,0.966796458049812,0.2868446375,0.685095864764954
0.042,1.7559,1.0,2734.3399878889254,0.37657981781357824,1.313785241044518,0.9673520392882504,0.28680079999999997,0.6860294084905411
0.0425,1.75484375,1.0,2733.623132682578,0.38007671011260835,1.3133147355157617,0.9678896527419529,0.2867564375,0.6869702694792357
0.043000000000000003,1.753775,1.0,2732.7743480674117,0.3835539866833622,1.3128397841348003,0.9684100572544068,0.28671155,0.6879185888472308
0.043500000000000004,1.75269375,1.0,2731.8036430723523,0.3870117591485402,1.312360296520435,0.9689139713500097,0.28666613750000003,0.688874506242557
0.044,1.7516,1.0,2730.713655125329,0.3904501319193692,1.3118762492958898,0.9694020799715294,0.2866202,0.6898380265469644
0.0445,1.75049375,1.0,2729.518580227447,0.39386922118545536,1.3113875140751907,0.9698750260069282,0.2865737375,0.6908093624938549
0.045,1.7493750000000001,1.0,2728.2289375617775,0.39726913730298213,1.3108939958492758,0.9703334209411233,0.28652675,0.6917886586252249
0.0455,1.74824375,1.0,2726.850049394892,0.400649985172984,1.3103956468286269,0.9707778478935145,0.2864792375,0.6927759643808622
0.046,1.7471,1.0,2725.3872372682295,0.4040118696964954,1.3098924192237271,0.9712088605742671,0.2864312,0.6937713281494444
0.0465,1.7459437500000001,1.0,2723.8458211605102,0.40735489577455053,1.3093842652450587,0.9716269850457062,0.28638263750000004,0.6947747972537474
0.047,1.744775,1.0,2722.2311187007776,0.410679168308184,1.3088711371031043,0.9720327213620165,0.28633355,0.6957864179356994
0.0475,1.74359375,1.0,2720.5484444324125,0.41398479219843004,1.3083529870083466,0.9724265450967313,0.28628393750000003,0.696806235341296
0.048,1.7424,1.0,2718.8031091269913,0.4172718723463231,1.307829767171268,0.9728089087666719,0.2862338,0.6978342935053665
0.0485,1.74119375,1.0,2717.0004191497324,0.42054051365289763,1.3073014298023513,0.9731802431602513,0.2861831375,0.6988706353361944
0.049,1.739975,1.0,2715.1456758748577,0.4237908210191879,1.3067679271120787,0.9735409585773986,0.28613195,0.6999153025999949
0.0495,1.73874375,1.0,2713.240998666604,0.4270228874084446,1.3062292402703553,0.9738914465383435,0.2860802375,0.7009682793477074
0.05,1.7375,1.0,2711.293647415676,0.43023682663064516,1.3056853035518143,0.9742320796098827,0.286028,0.7020296402819999
0.0505,1.73624375,1.0,2709.3090855996024,0.43343274716027624,1.305136067536721,0.9745632135706538,0.2859752375,0.7030994269394951
0.051000000000000004,1.734975,1.0,2707.289909201234,0.43661074671604144,1.304581508912064,0.9748851883924362,0.28592195,0.7041776289185276
0.051500000000000004,1.73369375,1.0,2705.238711120428,0.4397709230166444,1.304021604364833,0.9751983286341315,0.2858681375,0.7052642349471716
0.052000000000000005,1.7324,1.0,2703.1580810131895,0.44291337378078877,1.303456330582017,0.9755029442730146,0.2858138,0.7063592328753112
0.0525,1.73109375,1.0,2701.050605143548,0.4460381967271781,1.3028856642506055,0.9757993314841406,0.28575893750000003,0.7074626096666756
0.053,1.729775,1.0,2698.918866246404,0.44914548957451605,1.3023095820575874,0.9760877733715622,0.28570355000000003,0.7085743513908381
0.0535,1.72844375,1.0,2696.7654434035057,0.4522353500415063,1.301728060689952,0.976368540654723,0.2856476375,0.7096944432151808
0.054,1.7271,1.0,2694.5929119305288,0.45530787584685234,1.3011410768346887,0.9766418923131376,0.2855912,0.7108228693968244
0.0545,1.7257437500000001,1.0,2692.403843276889,0.4583631647092579,1.3005486071787866,0.9769080761922238,0.2855342375,0.7119596132745263
0.055,1.724375,1.0,2690.2008049370543,0.4614013143474266,1.299950628409235,0.9771673295729313,0.28547675,0.713104657260539
0.0555,1.72299375,1.0,2687.98636037469,0.464422422480062,1.299347117213023,0.9774198797076233,0.2854187375,0.7142579828324382
0.056,1.7216,1.0,2685.76306895777,0.4674265868258678,1.29873805027714,0.9776659443244611,0.2853602,0.7154195705249139
0.0565,1.72019375,1.0,2683.529130530888,0.4704138693982834,1.2981234442149325,0.9779057311518911,0.28530113749999997,0.7165893240096493
0.057,1.718775,1.0,2681.292485136913,0.47338441061597875,1.2975032263408839,0.9781394413666115,0.28524155,0.7177673160611123
0.0575,1.71734375,1.0,2679.0544097728284,0.476338303745441,1.2968773849805373,0.9783672671159677,0.2851814375,0.7189535021910646
0.058,1.7159,1.0,2676.8156639528897,0.47927563806172996,1.296245913189754,0.9785893926853202,0.2851208,0.720147828183574
0.0585,1.71444375,1.0,2674.5770059282,0.48219650283990523,1.2956088040243943,0.9788059949662621,0.2850596375,0.7213502391048063
0.059000000000000004,1.7129750000000001,1.0,2672.3391926848835,0.48510098735502655,1.2949660505403193,0.9790172438097641,0.28499795,0.7225606793005286
0.059500000000000004,1.71149375,1.0,2670.1029799434828,0.4879891808821536,1.2943176457933903,0.9792233023597605,0.2849357375,0.7237790923936112
0.06,1.71,1.0,2667.869122159201,0.4908611726963461,1.2936635828394678,0.9794243273684096,0.284873,0.7250054212815276
0.0605,1.7084937500000001,1.0,2665.638372523705,0.49371705207266386,1.293003854734413,0.9796204694941616,0.2848097375,0.726239608133849
0.061,1.7069750000000001,1.0,2663.411482967337,0.49655690828616644,1.2923384545340864,0.979811873583703,0.28474595,0.7274815943897384
0.0615,1.7054437500000001,1.0,2661.1892041627975,0.49938083061191363,1.2916673752943493,0.9799986789387611,0.2846816375,0.7287313207554376
0.062,1.7039,1.0,2658.9722855301484,0.5021889083249651,1.2909906100710626,0.9801810195686925,0.2846168,0.7299887272017563
0.0625,1.70234375,1.0,2656.761475242044,0.5049812307003806,1.290308151920087,0.9803590244297148,0.2845514375,0.7312537529615553
0.063,1.7007750000000001,1.0,2654.5575202308787,0.5077578870132198,1.2896199938972834,0.9805328176515791,0.28448555,0.7325263365272242
0.0635,1.69919375,1.0,2652.3611661967993,0.5105189665385423,1.2889261290585128,0.9807025187524347,0.28441913750000003,0.7338064156481621
0.064,1.6976,1.0,2650.1731576160532,0.5132645585514081,1.2882265504596362,0.9808682428425812,0.2843522,0.7350939273282487
0.0645,1.69599375,1.0,2647.994237751854,0.5159947523268766,1.2875212511565146,0.9810301008177597,0.2842847375,0.7363888078233178
0.065,1.694375,1.0,2645.82535320466,0.5187096368549239,1.28681022231665,0.9811881994281147,0.28421675,0.7376909960927098
0.0655,1.69274375,1.0,2643.6682939793486,0.5214092952486182,1.2860934473037846,0.9813426407730679,0.2841482375,0.7390004445466729
0.066,1.6911,1.0,2641.5220806977904,0.524093810858235,1.2853709350434745,0.9814935245704756,0.2840792,0.7403170581390721
0.0665,1.6894437500000001,1.0,2639.38567034832,0.5267632682722282,1.2846426950645362,0.98164094711419,0.2840096375,0.741640740262747
0.067,1.687775,1.0,2637.2566607014305,0.5294177517203914,1.2839087494806491,0.9817850018902655,0.28393955,0.7429713710724937
0.0675,1.68609375,1.0,2635.1333338643008,0.5320573448334078,1.2831691141107364,0.9819257787748589,0.2838689375,0.7443088418805508
0.068,1.6844000000000001,1.0,2633.0288951743005,0.5346821337386467,1.2824236666900442,0.9820633580902354,0.2837978,0.7456532923895116
0.0685,1.68269375,1.0,2630.940123854782,0.5372922001785381,1.2816724368374048,0.9821978242636139,0.2837261375,0.7470045864989738
0.069,1.680975,1.0,2628.8638043534515,0.5398876258955115,1.2809154541716508,0.9823292588361806,0.28365395,0.7483625880342322
0.0695,1.67924375,1.0,2626.7967262615266,0.5424684926319971,1.2801527483116142,0.9824577405811274,0.28358123749999997,0.7497271607571727
0.07,1.6775,1.0,2624.7356842530585,0.5450348821304246,1.2793843488761276,0.9825833456160963,0.283508,0.7510981683771116
0.07050000000000001,1.6757458222320365,1.0,2622.7784019301225,0.5475868761332239,1.278610285484023,0.982706147510332,0.2834343245337455,0.7524754745615793
0.07100000000000001,1.6739905198567078,1.0,2621.3724214304602,0.5501245546726095,1.277830607276404,0.9828262181787197,0.2833606018339817,0.7538589083559456
0.07150000000000001,1.672235217481379,1.0,2620.5015292751555,0.5526480002324552,1.2770459684395965,0.9829436549273727,0.2832868791342179,0.7552472301382848
0.07200000000000001,1.6704799151060505,1.0,2620.1227035816846,0.5551572922318943,1.2762567656305726,0.9830585402453703,0.2832131564344541,0.756639666592267
0.0725,1.6687246127307218,1.0,2620.2010719838554,0.5576525090713853,1.2754633213787627,0.9831709506829734,0.2831394337346903,0.7580355821906266
0.073,1.6669693103553933,1.0,2620.7018859912946,0.5601337291513869,1.2746659582135975,0.9832809604409685,0.2830657110349265,0.7594343475720864
0.0735,1.6652140079800646,1.0,2621.590491811919,0.5626010308723577,1.2738649986645076,0.9833886414669002,0.2829919883351627,0.7608353396252846
0.074,1.663458705604736,1.0,2622.832303481253,0.5650544926347562,1.2730607652609234,0.9834940635468292,0.2829182656353989,0.762237941566068
0.0745,1.6617034032294073,1.0,2624.395721331285,0.5674941920716337,1.272253553250791,0.9835972931476833,0.2828445429356351,0.7636415903772917
