Time [s],Phi [rad],STIM [ ],Fsee [N],Gamma [ ],Lcerel [ ],q [ ],Lmtc [m],fisomrel [ ]
0.0,1.8,1.0,17.967719878904347,1.1115091134930604e-05,1.3793396832897593,0.005000032899536064,0.288653,0.5411396832959985
0.0005,1.79999375,1.0,18.27737547033092,0.005620262053058494,1.379302317662273,0.012943609391157684,0.2886527375,0.5412300759439674
0.001,1.799975,1.0,21.619795048284512,0.01119794613544273,1.37893815774881,0.03561438546891071,0.28865195,0.5421105631439349
0.0015,1.79994375,1.0,31.07231812949433,0.0167443438210265,1.3780459411490018,0.07060965619319205,0.2886506375,0.5442642422856041
0.002,1.7999,1.0,53.58873276385696,0.022259630600897362,1.3763677200731481,0.11472725333853845,0.2886488,0.5483014645629478
0.0025,1.79984375,1.0,97.12939117465824,0.027743980982059508,1.3739346635425422,0.16458491940482323,0.28864643749999996,0.5541226639072887
0.003,1.7997750000000001,1.0,160.97180478798876,0.03319756849514399,1.371213833284996,0.21729079831893683,0.28864354999999997,0.5605876593681738
0.0035,1.79969375,1.0,237.69875487466646,0.03862056569400579,1.3685842591614454,0.27062317741521397,0.2886401375,0.5667909563087004
0.004,1.7996,1.0,321.4832045626621,0.04401314416650462,1.3661556571483977,0.32292576452257177,0.2886362,0.5724809781193401
0.0045000000000000005,1.7994937500000001,1.0,409.28480451127416,0.049375474539689886,1.3639224138548902,0.37304396548862157,0.2886317375,0.5776800914988202
0.005,1.799375,1.0,499.4309224394415,0.05470772647089022,1.3618579722132138,0.4202563101385058,0.28862675,0.5824579335004496
0.0055,1.79924375,1.0,590.8080154573721,0.06001006869515705,1.3599384912120716,0.46418189221644374,0.2886212375,0.5868759009693161
0.006,1.7991000000000001,1.0,682.5357441646825,0.06528266896848314,1.3581460941769012,0.5046874932562585,0.2886152,0.5909801505925708
0.006500000000000001,1.79894375,1.0,773.8985656425247,0.07052569412400483,1.3564669581637423,0.5418076500571684,0.2886086375,0.5948064659996455
0.007,1.798775,1.0,864.3030639025229,0.07573931005177306,1.35489011631139,0.5756830595554983,0.28860155,0.5983833078586993
0.0075,1.79859375,1.0,953.2599471404637,0.08092368171531732,1.353406521840978,0.6065156298654257,0.2885939375,0.6017341528069589
0.008,1.7984,1.0,1040.37624287407,0.08607897315167416,1.3520083844490958,0.6345372396566793,0.2885858,0.6048791367268418
0.0085,1.79819375,1.0,1125.3351190208816,0.09120534749540092,1.3506889457529396,0.6599891162358446,0.2885771375,0.6078356611182774
0.009000000000000001,1.797975,1.0,1207.8878296905198,0.09630296646910481,1.34944220381125,0.683108695606454,0.28856795,0.6106190886337273
0.0095,1.79774375,1.0,1287.8819344581193,0.1013719923286224,1.3482622597199607,0.7041215605831856,0.2885582375,0.6132442552766155
0.01,1.7975,1.0,1365.1858053499777,0.10641258553231789,1.3471441442137,0.7232377558417136,0.288548,0.6157236707211029
0.0105,1.79724375,1.0,1439.6858068050128,0.11142490458220283,1.3460836171289918,0.7406498273797477,0.2885372375,0.6180680164378616
0.011,1.796975,1.0,1511.3316564107934,0.11640910798028883,1.3450764383023603,0.756532112885063,0.28852595000000003,0.6202877925017771
0.0115,1.79669375,1.0,1580.1212980800492,0.12136535389065674,1.3441184796465449,0.7710413867730036,0.2885141375,0.6223930866254799
0.012,1.7964,1.0,1646.0674089999113,0.12629379969467297,1.3432060432483193,0.7843180823266122,0.28850180000000003,0.6243928950185995
0.0125,1.79609375,1.0,1709.18297360112,0.13119460086777077,1.3423359314262702,0.7964876192083982,0.2884889375,0.626294993796263
0.013000000000000001,1.7957750000000001,1.0,1769.5011855660534,0.1360679120907898,1.341505133362283,0.8076616637378112,0.28847555,0.6281066450484991
0.0135,1.79544375,1.0,1827.0763951873816,0.14091388747390451,1.3407107632056958,0.8179395067148608,0.2884616375,0.6298347443743376
0.014,1.7951000000000001,1.0,1881.9876010095104,0.14573268149518911,1.339949980913149,0.8274093735225648,0.2884472,0.6314860027970333
0.0145,1.79474375,1.0,1934.2965623690277,0.15052444621863123,1.3392204133380485,0.8361498136710666,0.2884322375,0.6330660432868735
0.015,1.794375,1.0,1984.0650266014131,0.15528933248262894,1.3385199156776435,0.844230724018791,0.28841675,0.634579932045922
0.0155,1.79399375,1.0,2031.373254086928,0.16002749112558035,1.337846343129184,0.8517142828936455,0.2884007375,0.6360326799561149
0.016,1.7936,1.0,2076.3038687880507,0.16473907199051474,1.3371977025227564,0.8586559084588233,0.2883842,0.6374289203232613
0.0165,1.7931937500000001,1.0,2118.9583711742043,0.1694242257203743,1.3365719588439233,0.865105000394846,0.2883671375,0.6387733307396823
0.017,1.792775,1.0,2159.4113364317627,0.174083099770013,1.3359674919040443,0.871105783077615,0.28834955,0.6400696568357971
0.0175,1.7923437500000001,1.0,2197.73678406617,0.17871584070975796,1.3353827984519744,0.8766978284609336,0.2883314375,0.6413213600207983
0.018000000000000002,1.7919,1.0,2234.0184041019884,0.18332259510993643,1.3348163752365685,0.8819165703987492,0.2883128,0.6425318714076702
0.0185,1.79144375,1.0,2268.3419597047396,0.1879035087364532,1.3342667865617026,0.886793804858564,0.2882936375,0.6437044496228098
0.019,1.790975,1.0,2300.798243088226,0.19245872777567435,1.3337326249869548,0.8913581015984503,0.28827395,0.6448422672809841
0.0195,1.79049375,1.0,2331.467584787906,0.19698839670124266,1.3332126559323538,0.8956352072277762,0.2882537375,0.6459481056329937
0.02,1.79,1.0,2360.4165405471126,0.20149265752982873,1.3327058385263582,0.8996483679239331,0.288233,0.647024314446661
0.0205,1.78949375,1.0,2387.7167254495516,0.2059716522781031,1.332211131897425,0.9034185658195015,0.2882117375,0.6480732265415552
0.021,1.788975,1.0,2413.444392142821,0.21042552296273637,1.3317274951740128,0.9069647703148321,0.28818995000000003,0.6490971586274723
0.021500000000000002,1.78844375,1.0,2437.670498612646,0.21485440994306956,1.3312539791902116,0.9103041771910912,0.2881676375,0.6500982183375347
0.022,1.7879,1.0,2460.4758513892402,0.21925845579250036,1.3307895758014057,0.9134523713715617,0.2881448,0.6510786241745092
0.0225,1.78734375,1.0,2481.925221225481,0.22363779983457086,1.3303334628284977,0.9164235450480752,0.28812143749999997,0.6520401892083338
0.023,1.786775,1.0,2502.0738817102065,0.2279925790974009,1.3298849351999171,0.9192306303901876,0.28809755,0.6529844691586304
0.0235,1.78619375,1.0,2520.979511741445,0.23232293060911033,1.3294432878440936,0.9218854091870938,0.28807313749999996,0.653913010505337
0.024,1.7856,1.0,2538.7019942118573,0.23662899139781898,1.329007815689457,0.924398631069596,0.2880482,0.6548273508139424
0.0245,1.78499375,1.0,2555.303225715802,0.24091089849164674,1.3285778136644366,0.9267801181590158,0.2880227375,0.6557290190290139
0.025,1.784375,1.0,2570.8362561171584,0.24516878557331082,1.328152676736198,0.929038873400451,0.28799675,0.6566193263739425
0.025500000000000002,1.78374375,1.0,2585.3652207123564,0.2494027921608074,1.327731710773704,0.9311831337112934,0.2879702375,0.6574997632440727
0.026000000000000002,1.7831000000000001,1.0,2598.934389976882,0.25361305084024593,1.327314420742985,0.9332204858099498,0.2879432,0.6583713965997583
0.0265,1.78244375,1.0,2611.5863372661424,0.2577996931802571,1.3269003381093745,0.9351579030330913,0.2879156375,0.6592352326019664
0.027,1.781775,1.0,2623.364665195448,0.2619628507494717,1.326488994338207,0.9370017996959638,0.28788755,0.6600922722449817
0.0275,1.7810937500000001,1.0,2634.31391611207,0.26610265511652037,1.3260799208948166,0.938758083354932,0.2878589375,0.6609435114452491
0.028,1.7804,1.0,2644.4794874345234,0.27021923785003393,1.3256726492445376,0.9404322015489963,0.2878298,0.6617899411162129
0.0285,1.77969375,1.0,2653.9018330151966,0.27431272849901595,1.3252667635699815,0.942029190453674,0.2878001375,0.6626324378721612
0.029,1.778975,1.0,2662.618541061229,0.27838325684447973,1.3248618805259544,0.9435537096708257,0.28776995,0.6634718067000654
0.029500000000000002,1.7782437500000001,1.0,2670.680653631983,0.2824309572922356,1.324457498453536,0.9450100563842221,0.2877392375,0.6643090934224289
0.03,1.7775,1.0,2678.116166931174,0.2864559552778617,1.324053332634551,0.9464022374710364,0.287708,0.6651448903330393
0.0305,1.77674375,1.0,2684.9534856685214,0.29045837623693616,1.3236490983508233,0.9477339686845275,0.2876762375,0.6659797867879436
0.031,1.775975,1.0,2691.221386957359,0.294438345605037,1.323244510884178,0.9490086994682826,0.28764395,0.6668143692067876
0.0315,1.7751937500000001,1.0,2696.9489860093763,0.29839598881774243,1.322839285516439,0.9502296353642371,0.2876111375,0.6676492210689897
0.032,1.7744,1.0,2702.165703627127,0.3023314313106304,1.3224331375294311,0.9513997582737989,0.2875778,0.6684849229047416
0.0325,1.77359375,1.0,2706.9012354940005,0.30624479851927905,1.3220257822049786,0.9525218448008977,0.2875439375,0.669322052280841
0.033,1.772775,1.0,2711.1837953951226,0.310136214687094,1.3216169505835107,0.9535984843835619,0.28750955,0.67016115145843
0.0335,1.7719437500000002,1.0,2715.0372568648277,0.31400580117067955,1.3212064152113592,0.9546320967302865,0.2874746375,0.6710026748312116
0.034,1.7711000000000001,1.0,2718.49448956981,0.3178536869430451,1.3207938683218285,0.9556249343089026,0.2874392,0.6718472386706548
0.0345,1.7702437500000001,1.0,2721.573663220672,0.3216799911797452,1.3203791375886038,0.9565791146678614,0.2874032375,0.6726951792027502
0.035,1.7693750000000001,1.0,2724.293072777157,0.32548483305633424,1.319962050685369,0.9574966185605562,0.28736675,0.673546830743665
0.035500000000000004,1.76849375,1.0,2726.6711255524083,0.3292683317483666,1.3195424352858092,0.9583793003666299,0.2873297375,0.674402525674791
0.036000000000000004,1.7676,1.0,2728.726328975889,0.3330306064313968,1.3191201190636084,0.959228897604781,0.2872922,0.675262594415907
0.0365,1.76669375,1.0,2730.4772790146,0.33677177628097926,1.3186949296924517,0.9600470396256527,0.2872541375,0.676127365396439
0.037,1.765775,1.0,2731.942649252817,0.34049196047266844,1.3182666948460233,0.9608352555638919,0.28721555,0.6769971650248351
0.0375,1.76484375,1.0,2733.140501269543,0.34419127736029936,1.3178352483690257,0.9615949820484205,0.2871764375,0.6778723051473208
0.038,1.7639,1.0,2734.0809305758107,0.34786983455420967,1.3174004969741835,0.9623275741984757,0.28713679999999997,0.6787529480884609
0.0385,1.76294375,1.0,2734.794825224857,0.35152776701581057,1.316962158964499,0.9630342944637712,0.28709663750000003,0.6796396357926136
0.039,1.761975,1.0,2735.292649669689,0.3551651869131772,1.3165201385166971,0.9637163439324775,0.28705595,0.6805325316115143
0.0395,1.7609937500000001,1.0,2735.5848986828473,0.35878220641438485,1.316074339807503,0.9643748540157373,0.2870147375,0.6814317975613875
0.04,1.76,1.0,2735.6820932877063,0.3623789376875086,1.315624667013642,0.9650108912313005,0.286973,0.6823375943001518
0.0405,1.7589937500000001,1.0,2735.594776894379,0.3659554929006236,1.315171024311839,0.9656254616098683,0.2869307375,0.6832500811040374
0.041,1.757975,1.0,2735.333511638441,0.3695119842218052,1.3147133158788191,0.9662195147575708,0.28688795,0.684169415843618
0.0415,1.75694375,1.0,2734.908874923666,0.37304852381912834,1.3142514458913075,0.9667939476047217,0.2868446375,0.6850957549592559
0.042,1.7559,1.0,2734.331456168379,0.3765652238606684,1.3137853185260293,0.967349607868086,0.28680079999999997,0.686029253435964
0.0425,1.75484375,1.0,2733.6118537551515,0.38006219651450035,1.3133148379597097,0.967887297251274,0.2867564375,0.6869700647776813
0.043000000000000003,1.753775,1.0,2732.760672184052,0.38353955394869954,1.3128399083690736,0.968407774405543,0.28671155,0.6879183409809619
0.043500000000000004,1.75269375,1.0,2731.7875223740593,0.38699740604584054,1.3123604429899114,0.9689117580426482,0.28666613750000003,0.6888742144615636
0.044,1.7516,1.0,2730.6992365261117,0.3904358563980996,1.3118763803265532,0.969399930136644,0.2866202,0.6898377659260433
0.0445,1.75049375,1.0,2729.5096487972914,0.39385502790040067,1.3113875952583058,0.969872935114397,0.2865737375,0.6908092012731171
0.045,1.7493750000000001,1.0,2728.224200424419,0.39725502545572594,1.3108940389181123,0.9703313874064786,0.28652675,0.691788573230814
0.0455,1.74824375,1.0,2726.848332854074,0.4006359539670576,1.3103956624389161,0.9707758701397413,0.2864792375,0.6927759334792934
0.046,1.7471,1.0,2725.38748682261,0.4039979183373777,1.309892416953661,0.9712069370308664,0.2864312,0.6937713326359003
0.0465,1.7459437500000001,1.0,2723.847101488486,0.40734102346966855,1.3093842535952902,0.9716251141478269,0.28638263750000004,0.6947748202400675
0.047,1.744775,1.0,2722.232613617648,0.41066537426691224,1.3088711234967472,0.9720309015496497,0.28633355,0.695786444738065
0.0475,1.74359375,1.0,2720.5494568227364,0.41397107563209096,1.3083529777909753,0.9724247748139561,0.28628393750000003,0.6968062534675967
0.048,1.7424,1.0,2718.803060853503,0.41725823246818694,1.307829767610918,0.9728071864609465,0.2862338,0.6978342926422454
0.0485,1.74119375,1.0,2716.9988509421723,0.42052694967818227,1.3073014440895188,0.9731785672817489,0.2861831375,0.6988706073357664
0.049,1.739975,1.0,2715.1422471999467,0.42377733216505914,1.3067679583597211,0.9735393275783767,0.28613195,0.6999152414662257
0.0495,1.73874375,1.0,2713.2386153038874,0.4270094843304104,1.3062292619990397,0.9738898582926578,0.2860802375,0.700968236911746
0.05,1.7375,1.0,2711.292597684526,0.4302235077436675,1.305685313125457,0.9742305322308226,0.286028,0.7020296216179568
0.0505,1.73624375,1.0,2709.3076762664186,0.4334195039653544,1.3051360803946739,0.9745617056680727,0.2859752375,0.7030994019176503
0.051000000000000004,1.734975,1.0,2707.287009252268,0.4365975731074627,1.3045815353794146,0.9748837185937236,0.28592195,0.7041775775061174
0.051500000000000004,1.73369375,1.0,2705.233750976835,0.4397578152819844,1.3040216496524042,0.9751968955741551,0.2858681375,0.7052641471384911
0.052000000000000005,1.7324,1.0,2703.1510517060583,0.4429003306009111,1.3034563947863678,0.9755015465850576,0.2858138,0.7063591086200897
0.0525,1.73109375,1.0,2701.0414630243536,0.4460252189358857,1.3028857477855642,0.9757979681097032,0.28575893750000003,0.7074624483047819
0.053,1.729775,1.0,2698.9092610313605,0.44913257950897445,1.3023096698586847,0.976086442485008,0.28570355000000003,0.7085741821107561
0.0535,1.72844375,1.0,2696.757541940386,0.4522225103945504,1.3017281329459038,0.9763672402391946,0.2856476375,0.7096943041740402
0.054,1.7271,1.0,2694.587016585694,0.45529510896867914,1.301141130767151,0.9766406214292066,0.2855912,0.7108227658172248
0.0545,1.7257437500000001,1.0,2692.3978729249275,0.4583504725599283,1.3005486618196374,0.9769068352163588,0.2855342375,0.711959508540897
0.055,1.7243750600618821,1.0,2690.1994905856473,0.46138869802029003,1.2999506675678614,0.9771661166843673,0.2854767525225991,0.7131045823520228
0.0555,1.7230012854381709,1.0,2688.3432884909867,0.4644098817873707,1.2993472511239097,0.9774187005143539,0.28541905398840317,0.7142577271829048
0.056,1.7216275108144599,1.0,2687.038042958934,0.4674141189194928,1.2987387928891767,0.9776648276828718,0.2853613554542073,0.7154181556859617
0.0565,1.7202537361907488,1.0,2686.2418357525053,0.47040150447497897,1.2981256732650568,0.9779047291865014,0.2853036569200115,0.7165850859064306
0.057,1.7188799615670378,1.0,2685.9144668588256,0.4733721330836276,1.2975082585335198,0.978138625698336,0.28524595838581557,0.717757768189899
0.0575,1.7175061869433268,1.0,2686.015637572356,0.4763260992283875,1.29688691716112,0.9783667290394974,0.2851882598516197,0.7189354541408366
0.058,1.7161324123196158,1.0,2686.5129603494747,0.4792634958742974,1.2962619461052571,0.9785892383510097,0.28513056131742387,0.7201175360010387
0.0585,1.7147586376959045,1.0,2687.374954484875,0.4821844158171039,1.295633634754548,0.9788063443998216,0.28507286278322796,0.721303424750684
0.059000000000000004,1.7133848630721935,1.0,2688.5778377454326,0.4850889492017301,1.295002202525853,0.9790182263294472,0.2850151642490321,0.7224926674263255
0.059500000000000004,1.7120110884484825,1.0,2690.083591774983,0.48797719151648705,1.294367999607052,0.9792250638756923,0.28495746571483627,0.723684568900965
0.06,1.7106373138247715,1.0,2691.86264816833,0.49084923591290097,1.2937312989612897,0.979427025429219,0.2848997671806404,0.7248785842171985
0.0605,1.7092635392010604,1.0,2693.8972795424056,0.4937051714799229,1.2930922652603976,0.9796242667623686,0.28484206864644457,0.7260743751419922
0.061,1.7078897645773494,1.0,2696.169769290825,0.49654508730650343,1.2924510631762065,0.9798169377101891,0.28478437011224866,0.7272716060175589
0.0615,1.7065159899536382,1.0,2698.6624033664893,0.49936907248159357,1.2918078573805485,0.9800051824464359,0.2847266715780528,0.728469943784992
0.062,1.7051422153299272,1.0,2701.3574626653476,0.502177216094144,1.2911628125452543,0.9801891397447702,0.28466897304385697,0.729669058006177
0.0625,1.7037684407062161,1.0,2704.237216011281,0.5049696072331057,1.2905160933421556,0.980368943226056,0.28461127450966106,0.7308686208839668
0.063,1.7023946660825051,1.0,2707.2839137427286,0.5077463349874294,1.2898678644430837,0.9805447215925887,0.2845535759754652,0.7320683072806317
0.0635,1.701020891458794,1.0,2710.48268121773,0.5105074864758448,1.2892182640738665,0.980716597354063,0.28449587744126936,0.7332678435143469
0.064,1.699647116835083,1.0,2713.820940428309,0.5132531489660992,1.2885674093205248,0.9808846875259053,0.28443817890707346,0.7344669970600788
0.0645,1.698273342211372,1.0,2717.280215813983,0.5159834144733462,1.28791547080957,0.9810491079506521,0.2843804803728776,0.7356654389939531
0.065,1.6968995675876608,1.0,2720.8525391670755,0.518698367335426,1.2872625231527883,0.9812099650180575,0.28432278183868176,0.7368630191068041
0.0655,1.6955257929639498,1.0,2724.529927872338,0.5213980918901788,1.2866086409619664,0.9813673613545066,0.28426508330448585,0.7380595884117815
0.066,1.6941520183402388,1.0,2728.3043832995068,0.5240826724754452,1.285953898848891,0.9815213959851127,0.28420738477029,0.7392549991489739
0.0665,1.6927782437165277,1.0,2732.167889318897,0.5267521934290654,1.2852983714253485,0.9816721644877358,0.28414968623609416,0.7404491047896807
0.067,1.6914044690928167,1.0,2736.112410940516,0.5294067390888798,1.2846421333031257,0.9818197591393815,0.2840919877018983,0.741641760040324
0.0675,1.6900306944691055,1.0,2740.1298930768385,0.5320463937927287,1.2839852590940088,0.9819642690554086,0.28403428916770246,0.7428328208460098
0.068,1.6886569198453945,1.0,2744.212259428709,0.5346712418784523,1.283327823409785,0.9821057803219438,0.28397659063350655,0.74402214439373
0.0685,1.6872831452216834,1.0,2748.353156889043,0.5372813647891487,1.2826698850517755,0.9822443751869215,0.2839188920993107,0.7452096176173981
0.069,1.6859093705979724,1.0,2752.5494932133156,0.539876840688812,1.2820114731449908,0.98238013154229,0.28386119356511486,0.7463951818067351
0.0695,1.6845355959742614,1.0,2756.788292133605,0.542457765672341,1.2813527061359316,0.9825131299854586,0.28380349503091895,0.7475786184629725
0.07,1.6831618213505504,1.0,2761.066548231969,0.5450242186203512,1.2806936120047747,0.982643443195416,0.2837457964967231,0.7487598730220439
0.07050000000000001,1.6817880467268393,1.0,2765.381247246483,0.5475762784134578,1.2800342187316964,0.9827711414691113,0.28368809796252725,0.7499388913881646
0.07100000000000001,1.680414272103128,1.0,2769.7293658765916,0.5501140239322763,1.2793745542968729,0.9828962928163837,0.28363039942833135,0.7511156199343867
0.07150000000000001,1.679040497479417,1.0,2774.107871606806,0.5526375340574221,1.2787146466804806,0.9830189630505065,0.2835727008941355,0.7522900055031085
0.07200000000000001,1.677666722855706,1.0,2778.513722546634,0.5551468876695107,1.2780545238626961,0.9831392158745733,0.28351500235993965,0.7534619954065349
0.0725,1.676292948231995,1.0,2782.943867288598,0.5576421636491572,1.2773942138236956,0.9832571129639459,0.2834573038257438,0.7546315374270851
0.073,1.674919173608284,1.0,2787.3952447834745,0.5601234408769774,1.2767337445436555,0.9833727140449671,0.28339960529154795,0.7557985798177513
