Time [s],Phi [rad],STIM [ ],Fsee [N],Gamma [ ],Lcerel [ ],q [ ],Lmtc [m],fisomrel [ ]
0.0,1.8,1.0,19.04449613540784,0.001058892847825551,1.379220805351672,0.005287868788557352,0.288653,0.5414272346569814
0.0005,1.79999375,1.0,19.660711110153755,0.006662162605139375,1.3791514610178317,0.01610687084214884,0.2886527375,0.541594928597078
0.001,1.799975,1.0,23.78237322941566,0.012234002450688484,1.3787225525815665,0.04128146975702875,0.28865195,0.5426314673663986
0.0015,1.79994375,1.0,35.018651541078256,0.017774588677979562,1.3777197900098432,0.07823012711316872,0.2886506375,0.5450502558511479
0.002,1.7999,1.0,61.01706056746301,0.023284096598669986,1.3759014703596022,0.12366441180592991,0.2886488,0.549419912568524
0.0025,1.79984375,1.0,108.71655601964451,0.028762700536232005,1.3733920625050116,0.17425195745986075,0.28864643749999996,0.5554157131959616
0.003,1.7997750000000001,1.0,175.4892273261351,0.03421057383760495,1.3706821834992011,0.2272271884872373,0.28864354999999997,0.5618454044523744
0.0035,1.79969375,1.0,253.80058596871197,0.039627888876749374,1.3680964224718495,0.28048015818818584,0.2886401375,0.5679369380211279
0.004,1.7996,1.0,338.43873579972256,0.045014817060775564,1.3657123514240568,0.33245162918720783,0.2886362,0.5735155485200485
0.0045000000000000005,1.7994937500000001,1.0,426.7250996076532,0.0503715288312432,1.3635173027735346,0.3820737552301046,0.2886317375,0.5786198041589745
0.005,1.799375,1.0,517.1421816989921,0.05569819370693814,1.361484894772431,0.4286957099132774,0.28862675,0.5833184657250146
0.0055,1.79924375,1.0,608.6154989709474,0.06099498019757322,1.3595931641494146,0.47198975905695745,0.2886212375,0.5876682279879216
0.006,1.7991000000000001,1.0,700.2994863861054,0.06626205587094086,1.3578252748087192,0.5118594440316369,0.2886152,0.5917126042986754
0.006500000000000001,1.79894375,1.0,791.5136692284298,0.07149958746037921,1.3561679520353442,0.5483631135485715,0.2886086375,0.5954859373180763
0.007,1.798775,1.0,881.6680146511059,0.07670774055079509,1.35461101442028,0.5816560222830729,0.28860155,0.5990147590938135
0.0075,1.79859375,1.0,970.3099119010672,0.08188668018223257,1.3531454403133754,0.6119475029963877,0.2885939375,0.6023223787814804
0.008,1.7984,1.0,1057.0428145199592,0.08703656993069789,1.3517639797945682,0.6394726796881159,0.2885858,0.6054276228287201
0.0085,1.79819375,1.0,1141.5737124077561,0.09215757280303283,1.3504598924589892,0.6644727982450489,0.2885771375,0.6083477799031687
0.009000000000000001,1.797975,1.0,1223.6834849766387,0.09724985115844545,1.3492270748855286,0.6871834860299207,0.28856795,0.6110983742566881
0.0095,1.79774375,1.0,1303.1848233651376,0.10231356566056397,1.3480603587554316,0.7078279745885951,0.2885582375,0.6136925595122458
0.01,1.7975,1.0,1379.956486563735,0.10734887644674511,1.3469548130769473,0.7266130693907435,0.288548,0.6161427222026166
0.0105,1.79724375,1.0,1453.941412433971,0.11235594367861794,1.3459056384104875,0.7437276371490975,0.2885372375,0.6184607439918146
0.011,1.796975,1.0,1525.0827348834282,0.1173349252360265,1.3449088438150878,0.759342814061189,0.28852595000000003,0.620656535261924
0.0115,1.79669375,1.0,1593.3561009901193,0.12228597826724062,1.3439606992317337,0.7736123945716618,0.2885141375,0.6227392773725027
0.012,1.7964,1.0,1658.775124131095,0.1272092595164255,1.3430575880998818,0.7866739001751621,0.28850180000000003,0.6247177654562877
0.0125,1.79609375,1.0,1721.3836275017104,0.13210492561421097,1.3421960360880765,0.7986499494395428,0.2884889375,0.6266003599668619
0.013000000000000001,1.7957750000000001,1.0,1781.2160026906656,0.1369731311430904,1.3413731009862118,0.8096498283185314,0.28847555,0.6283941515403625
0.0135,1.79544375,1.0,1838.3111736657745,0.1418140294795649,1.340586137552307,0.819770763826849,0.2884616375,0.6301054939642892
0.014,1.7951000000000001,1.0,1892.7350404877818,0.14662777400013555,1.339832500544382,0.8290991249670709,0.2884472,0.6317406619060988
0.0145,1.79474375,1.0,1944.562736081262,0.15141451690979116,1.3391097103478835,0.8377117083576818,0.2884322375,0.6333054985579546
0.015,1.794375,1.0,1993.8881421557787,0.15617441102328689,1.3384153179795928,0.845676798734101,0.28841675,0.6348057160611325
0.0155,1.79399375,1.0,2040.7719947421579,0.16090760576515267,1.3377474284604398,0.8530553319493608,0.2884007375,0.6362457734960463
0.016,1.7936,1.0,2085.2895634676706,0.16561425049129164,1.3371041566864224,0.8599015848551032,0.2883842,0.6376300623237756
0.0165,1.7931937500000001,1.0,2127.5290117485392,0.17029449443193295,1.3364836303225145,0.8662639655641315,0.2883671375,0.6389629034597621
0.017,1.792775,1.0,2167.5763320640194,0.17494848544003586,1.335884130370163,0.8721857481458568,0.28834955,0.6402482492521664
0.0175,1.7923437500000001,1.0,2205.534895096811,0.179576372815068,1.3353038753366815,0.8777056190864341,0.2883314375,0.6414901504598316
0.018000000000000002,1.7919,1.0,2241.4710727204297,0.18417830144737005,1.3347415593085838,0.8828583561166627,0.2883128,0.6426916086468681
0.0185,1.79144375,1.0,2275.459268324858,0.18875441622728265,1.3341958763723838,0.8876751573897885,0.2882936375,0.6438556001775968
0.019,1.790975,1.0,2307.581252864275,0.19330486204514652,1.3336655206145955,0.8921840554062033,0.28827395,0.6449850776562212
0.0195,1.79049375,1.0,2337.918719221732,0.19782978287262332,1.3331492530985638,0.8964102949982506,0.2882537375,0.6460828289536642
0.02,1.79,1.0,2366.5578464521654,0.20232932308173696,1.332645849533106,0.9003766373095723,0.288233,0.6471515905242291
0.0205,1.78949375,1.0,2393.5785894084347,0.206803625915687,1.3321541987218275,0.9041036589703033,0.2882117375,0.6481938401513416
0.021,1.788975,1.0,2419.042073073393,0.21125283140520695,1.3316734165957376,0.9076100162595008,0.28818995000000003,0.6492115584301987
0.021500000000000002,1.78844375,1.0,2443.0132355340425,0.21567707958103044,1.3312026190858461,0.9109126070559961,0.2881676375,0.6502067127253697
0.022,1.7879,1.0,2465.5605129561327,0.22007651047389098,1.3307409221231628,0.9140267608257414,0.2881448,0.6511812577586735
0.0225,1.78734375,1.0,2486.7547786686227,0.22445126397781456,1.330287448906774,0.9169664072679418,0.28812143749999997,0.6521371208375484
0.023,1.786775,1.0,2506.6547893993265,0.22880147731259476,1.3298414651430264,0.9197442482143687,0.28809755,0.6530759179601459
0.0235,1.78619375,1.0,2525.3445963367285,0.233127292079548,1.3294020204057495,0.9223718209677638,0.28807313749999996,0.6539997096703132
0.024,1.7856,1.0,2542.871916674482,0.23742884314037171,1.3289685302813854,0.9248597189911572,0.2880482,0.6549097770551825
0.0245,1.78499375,1.0,2559.286250380252,0.24170626535676346,1.3285404103563752,0.9272176237775576,0.2880227375,0.6558073940142367
0.025,1.784375,1.0,2574.6387336797034,0.2459596935904207,1.3281170762171608,0.9294543958557004,0.28799675,0.6566938274703504
0.025500000000000002,1.78374375,1.0,2588.982000113209,0.2501892627030409,1.3276979434501839,0.931578155607825,0.2879702375,0.6575703375590565
0.026000000000000002,1.7831000000000001,1.0,2602.368703538821,0.2543951071411176,1.3272824401683168,0.9335963569892142,0.2879432,0.6584381516501026
0.0265,1.78244375,1.0,2614.844497614764,0.2585773587936955,1.3268700709093157,0.9355158604747333,0.2879156375,0.659298331453249
0.027,1.781775,1.0,2626.4699095311084,0.26273615446271087,1.3264602120469415,0.93734296050967,0.28788755,0.6601522000965114
0.0275,1.7810937500000001,1.0,2637.281448594095,0.26687162357485067,1.3260524718750004,0.9390834877831409,0.2878589375,0.6610005917863586
0.028,1.7804,1.0,2647.3163865304014,0.2709838955568016,1.3256464586872987,0.9407428199686825,0.2878298,0.6618443365574664
0.0285,1.77969375,1.0,2656.6126917613465,0.27507309983525047,1.3252417807776422,0.9423259228565521,0.2878001375,0.662684260320753
0.029,1.778975,1.0,2665.2089670788832,0.2791393658368841,1.3248380464398375,0.9438373872558055,0.28776995,0.6635211849016263
0.029500000000000002,1.7782437500000001,1.0,2673.144390723028,0.2831828229883892,1.3244348639676906,0.9452814621472606,0.2877392375,0.6643559280684506
0.03,1.7775,1.0,2680.445724574284,0.2872035964681489,1.3240319603119097,0.946662098832773,0.287708,0.6651890583431791
0.0305,1.77674375,1.0,2687.157523032004,0.2912018184123343,1.3236289031187416,0.9479829438459141,0.2876762375,0.6660214702364802
0.031,1.775975,1.0,2693.3189185889332,0.29517761761618466,1.3232253137417551,0.9492473889876433,0.28764395,0.6668539431012244
0.0315,1.7751937500000001,1.0,2698.9540153996445,0.29913111733996967,1.3228209543095322,0.9504586027519542,0.2876111375,0.6676869625595757
0.032,1.7744,1.0,2704.087189690786,0.3030624408439589,1.3224155869506542,0.951619533062378,0.2875778,0.668521011770616
0.0325,1.77359375,1.0,2708.743064677061,0.306971711388422,1.3220089737937033,0.9527329253231325,0.2875439375,0.6693565714168562
0.033,1.772775,1.0,2712.946486731892,0.3108590522336286,1.3216008769672607,0.9538013387856591,0.28750955,0.6701941196871456
0.0335,1.7719437500000002,1.0,2716.7225028126513,0.3147245866398483,1.3211910585999085,0.9548271614057364,0.2874746375,0.6710341322559635
0.034,1.7711000000000001,1.0,2720.0963391401833,0.31856843786735073,1.320779280820228,0.9558126233464198,0.2874392,0.6718770822591111
0.0345,1.7702437500000001,1.0,2723.0929134164085,0.3223907284053645,1.3203653100131683,0.9567598095333412,0.2874032375,0.6727234315694088
0.035,1.7693750000000001,1.0,2725.7342947783472,0.32619157612224736,1.3199489397426065,0.9576706723381225,0.28736675,0.6735735840484118
0.035500000000000004,1.76849375,1.0,2728.0447311917023,0.3299711090492125,1.3195299448273827,0.958547040394138,0.2873297375,0.6744279794598526
0.036000000000000004,1.7676,1.0,2730.040192072631,0.3337294441292348,1.3191081762890606,0.9593906325906335,0.2872922,0.6752868999536665
0.0365,1.76669375,1.0,2731.7367275962415,0.3374666983052892,1.3186834851492037,0.9602030610480177,0.2872541375,0.6761506259348127
0.037,1.765775,1.0,2733.1504594574017,0.3411829885203508,1.3182557224293754,0.9609858389497319,0.28721555,0.677019436036213
0.0375,1.76484375,1.0,2734.2975721242824,0.3448784317173945,1.317824739151139,0.9617403877156488,0.2871764375,0.6778936070902756
0.038,1.7639,1.0,2735.194304583209,0.3485531448393953,1.3173903863360583,0.9624680435790204,0.28713679999999997,0.678773414099004
0.0385,1.76294375,1.0,2735.8569425765804,0.35220724482932825,1.3169525150056967,0.9631700636225706,0.28709663750000003,0.6796591302026902
0.039,1.761975,1.0,2736.3018113317567,0.3558408486301682,1.3165109761816176,0.9638476313236062,0.28705595,0.6805510266471922
0.0395,1.7609937500000001,1.0,2736.53080229866,0.3594540518839618,1.3160657522110606,0.9645018695415906,0.2870147375,0.6814491080333434
0.04,1.76,1.0,2736.574182840662,0.363046996690873,1.315616568084174,0.9651338225449558,0.286973,0.6823538965266835
0.0405,1.7589937500000001,1.0,2736.4447550765976,0.36661979925381394,1.3151633075420879,0.9657444846677582,0.2869307375,0.6832655917701893
0.041,1.757975,1.0,2736.1505898037058,0.3701725685374989,1.3147058974247638,0.96633479702931,0.28688795,0.6841843052489606
0.0415,1.75694375,1.0,2735.6997714614226,0.3737054135066423,1.3142442645721628,0.9669056486607097,0.2868446375,0.6851101472688155
0.042,1.7559,1.0,2735.1003957647417,0.3772184431259583,1.3137783358242463,0.9674578799210947,0.28680079999999997,0.6860432269367555
0.0425,1.75484375,1.0,2734.3605674563432,0.38071176636016124,1.3133080380209758,0.9679922856561223,0.2867564375,0.686983652141093
0.043000000000000003,1.753775,1.0,2733.488398177061,0.38418549217396536,1.3128332980023125,0.9685096181205554,0.28671155,0.6879315295312383
0.043500000000000004,1.75269375,1.0,2732.492004455784,0.38763972953208486,1.3123540426082176,0.9690105896847732,0.28666613750000003,0.688886964497142
0.044,1.7516,1.0,2731.3795058169044,0.3910745873992341,1.3118701986786525,0.9694958753431889,0.2866202,0.6898500611483986
0.0445,1.75049375,1.0,2730.1590230076563,0.39449017474012743,1.3113816930535784,0.9699661150408967,0.2865737375,0.6908209222930073
0.045,1.7493750000000001,1.0,2728.8386763431995,0.397886600519479,1.310888452572957,0.9704219158333826,0.28652675,0.6917996494157919
0.0455,1.74824375,1.0,2727.4265841706438,0.4012639737020032,1.3103904040767493,0.9708638538927924,0.2864792375,0.6927863426564804
0.046,1.7471,1.0,2725.9308614521638,0.40462240325241416,1.3098874744049165,0.9712924763730436,0.2864312,0.6937811007874434
0.0465,1.7459437500000001,1.0,2724.3595280717336,0.4079619977001387,1.309379591219845,0.9717083031468019,0.28638263750000004,0.6947840195683727
0.047,1.744775,1.0,2722.7156453333814,0.4112828441792916,1.3088667272592613,0.9721118288695916,0.28633355,0.6957951045668147
0.0475,1.74359375,1.0,2721.0099838652955,0.41458507569758796,1.3083487850713147,0.9725035249920531,0.28628393750000003,0.696814498549248
0.048,1.7424,1.0,2719.2461603526785,0.41786879274609845,1.3078257322529294,0.9728838405174955,0.2862338,0.6978422148053183
0.0485,1.74119375,1.0,2717.4277888454453,0.4211340958158937,1.3072975364010302,0.9732532029443083,0.2861831375,0.6988782656946988
0.049,1.739975,1.0,2715.5584803853217,0.4243810853980444,1.3067641651125417,0.9736120194902529,0.28613195,0.6999226626364965
0.0495,1.73874375,1.0,2713.6418426570344,0.4276098619836211,1.3062255859843885,0.973960678236258,0.2860802375,0.7009754160985902
0.05,1.7375,1.0,2711.6814796625254,0.4308205260636946,1.3056817666134952,0.9742995491956892,0.286028,0.7020365355869025
0.0505,1.73624375,1.0,2709.680991418143,0.4340131781293354,1.3051326745967866,0.9746289853145792,0.2859752375,0.7031060296346031
0.051000000000000004,1.734975,1.0,2707.6439736757716,0.4371879186716142,1.3045782775311872,0.9749493234078517,0.28592195,0.7041839057912473
0.051500000000000004,1.73369375,1.0,2705.5740176664235,0.4403448481816017,1.3040185430136215,0.9752608850361669,0.2858681375,0.7052701706118456
0.052000000000000005,1.7324,1.0,2703.4747098677262,0.4434840671503685,1.3034534386410144,0.9755639773276427,0.2858138,0.7063648296458678
0.0525,1.73109375,1.0,2701.349631794564,0.4466056760689852,1.3028829320102906,0.9758588937483694,0.28575893750000003,0.7074678874261788
0.053,1.729775,1.0,2699.202359812897,0.44970977542852264,1.3023069907183744,0.9761459148253252,0.28570355000000003,0.7085793474579104
0.0535,1.72844375,1.0,2697.0364649767944,0.4527964657200513,1.3017255823621905,0.9764253088250144,0.2856476375,0.709699212207261
0.054,1.7271,1.0,2694.85629621752,0.4558658390271736,1.3011386673728818,0.9766973311178005,0.2855912,0.7108274968523115
0.0545,1.7257437500000001,1.0,2692.6614793315694,0.4589180003428457,1.3005462493431463,0.976962229992998,0.2855342375,0.7119641326714519
0.055,1.724375,1.0,2690.4536492861616,0.4619530448047922,1.299948313478097,0.9772202411098121,0.28547675,0.7131090855919813
0.0555,1.72299375,1.0,2688.2346726970304,0.46497106638510777,1.2993448428379344,0.9774715899533839,0.2854187375,0.714262324828866
0.056,1.7216,1.0,2686.006413216953,0.46797215905588685,1.2987358204828585,0.9777164925829619,0.2853602,0.7154238187513818
0.0565,1.72019375,1.0,2683.7707314979257,0.47095641678922406,1.29812122947307,0.9779551561008547,0.28530113749999997,0.7165935348771211
0.057,1.718775,1.0,2681.5294851591193,0.4739239335572139,1.2975010528687687,0.9781877790943482,0.28524155,0.7177714398659888
0.0575,1.71734375,1.0,2679.2845287610007,0.4768748033319509,1.2968752737301552,0.9784145520523524,0.2851814375,0.7189574995141754
0.058,1.7159,1.0,2677.037713786565,0.4798091200855297,1.2962438751174297,0.9786356577584137,0.2851208,0.7201516787481146
0.0585,1.71444375,1.0,2674.7908886283417,0.4827269777900447,1.2956068400907925,0.9788512716616081,0.2850596375,0.7213539416184204
0.059000000000000004,1.7129750000000001,1.0,2672.5447241779348,0.48562846993782266,1.294964162498479,0.9790615627813781,0.28499795,0.7225642309999074
0.059500000000000004,1.71149375,1.0,2670.2980516625444,0.48851368762383296,1.294315853084585,0.9792666941891778,0.2849357375,0.7237824573440463
0.06,1.71,1.0,2668.053612992461,0.4913827215456141,1.293661886657655,0.9794668205977292,0.284873,0.7250085979740644
0.0605,1.7084937500000001,1.0,2665.8139225238733,0.49423566225298465,1.2930022400767929,0.9796620908066264,0.2848097375,0.7262426253507062
0.061,1.7069750000000001,1.0,2663.574881612821,0.49707260010626503,1.2923369510112268,0.9798526510986466,0.28474595,0.7274843975556746
0.0615,1.70544380587577,1.0,2661.351092161126,0.4998936252637707,1.2916659102839914,0.9800386344105279,0.28468163984678235,0.7287340458488862
0.062,1.7039074877785785,1.0,2659.4805199016855,0.5026988267328241,1.2909893113478097,0.9802201843513195,0.2846171144867003,0.7299911373766821
0.0625,1.7023711696813868,1.0,2658.1723310710076,0.5054882930412633,1.2903075382124596,0.9803974490131887,0.28455258912661824,0.7312548892124404
0.063,1.7008348515841953,1.0,2657.3850434559904,0.5082621125371795,1.2896209691963578,0.9805705707418877,0.2844880637665362,0.7325245350821503
0.0635,1.6992985334870037,1.0,2657.074386723616,0.5110203733704674,1.2889300100145613,0.9807396880878501,0.2844235384064542,0.7337992643908977
0.064,1.6977622153898122,1.0,2657.2024673948517,0.5137631625797883,1.288235008987654,0.9809049316313094,0.2843590130463721,0.7350783788070377
0.0645,1.6962258972926207,1.0,2657.7346896341664,0.5164905667161506,1.287536285087231,0.9810664257822975,0.28429448768629006,0.736361239662738
0.065,1.694689579195429,1.0,2658.643218099628,0.5192026703962546,1.2868340957929136,0.9812242873462357,0.284229962326208,0.7376473261819567
0.0655,1.6931532610982376,1.0,2659.889231632571,0.5218995616953028,1.2861288003366835,0.9813786342945324,0.28416543696612595,0.738935936281538
0.066,1.691616943001046,1.0,2661.4377047011226,0.5245813281705346,1.285420723313741,0.9815295787736699,0.2841009116060439,0.7402264371908831
0.0665,1.6900806249038545,1.0,2663.2688684053387,0.527248053035798,1.284710049063239,0.9816772219459079,0.2840363862459619,0.7415184565127807
0.067,1.6885443068066628,1.0,2665.362973359067,0.5298998195049414,1.2839969619243312,0.981821661499794,0.28397186088587983,0.7428116250566007
0.0675,1.6870079887094713,1.0,2667.7002794522923,0.5325367107918126,1.283281646236171,0.9819629917987049,0.2839073355257978,0.7441055768677453
0.068,1.6854716706122796,1.0,2670.261046365955,0.5351588101102601,1.2825642863379116,0.9821013040220843,0.2838428101657158,0.745399949254932
0.0685,1.6839353525150882,1.0,2673.025524840205,0.5377662006741319,1.2818450665687064,0.982236686299781,0.2837782848056337,0.7466943828153108
0.069,1.6823990344178967,1.0,2675.973948696556,0.5403589656972762,1.2811241712677088,0.9823692238398712,0.28371375944555166,0.7479885214574105
0.0695,1.680862716320705,1.0,2679.0912479121694,0.5429371858210613,1.2804017414665492,0.9824989968655985,0.2836492340854696,0.7492820898677504
0.07,1.6793263982235136,1.0,2682.3602465293375,0.5455009446365053,1.2796779373311928,0.9826260840490171,0.28358470872538755,0.7505747811548769
0.07050000000000001,1.677790080126322,1.0,2685.763762854137,0.5480503259292581,1.2789529188144937,0.9827505615168209,0.2835201833653055,0.7518662917247274
0.07100000000000001,1.6762537620291305,1.0,2689.292770789812,0.5505854086004938,1.2782267708788166,0.9828724992207405,0.2834556580052235,0.7531564539743192
0.07150000000000001,1.6747174439319388,1.0,2692.938228807092,0.5531062715513865,1.2774995784865266,0.9829919648685912,0.28339113264514143,0.7544451018488523
0.07200000000000001,1.6731811258347473,1.0,2696.6910778973306,0.5556129936831105,1.2767714265999885,0.9831090240132992,0.2833266072850594,0.7557320708475993
0.0725,1.6716448077375559,1.0,2700.542239684684,0.5581056538968399,1.2760424001815673,0.9832237401378563,0.28326208192497737,0.757017198029335
0.073,1.6701084896403642,1.0,2704.4826146984615,0.560584331093749,1.275312584193628,0.9833361747364058,0.2831975565648953,0.758300322017304
0.0735,1.6685721715431727,1.0,2708.5030808063466,0.5630491041750119,1.2745820635985352,0.9834463873916724,0.28313303120481326,0.7595812830037307
0.074,1.667035853445981,1.0,2712.594491806548,0.5655000520418028,1.2738509233586541,0.9835544358489103,0.2830685058447312,0.7608599227538666
