Time [s],Phi [rad],STIM [ ],Fsee [N],Gamma [ ],Lcerel [ ],q [ ],Lmtc [m],fisomrel [ ]
0.0,1.8,1.0,20.702456722244168,0.0016909889587889777,1.3790441531001199,0.005730767744326786,0.288653,0.5418543686244035
0.0005,1.79999375,1.0,21.467773391595852,0.0072907131566353235,1.378962179147825,0.018256634447324793,0.2886527375,0.5420525088505478
0.001,1.799975,1.0,26.077284659213426,0.012859027329251345,1.3785042249230872,0.04489442828468755,0.28865195,0.5431586470515721
0.0015,1.79994375,1.0,38.52285038549886,0.018396107662662697,1.3774452862918398,0.08296251283176455,0.2886506375,0.5457112750512471
0.002,1.7999,1.0,66.75818209402128,0.023902129353250864,1.3755602888883303,0.12913338040304945,0.2886488,0.5502374662312306
0.0025,1.79984375,1.0,116.86705023472554,0.029377266615752837,1.373027557535195,0.1801158274384344,0.28864643749999996,0.5562832950233638
0.003,1.7997750000000001,1.0,185.1910630744239,0.03482169268721345,1.3703390727076783,0.2332198259888781,0.28864354999999997,0.5626561582462277
0.0035,1.79969375,1.0,264.2883827385624,0.0402355798327581,1.367786960907997,0.2864001659035624,0.2886401375,0.5686631102871798
0.004,1.7996,1.0,349.3247324990044,0.045619099349686616,1.3654335694917379,0.33815515904156496,0.2886362,0.5741655175016811
0.0045000000000000005,1.7994937500000001,1.0,437.81866853837533,0.05097242158577075,1.363263912985144,0.38746803352200065,0.2886317375,0.5792070456719443
0.005,1.799375,1.0,528.3171817066644,0.05629571591388116,1.3612527801328025,0.4337292420975438,0.28862675,0.5838534083109728
0.0055,1.79924375,1.0,619.7856786748404,0.0615891507760825,1.3593791231782424,0.47664132273576165,0.2886212375,0.5881589471417019
0.006,1.7991000000000001,1.0,711.392879702354,0.06685289361858879,1.357626985131262,0.5161288076431098,0.2886152,0.5921649856694011
0.006500000000000001,1.79894375,1.0,802.469394936069,0.07208711109733264,1.3559836609873892,0.5522635592266356,0.2886086375,0.5959044423151006
0.007,1.798775,1.0,892.4339485013033,0.0772919686205964,1.3544393553350502,0.5852088406772519,0.28860155,0.5994028807068686
0.0075,1.79859375,1.0,980.8473454228553,0.08246763118596029,1.3529852291883009,0.6151780784489601,0.2885939375,0.6026831249199066
0.008,1.7984,1.0,1067.324914658167,0.08761426230963147,1.3516141595060558,0.642407912509549,0.2885858,0.6057636569988838
0.0085,1.79819375,1.0,1151.5684828437807,0.09273202471479905,1.3503197206307365,0.6671395826094314,0.2885771375,0.6086610119171006
0.009000000000000001,1.797975,1.0,1233.3734993932635,0.09782108082281796,1.3490957883980745,0.6896075232032635,0.28856795,0.6113907223301236
0.0095,1.79774375,1.0,1312.5635745412176,0.10288159130643325,1.347937204306939,0.7100332493769319,0.2885582375,0.613965886030202
0.01,1.7975,1.0,1389.0162107937563,0.10791371613925488,1.3468391862524496,0.7286216702084269,0.288548,0.6163985295910032
0.0105,1.79724375,1.0,1462.6671430377005,0.11291761462875533,1.3457971294533326,0.7455596993317469,0.2885372375,0.6187000805543212
0.011,1.796975,1.0,1533.4874978213998,0.11789344571150501,1.344806780651569,0.7610163416113914,0.28852595000000003,0.6208810077063165
0.0115,1.79669375,1.0,1601.4423269965037,0.12284136604811514,1.3438646205870493,0.7751436025716936,0.2885141375,0.6229500086368771
0.012,1.7964,1.0,1666.5416425410585,0.12776153227172923,1.3429671372739211,0.7880772999604568,0.28850180000000003,0.6249156337695514
0.0125,1.79609375,1.0,1728.8203591054596,0.13265409990362514,1.3421110080125567,0.7999385177588565,0.2884889375,0.6267858998617104
0.013000000000000001,1.7957750000000001,1.0,1788.3422848774328,0.13751922513338521,1.341292996217864,0.8108349851798007,0.28847555,0.628568529121917
0.0135,1.79544375,1.0,1845.1394532903669,0.14235706068333243,1.3405105785119382,0.8208626997375204,0.2884616375,0.6302695979638557
0.014,1.7951000000000001,1.0,1899.269740224905,0.1471677592691266,1.3397612326814603,0.8301069369483182,0.2884472,0.6318951044858885
0.0145,1.79474375,1.0,1950.811130280806,0.151951473321442,1.339042475200225,0.8386434802378243,0.2884322375,0.6334508928893648
0.015,1.794375,1.0,1999.8477971136274,0.15670835453709558,1.3383519844138465,0.8465397617309757,0.28841675,0.6349423936326919
0.0155,1.79399375,1.0,2046.4710836521251,0.16143855460883438,1.3376875607457535,0.8538558274576047,0.2884007375,0.6363747172116807
0.016,1.7936,1.0,2090.744023635957,0.16614222185148242,1.337047471151191,0.8606453112943203,0.2883842,0.6377519202505965
0.0165,1.7931937500000001,1.0,2132.7429707720867,0.17081950457986372,1.3364299825854045,0.8669560497486175,0.2883671375,0.639078019188726
0.017,1.792775,1.0,2172.556480101344,0.17547055110880233,1.3358333620036393,0.8728307688484765,0.28834955,0.6403569928741472
0.0175,1.7923437500000001,1.0,2210.268976158622,0.18009550830626775,1.3352560307022674,0.8783077289214919,0.2883314375,0.6415924549673481
0.018000000000000002,1.7919,1.0,2245.9804270396185,0.18469452462318273,1.3346963511406205,0.8834211921861336,0.2883128,0.642788113945008
0.0185,1.79144375,1.0,2279.7633690190537,0.18926774462967197,1.3341530481505577,0.8882019931027417,0.2882936375,0.6439468763127905
0.019,1.790975,1.0,2311.689096344317,0.1938153119830624,1.3336249296271943,0.8926778621891989,0.28827395,0.6450714487603626
0.0195,1.79049375,1.0,2341.835247752068,0.19833737034068089,1.3331108034656454,0.8968737607488593,0.2882537375,0.6461645172655364
0.02,1.79,1.0,2370.2852716794378,0.20283406335985418,1.3326094775610267,0.90081219430792,0.288233,0.647228748203383
0.0205,1.78949375,1.0,2397.1102294422976,0.20730553243692287,1.3321199314242793,0.904513524460706,0.2882117375,0.6482664258633036
0.021,1.788975,1.0,2422.401674259209,0.21175192223012793,1.3316409899010246,0.9079961370216802,0.28818995000000003,0.6492801461016214
0.021500000000000002,1.78844375,1.0,2446.219704325845,0.2161733719360307,1.3311718220405309,0.9112767586030645,0.2881676375,0.6502717611172033
0.022,1.7879,1.0,2468.6246136516884,0.22057002028424225,1.3307116268393149,0.9143705715079654,0.2881448,0.6512430480653499
0.0225,1.78734375,1.0,2489.6796955663667,0.22494200600437372,1.3302596032938927,0.9172913723111464,0.28812143749999997,0.6521957730617367
0.023,1.786775,1.0,2509.450990227496,0.22928946782603618,1.3298149504007815,0.920051717525939,0.28809755,0.6531316916203127
0.0235,1.78619375,1.0,2527.999913798467,0.23361254286568936,1.3293769345229587,0.9226630638894946,0.28807313749999996,0.6540524075390899
0.024,1.7856,1.0,2545.3920992027092,0.23791136989674314,1.328944802913341,0.9251358666405123,0.2880482,0.6549595556004567
0.0245,1.78499375,1.0,2561.6865482609346,0.24218608588254875,1.3285178839821323,0.9274796964874934,0.2880227375,0.6558545915303005
0.025,1.784375,1.0,2576.9297157152682,0.24643682430236166,1.3280956396947154,0.929703335386541,0.28799675,0.6567386837159295
0.025500000000000002,1.78374375,1.0,2591.1694713684337,0.2506637186354373,1.3276775320164729,0.9318148327961072,0.2879702375,0.6576129942971729
0.026000000000000002,1.7831000000000001,1.0,2604.454980187607,0.25486690236103104,1.3272630229127873,0.9338215767061802,0.2879432,0.6584786793175526
0.0265,1.78244375,1.0,2616.836588825996,0.2590465089583984,1.3268515743490412,0.9357303569134198,0.2879156375,0.6593368888569936
0.027,1.781775,1.0,2628.3596188569854,0.2632026702147909,1.3264427047912977,0.9375474294378876,0.28788755,0.6601886495170335
0.0275,1.7810937500000001,1.0,2639.068116197904,0.2673355186535645,1.3260359530419217,0.9392785615895765,0.2878589375,0.6610349404465747
0.028,1.7804,1.0,2649.0147682280785,0.271445188377747,1.3256307857600842,0.9409290635177127,0.2878298,0.661876885731091
0.0285,1.77969375,1.0,2658.232813314725,0.27553180717193565,1.3252268561103542,0.9425038638003816,0.2878001375,0.6627152170426498
0.029,1.778975,1.0,2666.756077163433,0.27959550282072754,1.3248238172573004,0.9440075193429454,0.28776995,0.6635506624438646
0.029500000000000002,1.7782437500000001,1.0,2674.6189212238787,0.28363640310871985,1.324421322365492,0.9454442481931157,0.2877392375,0.6643839464114336
0.03,1.7775,1.0,2681.8561937627496,0.28765463582050954,1.3240190245994976,0.9468179590674362,0.287708,0.6652157898520095
0.0305,1.77674375,1.0,2688.5031836038843,0.29165032874069396,1.3236165771238866,0.9481322779545119,0.2876762375,0.6660469101103941
0.031,1.775975,1.0,2694.5941818460947,0.29562360892789336,1.323213645862272,0.9493905734999102,0.28764395,0.6668779946696995
0.0315,1.7751937500000001,1.0,2700.1566424331854,0.29957460083701737,1.322809962423261,0.9505959845277165,0.2876111375,0.6677095923478726
0.032,1.7744,1.0,2705.2271588230496,0.30350343438067845,1.3224051775827084,0.9517514235639538,0.2875778,0.6685424153949691
0.0325,1.77359375,1.0,2709.828287573565,0.30741023160499276,1.3219990727967263,0.9528596166664647,0.2875439375,0.6693769040754098
0.033,1.772775,1.0,2713.9827953598115,0.3112951145560765,1.3215914295214264,0.9539231053063755,0.28750955,0.6702134963595837
0.0335,1.7719437500000002,1.0,2717.7136385458075,0.31515820528004584,1.321182029212921,0.9549442610800103,0.2874746375,0.6710526279039233
0.034,1.7711000000000001,1.0,2721.0439438155436,0.318999625823017,1.320770653327322,0.9559252990817694,0.2874392,0.6718947320279433
0.0345,1.7702437500000001,1.0,2723.996989862635,0.3228194982311062,1.3203570833207416,0.956868290073992,0.2874032375,0.6727402396882252
0.035,1.7693750000000001,1.0,2726.5961901389833,0.3266179445504296,1.3199411006492916,0.9577751715746599,0.28736675,0.6735895794493618
0.035500000000000004,1.76849375,1.0,2728.856133535775,0.33039507640865123,1.3195225680682492,0.9586477640119779,0.2873297375,0.6744430117827521
0.036000000000000004,1.7676,1.0,2730.810441648244,0.33415102893720355,1.3191011761978997,0.9594877612950042,0.2872922,0.6753011458836639
0.0365,1.76669375,1.0,2732.4736106792593,0.33788591827853687,1.318676790354577,0.9602967656056338,0.2872541375,0.6761642324276306
0.037,1.765775,1.0,2733.859573010153,0.3415998598832132,1.3182492815787508,0.9610762813388162,0.28721555,0.6770325088476052
0.0375,1.76484375,1.0,2734.982319214124,0.34529296920179403,1.3178185209108915,0.9618277217736605,0.2871764375,0.6779062109885627
0.038,1.7639,1.0,2735.855891028651,0.3489653616848414,1.3173843793914688,0.9625524155959105,0.28713679999999997,0.678785573081289
0.0385,1.76294375,1.0,2736.494374697478,0.3526171527829169,1.3169467280609533,0.9632516128847776,0.28709663750000003,0.6796708277151026
0.039,1.761975,1.0,2736.9118946800118,0.3562484579465824,1.3165054379598145,0.9639264906134567,0.28705595,0.6805622058095219
0.0395,1.7609937500000001,1.0,2737.12260773102,0.3598593926263996,1.3160603801285229,0.96457815770765,0.2870147375,0.6814599365848648
0.04,1.76,1.0,2737.1406973479066,0.36345007227293036,1.3156114256075486,0.9652076597019589,0.286973,0.6823642475317947
0.0405,1.7589937500000001,1.0,2736.9803685870384,0.3670206123367364,1.3151584454373615,0.9658159830300483,0.2869307375,0.6832753643798012
0.041,1.757975,1.0,2736.6455676769583,0.3705711093267821,1.314701403937393,0.9664040637180961,0.28688795,0.684193323851511
0.0415,1.75694375,1.0,2736.160048699325,0.37410170134999043,1.3142400857451535,0.9669727779512103,0.2868446375,0.6851185220372404
0.042,1.7559,1.0,2735.5321217340525,0.377612498001177,1.313774415772696,0.9675229608597615,0.28680079999999997,0.6860510714493089
0.0425,1.75484375,1.0,2734.769048952524,0.38110360685119593,1.3133043285185764,0.9680554028565943,0.2867564375,0.6869910641949106
0.043000000000000003,1.753775,1.0,2733.8780988951753,0.38457513547090133,1.3128297584813506,0.9685708520577149,0.28671155,0.6879385912260836
0.043500000000000004,1.75269375,1.0,2732.8665447366357,0.3880271914311473,1.3123506401595746,0.9690700169666256,0.28666613750000003,0.6888937423211223
0.044,1.7516,1.0,2731.741662644452,0.39145988230278794,1.3118669080518042,0.9695535689624591,0.2866202,0.6898566060657128
0.0445,1.75049375,1.0,2730.510730234388,0.39487331565667744,1.3113784966565956,0.97002214460806,0.2865737375,0.6908272698337963
0.045,1.7493750000000001,1.0,2729.1810251196935,0.39826759906366993,1.3108853404725045,0.9704763477926852,0.28652675,0.69180581976816
0.0455,1.74824375,1.0,2727.7598235559612,0.4016428400946194,1.3103873739980871,0.9709167517226723,0.2864792375,0.6927923407607512
0.046,1.7471,1.0,2726.2543991814728,0.40499914632038014,1.309884531731899,0.9713439007722361,0.2864312,0.6937869164327222
0.0465,1.7459437500000001,1.0,2724.6720218519445,0.40833662531180615,1.3093767481724965,0.9717583122054653,0.28638263750000004,0.6947896291141955
0.047,1.744775,1.0,2723.01995657076,0.4116553846397516,1.3088639578184356,0.9721604777796288,0.28633355,0.6958005598237618
0.0475,1.74359375,1.0,2721.3022561308326,0.4149555249763111,1.308346124356948,0.9725508664330322,0.28628393750000003,0.6968197308483721
0.048,1.7424,1.0,2719.5221483216455,0.41823714939953976,1.3078232189649892,0.9729299252779123,0.2862338,0.6978471488075011
0.0485,1.74119375,1.0,2717.690711731683,0.4215003765707929,1.3072951412866487,0.973298076973302,0.2861831375,0.6988829596352635
0.049,1.739975,1.0,2715.8111063357383,0.42474530613313566,1.3067618630047306,0.9736557267305348,0.28613195,0.6999271664727897
0.0495,1.73874375,1.0,2713.8864891800504,0.42797203772963305,1.3062233558020393,0.9740032607414182,0.2860802375,0.7009797715603879
0.05,1.7375,1.0,2711.920014112188,0.4311806710033501,1.305679591361379,0.9743410472397518,0.286028,0.7020407762281261
0.0505,1.73624375,1.0,2709.9148315285374,0.43437130559735193,1.3051305413655536,0.9746694374943854,0.2859752375,0.7031101808863653
0.051000000000000004,1.734975,1.0,2707.874088139614,0.4375440411547035,1.3045761774973677,0.9749887667388076,0.28592195,0.7041879850162373
0.051500000000000004,1.73369375,1.0,2705.800926753302,0.44069897731846996,1.304016471439625,0.9752993550418475,0.2858681375,0.7052741871600756
0.052000000000000005,1.7324,1.0,2703.698486075459,0.4438362137317163,1.3034513948751298,0.975601508123701,0.2858138,0.7063687849117922
0.0525,1.73109375,1.0,2701.5699005289807,0.44695585003750743,1.3028809194866866,0.9758955181211663,0.28575893750000003,0.7074717749072044
0.053,1.729775,1.0,2699.4183000898915,0.45005798587890866,1.3023050169570993,0.9761816643056603,0.28570355000000003,0.708583152814311
0.0535,1.72844375,1.0,2697.2468101418704,0.4531427208989849,1.3017236589691723,0.9764602137573087,0.2856476375,0.709702913323516
0.054,1.7271,1.0,2695.058551348062,0.4562101547408012,1.3011368172057094,0.9767314219981507,0.2855912,0.7108310501378035
0.0545,1.7257437500000001,1.0,2692.8518871498786,0.4592603664929542,1.3005445068398882,0.9769955342037866,0.2855342375,0.7119674726032156
0.055,1.724375,1.0,2690.633954640604,0.462293474256584,1.2999466627483838,0.9772527841256616,0.28547675,0.7131122433230463
0.0555,1.72299375,1.0,2688.408265141897,0.4653095803347587,1.2993432529094215,0.977503396071446,0.2854187375,0.7142653601326725
0.056,1.7216,1.0,2686.1758863040764,0.4683087763670092,1.2987342676391538,0.9777475852772266,0.2853602,0.7154267772260792
0.0565,1.72019375,1.0,2683.9378840567574,0.47129115399286603,1.298119697253732,0.9779855580710444,0.28530113749999997,0.7165964480527522
0.057,1.718775,1.0,2681.695322595086,0.47425680485186006,1.2974995320693086,0.978217512311819,0.28524155,0.7177743253142298
0.0575,1.71734375,1.0,2679.4492643672675,0.47720582058352196,1.2968737624020352,0.9784436378032194,0.2851814375,0.7189603609606503
0.058,1.7159,1.0,2677.2007700653785,0.4801382928273825,1.296242378568064,0.9786641166840921,0.2851208,0.7201545061872956
0.0585,1.71444375,1.0,2674.9508986175415,0.4830543132229724,1.2956053708835469,0.9788791237969554,0.2850596375,0.7213567114311247
0.059000000000000004,1.7129750000000001,1.0,2672.700707182116,0.4859539734098224,1.2949627296646358,0.979088827035952,0.28499795,0.7225669263673056
0.059500000000000004,1.71149375,1.0,2670.4512511443563,0.4888373650274632,1.2943144452274828,0.9792933876755635,0.2849357375,0.7237850999057367
0.06,1.71,1.0,2668.203584114892,0.4917045797154255,1.2936605078882397,0.9794929606812793,0.284873,0.7250111801875673
0.0605,1.7084937500000001,1.0,2665.9587579303466,0.4945557091132402,1.2930009079630589,0.9796876950033587,0.2848097375,0.7262451145817064
0.061,1.7069750000000001,1.0,2663.7178226560764,0.4973908448604379,1.292335635768092,0.9798777338547128,0.28474595,0.7274868496813313
0.0615,1.7054437500000001,1.0,2661.4818265907184,0.5002100785965493,1.291664681619491,0.9800632149738917,0.2846816375,0.7287363313003857
0.062,1.7039,1.0,2659.251816273576,0.5030135019611053,1.2909880358334078,0.9802442708740738,0.2846168,0.7299935044700745
0.0625,1.70234375,1.0,2657.027518819128,0.5058011659200409,1.2903057008653949,0.9804210266330171,0.2845514375,0.731258290959987
0.063,1.7007750000000001,1.0,2654.8121970134966,0.5085732102097764,1.2896176465883777,0.9805936076569202,0.28448555,0.7325306721448008
0.0635,1.69919375,1.0,2652.606219945981,0.511329720520126,1.2889238695063678,0.9807621320113956,0.28441913750000003,0.7338105791755973
0.064,1.6976,1.0,2650.4098451743534,0.5140707799216803,1.2882243671467117,0.980926713285409,0.2843522,0.7350979406341758
0.0645,1.69599375,1.0,2648.2233298542515,0.51679647148503,1.2875191370367567,0.9810874609276103,0.2842847375,0.736392684431246
0.065,1.694375,1.0,2646.046930743318,0.5195068782807659,1.286808176703849,0.9812444804256788,0.28421675,0.7376947378055284
0.0655,1.69274375,1.0,2643.880904205861,0.5222020833794787,1.2860914836753359,0.9813978734766414,0.2841482375,0.7390040273228478
0.066,1.6911,1.0,2641.725506217551,0.5248821698517592,1.285369055478564,0.981547738148677,0.2840792,0.7403204788752306
0.0665,1.6894437500000001,1.0,2639.5809923707084,0.527547220768198,1.2846408896408799,0.9816941690348874,0.2840096375,0.7416440176800014
0.067,1.687775,1.0,2637.447617878433,0.5301973191993858,1.2839069836896309,0.9818372573994938,0.28393955,0.7429745682788765
0.0675,1.68609375,1.0,2635.325637580584,0.5328325482159135,1.2831673351521635,0.981977091316876,0.2838689375,0.744312054537061
0.068,1.6844000000000001,1.0,2633.215305948791,0.5354529908883717,1.2824219415558247,0.9821137558038554,0.2837978,0.7456563996423418
0.0685,1.68269375,1.0,2631.1168770914774,0.5380587302873512,1.2816708004279609,0.982247332945592,0.2837261375,0.7470075261041832
0.069,1.680975,1.0,2629.0306047600843,0.5406498494834425,1.2809139092959194,0.9823779020154498,0.28365395,0.7483653557528187
0.0695,1.67924375,1.0,2626.9567423540693,0.5432264315472366,1.2801512656870468,0.9825055395891514,0.28358123749999997,0.7497298097383472
0.07,1.6775,1.0,2624.8955429273697,0.5457885595493241,1.27938286712869,0.9826303196535389,0.283508,0.7511008085298239
0.07050000000000001,1.67574375,1.0,2622.847259193805,0.5483363165602957,1.2786087111481956,0.9827523137102233,0.2834342375,0.7524782719143537
0.07100000000000001,1.673975,1.0,2620.8121435334206,0.5508697856507422,1.2778287952729106,0.9828715908744007,0.28335995,0.7538621189961835
0.07150000000000001,1.67219375,1.0,2618.7890706120174,0.553389025764458,1.2770431298120088,0.9829882170985985,0.2832851375,0.7552522456121378
0.07200000000000001,1.6704,1.0,2616.776102039087,0.5558941082192107,1.2762517326391905,0.983102257261968,0.2832098,0.7566485338451698
0.0725,1.66859375,1.0,2614.7754779271813,0.5583851627867761,1.2754545828508899,0.983213775831725,0.2831339375,0.7580509336302368
0.073,1.6667750000000001,1.0,2612.7870293658552,0.5608622633941116,1.2746516818930091,0.983322832885952,0.28305755,0.7594593546981547
0.0735,1.66494375,1.0,2610.8105877570038,0.563325483968175,1.2738430312114506,0.9834294865665222,0.2829806375,0.7608737061764175
0.074,1.6631,1.0,2608.845984811263,0.5657748984359234,1.2730286322521165,0.9835337931526021,0.2829032,0.7622938965897275
0.0745,1.6612437500000001,1.0,2606.8930525449664,0.5682105807243147,1.272208486460909,0.9836358071308969,0.2828252375,0.7637198338605268
0.075,1.659375,1.0,2604.951623276769,0.5706326047603064,1.27138259528373,0.9837355812628021,0.28274675,0.7651514253095254
0.0755,1.65749375,1.0,2603.0215296242823,0.5730410444708558,1.2705509601664824,0.9838331666486125,0.2826677375,0.7665885776562323
