Time [s],Phi [rad],STIM [ ],Fsee [N],Gamma [ ],Lcerel [ ],q [ ],Lmtc [m],fisomrel [ ]
0.0,1.8,1.0,19.54493022414631,0.0012822532875786739,1.3791667019925369,0.005421370584010871,0.288653,0.5415580742987971
0.0005,1.79999375,1.0,20.21626766070023,0.006884270169442716,1.3790923756338078,0.01684603549851989,0.2886527375,0.5417377893377422
0.001,1.799975,1.0,24.509380251451773,0.012454864165996268,1.3786522911816639,0.04254183320796815,0.28865195,0.5428011555576417
0.0015,1.79994375,1.0,36.16080083934767,0.017994211534930124,1.3776288694898584,0.07989113420229914,0.2886506375,0.5452692504075621
0.002,1.7999,1.0,62.93870015176743,0.02350248754477114,1.3757855515259563,0.12559059081580926,0.2886488,0.5496977655112655
0.0025,1.79984375,1.0,111.50081652319795,0.028979866482075203,1.3732660553713478,0.1763214798941483,0.28864643749999996,0.555715726745899
0.003,1.7997750000000001,1.0,178.83846139833312,0.03442652165444284,1.3705626883759718,0.2293450851946521,0.28864354999999997,0.5621278507129222
0.0035,1.79969375,1.0,257.44263506015983,0.039842625397352206,1.3679882449208902,0.2825744528990736,0.2886401375,0.5681908533164635
0.004,1.7996,1.0,342.2322738576984,0.045228349081126176,1.3656146997078096,0.3344708074037715,0.2886362,0.5737432760126538
0.0045000000000000005,1.7994937500000001,1.0,430.60061338304524,0.05058386311690478,1.3634284113532122,0.38398445778728485,0.2886317375,0.5788258603994909
0.005,1.799375,1.0,521.029204711902,0.055909336857402014,1.3614038759883018,0.4304796223684482,0.28862675,0.5835052245555874
0.0055,1.79924375,1.0,612.5235309445573,0.0612049391076593,1.3595180574834156,0.4736385352755465,0.2886212375,0.5878404539009934
0.006,1.7991000000000001,1.0,704.193238970173,0.06647083712388177,1.3577554979525313,0.5133729291315928,0.2886152,0.5918718229742871
0.006500000000000001,1.79894375,1.0,795.3501833812079,0.07170719753633982,1.3561032720870365,0.5497461117895219,0.2886086375,0.5956328431406444
0.007,1.798775,1.0,885.4467856249391,0.07691418618381096,1.3545506444707598,0.5829157885561729,0.28860155,0.5991512771217121
0.0075,1.79859375,1.0,974.0020609777382,0.08209196765954349,1.353089206333069,0.6130931232955275,0.2885939375,0.6024490190404446
0.008,1.7984,1.0,1060.6519112323338,0.08724070603253711,1.3517113090599078,0.640513530369113,0.2885858,0.6055457751255295
0.0085,1.79819375,1.0,1145.0868372664106,0.09236056393152701,1.3504105529026966,0.6654184115997639,0.2885771375,0.6084580497909007
0.009000000000000001,1.797975,1.0,1227.0818378261272,0.09745170338163812,1.349180972851554,0.688043060690887,0.28856795,0.6112010465511553
0.0095,1.79774375,1.0,1306.4822151675507,0.10251428587776429,1.3480170096173885,0.7086098896642121,0.2885582375,0.6137887787530949
0.01,1.7975,1.0,1383.1515938909997,0.1075484710853881,1.3469139915765491,0.7273251539661975,0.288548,0.6162330435217667
0.0105,1.79724375,1.0,1457.0111951523968,0.11255441818858762,1.3458674270495599,0.7443771469344258,0.2885372375,0.61854503477716
0.011,1.796975,1.0,1528.0383580738785,0.1175322863437896,1.3448729202460712,0.7599360920778641,0.28852595000000003,0.6207355512785301
0.0115,1.79669375,1.0,1596.2117186620235,0.12248223278565545,1.343926741665235,0.7741551222186998,0.2885141375,0.6228137639270879
0.012,1.7964,1.0,1661.5252140737057,0.1274044135593943,1.343025535694552,0.7871712595094794,0.28850180000000003,0.6247878885888574
0.0125,1.79609375,1.0,1724.0105535453517,0.13229898450497093,1.3421659801148156,0.7991066148461367,0.2884889375,0.626665950421134
0.013000000000000001,1.7957750000000001,1.0,1783.7231018445743,0.13716610096227058,1.34134490106758,0.8100698629510392,0.28847555,0.6284555437345792
0.0135,1.79544375,1.0,1840.7198192609183,0.1420059173943656,1.3405594684388396,0.8201577082212437,0.2884616375,0.6301634198235173
0.014,1.7951000000000001,1.0,1895.0478988500565,0.14681858596976555,1.3398072623144857,0.8294562056307608,0.2884472,0.631795358668158
0.0145,1.79474375,1.0,1946.777825758821,0.15160425885698,1.3390858627804094,0.8380418139491219,0.2884322375,0.6333570716277594
0.015,1.794375,1.0,1995.9887182090877,0.15636308731240126,1.3383929842602116,0.8459825513789292,0.28841675,0.634853916465141
0.0155,1.79399375,1.0,2042.7766952755392,0.16109522350646296,1.3377263599890987,0.8533389482314451,0.2884007375,0.6362911535985769
0.016,1.7936,1.0,2087.2166649275855,0.16580081680989917,1.3370841208041548,0.8601650454097945,0.2883842,0.6376731361661032
0.0165,1.7931937500000001,1.0,2129.378253464875,0.1704800150312175,1.336464595493789,0.8665090971167233,0.2883671375,0.6390037499336765
0.017,1.792775,1.0,2169.343115814441,0.1751329659789256,1.3358661128464102,0.8724141972121031,0.28834955,0.6402868438821507
0.0175,1.7923437500000001,1.0,2207.203915697439,0.1797598174615311,1.335287001650428,0.8779188886180588,0.2883314375,0.6415262325391133
0.018000000000000002,1.7919,1.0,2243.042076620609,0.18436071524915598,1.3347258041784433,0.8830577532101261,0.2883128,0.642725242401449
0.0185,1.79144375,1.0,2276.960257087398,0.18893580743657065,1.334180936094202,0.8878617863031377,0.2882936375,0.6438874424464376
0.019,1.790975,1.0,2309.0233410673286,0.1934852371541118,1.3336512667422307,0.8923589516029093,0.28827395,0.6450154088051813
0.0195,1.79049375,1.0,2339.3022549889865,0.1980091475164069,1.333135666872788,0.8965744171362626,0.2882537375,0.6461116946977767
0.02,1.79,1.0,2367.873599075766,0.20250768163808344,1.3326330072361332,0.9005308716185625,0.288233,0.6471788344931332
0.0205,1.78949375,1.0,2394.8169558942,0.20698098225955072,1.3321421800476834,0.9042488067312643,0.2882117375,0.6482192992129219
0.021,1.788975,1.0,2420.205312885581,0.21142919071038338,1.3316621865189822,0.9077467785337276,0.28818995000000003,0.6492353126066579
0.021500000000000002,1.78844375,1.0,2444.12312496277,0.2158524503466574,1.331191956688445,0.9110415822901861,0.2881676375,0.6502292341354567
0.022,1.7879,1.0,2466.6276333929677,0.22025089932778436,1.3307307175228735,0.9141485138624397,0.2881448,0.6512027821645576
0.0225,1.78734375,1.0,2487.7790343345096,0.2246246758131759,1.3302776959890699,0.9170814713228826,0.28812143749999997,0.6521576643244629
0.023,1.786775,1.0,2507.6402346134337,0.22897391796224362,1.329832119053835,0.9198531020342761,0.28809755,0.6530955779351304
0.0235,1.78619375,1.0,2526.2766207491854,0.23329876393439908,1.3293932136839706,0.9224749325126644,0.28807313749999996,0.6540182103920475
0.024,1.7856,1.0,2543.7458685308848,0.2375993495386643,1.3289603007456774,0.924957499025484,0.2880482,0.6549270425169436
0.0245,1.78499375,1.0,2560.113875056224,0.24187581410900522,1.3285326420513348,0.9273104232647671,0.2880227375,0.6558236706210763
0.025,1.784375,1.0,2575.433158877123,0.24612829293322463,1.3281096417689244,0.9295425344231627,0.28799675,0.6567093844970284
0.025500000000000002,1.78374375,1.0,2589.7486488108902,0.2503569188135899,1.3276907888211995,0.9316619375788625,0.2879702375,0.657585289929018
0.026000000000000002,1.7831000000000001,1.0,2603.1065406026023,0.2545618245523685,1.327275572130914,0.9336760709645119,0.2879432,0.6584524868825987
0.0265,1.78244375,1.0,2615.554188858307,0.2587431429518277,1.3268634806208208,0.9355917698230801,0.2879156375,0.6593120696315125
0.027,1.781775,1.0,2627.140004769779,0.26290100681423506,1.326454003213674,0.9374153233705022,0.28788755,0.6601651268678779
0.0275,1.7810937500000001,1.0,2637.908843533777,0.26703554753373704,1.3260466705883802,0.9391525313715802,0.2878589375,0.661012654968853
0.028,1.7804,1.0,2647.9011179720956,0.27114689590359753,1.3256410621283963,0.9408087503438389,0.2878298,0.6618555441833226
0.0285,1.77969375,1.0,2657.1705158909313,0.2752351866349985,1.3252366415511632,0.9423889118049593,0.2878001375,0.6626949202567609
0.029,1.778975,1.0,2665.748201677603,0.2793005466903667,1.3248330864871964,0.9438976023293497,0.28776995,0.6635314602142908
0.029500000000000002,1.7782437500000001,1.0,2673.6658569433553,0.2833431030321287,1.3244300745670121,0.9453390670315484,0.2877392375,0.6643658377437595
0.03,1.7775,1.0,2680.9556351410906,0.287362982622711,1.3240272834211264,0.9467172393498353,0.287708,0.6651987232102201
0.0305,1.77674375,1.0,2687.650118487125,0.2913603124245404,1.3236243906800549,0.948035767878695,0.2876762375,0.6660307836637858
0.031,1.775975,1.0,2693.7822771868487,0.29533521940004354,1.3232210739743135,0.9492980405745842,0.28764395,0.6668626828408525
0.0315,1.7751937500000001,1.0,2699.3854309645335,0.299287830511647,1.3228170109344184,0.950507206620615,0.2876111375,0.6676950811586977
0.032,1.7744,1.0,2704.4866695421015,0.3032182683177671,1.3224119389418871,0.9516662021323844,0.2875778,0.6685285128435359
0.0325,1.77359375,1.0,2709.120491991621,0.30712666278299083,1.3220055301225602,0.9527777560932383,0.2875439375,0.669363643400794
0.033,1.772775,1.0,2713.3101063273994,0.3110131364354596,1.3215975618454388,0.9538444227445191,0.28750955,0.6702009190531544
0.0335,1.7719437500000002,1.0,2717.0769228375093,0.3148778103692922,1.3211878295941015,0.954868587111649,0.2874746375,0.6710407465581327
0.034,1.7711000000000001,1.0,2720.4425178823744,0.31872080567860755,1.3207761288521278,0.9558524766773384,0.2874392,0.6718835304803671
0.0345,1.7702437500000001,1.0,2723.4286167598693,0.3225422434575245,1.3203622551030962,0.9567981736434922,0.2874032375,0.6727296731672789
0.035,1.7693750000000001,1.0,2726.0570774969174,0.326342244800162,1.319946003830586,0.9577076261019444,0.28736675,0.6735795747220622
0.035500000000000004,1.76849375,1.0,2728.3498755694945,0.33012093080063887,1.3195271705181755,0.958582658222527,0.2873297375,0.6744336329740077
0.036000000000000004,1.7676,1.0,2730.3226055695523,0.3338784162022483,1.3191056095774516,0.9594249841543834,0.2872922,0.6752921235210556
0.0365,1.76669375,1.0,2731.9973677248395,0.33761482361769624,1.318681117055519,0.9602362075174296,0.2872541375,0.6761554388783373
0.037,1.765775,1.0,2733.4003937517687,0.3413302807855985,1.318253452190632,0.9610178310277717,0.28721555,0.6770240439054374
0.0375,1.76484375,1.0,2734.5442520864513,0.34502490183162426,1.317822498941983,0.9617712755601103,0.2871764375,0.6778981478516368
0.038,1.7639,1.0,2735.441560043705,0.34869880088144295,1.3173881412687631,0.9624978768696674,0.28713679999999997,0.6787779584883917
0.0385,1.76294375,1.0,2736.10497790278,0.3523520920607239,1.316950263130165,0.9631988916210231,0.28709663750000003,0.6796636820845636
0.039,1.761975,1.0,2736.5472032914013,0.35598488949513635,1.3165087484853804,0.9638755029269175,0.28705595,0.680555523380798
0.0395,1.7609937500000001,1.0,2736.780965869122,0.3595973073103498,1.3160634812936012,0.9645288254417042,0.2870147375,0.6814536855630403
0.04,1.76,1.0,2736.8190223083357,0.3631894596320334,1.3156143455140192,0.9651599100496437,0.286973,0.6823583702351954
0.0405,1.7589937500000001,1.0,2736.6741515743975,0.36676146058585674,1.3151612251058267,0.9657697481842265,0.2869307375,0.6832697773909262
0.041,1.757975,1.0,2736.3591505041964,0.370313424297489,1.314704004028215,0.9663592758111358,0.28688795,0.6841881053845958
0.0415,1.75694375,1.0,2735.8868296828514,0.37384546489259957,1.3142425662403765,0.9669293771042982,0.2868446375,0.6851135509013475
0.042,1.7559,1.0,2735.266193986052,0.3773576899793811,1.3137768303475839,0.9674808896557627,0.28680079999999997,0.6860462395951008
0.0425,1.75484375,1.0,2734.5076701370767,0.3808502138197004,1.3133067021201044,0.968014605749496,0.2867564375,0.6869863214496945
0.043000000000000003,1.753775,1.0,2733.624081805877,0.3843231547881041,1.312832065604776,0.9685312740967563,0.28671155,0.6879339882954372
0.043500000000000004,1.75269375,1.0,2732.622082726865,0.38777661957741605,1.3123528609074555,0.9690316063629483,0.28666613750000003,0.688889318504234
0.044,1.7516,1.0,2731.508329808416,0.39121071488046033,1.3118690281339995,0.9695162768985753,0.2866202,0.6898523893200084
0.0445,1.75049375,1.0,2730.2894817430247,0.3946255473900608,1.3113805073902647,0.9699859250607317,0.2865737375,0.6908232768411395
0.045,1.7493750000000001,1.0,2728.9721976961146,0.3980212237990414,1.3108872387821076,0.9704411573681575,0.28652675,0.6918020560026685
0.0455,1.74824375,1.0,2727.5631360747093,0.40139785080022616,1.3103891624153845,0.9708825495033072,0.2864792375,0.6927888005582783
0.046,1.7471,1.0,2726.068953375772,0.40475553508643897,1.3098862183959523,0.9713106481736595,0.2864312,0.6937835830620414
0.0465,1.7459437500000001,1.0,2724.4963031137545,0.4080943833505037,1.3093783468296678,0.9717259728434309,0.28638263750000004,0.6947864748499419
0.047,1.744775,1.0,2722.8518348281405,0.4114145022852444,1.308865487822387,0.9721290173458608,0.28633355,0.6957975460211698
0.0475,1.74359375,1.0,2721.142193170193,0.4147159985834849,1.3083475814799672,0.9725202513853612,0.28628393750000003,0.6968168654191804
0.048,1.7424,1.0,2719.365923995995,0.41799896457243496,1.3078246416081283,0.9729001253169883,0.2862338,0.6978443559273833
0.0485,1.74119375,1.0,2717.5298566914576,0.4212635114451762,1.3072966065931049,0.9732690650418249,0.2861831375,0.6988800879348296
0.049,1.739975,1.0,2715.6484336016647,0.42450976031204585,1.3067633453824121,0.9736274726578752,0.28613195,0.6999242663577516
0.0495,1.73874375,1.0,2713.7243957517526,0.42773780968173286,1.3062248334243207,0.9739757358505134,0.2860802375,0.7009768858234918
0.05,1.7375,1.0,2711.760481427602,0.4309477580629263,1.3056810461671011,0.9743142242697957,0.286028,0.7020379400962583
0.0505,1.73624375,1.0,2709.759425967468,0.434139703964315,1.3051319590590245,0.9746432905282669,0.2859752375,0.7031074220688833
0.051000000000000004,1.734975,1.0,2707.7239615677504,0.43731374589458816,1.3045775475483614,0.9749632711349676,0.28592195,0.7041853237545461
0.051500000000000004,1.73369375,1.0,2705.6568171013473,0.4404699823624346,1.3040177870833825,0.9752744873702571,0.2858681375,0.7052716362784539
0.052000000000000005,1.7324,1.0,2703.5607179499643,0.44360851187654343,1.3034526531123587,0.9755772461056811,0.2858138,0.706366349869485
0.0525,1.73109375,1.0,2701.438385849519,0.4467294329456036,1.3028821210835608,0.9758718405727945,0.28575893750000003,0.7074694538517959
0.053,1.729775,1.0,2699.292538748856,0.44983284407830404,1.3023061664452593,0.976158551084523,0.28570355000000003,0.7085809366363877
0.0535,1.72844375,1.0,2697.1258906819794,0.4529188437833339,1.3017247646457253,0.9764376457123828,0.2856476375,0.709700785712633
0.054,1.7271,1.0,2694.9411516537234,0.45598753056938207,1.3011378911332292,0.9767093809226085,0.2855912,0.7108289876397684
0.0545,1.7257437500000001,1.0,2692.741027538422,0.45903900294513755,1.300545521356042,0.9769740021740109,0.2855342375,0.7119655280383448
0.055,1.724375,1.0,2690.528219992177,0.4620733594192894,1.2999476307624345,0.9772317444801694,0.28547675,0.7131103915816399
0.0555,1.72299375,1.0,2688.305426378782,0.46509069850052653,1.299344194800677,0.9774828329383636,0.2854187375,0.7142635619870357
0.056,1.7216,1.0,2686.0751611954115,0.46809109880007793,1.2987351905547195,0.9777274814792524,0.2853602,0.7154250188910568
0.0565,1.72019375,1.0,2683.838663719384,0.4710746757577342,1.298120606760345,0.9779658992333262,0.28530113749999997,0.7165947188292211
0.057,1.718775,1.0,2681.5970992307184,0.4740415275460544,1.297500432813444,0.97819828517622,0.28524155,0.7177726163131807
0.0575,1.71734375,1.0,2679.3516723313746,0.4769917444910777,1.2968746577316332,0.9784248294508044,0.2851814375,0.7189586658058853
0.058,1.7159,1.0,2677.103585632742,0.4799254169188431,1.2962432705325282,0.9786457145203091,0.2851208,0.720152820995508
0.0585,1.71444375,1.0,2674.8540397461875,0.48284263515538983,1.2956062602337455,0.9788611155374863,0.2850596375,0.7213550347915152
0.059000000000000004,1.7129750000000001,1.0,2672.604233276252,0.485743489526757,1.2949636158529008,0.9790712006931993,0.28499795,0.7225652593207347
0.059500000000000004,1.71149375,1.0,2670.3553628165496,0.48862807035898365,1.2943153264076108,0.979276131545733,0.2849357375,0.7237834459234105
0.06,1.71,1.0,2668.108622948634,0.4914964679781089,1.293661380915491,0.9794760633320336,0.284873,0.7250095451492565
0.0605,1.7084937500000001,1.0,2665.865206243182,0.49434877271017197,1.2930017683941581,0.9796711452620023,0.2848097375,0.7262435067534954
0.061,1.7069750000000001,1.0,2663.6263032638526,0.4971850748812119,1.292336477861228,0.9798615207968897,0.28474595,0.7274852796928946
0.0615,1.7054437500000001,1.0,2661.393102574109,0.5000054648172678,1.291665498334317,0.9800473279127613,0.2846816375,0.7287348121217938
0.062,1.7039,1.0,2659.166790746719,0.5028100328443789,1.2909888188310408,0.9802286993499423,0.2846168,0.7299920513881242
0.0625,1.70234375,1.0,2656.94855237531,0.5055988692885841,1.2903064283690158,0.9804057628492906,0.2845514375,0.7312569440294181
0.063,1.7007750000000001,1.0,2654.7395700893776,0.5083720644759226,1.2896183159658583,0.9805786413760826,0.28448555,0.7325294357688146
0.0635,1.69919375,1.0,2652.5361314704937,0.5111296705153848,1.288924515756238,0.9807474528210182,0.28441913750000003,0.7338093883769881
0.064,1.6976,1.0,2650.339476227812,0.5138717970559684,1.288225016251469,0.9809123126613682,0.2843522,0.7350967474707921
0.0645,1.69599375,1.0,2648.154182897847,0.516598566630869,1.2875197751326921,0.9810733314996105,0.2842847375,0.7363915143738717
0.065,1.694375,1.0,2645.9802864336593,0.5193100603230602,1.2868087919578053,0.9812306150313014,0.28421675,0.7376936124225266
0.0655,1.69274375,1.0,2643.8178217719933,0.5220063592155156,1.2860920662847066,0.9813842651554927,0.2841482375,0.7390029643142444
0.066,1.6911,1.0,2641.666823834099,0.5246875443912091,1.2853695976712942,0.9815343801367206,0.2840792,0.7403194921075372
0.0665,1.6894437500000001,1.0,2639.527327526914,0.5273536969331142,1.2846413856754662,0.9816810547589614,0.2840096375,0.741643117221781
0.067,1.687775,1.0,2637.399367743509,0.5300048979242046,1.2839074298551205,0.9818243804720018,0.28393955,0.742973760437053
0.0675,1.68609375,1.0,2635.282979364535,0.5326412284474541,1.2831677297681559,0.9819644455306514,0.2838689375,0.744311341893969
0.068,1.6844000000000001,1.0,2633.1781972591934,0.5352627695858362,1.2824222849724698,0.9821013351271937,0.2837978,0.7456557810935238
0.0685,1.68269375,1.0,2631.085056285695,0.5378696024223246,1.2816710950259609,0.9822351315174447,0.2837261375,0.7470069968969264
0.069,1.680975,1.0,2629.003591292912,0.5404618080398931,1.280914159486527,0.9823659141407775,0.28365395,0.7483649075254404
0.0695,1.67924375,1.0,2626.933837120879,0.5430394675215153,1.2801514779120662,0.9824937597344314,0.28358123749999997,0.7497294305602203
0.07,1.6775,1.0,2624.8758286019734,0.5456026619501649,1.279383049860477,0.982618742442421,0.283508,0.7511004829421499
0.07050000000000001,1.67574375,1.0,2622.829600561904,0.5481514724088156,1.2786088748896571,0.982740933919332,0.2834342375,0.7524779809716817
0.07100000000000001,1.673975,1.0,2620.795187820579,0.5506859799804409,1.277828952557505,0.9828604034292769,0.28335995,0.7538618403086722
0.07150000000000001,1.67219375,1.0,2618.7726251932663,0.5532062657480148,1.2770432824219187,0.9829772179402685,0.2832851375,0.7552519759722226
0.07200000000000001,1.6704,1.0,2616.761947491631,0.5557124107945106,1.276251864040796,0.9830914422142474,0.2832098,0.7566483023405152
0.0725,1.66859375,1.0,2614.7631895243867,0.5582044962029022,1.2754546969720357,0.9832031388929982,0.2831339375,0.7580507331506504
0.073,1.6667750000000001,1.0,2612.776386098922,0.5606826030561634,1.2746517807735354,0.9833123685801606,0.28305755,0.7594591814984881
0.0735,1.66494375,1.0,2610.8015720216727,0.5631468124372676,1.2738431150031935,0.9834191899195404,0.2829806375,0.7608735598384814
0.074,1.6631,1.0,2608.8387820995617,0.5655972054291886,1.273028699218908,0.9835236596699108,0.2829032,0.7622937799835175
0.0745,1.6612437500000001,1.0,2606.8876191511736,0.5680338284737747,1.2722085369964804,0.9836258309966466,0.2828252375,0.7637197461295784
0.075,1.659375,1.0,2604.9480898311667,0.5704567829386935,1.27138262816027,0.9837257583024125,0.28274675,0.7651513684082418
0.0755,1.65749375,1.0,2603.02020077772,0.5728661650489494,1.2705509725351636,0.9838234939766745,0.2826677375,0.7665885563146593
