Time [s],Phi [rad],STIM [ ],Fsee [N],Gamma [ ],Lcerel [ ],q [ ],Lmtc [m],fisomrel [ ]
0.0,1.8,1.0,18.15554045859785,0.0004436880497614691,1.3793186961357446,0.0050509141696362765,0.288653,0.5411904552355824
0.0005,1.79999375,1.0,18.602311771534275,0.006050408619525069,1.379266383195229,0.014188270055447937,0.2886527375,0.5413169980166126
0.001,1.799975,1.0,22.26587410983599,0.01162567991981037,1.3788726581791437,0.03790426993839416,0.28865195,0.542268842105452
0.0015,1.79994375,1.0,32.42186418846106,0.017169678357087027,1.3779321921329613,0.07372074996470546,0.2886506375,0.5445384507320614
0.002,1.7999,1.0,56.33543870945308,0.02268257934624211,1.376191764978628,0.11839668661135454,0.2886488,0.5487237116143646
0.0025,1.79984375,1.0,101.61020545655546,0.028164557319899187,1.3737211896748627,0.16856737788818008,0.28864643749999996,0.554631608380119
0.003,1.7997750000000001,1.0,166.71756439133955,0.033615785731719514,1.3710006587405488,0.22139305777012414,0.28864354999999997,0.561092191371425
0.0035,1.79969375,1.0,244.14031703614762,0.03903643706296124,1.3683871747503014,0.27469902047989136,0.2886401375,0.5672541118606216
0.004,1.7996,1.0,328.30884909370843,0.0444266828260612,1.365975826034088,0.3268692000509135,0.2886362,0.5729008123681983
0.0045000000000000005,1.7994937500000001,1.0,416.33406551036404,0.04978669356921812,1.3637576506925384,0.37678517608652146,0.2886317375,0.5780624093196596
0.005,1.799375,1.0,506.6120090445369,0.055116638895234854,1.3617059219944632,0.4237550127844548,0.28862675,0.58280875635885
0.0055,1.79924375,1.0,598.0454537504081,0.06041668744583937,1.3597975217323037,0.4674201542669155,0.2886212375,0.5871994367196824
0.006,1.7991000000000001,1.0,689.7709828646031,0.06568700690502376,1.3580149251935605,0.5076628541397512,0.2886152,0.5912796981462032
0.006500000000000001,1.79894375,1.0,781.0841380522442,0.07092776402960936,1.356344580509596,0.5445277676871928,0.2886086375,0.5950846299153065
0.007,1.798775,1.0,871.4018353787291,0.0761391247014496,1.3547756840356677,0.5781616862433181,0.28860155,0.5986422640848983
0.0075,1.79859375,1.0,960.2283809492733,0.08132125359538003,1.3532995362312104,0.6087699189976397,0.2885939375,0.6019752477640679
0.008,1.7984,1.0,1047.1995785839017,0.08647431508853592,1.3519080896146134,0.6365854724082095,0.2885858,0.6051042616830142
0.0085,1.79819375,1.0,1131.9940330085424,0.0915984719194401,1.3505948199252065,0.6618497743118928,0.2885771375,0.6080461487296303
0.009000000000000001,1.797975,1.0,1214.368848818123,0.09669388607238762,1.349353766407054,0.6847995907426608,0.28856795,0.6108161540089462
0.0095,1.79774375,1.0,1294.1645334242808,0.10176071915133032,1.34817922494578,0.7056594872907989,0.2885582375,0.6134286585336606
0.01,1.7975,1.0,1371.2506756293449,0.10679913147355419,1.3470662811526954,0.7246381987551749,0.288548,0.615896034715683
0.0105,1.79724375,1.0,1445.533829738099,0.11180928201888071,1.3460104994787254,0.7419267673662875,0.2885372375,0.618229382176285
0.011,1.796975,1.0,1516.9670574053807,0.1167913291788818,1.3450076637088584,0.7576981653735234,0.28852595000000003,0.6204391325961585
0.0115,1.79669375,1.0,1585.5604235826167,0.12174543177100972,1.344053556734456,0.7721078203874474,0.2885141375,0.6225355551606201
0.012,1.7964,1.0,1651.3050958519912,0.1266717459128893,1.3431447859221561,0.7852950887339025,0.28850180000000003,0.6245269639490996
0.0125,1.79609375,1.0,1714.210089284546,0.13157042685426862,1.342278229144244,0.7973843046334809,0.2884889375,0.6264209625442613
0.013000000000000001,1.7957750000000001,1.0,1774.320502777534,0.13644162984489586,1.3414507642730062,0.8084860804875863,0.28847555,0.6282250496727677
0.0135,1.79544375,1.0,1831.6975108890135,0.14128550908358573,1.3406594556271942,0.8186987898012816,0.2884616375,0.6299462222314531
0.014,1.7951000000000001,1.0,1886.4145952029899,0.14610221884734675,1.3399015488712804,0.828109893129912,0.2884472,0.6315909983255885
0.0145,1.79474375,1.0,1938.5250358337396,0.1508919105076716,1.3391747810437917,0.8367972685527226,0.2884322375,0.633164757346607
0.015,1.794375,1.0,1988.1013342417984,0.15565473532562665,1.338476905327575,0.8448301472190188,0.28841675,0.634672782397538
0.0155,1.79399375,1.0,2035.226764873457,0.16039084389969835,1.3378057602108184,0.8522701483547156,0.2884007375,0.6361201159706347
0.016,1.7936,1.0,2079.9951269058415,0.16510038718198028,1.337159250123531,0.8591721722300437,0.2883842,0.6375116073218695
0.0165,1.7931937500000001,1.0,2122.4926088420116,0.169783514722992,1.3365355135934902,0.8655852439462484,0.2883671375,0.6388515564106052
0.017,1.792775,1.0,2162.7869539475455,0.1744403733836473,1.335933009042599,0.8715532287741208,0.28834955,0.6401435377410241
0.0175,1.7923437500000001,1.0,2200.956551108816,0.17907111002485998,1.3353501948927606,0.8771153492906536,0.2883314375,0.6413910930656488
0.018000000000000002,1.7919,1.0,2237.0895425415392,0.1836758715075439,1.3347855295658784,0.8823067311279404,0.2883128,0.6425977333969847
0.0185,1.79144375,1.0,2271.269658307153,0.18825480326109698,1.3342376042686444,0.8871589144868842,0.2882936375,0.6437666578212917
0.019,1.790975,1.0,2303.5929722243395,0.19280805226003872,1.333704964742741,0.8917002251430558,0.28827395,0.6449011368177486
0.0195,1.79049375,1.0,2334.1320430315814,0.19733576187213936,1.3331864585693276,0.8959562233774258,0.2882537375,0.6460037749554519
0.02,1.79,1.0,2362.9546883727076,0.20183807418773383,1.3326810361516688,0.8999499692254946,0.288233,0.6470769393655997
0.0205,1.78949375,1.0,2390.133777715212,0.2063151312971571,1.3321876478930297,0.9037022794784293,0.2882117375,0.6481229801890833
0.021,1.788975,1.0,2415.7468087201196,0.21076707529074404,1.3317052441966748,0.9072319764552864,0.28818995000000003,0.6491442314171695
0.021500000000000002,1.78844375,1.0,2439.8633973389556,0.215194046371777,1.3312328918981022,0.9105561299728976,0.2881676375,0.6501427657041459
0.022,1.7879,1.0,2462.5667285360955,0.21959618737311068,1.3307695627133835,0.9136902053215685,0.2881448,0.6511208430561131
0.0225,1.78734375,1.0,2483.9187355975428,0.22397363702944215,1.3303144640700366,0.9166482971369576,0.28812143749999997,0.6520802130935093
0.023,1.786775,1.0,2503.974329808888,0.2283265324073249,1.329866896265348,0.9194432458346338,0.28809755,0.6530224194778896
0.0235,1.78619375,1.0,2522.790802608319,0.2326550105733124,1.3294261595966037,0.9220867509170068,0.28807313749999996,0.6539489967265082
0.024,1.7856,1.0,2540.4276266089305,0.2369592085939582,1.3289915543610906,0.9245894881034239,0.2880482,0.6548614705327601
0.0245,1.78499375,1.0,2556.946267475121,0.24123926353581576,1.328562380856095,0.9269612130240549,0.2880227375,0.6557613580554033
0.025,1.784375,1.0,2572.379589506349,0.24549530886353096,1.328138224176984,0.9292109005291634,0.28799675,0.6566495721746667
0.025500000000000002,1.7837437952302806,1.0,2586.8396751940986,0.24972748428683947,1.3277179624066846,0.9313466580133388,0.2879702393996718,0.6575284984566673
0.026000000000000002,1.7831073586008712,1.0,2600.6810035913245,0.2539359216558017,1.3273014767518807,0.9333760871640019,0.28794350906123656,0.658398416186346
0.0265,1.782470921971462,1.0,2614.163616085781,0.25812075266571083,1.3268886657205006,0.935306173138258,0.2879167787228014,0.659259567039129
0.027,1.7818344853420527,1.0,2627.2954026509774,0.2622821090118603,1.3264794278204732,0.937143340311564,0.2878900483843662,0.6601121913584707
0.0275,1.7811980487126435,1.0,2640.0844494570433,0.2664201223895432,1.3260736615597273,0.9388935047425011,0.287863318045931,0.6609565281793126
0.028,1.7805616120832342,1.0,2652.5390309445793,0.2705349244940529,1.3256712654461913,0.9405621210968915,0.2878365877074958,0.6617928152508814
0.0285,1.7799251754538248,1.0,2664.6674020484093,0.2746266459893643,1.3252721398284206,0.942154224532928,0.2878098573690606,0.6626212852405624
0.029,1.7792887388244156,1.0,2676.4771232116204,0.2786954171794455,1.3248761930025477,0.943674469555378,0.2877831270306255,0.6634421531255466
0.029500000000000002,1.7786523021950063,1.0,2687.9764385573435,0.282741366223084,1.32448332843856,0.9451271613591798,0.2877563966921903,0.6642556427469184
0.03,1.778015865565597,1.0,2699.173836898477,0.28676462028963107,1.3240934487847886,0.9465162874498896,0.2877296663537551,0.6650619784910128
0.0305,1.7773794289361877,1.0,2710.077956078137,0.2907653065484382,1.3237064566895647,0.9478455455681662,0.2877029360153199,0.6658613836016805
0.031,1.7767429923067783,1.0,2720.696185402603,0.2947435479693984,1.3233222674674103,0.9491183686418795,0.2876762056768847,0.6666540540807793
0.0315,1.7761065556773692,1.0,2731.0340946405954,0.2986994604376846,1.3229408141120653,0.950337946877524,0.28764947533844953,0.6674401485351928
0.032,1.7754701190479598,1.0,2741.109727940175,0.3026331967943681,1.322561917435991,0.9515072456144443,0.2876227450000143,0.6682200555485233
0.0325,1.7748336824185507,1.0,2750.9301206525042,0.30654487695014754,1.3221854996556768,0.9526290280885047,0.28759601466157914,0.6689939534809373
0.033,1.7741972457891413,1.0,2760.502411260852,0.3104346208157211,1.3218114829876109,0.9537058698832943,0.28756928432314394,0.6697620198256207
0.0335,1.773560809159732,1.0,2769.833837173179,0.31430254830178733,1.3214397896482823,0.9547401739362121,0.28754255398470874,0.6705244312208801
0.034,1.7729243725303228,1.0,2778.9317306481053,0.3181487793190445,1.3210703418541796,0.9557341841748669,0.28751582364627354,0.6712813634618631
0.0345,1.7722879359009134,1.0,2787.803514855088,0.32197343377819104,1.3207030618217914,0.9566899979232816,0.28748909330783834,0.6720329915118886
0.035,1.7716514992715042,1.0,2796.456700069243,0.3257766315899253,1.3203378717676069,0.957609577201837,0.2874623629694032,0.6727794895133937
0.035500000000000004,1.7710150626420949,1.0,2804.898879999377,0.3295584926649458,1.3199746939081143,0.9584947590311675,0.287435632630968,0.6735210307984968
0.036000000000000004,1.7703786260126857,1.0,2813.1377282513267,0.33331913691395076,1.3196134504598025,0.9593472648381803,0.2874089022925328,0.6742577878991689
0.0365,1.7697421893832763,1.0,2821.1809949244785,0.33705868424763863,1.3192540636391603,0.9601687090517288,0.2873821719540976,0.6749899325570248
0.037,1.769105752753867,1.0,2829.036503342967,0.3407772545767079,1.3188964556626763,0.9609606069660888,0.2873554416156624,0.6757176357327255
0.0375,1.7684693161244578,1.0,2836.7121469207123,0.3444749678118568,1.3185405487468393,0.9617243819420919,0.28732871127722726,0.6764410676149951
0.038,1.7678328794950484,1.0,2844.2138155762987,0.3481519375452995,1.3181862835455145,0.962461372467366,0.287301980938792,0.6771603602152215
0.0385,1.7671964428656393,1.0,2851.547194834917,0.35180827830817085,1.317833603006429,0.9631728381805575,0.28727525060035686,0.6778756403059683
0.039,1.7665600062362299,1.0,2858.7227786941053,0.35544411972508344,1.3174824078146046,0.9638599640328955,0.28724852026192166,0.6785871196691362
0.0395,1.7659235696068205,1.0,2865.7452647785594,0.35905957308194386,1.317132650708641,0.964523867547797,0.28722178992348646,0.6792949038728033
0.04,1.7652871329774114,1.0,2872.619390901866,0.36265474966465855,1.3167842844271382,0.9651656023517494,0.28719505958505126,0.6799990980229145
0.0405,1.764650696348002,1.0,2879.3499335845586,0.366229760759134,1.3164372617086961,0.9657861625071018,0.28716832924661606,0.6806998067675452
0.041,1.7640142597185928,1.0,2885.9417066214955,0.3697847176512767,1.3160915352919145,0.966386486507146,0.2871415989081809,0.6813971343010217
0.0415,1.7633778230891834,1.0,2892.399559698388,0.3733197316269931,1.3157470579153936,0.9669674609630848,0.2871148685697457,0.682091184367899
0.042,1.762741386459774,1.0,2898.728377058899,0.3768349139721897,1.315403782317733,0.967529924009599,0.2870881382313105,0.6827820602667989
0.0425,1.762104949830365,1.0,2904.9330762200157,0.3803303759727731,1.3150616612375328,0.9680746684531758,0.2870614078928753,0.6834698648541013
0.043000000000000003,1.7614685132009555,1.0,2911.0186067377567,0.38380622891464966,1.314720647413393,0.9686024446850598,0.2870346775544401,0.6841547005474962
0.043500000000000004,1.7608320765715464,1.0,2916.9899490222297,0.3872625840837259,1.3143806935839135,0.9691139633786396,0.287007947216005,0.6848366693293925
0.044,1.760195639942137,1.0,2922.852113201745,0.39069955276590823,1.314041752487694,0.9696098979892259,0.2869812168775697,0.6855158727501849
0.0445,1.7595592033127279,1.0,2928.6083254535256,0.39411723823938816,1.3137037927691095,0.9700908871247266,0.2869544865391346,0.6861923801092972
0.045,1.7589227666833185,1.0,2934.263065234056,0.39751575212569146,1.3133667722659401,0.9705575370567213,0.2869277562006994,0.6868662820141149
0.0455,1.758286330053909,1.0,2939.8221057921533,0.40089521173435944,1.313030637699753,0.9710104232415394,0.2869010258622642,0.6875376908842029
0.046,1.7576498934245,1.0,2945.2882856894694,0.40425572057470094,1.312695361720503,0.9714500922190245,0.286874295523829,0.6882066669594508
0.0465,1.7570134567950906,1.0,2950.6644601036974,0.4075973821560247,1.3123609169781456,0.9718770633811582,0.2868475651853938,0.688873270231416
0.047,1.7563770201656814,1.0,2955.953500316463,0.4109202999876395,1.3120272761226357,0.9722918305785037,0.28682083484695864,0.6895375604447974
0.0475,1.755740583536272,1.0,2961.158293217017,0.4142245775788542,1.3116944118039287,0.9726948636169469,0.28679410450852344,0.6901995970988615
0.048,1.7551041469068627,1.0,2966.2817408237747,0.41751031843897757,1.3113622966719796,0.9730866096531801,0.28676737417008824,0.6908594394488208
0.0485,1.7544677102774535,1.0,2971.326759821311,0.42077762607731833,1.3110309033767438,0.9734674944966712,0.28674064383165304,0.6915171465071641
0.049,1.7538312736480441,1.0,2976.296281114353,0.42402660400318537,1.310700204568176,0.9738379238251871,0.28671391349321784,0.6921727770449415
0.0495,1.753194837018635,1.0,2981.193249398494,0.4272573557258874,1.3103701728962316,0.9741982843203555,0.2866871831547827,0.6928263895929954
0.05,1.7525584003892256,1.0,2986.0206227471485,0.4304699847547333,1.3100407810108659,0.9745489447292112,0.28666045281634744,0.6934780424431516
0.0505,1.7519219637598162,1.0,2990.781372215711,0.4336645945990317,1.3097120015620336,0.9748902568571699,0.2866337224779123,0.6941277936493588
0.051000000000000004,1.751285527130407,1.0,2995.4753383634034,0.43684126301430903,1.3093838344713953,0.9752225554161743,0.2866069921394771,0.6947756472186744
0.051500000000000004,1.7506490905009977,1.0,3000.107010106159,0.44000010960980607,1.3090562393812257,0.9755461620719698,0.2865802618010419,0.695421686541883
0.052000000000000005,1.7500126538715886,1.0,3004.6810092040387,0.4431412554939581,1.3087291749272538,0.9758613841570499,0.2865535314626067,0.6960659966477587
0.0525,1.7493762172421792,1.0,3009.1987983305125,0.4462647952670138,1.3084026272360476,0.9761685142927214,0.2865268011241715,0.6967086081438248
0.053,1.74873978061277,1.0,3013.661846781318,0.44937082352922203,1.3080765824341758,0.9764678322904883,0.28650007078573636,0.697349551516832
0.0535,1.7481033439833606,1.0,3018.0716303176446,0.45245943488083157,1.3077510266482062,0.9767596058224537,0.28647334044730116,0.6979888571332113
0.054,1.7474669073539513,1.0,3022.4296310135774,0.4555307239220912,1.3074259460047073,0.9770440910511157,0.28644661010886596,0.6986265552395114
0.0545,1.7468304707245421,1.0,3026.7373371078133,0.45858478525324964,1.3071013266302474,0.977321533221342,0.28641987977043076,0.6992626759628257
0.055,1.7461940340951327,1.0,3030.996242859644,0.46162171347455566,1.3067771546513947,0.9775921672170944,0.28639314943199556,0.6998972493112063
0.0555,1.7455575974657236,1.0,3035.2078484093445,0.4646416031862581,1.3064534161947174,0.9778562180852801,0.2863664190935604,0.7005303051740666
0.056,1.7449211608363142,1.0,3039.3736596421336,0.4676445489886057,1.306130097386784,0.9781139015289279,0.28633968875512517,0.7011618733225706
0.0565,1.7442847242069048,1.0,3043.4951880580006,0.4706306454818472,1.3058071843541628,0.9783654243717207,0.28631295841669,0.7017919834100099
0.057,1.7436482875774957,1.0,3047.573950643542,0.4735999872662314,1.3054846632234216,0.9786109849957729,0.2862862280782548,0.7024206649721705
0.0575,1.7430118509480863,1.0,3051.611469750218,0.47655266894200715,1.3051625201211292,0.9788507737543961,0.2862594977398196,0.7030479474276832
0.058,1.7423754143186772,1.0,3055.6092729754196,0.4794887851094231,1.3048407411738538,0.9790849733614724,0.2862327674013844,0.7036738600783656
0.0585,1.7417389776892678,1.0,3059.568893048702,0.4824084303687281,1.3045193125081633,0.9793137592589385,0.2862060370629492,0.7042984321095522
0.059000000000000004,1.7411025410598584,1.0,3063.4918677214937,0.48531169932017093,1.3041982202506264,0.9795372999637758,0.2861793067245141,0.7049216925904063
0.059500000000000004,1.7404661044304492,1.0,3067.3797396617565,0.4881986865640003,1.303877450527811,0.9797557573957996,0.2861525763860789,0.7055436704742276
0.06,1.7398296678010399,1.0,3071.232243603795,0.4910694544646448,1.3035570049997598,0.9799692854365137,0.2861258460476437,0.7061643645267086
0.0605,1.7391932311716307,1.0,3075.0504712474626,0.49392409841394375,1.303236873707677,0.980178034087649,0.2860991157092085,0.7067837959948801
0.061,1.7385567945422213,1.0,3078.837897970683,0.49676275568560463,1.3029170263226924,0.9803821497973635,0.2860723853707733,0.7074020253948257
0.0615,1.7379203579128122,1.0,3082.595169318459,0.49958551065466433,1.3025974567996101,0.9805817706037875,0.28604565503233814,0.7080190661301278
0.062,1.7372839212834028,1.0,3086.322933080177,0.5023924476961596,1.3022781590932344,0.9807770293731914,0.2860189246939029,0.7086349315535883
0.0625,1.7366474846539934,1.0,3090.0218392534,0.5051836511851276,1.3019591271583695,0.9809680540326433,0.28599219435546774,0.7092496349673332
0.063,1.7360110480245843,1.0,3093.6925400066857,0.5079592054966049,1.3016403549498194,0.9811549677905195,0.28596546401703254,0.7098631896229175
0.0635,1.735374611395175,1.0,3097.3356896454925,0.5107191950056286,1.3013218364223886,0.9813378893455915,0.28593873367859735,0.7104756087214263
0.064,1.7347381747657658,1.0,3100.951944577207,0.5134637040872353,1.3010035655308811,0.98151693308536,0.28591200334016215,0.7110869054135731
0.0645,1.7341017381363564,1.0,3104.5419632775915,0.516192817116462,1.300685536230101,0.98169220927426,0.28588527300172695,0.7116970927997978
0.065,1.7334653015069472,1.0,3108.106406258234,0.5189066184683456,1.3003677424748528,0.9818638242323319,0.2858585426632918,0.7123061839303588
0.0655,1.7328288648775378,1.0,3111.6459360340564,0.521605192517923,1.3000501782199405,0.9820318805048981,0.2858318123248566,0.7129141918054271
0.066,1.7321924282481285,1.0,3115.1612170928765,0.524288623640231,1.2997328374201682,0.9821964770237672,0.2858050819864214,0.7135211293751754
0.0665,1.7315559916187193,1.0,3118.652915864429,0.5269569962103064,1.2994157140303402,0.98235770926044,0.2857783516479862,0.7141270095398646
0.067,1.73091955498931,1.0,3122.121700691202,0.5296103946031862,1.2990988020052605,0.9825156693717728,0.285751621309551,0.7147318451499298
0.0675,1.7302831183599006,1.0,3125.568241799495,0.5322489031939072,1.2987820952997338,0.9826704463385171,0.2857248909711158,0.7153356490060613
0.068,1.7296466817304914,1.0,3128.9932112715605,0.5348726063575062,1.2984655878685636,0.9828221260971309,0.2856981606326806,0.7159384338592881
0.0685,1.729010245101082,1.0,3132.39728301853,0.5374815884690202,1.2981492736665547,0.982970791665238,0.28567143029424547,0.7165402124110518
0.069,1.7283738084716729,1.0,3135.7811327540016,0.540075933903486,1.297833146648511,0.9831165232610742,0.28564469995581027,0.7171409973132864
0.0695,1.7277373718422635,1.0,3139.145437968688,0.5426557270359404,1.2975172007692366,0.9832593984172585,0.28561796961737507,0.7177408011684878
0.07,1.7271009352128543,1.0,3142.4908779056623,0.5452210522414205,1.2972014299835357,0.9833994920891866,0.28559123927893987,0.718339636529788
0.07050000000000001,1.726464498583445,1.0,3145.818133536415,0.5477719938949628,1.2968858282462128,0.983536876758341,0.28556450894050467,0.7189375159010212
