Time [s],Phi [rad],STIM [ ],Fsee [N],Gamma [ ],Lcerel [ ],q [ ],Lmtc [m],fisomrel [ ]
0.0,1.8,1.0,17.972857477126666,7.68620037952281e-05,1.3793391077570776,0.005001549383034273,0.288653,0.5411410756570928
0.0005,1.79999375,1.0,18.30438647192194,0.005685640177552476,1.379299318425278,0.01312717792917448,0.2886527375,0.5412373311292078
0.001,1.799975,1.0,21.695717611213045,0.011262957540351667,1.378930410425621,0.03595783631586133,0.28865195,0.5421292858886173
0.0015,1.79994375,1.0,31.252701537729397,0.016808990563383218,1.3780305961025683,0.07107924973986172,0.2886506375,0.5443012385533702
0.002,1.7999,1.0,53.9775057909955,0.02232391472608994,1.3763425455519034,0.115283062433125,0.2886488,0.5483618890545712
0.0025,1.79984375,1.0,97.78271032799825,0.027807904524178955,1.373903236104824,0.16518938923597143,0.28864643749999996,0.5541976085151155
0.003,1.7997750000000001,1.0,161.82168125751818,0.03326113347672608,1.3711820648239932,0.21791427970176058,0.28864354999999997,0.5606628659215463
0.0035,1.79969375,1.0,238.6588951843717,0.038683774126260916,1.3685547150639725,0.27124322098523573,0.2886401375,0.566860401798833
0.004,1.7996,1.0,322.5046115763262,0.04407599804941033,1.366128626122867,0.32352608246811243,0.2886362,0.5725440980018557
0.0045000000000000005,1.7994937500000001,1.0,410.3424176803866,0.04943797586212398,1.3638976041768092,0.37361378781931137,0.2886317375,0.5777376711555431
0.005,1.799375,1.0,500.5100225630875,0.05476987721112531,1.3618350541978925,0.4207893961500951,0.28862675,0.5825108212806385
0.0055,1.79924375,1.0,591.8965383721851,0.06007187081768543,1.3599172342174177,0.46467543165288583,0.2886212375,0.5869246955143
0.006,1.7991000000000001,1.0,683.6254411562529,0.0653441244296293,1.3581262945415833,0.5051410422148586,0.2886152,0.5910253735902906
0.006500000000000001,1.79894375,1.0,774.9813526703467,0.07058680487132081,1.3564484809461999,0.542222344013586,0.2886086375,0.594848470762585
0.007,1.798775,1.0,865.3617107193896,0.07580007784071904,1.3548730211769004,0.576061082827192,0.28860155,0.5984219988545254
0.0075,1.79859375,1.0,954.3098852397255,0.08098410882298895,1.353390377293933,0.6068593567336837,0.2885939375,0.6017705396557769
0.008,1.7984,1.0,1041.408434352369,0.08613906143919026,1.351993191406527,0.634849519010282,0.2885858,0.6049132436334439
0.0085,1.79819375,1.0,1126.3360397565655,0.09126509860216128,1.3506747796761858,0.6602728491598298,0.2885771375,0.6078673434281205
0.009000000000000001,1.797975,1.0,1208.8724883912766,0.0963623827782611,1.3494287522926338,0.6833664579785204,0.28856795,0.6106490659158583
0.0095,1.79774375,1.0,1288.839333796515,0.10143107547255573,1.3482495930695264,0.7043559772444096,0.2885582375,0.6132723881597872
0.01,1.7975,1.0,1366.0932573952857,0.10647133660327271,1.3471324830194997,0.7234513182835504,0.288548,0.6157494873492243
0.0105,1.79724375,1.0,1440.5470300806278,0.11148332550678396,1.3460728399687394,0.7408446304607873,0.2885372375,0.618091803048378
0.011,1.796975,1.0,1512.1783383016102,0.11646720178956763,1.3450660971973833,0.756709892863651,0.28852595000000003,0.6203105502709375
0.0115,1.79669375,1.0,1580.9528478111163,0.12142312252418201,1.3441085468105272,0.7712038924340111,0.2885141375,0.6224148852421787
0.012,1.7964,1.0,1646.861990065397,0.12635124402806752,1.343196743967106,0.7844669839560646,0.28850180000000003,0.6244132491402319
0.0125,1.79609375,1.0,1709.936060984517,0.1312517224093197,1.3423272819335,0.7966243166303912,0.2884889375,0.6263138776913969
0.013000000000000001,1.7957750000000001,1.0,1770.2281098378567,0.1361247132441577,1.3414969278344453,0.8077873134579467,0.28847555,0.6281245161978178
0.0135,1.79544375,1.0,1827.790826764406,0.14097037098858045,1.3407028267386452,0.8180551494247749,0.2884616375,0.6298519893249259
0.014,1.7951000000000001,1.0,1882.6701599400242,0.14578884809123416,1.3399425098951914,0.8275160684874638,0.2884472,0.6315022001471866
0.0145,1.79474375,1.0,1934.9360913015475,0.15058029700076492,1.3392135085531756,0.8362484683992225,0.2884322375,0.6330809809153211
0.015,1.794375,1.0,1984.6630423410782,0.15534486910750486,1.3385135405436033,0.8443220989484477,0.28841675,0.6345936953719205
0.0155,1.79399375,1.0,2031.9532320769235,0.1600827169274465,1.3378402326815022,0.8517989820475024,0.2884007375,0.6360458456049377
0.016,1.7936,1.0,2076.876320799995,0.16479398949802543,1.3371917369647064,0.8587345151267218,0.2883842,0.63744174911583
0.0165,1.7931937500000001,1.0,2119.5038188236776,0.16947883502378627,1.3365663321758685,0.8651781276066995,0.2883671375,0.6387854083089379
0.017,1.792775,1.0,2159.919700955279,0.17413740170927366,1.3359622970976421,0.8711739497912688,0.28834955,0.6400807874007515
0.0175,1.7923437500000001,1.0,2198.2133352410137,0.17876983711293482,1.3353779713603413,0.8767614556781153,0.2883314375,0.6413316847137185
0.018000000000000002,1.7919,1.0,2234.477225466557,0.18337628879703932,1.33481176561429,0.881976013042538,0.2883128,0.642541714305618
0.0185,1.79144375,1.0,2268.795151559844,0.1879569029419664,1.334262268069673,0.8868493882654124,0.2882936375,0.6437140820947644
0.019,1.790975,1.0,2301.236108101397,0.192511823218542,1.3337282902006422,0.8914101713209646,0.28827395,0.6448514933665688
0.0195,1.79049375,1.0,2331.8755809274044,0.19704119329759187,1.333208643481349,0.8956840850026466,0.2882537375,0.6459566323639007
0.02,1.79,1.0,2360.7950050660706,0.2015451568499419,1.3327021393859455,0.8996943104682784,0.288233,0.6470321634184149
0.0205,1.78949375,1.0,2388.067816339575,0.20602385569643134,1.3322077199716542,0.9034618009468433,0.2882117375,0.6480804553291932
0.021,1.788975,1.0,2413.785152314431,0.21047743436548438,1.3317242013360626,0.9070054744941917,0.28818995000000003,0.6491041270661716
0.021500000000000002,1.78844375,1.0,2438.0118376272962,0.21490603295608637,1.3312506961923078,0.9103425233624087,0.2881676375,0.6501051539289266
0.022,1.7879,1.0,2460.807374309764,0.2193097902573326,1.3307864020218674,0.9134885564596007,0.2881448,0.6510853196346542
0.0225,1.78734375,1.0,2482.2343434425143,0.22368884505831854,1.3303305163062185,0.9164577517469049,0.28812143749999997,0.6520463966736836
0.023,1.786775,1.0,2502.358147958699,0.2280433361481395,1.3298822365268388,0.9192630072306988,0.28809755,0.652990146760366
0.0235,1.78619375,1.0,2521.242370056599,0.2323734015122255,1.3294408017754293,0.9219160816186324,0.28807313749999996,0.6539182338187572
0.024,1.7856,1.0,2538.94743096912,0.2366791783827374,1.32900550250309,0.9244277129112342,0.2880482,0.6548322044728611
0.0245,1.78499375,1.0,2555.5455499565633,0.24096080571854836,1.3285755372427135,0.9268076973428263,0.2880227375,0.6557337893037698
0.025,1.784375,1.0,2571.0817180425593,0.24521841704952096,1.328150377815765,0.9290650436174147,0.28799675,0.6566241375617687
0.025500000000000002,1.78374375,1.0,2585.602360441146,0.24945214590551784,1.32772949604371,0.9312080057463831,0.2879702375,0.657504392292525
0.026000000000000002,1.7831000000000001,1.0,2599.1552172628285,0.25366212581640163,1.327312363748014,0.9332441565189112,0.2879432,0.6583756904900759
0.0265,1.78244375,1.0,2611.7892304057855,0.25784849031203494,1.3268984527501422,0.935180452924173,0.2879156375,0.6592391632320251
0.027,1.781775,1.0,2623.548493681412,0.26201137252831375,1.3264872899706917,0.9370233028819177,0.28788755,0.6600958210701324
0.0275,1.7810937500000001,1.0,2634.456706049524,0.2661509028401656,1.3260785997654891,0.9387786368176645,0.2878589375,0.6609462588487818
0.028,1.7804,1.0,2644.6330038220594,0.2702672168895347,1.325671231605329,0.9404517958180292,0.2878298,0.661792885537845
0.0285,1.779695010780505,1.0,2654.134968158843,0.2743604427377817,1.325265183921357,0.9420478756193951,0.2878001904527812,0.6626357146958095
0.029,1.7789881250046387,1.0,2663.417551746357,0.27843070844626766,1.3248604551447196,0.9435715849846978,0.2877705012501948,0.663474759831523
0.029500000000000002,1.7782812392287723,1.0,2672.5729290974737,0.2824781420763533,1.3244570437065633,0.9450272800718371,0.28774081204760843,0.6643100344043282
0.03,1.7775743534529063,1.0,2681.6005337503234,0.2865028716893995,1.324054948038034,0.9464189953428768,0.2877111228450221,0.6651415518241937
0.0305,1.77686746767704,1.0,2690.499811919933,0.29050502534676714,1.323654166570278,0.9477504713995315,0.2876814336424357,0.6659693254518457
0.031,1.7761605819011737,1.0,2699.2710056058368,0.29448472919895785,1.3232546905761307,0.9490251785442293,0.2876517444398493,0.666793383356282
0.0315,1.7754536961253073,1.0,2707.9085195705225,0.2984421111285857,1.3228565647583694,0.9502463483728213,0.2876220552372629,0.6676136434707424
0.032,1.774746810349441,1.0,2716.4094852200606,0.3023772975574971,1.3224598087990822,0.9514169828613623,0.2875923660346765,0.6684300756035055
0.0325,1.7740399245735747,1.0,2724.7744167693118,0.3062904111555323,1.3220644115946147,0.952539872008595,0.28756267683209014,0.6692427129598679
0.033,1.7733330387977084,1.0,2733.0038482800055,0.3101815745925315,1.3216703620413128,0.9536176159017062,0.28753298762950374,0.6700515885976108
0.0335,1.7726261530218421,1.0,2741.0983333275094,0.3140509105383349,1.321277649035522,0.9546526399331745,0.28750329842691735,0.6708567354279591
0.034,1.771919267245976,1.0,2749.0584446704834,0.31789854166278275,1.3208862614735881,0.9556472086265282,0.28747360922433096,0.6716581862165307
0.0345,1.7712123814701097,1.0,2756.8847739231824,0.3217245906357152,1.3204961882518569,0.9566034382128702,0.2874439200217446,0.6724559735842803
0.035,1.7705054956942434,1.0,2764.579559342332,0.32552916114520103,1.320107403561941,0.9575233017781376,0.28741423081915823,0.6732501600281655
0.035500000000000004,1.7697986099183771,1.0,2772.1432177141032,0.3293123992828711,1.3197198982686151,0.9584086587069395,0.28738454161657184,0.6740407737599056
0.036000000000000004,1.7690917241425108,1.0,2779.5778280585623,0.33307442706470264,1.3193336484126508,0.9592612436006872,0.28735485241398545,0.6748278730595203
0.0365,1.7683848383666445,1.0,2786.8859704164784,0.33681535947355024,1.3189486257514647,0.9600826809995815,0.28732516321139906,0.6756115246532275
0.037,1.7676779525907782,1.0,2794.070251478261,0.3405353114922686,1.3185648020424727,0.9608744955872603,0.28729547400881267,0.6763917949605873
0.0375,1.7669710668149121,1.0,2801.1333038243915,0.3442343981037125,1.3181821490430918,0.9616381194497351,0.28726578480622633,0.6771687500966828
0.038,1.7662641810390458,1.0,2808.0777851833714,0.3479127342907364,1.3178006385107381,0.9623748987294787,0.28723609560363994,0.6779424558742575
0.0385,1.7655572952631795,1.0,2814.9063777076535,0.35157043503619495,1.317420242202828,0.963086099731164,0.28720640640105355,0.6787129778057972
0.039,1.7648504094873132,1.0,2821.6217872670304,0.3552076153229429,1.3170409318767784,0.9637729145297237,0.28717671719846716,0.6794803811055612
0.0395,1.764143523711447,1.0,2828.226742759803,0.35882439013383494,1.3166626792900051,0.9644364661262429,0.28714702799588077,0.6802447306915669
0.04,1.7634366379355806,1.0,2834.7239954415336,0.36242087445172555,1.3162854561999247,0.9650778131926142,0.2871173387932944,0.6810060911875178
0.0405,1.7627297521597143,1.0,2841.1163182715213,0.3659971832594695,1.3159092343639538,0.9656979544417812,0.287087649590708,0.6817645269246828
0.041,1.7620228663838482,1.0,2847.4065052771944,0.36955343153992143,1.315533985539509,0.9662978326567657,0.2870579603881216,0.6825201019437275
0.0415,1.761315980607982,1.0,2853.597370935817,0.37308973427593595,1.315159681484006,0.9668783384084235,0.28702827118553526,0.6832728799964919
0.042,1.7606090948321156,1.0,2859.6873765588384,0.3766061599191167,1.3147863327885743,0.967440308985499,0.28699858198294886,0.6840228465864827
0.0425,1.7599022090562493,1.0,2865.6840791220166,0.3801028640616126,1.3144138693648943,0.9679845441565503,0.2869688927803625,0.6847701490784285
0.043000000000000003,1.759195323280383,1.0,2871.592266813121,0.38357997887158085,1.3140422460032282,0.9685117988517699,0.2869392035777761,0.6855148843279589
0.043500000000000004,1.7584884375045167,1.0,2877.4139434483914,0.38703760846392554,1.3136714423726599,0.9690227855152809,0.2869095143751897,0.6862570989791299
0.044,1.7577815517286504,1.0,2883.1511266857583,0.3904758569535505,1.3133014381422736,0.9695181792903761,0.2868798251726033,0.6869968394706094
0.0445,1.7570746659527843,1.0,2888.8058476602537,0.3938948284553599,1.3129322129811534,0.9699986203423077,0.28685013597001696,0.6877341520367286
0.045,1.756367780176918,1.0,2894.380150627708,0.39729462708425767,1.3125637465583833,0.9704647160143989,0.28682044676743057,0.6884690827085037
0.0455,1.7556608944010517,1.0,2899.8760926188006,0.40067535695514783,1.3121960185430477,0.9709170428309504,0.2867907575648442,0.6892016773146334
0.046,1.7549540086251854,1.0,2905.2957431012487,0.4040371221829343,1.3118290086042306,0.9713561483592199,0.2867610683622578,0.6899319814824704
0.0465,1.754247122849319,1.0,2910.641183651478,0.4073800268825211,1.3114626964110163,0.9717825529416496,0.2867313791596714,0.6906600406389639
0.047,1.7535402370734527,1.0,2915.9145076358905,0.4107041751688123,1.3110970616324886,0.9721967513085445,0.286701689957085,0.6913859000115803
0.0475,1.7528333512975864,1.0,2921.1178199004503,0.4140096711567118,1.3107320839377319,0.9725992140805058,0.2866720007544986,0.6921096046291912
0.048,1.7521264655217204,1.0,2926.2532364702847,0.4172966189611236,1.31036774299583,0.9729903891691277,0.2866423115519122,0.6928311993229413
0.0485,1.751419579745854,1.0,2931.32288425797,0.42056512269695173,1.3100040184758677,0.9733707030837335,0.2866126223493259,0.6935507287270852
0.049,1.7507126939699877,1.0,2936.3289007808867,0.42381528647910016,1.3096408900469283,0.9737405621512668,0.2865829331467395,0.6942682372798026
0.0495,1.7500058081941214,1.0,2941.2734338882065,0.4270472144224729,1.3092783373780965,0.974100353655857,0.2865532439441531,0.6949837692239806
0.05,1.7492989224182551,1.0,2946.1586414967464,0.4302610106419739,1.3089163401384563,0.9744504469040336,0.2865235547415667,0.695697368607977
0.0505,1.7485920366423888,1.0,2950.9866913358105,0.43345677925250725,1.3085548779970917,0.974791194221072,0.2864938655389803,0.6964090792863517
0.051000000000000004,1.7478851508665225,1.0,2955.7597607016774,0.4366346243689768,1.308193930623087,0.975122931883501,0.2864641763363939,0.6971189449205735
0.051500000000000004,1.7471782650906562,1.0,2960.4800362207698,0.4397946501062867,1.3078334776855263,0.9754459809923981,0.2864344871338076,0.6978270089797023
0.052000000000000005,1.7464713793147901,1.0,2965.1467190124263,0.44293692151898134,1.3074735249693585,0.9757606457854798,0.2864047979312212,0.6985332635297107
0.0525,1.7457644935389238,1.0,2969.763110790757,0.44606156544400305,1.3071140425223944,0.976067221367325,0.2863751087286348,0.6992377706809725
0.053,1.7450576077630575,1.0,2974.3324225537167,0.449168704749105,1.3067550012888078,0.9763659894578002,0.2863454195260484,0.699940590511172
0.0535,1.7443507219871912,1.0,2978.855698984554,0.4522584324369103,1.306396391162607,0.9766572176147176,0.286315730323462,0.700641745798886
0.054,1.743643836211325,1.0,2983.3339895510635,0.4553308415100422,1.3060382020378,0.9769411618921439,0.28628604112087563,0.7013412592266284
0.0545,1.7429369504354586,1.0,2987.7683484100544,0.45838602497112396,1.305680423808395,0.9772180674320813,0.28625635191828924,0.7020391533811225
0.055,1.7422300646595923,1.0,2992.159834313909,0.4614240758227789,1.3053230463684,0.9774881690209152,0.28622666271570285,0.702735450753571
0.0555,1.7415231788837262,1.0,2996.50951052013,0.46444508706763016,1.3049660596118233,0.9777516916130062,0.2861969735131165,0.7034301737399166
0.056,1.74081629310786,1.0,3000.818444702083,0.46744915170830104,1.304609453432673,0.9780088508236222,0.2861672843105301,0.7041233446410975
0.0565,1.7401094073319936,1.0,3005.08770886318,0.47043636274741474,1.3042532177249573,0.9782598533932414,0.28613759510794373,0.7048149856632964
0.057,1.7394025215561273,1.0,3009.318379252284,0.4734068131875946,1.303897342382684,0.9785048976251167,0.28610790590535734,0.7055051189181815
0.0575,1.738695635780261,1.0,3013.5115362821452,0.47636059603146386,1.3035418172998618,0.9787441737978353,0.28607821670277095,0.7061937664231419
0.058,1.7379887500043947,1.0,3017.668264449476,0.47929780428164565,1.3031866323704986,0.9789778645545045,0.28604852750018456,0.7068809501015183
0.0585,1.7372818642285284,1.0,3021.7896522580527,0.48221853094076333,1.3028317774886025,0.9792061452700549,0.2860188382975982,0.7075666917828238
0.059000000000000004,1.736574978452662,1.0,3025.8767921429726,0.48512286901144014,1.3024772425481814,0.9794291843980601,0.28598914909501183,0.7082510132029611
0.059500000000000004,1.735868092676796,1.0,3029.9307803984925,0.4880109114962993,1.3021230174432439,0.9796471437983694,0.28595945989242544,0.7089339360044303
0.06,1.7351612069009297,1.0,3033.952717107128,0.490882751397964,1.3017690920677978,0.9798601790467514,0.28592977068983905,0.7096154817365338
0.0605,1.7344543211250634,1.0,3037.9437060713926,0.49373848171905765,1.3014154563158515,0.9800684397276752,0.28590008148725266,0.7102956718555709
0.061,1.733747435349197,1.0,3041.904854747882,0.4965781954622034,1.301062100081413,0.9802720697112667,0.28587039228466626,0.7109745277250294
0.0615,1.7330405495733308,1.0,3045.837274183366,0.49940198563002447,1.3007090132584906,0.9804712074154096,0.28584070308207987,0.7116520706157683
0.062,1.7323336637974645,1.0,3049.740579485228,0.5022099082498781,1.3003561986352548,0.980665983928722,0.2858110138794935,0.7123282970069496
0.0625,1.7316267780215981,1.0,3053.6160969641487,0.505002072173649,1.300003644291378,0.980856528686177,0.2857813246769071,0.7130032315430239
0.063,1.730919892245732,1.0,3057.4657228495566,0.5077785971722276,1.2996513334461466,0.9810429668578478,0.28575163547432075,0.7136769080482981
0.0635,1.7302130064698658,1.0,3061.2899527762056,0.51053956599776,1.2992992613858276,0.9812254169080804,0.28572194627173436,0.7143493371616647
0.064,1.7295061206939994,1.0,3065.0892841356467,0.513285061402392,1.2989474233966896,0.9814039930010781,0.28569225706914797,0.7150205294785729
0.0645,1.7287992349181331,1.0,3068.8642160517606,0.51601516613827,1.2985958147649996,0.9815788051885285,0.2856625678665616,0.7156904955511034
0.065,1.7280923491422668,1.0,3072.6152493562295,0.51872996295754,1.2982444307770262,0.9817499595877219,0.2856328786639752,0.7163592458880346
0.0655,1.7273854633664005,1.0,3076.3428865650917,0.521429534612348,1.2978932667190366,0.981917558550716,0.28560318946138885,0.7170267909549137
0.066,1.7266785775905342,1.0,3080.0476318551955,0.5241139638548399,1.2975423178772987,0.9820817008250529,0.28557350025880246,0.7176931411741216
0.0665,1.7259716918146681,1.0,3083.7299910417046,0.526783333437162,1.2971915795380804,0.9822424817065072,0.28554381105621607,0.7183583069249388
0.067,1.7252648060388018,1.0,3087.3904715558187,0.5294377261114602,1.2968410469876497,0.9823999931843194,0.2855141218536297,0.7190222985436096
0.0675,1.7245579202629355,1.0,3091.029582422984,0.5320772246298807,1.2964907155122738,0.9825543240793279,0.2854844326510433,0.7196851263234054
0.068,1.7238510344870692,1.0,3094.6478342415967,0.5347019117445694,1.296140580398221,0.9827055601753987,0.2854547434484569,0.7203468005146836
0.0685,1.723144148711203,1.0,3098.245739162308,0.5373118702076725,1.2957906369317589,0.9828537843445205,0.2854250542458705,0.7210073313249503
0.069,1.7224372629353366,1.0,3101.8238108676733,0.5399071827713359,1.2954408803991553,0.982999076665913,0.2853953650432841,0.7216667289189159
0.0695,1.7217303771594703,1.0,3105.3825645524107,0.5424879321877057,1.295091306086678,0.9831415145394722,0.2853656758406977,0.722325003418554
0.07,1.7210234913836042,1.0,3108.9225169041747,0.5450542012089281,1.2947419092805947,0.9832811727938622,0.2853359866381114,0.7229821649031558
0.07050000000000001,1.720316605607738,1.0,3112.444186084518,0.547606072587149,1.2943926852671734,0.9834181237895367,0.285306297435525,0.7236382234093846
