Time [s],Phi [rad],STIM [ ],Fsee [N],Gamma [ ],Lcerel [ ],q [ ],Lmtc [m],fisomrel [ ]
0.0,1.8,1.0,20.678253379735352,0.0016831541821864886,1.3790466799461039,0.005724047850772776,0.288653,0.5418482602737115
0.0005,1.79999375,1.0,21.44178613431902,0.007282922326936924,1.3789648434643202,0.018228892664029772,0.2886527375,0.5420460695729058
0.001,1.799975,1.0,26.04511219536638,0.01285128019995425,1.3785072177012672,0.044848770429194676,0.28865195,0.5431514226659616
0.0015,1.79994375,1.0,38.47508694491582,0.018388403988632042,1.377448941890036,0.08290324720740905,0.2886506375,0.5457024753383044
0.002,1.7999,1.0,66.68182017741704,0.023894468890683612,1.3755647284101364,0.1290652487387785,0.2886488,0.5502268328259581
0.0025,1.79984375,1.0,116.76115733384601,0.02936964912243617,1.3730322102517316,0.1800430078908964,0.28864643749999996,0.556272226131084
0.003,1.7997750000000001,1.0,185.06726318480767,0.03481411792197459,1.3703433935679534,0.23314555678768015,0.28864354999999997,0.5626459529354974
0.0035,1.79969375,1.0,264.1557133138217,0.04022804755574542,1.3677908368181417,0.28632690594287463,0.2886401375,0.5686540189815403
0.004,1.7996,1.0,349.1868423099678,0.04561160932167582,1.3654370733694572,0.33808466831793826,0.2886362,0.574157351425912
0.0045000000000000005,1.7994937500000001,1.0,437.6782634478177,0.05096497357334716,1.363267099807954,0.3874014238099997,0.2886317375,0.5791996626183611
0.005,1.799375,1.0,528.1743546502652,0.056288309671655976,1.3612557312051146,0.4336671458594705,0.28862675,0.583846609283986
0.0055,1.79924375,1.0,619.6448831995652,0.06158178608510395,1.3593818090172338,0.47658394204451604,0.2886212375,0.5881527912866724
0.006,1.7991000000000001,1.0,711.2522875709019,0.066845570232034,1.3576294884439182,0.5160761676753148,0.2886152,0.5921592761331039
0.006500000000000001,1.79894375,1.0,802.3300998065064,0.0720798287932649,1.3559859962080179,0.5522154833979791,0.2886086375,0.59589914063707
0.007,1.798775,1.0,892.2974017792707,0.07728472717158417,1.3544415260221678,0.5851650524347727,0.28860155,0.5993979739511381
0.0075,1.79859375,1.0,980.7136904850361,0.0824604303420495,1.3529872558743183,0.6151382648282018,0.2885939375,0.602678562469128
0.008,1.7984,1.0,1067.195004609509,0.08760710186500681,1.3516160479105073,0.6423717353662662,0.2885858,0.605759422359043
0.0085,1.79819375,1.0,1151.4429149084765,0.0927249044254693,1.3503214778788495,0.6671067080443566,0.2885771375,0.6086570858953405
0.009000000000000001,1.797975,1.0,1233.2513084355407,0.09781400046279837,1.3490974407018577,0.6895776433394408,0.28856795,0.6113870436715976
0.0095,1.79774375,1.0,1312.4446709731128,0.10287455069353198,1.3479387628970896,0.7100060691158835,0.2885582375,0.613962427530749
0.01,1.7975,1.0,1388.9012736124766,0.10790671500952717,1.3468406507992272,0.7285969126214977,0.288548,0.6163952900292364
0.0105,1.79724375,1.0,1462.5531651452811,0.11291065268118866,1.345798544737695,0.7455371354979754,0.2885372375,0.6186969593663659
0.011,1.796975,1.0,1533.375211817161,0.11788652285100018,1.3448081423496832,0.7609957425883771,0.28852595000000003,0.6208780132951551
0.0115,1.79669375,1.0,1601.334413209445,0.12283448212939425,1.34386590119436,0.775124752732548,0.2885141375,0.6229472002416796
0.012,1.7964,1.0,1666.4388636219867,0.12775468693539974,1.3429683328852875,0.7880600168346238,0.28850180000000003,0.6249130186157099
0.0125,1.79609375,1.0,1728.7178313484628,0.13264729293782881,1.3421121790218438,0.7999226662329683,0.2884889375,0.6267833449136668
0.013000000000000001,1.7957750000000001,1.0,1788.2403006351672,0.13751245617933444,1.341294141470554,0.8108204199807593,0.28847555,0.6285660363452727
0.0135,1.79544375,1.0,1845.0460507229027,0.1423503297905078,1.3405116111237558,0.8208492597849468,0.2884616375,0.6302673555162759
0.014,1.7951000000000001,1.0,1899.1861354024063,0.1471610662594979,1.339762143706182,0.8300945076343885,0.2884472,0.6318931304342468
0.0145,1.79474375,1.0,1950.7348884427258,0.15194481807445362,1.3390432949425648,0.8386319737808764,0.2884322375,0.63344912039059
0.015,1.794375,1.0,1999.7716394643937,0.15670173657542139,1.3383527931494654,0.8465291164090204,0.28841675,0.6349406484947546
0.0155,1.79399375,1.0,2046.3940587890982,0.161431973538131,1.3376883693194197,0.8538459656905073,0.2884007375,0.6363729758494618
0.016,1.7936,1.0,2090.667341247573,0.1661356775162986,1.337048267560925,0.860636157089849,0.2883842,0.6377502083360305
0.0165,1.7931937500000001,1.0,2132.667876760379,0.17081299690989765,1.3364307547808707,0.8669475353706025,0.2883671375,0.6390763623647119
0.017,1.792775,1.0,2172.48351280146,0.1754640800377469,1.335834105422821,0.8728228359238455,0.28834955,0.6403554006213441
0.0175,1.7923437500000001,1.0,2210.19950835013,0.18008907374346156,1.3352567324028302,0.8783003228118216,0.2883314375,0.6415909546510751
0.018000000000000002,1.7919,1.0,2245.9180528300685,0.1846881264578285,1.3346969761585339,0.8834142579470581,0.2883128,0.6427867798161155
0.0185,1.79144375,1.0,2279.705510157994,0.18926138217307145,1.3341536236105405,0.8881954969899823,0.2882936375,0.6439456499615601
0.019,1.790975,1.0,2311.6352285616586,0.19380898488141413,1.3336254616794576,0.892671768947424,0.28827395,0.645070316706533
0.0195,1.79049375,1.0,2341.786963871332,0.19833107857508012,1.3331112772858935,0.8968680338545872,0.2882537375,0.6461635106663284
0.02,1.79,1.0,2370.239467407911,0.20282780621506444,1.3326099243424914,0.9008068109851676,0.288233,0.6472278004747518
0.0205,1.78949375,1.0,2397.0764719511085,0.20729931144613048,1.3321202588517154,0.9045084380156092,0.2882117375,0.6482657323350434
0.021,1.788975,1.0,2422.374697972482,0.21174573663262933,1.3316412501851471,0.90799133503725,0.28818995000000003,0.6492795955855634
0.021500000000000002,1.78844375,1.0,2446.193674992546,0.2161672208803871,1.3311720719621627,0.9112722307548315,0.2881676375,0.6502712332662249
0.022,1.7879,1.0,2468.5962639422114,0.22056390329522982,1.3307118978021388,0.9143663034848039,0.2881448,0.651242476569221
0.0225,1.78734375,1.0,2489.648381188199,0.22493592298298365,1.3302599013244516,0.9172873462882027,0.28812143749999997,0.6521951453353427
0.023,1.786775,1.0,2509.4187376981804,0.22928341904947466,1.3298152561484777,0.9200479125854734,0.28809755,0.6531310485067412
0.0235,1.78619375,1.0,2527.9647953199947,0.23360652747456764,1.3293772662157637,0.9226594672869871,0.28807313749999996,0.6540517107787944
0.024,1.7856,1.0,2545.3625163463807,0.23790538946805853,1.3289450813660184,0.9251324504151752,0.2880482,0.6549589714448454
0.0245,1.78499375,1.0,2561.659704880819,0.24218013930812068,1.328518135844176,0.9274764522497708,0.2880227375,0.6558540638439654
0.025,1.784375,1.0,2576.9038694283595,0.2464309108191532,1.3280958814830481,0.9297002539230211,0.28799675,0.6567381777865486
0.025500000000000002,1.78374375,1.0,2591.143949234537,0.250657837825555,1.3276777701154454,0.931811904152173,0.2879702375,0.6576124967224788
0.026000000000000002,1.7831000000000001,1.0,2604.430191991429,0.2548610541517253,1.3272632535741793,0.9338187902614021,0.2879432,0.6584781978955434
0.0265,1.78244375,1.0,2616.8140382067454,0.2590406936220629,1.3268517836920608,0.9357277014501251,0.2879156375,0.6593364524786935
0.027,1.781775,1.0,2628.3372053877224,0.26319688628409676,1.326442912404513,0.9375448990064233,0.28788755,0.6601882172859039
0.0275,1.7810937500000001,1.0,2639.056754124689,0.26732976891596827,1.3260360580735573,0.9392761344382875,0.2878589375,0.6610347220531122
0.028,1.7804,1.0,2649.0113762748706,0.27143947161304616,1.3256308170565416,0.9409267368604923,0.2878298,0.6618768207368914
0.0285,1.77969375,1.0,2658.235023007632,0.2755261224626021,1.3252268357576227,0.9425016342490291,0.2878001375,0.6627152592572843
0.029,1.778975,1.0,2666.7622403645596,0.27958984955190797,1.3248237605809574,0.9440053829572802,0.28776995,0.6635507798534594
0.029500000000000002,1.7782437500000001,1.0,2674.628116512671,0.2836307809682355,1.3244212379307028,0.9454422005270343,0.2877392375,0.6643841211081325
0.03,1.7775,1.0,2681.8682317704415,0.28764904479885656,1.324018914211015,0.9468159952111698,0.287708,0.6652160179640143
0.0305,1.77674375,1.0,2688.5186114049598,0.29164476913104287,1.3236164358260516,0.9481303925733435,0.2876762375,0.66604720173228
0.031,1.775975,1.0,2694.6032792154315,0.2956180770614064,1.3232135626368218,0.9493887722650619,0.28764395,0.6668781662232567
0.0315,1.7751937500000001,1.0,2700.162022966029,0.29956909974435575,1.32280991325125,0.9505942608641618,0.2876111375,0.6677096935801033
0.032,1.7744,1.0,2705.2307428675967,0.30349796507429394,1.3224051448592824,0.9517497714692741,0.2875778,0.6685424826794168
0.0325,1.77359375,1.0,2709.831488516257,0.307404794647856,1.3219990435959594,0.9528580309488436,0.2875439375,0.6693769640410951
0.033,1.772775,1.0,2713.986517026816,0.31128971006167705,1.3215913955963217,0.9539215815257442,0.28750955,0.6702135659388079
0.0335,1.7719437500000002,1.0,2717.7182730927657,0.31515283291239227,1.3211819869954093,0.9549427954939287,0.2874746375,0.6710527143803594
0.034,1.7711000000000001,1.0,2721.049370059206,0.31899428479663666,1.3207706039282632,0.9559238885956526,0.2874392,0.6718948330851318
0.0345,1.7702437500000001,1.0,2724.0025720108906,0.32281418731104544,1.3203570325299234,0.9568669321953264,0.2874032375,0.6727403434586148
0.035,1.7693750000000001,1.0,2726.6007768735753,0.32661266205225364,1.3199410589354303,0.9577738643708803,0.28736675,0.6735896645640163
0.035500000000000004,1.76849375,1.0,2728.8670005299086,0.33038983061689636,1.3195224692798249,0.9586465000302107,0.2873297375,0.6744432130909547
0.036000000000000004,1.7676,1.0,2730.814549145285,0.3341458094344692,1.3191011388712772,0.959486548129579,0.2872922,0.6753012218464727
0.0365,1.76669375,1.0,2732.4675101734806,0.3378807225842858,1.3186768457757194,0.9602956034866255,0.2872541375,0.6761641197909387
0.037,1.765775,1.0,2733.847247079519,0.3415946900648556,1.3182493935275619,0.9610751648115847,0.28721555,0.6770322816305454
0.0375,1.76484375,1.0,2734.967088128257,0.3452878268892592,1.3178186592170718,0.9618266461712907,0.2871764375,0.6779059306551748
0.038,1.7639,1.0,2735.840411134625,0.34896024807057724,1.3173845199345167,0.9625513769883286,0.28713679999999997,0.6787852886031136
0.0385,1.76294375,1.0,2736.48063719166,0.35261206862189026,1.3169468527701642,0.9632506080316696,0.28709663750000003,0.6796705756348465
0.039,1.761975,1.0,2736.901224732989,0.356243403556279,1.3165055348142816,0.9639255169206935,0.28705595,0.6805620103058853
0.0395,1.7609937500000001,1.0,2737.1156639306714,0.359854367886824,1.3160604431571363,0.9645772131869509,0.2870147375,0.6814598095386308
0.04,1.76,1.0,2737.137471427896,0.36344507662660586,1.3156114548889961,0.9652067429335468,0.286973,0.6823641885932754
0.0405,1.7589937500000001,1.0,2736.980185406313,0.3670156447887053,1.3151584471001283,0.965815093128065,0.2869307375,0.6832753610377411
0.041,1.757975,1.0,2736.651123867904,0.3705661814849874,1.31470135349972,0.9664031994134226,0.28688795,0.6841934250811359
0.0415,1.75694375,1.0,2736.167377188077,0.3740968059987932,1.3142400192131252,0.9669719399162159,0.2868446375,0.6851186553728786
0.042,1.7559,1.0,2735.5395893024534,0.37760763014744597,1.313774347970247,0.9675221483782775,0.28680079999999997,0.686051207129612
0.0425,1.75484375,1.0,2734.7754569620993,0.3810987627388374,1.313304270328363,0.9680546151527002,0.2867564375,0.6869911804655995
0.043000000000000003,1.753775,1.0,2733.882683243857,0.3845703125808591,1.3128297168447498,0.9685700882908534,0.28671155,0.6879386742947502
0.043500000000000004,1.75269375,1.0,2732.868975696739,0.3880223884814028,1.3123506180766848,0.9690692762275547,0.28666613750000003,0.688893786310947
0.044,1.7516,1.0,2731.742044594817,0.3914550992483599,1.3118669045814446,0.9695528502699268,0.2866202,0.6898566129680743
0.0445,1.75049375,1.0,2730.5096012975796,0.3948685536896223,1.3113785069163064,0.9700214469061061,0.2865737375,0.6908272494597313
0.045,1.7493750000000001,1.0,2729.179356716525,0.3982628606130816,1.3108853556385471,0.9704756699484809,0.28652675,0.6918057896986418
0.0455,1.74824375,1.0,2727.759019889291,0.4016381288266293,1.3103873813054439,0.9709160925248258,0.2864792375,0.6927923262957558
0.046,1.7471,1.0,2726.2516903745477,0.40499445128616923,1.3098845563685884,0.971343259866155,0.2864312,0.6937868677431225
0.0465,1.7459437500000001,1.0,2724.670990307616,0.40833195576956643,1.309376757557149,0.971757687774368,0.28638263750000004,0.6947896105976562
0.047,1.744775,1.0,2723.022132467658,0.41165074738344937,1.3088639380168396,0.972159869076947,0.28633355,0.6958005988288579
0.0475,1.74359375,1.0,2721.309240540983,0.41495092784704385,1.3083460607757886,0.9725502728125104,0.28628393750000003,0.6968198558802732
0.048,1.7424,1.0,2719.536435496215,0.41823259887957576,1.3078230888621245,0.9729293453567162,0.2862338,0.6978474042199637
0.0485,1.74119375,1.0,2717.7078351189402,0.42149586220027097,1.3072949853039761,0.9732975117236545,0.2861831375,0.6988832653285366
0.049,1.739975,1.0,2715.8275535748276,0.42474081952835535,1.306761713129472,0.9736551767809444,0.28613195,0.6999274596870904
0.0495,1.73874375,1.0,2713.899701004199,0.4279675725830548,1.3062232353667407,0.9740027263849923,0.2860802375,0.7009800067650693
0.05,1.7375,1.0,2711.9283831464854,0.43117622308359516,1.3056795150439113,0.9743405284423359,0.286028,0.7020409250080332
0.0505,1.73624375,1.0,2709.9177009950818,0.43436687274920227,1.3051305151891122,0.9746689339025051,0.2859752375,0.7031102318253412
0.051000000000000004,1.734975,1.0,2707.8717504824494,0.437539623299102,1.304576198830472,0.9749882776873973,0.28592195,0.7041879435777448
0.051500000000000004,1.73369375,1.0,2705.7946221955535,0.4406945764525203,1.3040165289961196,0.9752988795617441,0.2858681375,0.7052740755648965
0.052000000000000005,1.7324,1.0,2703.690401121544,0.443831833928683,1.3034514687141836,0.9756010449488972,0.2858138,0.7063686420127706
0.0525,1.73109375,1.0,2701.558100329127,0.4469514802363229,1.302881027299185,0.9758950668057661,0.28575893750000003,0.7074715666523925
0.053,1.729775,1.0,2699.401348220648,0.4500536218670041,1.3023051718996,0.976181224869859,0.28570355000000003,0.7085828540904124
0.0535,1.72844375,1.0,2697.2286309710066,0.45313837822593794,1.3017238251962755,0.9764597852127598,0.2856476375,0.70970259345959
0.054,1.7271,1.0,2695.0414168384686,0.4562058425505189,1.3011369739441947,0.9767310036407176,0.2855912,0.7108307491190479
0.0545,1.7257437500000001,1.0,2692.841171871479,0.45925610807814127,1.3005446048983407,0.9769951250034382,0.2855342375,0.71196728465083
0.055,1.724375,1.0,2690.6293598695797,0.4622892680461996,1.2999467048136972,0.9772523837526718,0.28547675,0.7131121628552448
0.0555,1.72299375,1.0,2688.407442348043,0.4653054156920881,1.2993432604452473,0.9775030044678304,0.2854187375,0.7142653457462018
0.056,1.7216,1.0,2686.176878506113,0.46830464425320134,1.2987342585479742,0.9777472023508366,0.2853602,0.7154267945465309
0.0565,1.72019375,1.0,2683.939125199486,0.47128704696693363,1.2981196858768613,0.9779851836922396,0.28530113749999997,0.7165964696832957
0.057,1.718775,1.0,2681.6956369166205,0.47425271707067934,1.2974995291868918,0.97821714631049,0.28524155,0.7177743307830922
0.0575,1.71734375,1.0,2679.4478657583145,0.477201747801833,1.296873775233049,0.978443279966119,0.2851814375,0.7189603366673376
0.058,1.7159,1.0,2677.1972614222504,0.48013423239778885,1.296242410770316,0.9786637667524506,0.2851208,0.7201544453475488
0.0585,1.71444375,1.0,2674.945271190807,0.4830502640959414,1.2956054225536764,0.978878781464347,0.2850596375,0.7213566140206072
0.059000000000000004,1.7129750000000001,1.0,2672.6933399223417,0.4859499361336849,1.2949627973381135,0.9790884919463905,0.28499795,0.7225667990640147
0.059500000000000004,1.71149375,1.0,2670.442910047662,0.488833341748414,1.29431452187861,0.9792930594217967,0.2849357375,0.7237849560311389
0.06,1.71,1.0,2668.1954215687265,0.4917005741775228,1.29366058293015,0.9794926388032718,0.284873,0.725011039646443
0.0605,1.7084937500000001,1.0,2665.952312062669,0.4945517266584059,1.293000967247716,0.9796873789869318,0.2848097375,0.7262450038007104
0.061,1.7069750000000001,1.0,2663.7133801059754,0.4973868691681081,1.2923356766447878,0.9798774220937932,0.28474595,0.7274867734714098
0.0615,1.7054437500000001,1.0,2661.479507515439,0.5002061073338889,1.2916647029666735,0.9800629070980845,0.2846816375,0.7287362915923539
0.062,1.7039,1.0,2659.252327475198,0.5030095472482742,1.2909880311258048,0.980243967353088,0.2846168,0.7299935132064019
0.0625,1.70234375,1.0,2657.0323021516638,0.5057972734139446,1.2903056567977613,0.9804207300935804,0.2845514375,0.7312583725485344
0.063,1.7007750000000001,1.0,2654.8198929479577,0.508569370333581,1.2896175756581223,0.9805933178110552,0.28448555,0.7325308031566066
0.0635,1.69919375,1.0,2652.6155605097065,0.5113259225098641,1.2889237833824672,0.9807618484639724,0.28441913750000003,0.7338107378697742
0.064,1.6976,1.0,2650.4197647304213,0.5140670144454744,1.2882242756463755,0.9809264356771826,0.2843522,0.7350981088269202
0.0645,1.69599375,1.0,2648.2329647590627,0.516792730643093,1.2875190481254264,0.9810871889311564,0.2842847375,0.7363928474650789
0.065,1.694375,1.0,2646.0556190062125,0.5195031556054004,1.2868080964951998,0.9812442137416127,0.28421675,0.7376948845178577
0.0655,1.69274375,1.0,2643.888185151696,0.5221983738350774,1.2860914164312744,0.9813976118300944,0.2841482375,0.739004150013862
0.066,1.6911,1.0,2641.731120152389,0.5248784698348047,1.2853690036092302,0.9815474812860137,0.2840792,0.7403205732751121
0.0665,1.6894437500000001,1.0,2639.5848802505716,0.527543528107263,1.2846408537046465,0.9816939167206482,0.2840096375,0.7416440829154656
0.067,1.687775,1.0,2637.4499209818896,0.5301936331551331,1.2839069623931025,0.9818370094135416,0.28393955,0.7429746068390353
0.0675,1.68609375,1.0,2635.326697185309,0.5328288694810959,1.2831673253501779,0.9819768474517351,0.2838689375,0.744312072238605
0.068,1.6844000000000001,1.0,2633.215663011779,0.5354493215878318,1.282421938251452,0.9821135158622266,0.2837978,0.7456564055940469
0.0685,1.68269375,1.0,2631.117271934434,0.5380550739780218,1.2816707967725038,0.982247096738035,0.2837261375,0.7470075326707362
0.069,1.680975,1.0,2629.0319767588608,0.5406462111543464,1.2809138965889135,0.9823776693582125,0.28365395,0.748365378517963
0.0695,1.67924375,1.0,2626.9602296336475,0.5432228176194865,1.28015123337626,0.9825053103021452,0.28358123749999997,0.749729867467348
0.07,1.6775,1.0,2624.8997771306813,0.5457849335112128,1.2793828278820123,0.9826300919578007,0.283508,0.751100878458705
0.07050000000000001,1.67574375,1.0,2622.851331419496,0.5483326786193634,1.2786086733881468,0.982752087962418,0.2834342375,0.7524783390079622
0.07100000000000001,1.673975,1.0,2620.81591884667,0.5508661546197058,1.2778287602524165,0.9828713682288934,0.28335995,0.7538621810478484
0.07150000000000001,1.67219375,1.0,2618.7933358228024,0.5533854369162043,1.2770430902318581,0.982987999273038,0.2832851375,0.7552523155445872
0.07200000000000001,1.6704,1.0,2616.7833791349376,0.5558906009128237,1.2762516650835074,0.9831020454259887,0.2832098,0.7566486528654007
0.0725,1.66859375,1.0,2614.7858459418912,0.5583817220135282,1.2754544865644009,0.9832135689189433,0.2831339375,0.7580511027791528
0.073,1.6667750000000001,1.0,2612.8005337703835,0.5608588756222825,1.2746515564315744,0.9833226299640617,0.28305755,0.7594595744569954
0.0735,1.66494375,1.0,2610.827240510636,0.5633221371430511,1.2738428764420646,0.9834292868317298,0.2829806375,0.7608739764730106
0.074,1.6631,1.0,2608.865764412323,0.5657715819797984,1.2730284483529073,0.9835335959243743,0.2829032,0.7622942168048592
0.0745,1.6612437500000001,1.0,2606.9159040804616,0.568207285536489,1.272208273921139,0.9836356118470009,0.2828252375,0.76372020283442
0.075,1.659375,1.0,2604.977458471661,0.5706293232170874,1.271382354903796,0.9837353874746233,0.28274675,0.7651518413484379
0.0755,1.65749375,1.0,2603.0502268899927,0.5730377704255579,1.270550693057914,0.9838329740167354,0.2826677375,0.7665890385391658
