Time [s],Phi [rad],STIM [ ],Fsee [N],Gamma [ ],Lcerel [ ],q [ ],Lmtc [m],fisomrel [ ]
0.0,1.8,1.0,19.06897429726986,0.0010707106009821444,1.3792181425307974,0.005294300479781783,0.288653,0.5414336746667469
0.0005,1.79999375,1.0,19.68815379993344,0.006673914070045667,1.37914852294218,0.01614541355616194,0.2886527375,0.5416020330062602
0.001,1.799975,1.0,23.818809144014338,0.012245687999242005,1.378719005891709,0.041347699802439776,0.28865195,0.5426400337257518
0.0015,1.79994375,1.0,35.077159515767306,0.01778620867983648,1.3777150967840808,0.07831768633732786,0.2886506375,0.5450615614202567
0.002,1.7999,1.0,61.116025093290325,0.023295651421429392,1.375895456333691,0.12376614185988283,0.2886488,0.5494343300627751
0.0025,1.79984375,1.0,108.86155966975087,0.028774190545571208,1.373385460532237,0.17436137494286047,0.28864643749999996,0.5554314345125295
0.003,1.7997750000000001,1.0,175.6644420408631,0.03422199939710499,1.3706759040093939,0.227339247208492,0.28864354999999997,0.5618602493202125
0.0035,1.79969375,1.0,253.99191587203723,0.03963925034732415,1.3680907202764707,0.2805910223030717,0.2886401375,0.5679503241273884
0.004,1.7996,1.0,338.636731919807,0.045026114801154093,1.365707241193185,0.3325585815601557,0.2886362,0.5735274672795588
0.0045000000000000005,1.7994937500000001,1.0,426.92925617040686,0.05038276321290994,1.3635126100529742,0.3821749680281134,0.2886317375,0.5786306834581452
0.005,1.799375,1.0,517.3438290035399,0.05570936505358717,1.361480684283907,0.4287902683223264,0.28862675,0.5833281724797144
0.0055,1.79924375,1.0,608.8184232709398,0.061006088884074224,1.3595892583158375,0.4720771670832128,0.2886212375,0.5876771852801845
0.006,1.7991000000000001,1.0,700.5023880194377,0.06627310224515066,1.357821633985745,0.5119396810790922,0.2886152,0.5917209127926389
0.006500000000000001,1.79894375,1.0,791.7150729295361,0.0715105718902366,1.356164552668837,0.5484364227681512,0.2886086375,0.5954936588718341
0.007,1.798775,1.0,881.8642998310761,0.07671866334807785,1.354607875370694,0.5817228233395005,0.28860155,0.5990218581794717
0.0075,1.79859375,1.0,970.5019336347644,0.0818975417063995,1.3531425130550774,0.6120082507172752,0.2885939375,0.6023289715342619
0.008,1.7984,1.0,1057.2341579011652,0.08704737056419896,1.3517611850965914,0.6395278409683356,0.2885858,0.6054338924089336
0.0085,1.79819375,1.0,1141.755231325708,0.09216831280736759,1.3504573412852878,0.66452295034772,0.2885771375,0.6083534819491305
0.009000000000000001,1.797975,1.0,1223.856786557958,0.09726053090999331,1.349224722329483,0.6872290914848165,0.28856795,0.6111036138835952
0.0095,1.79774375,1.0,1303.3556445102176,0.10232418557681006,1.3480581117104362,0.7078694402190004,0.2885582375,0.6136975474252727
0.01,1.7975,1.0,1380.126213218163,0.10735943692111063,1.3469526434184615,0.7266508035583396,0.288548,0.6161475230387177
0.0105,1.79724375,1.0,1454.1035808432023,0.1123664447317658,1.3459036187978861,0.743762059587756,0.2885372375,0.6184651993065264
0.011,1.796975,1.0,1525.2386632629764,0.11734536733163013,1.3449069477434543,0.7593742564818222,0.28852595000000003,0.6206607059894582
0.0115,1.79669375,1.0,1593.5073575572246,0.12229636182712961,1.3439588998020215,0.7736411537887512,0.2885141375,0.6227432246396138
0.012,1.7964,1.0,1658.9181271285802,0.12721958470751352,1.3430559207397912,0.7867002676778372,0.28850180000000003,0.624721413409994
0.0125,1.79609375,1.0,1721.521967502938,0.13211519299825059,1.3421944526991845,0.7986741505098581,0.2884889375,0.6266038155035256
0.013000000000000001,1.7957750000000001,1.0,1781.3498713837914,0.13698334105854199,1.3413715947261953,0.8096720793789599,0.28847555,0.628397430848515
0.0135,1.79544375,1.0,1838.44051444602,0.14182418218309573,1.3405847050157873,0.8197912583155893,0.2884616375,0.6301086055781542
0.014,1.7951000000000001,1.0,1892.8595247029625,0.1466378696666198,1.339831141762924,0.8291180358643297,0.2884472,0.6317436067860569
0.0145,1.79474375,1.0,1944.6781308255213,0.15142455587494286,1.339108467677395,0.8377292047247047,0.2884322375,0.6333081860634221
0.015,1.794375,1.0,1993.9949069423417,0.15618439355455185,1.3384141825526241,0.8456930132226167,0.28841675,0.6348081666047168
0.0155,1.79399375,1.0,2040.8763387023694,0.16091753241931697,1.3377463315986706,0.8530703634775789,0.2884007375,0.6362481361340588
0.016,1.7936,1.0,2085.3936906834824,0.16562412160027504,1.3371030738495693,0.8599155352372662,0.2883842,0.6376323903098592
0.0165,1.7931937500000001,1.0,2127.632162705566,0.17030431022846296,1.3364825683393542,0.8662769350948668,0.2883671375,0.638965182409923
0.017,1.792775,1.0,2167.6734664739483,0.17495824629021947,1.335883139610267,0.8721978393531933,0.28834955,0.6402503715738197
0.0175,1.7923437500000001,1.0,2205.622646271441,0.17958607863408688,1.3353029880192158,0.8777169180380312,0.2883314375,0.6414920479125819
0.018000000000000002,1.7919,1.0,2241.552405933632,0.18418795266974855,1.3347407435065206,0.8828689231475033,0.2883128,0.6426933502445848
0.0185,1.79144375,1.0,2275.536650855862,0.18876401328391196,1.334195106015295,0.8876850481935611,0.2882936375,0.6438572420772504
0.019,1.790975,1.0,2307.656627348671,0.19331440536328467,1.3336647754886517,0.8921933215460868,0.28827395,0.6449866632592719
0.0195,1.79049375,1.0,2337.992346952003,0.19783927273823448,1.3331485299780743,0.8964189869331056,0.2882537375,0.6460843653490056
0.02,1.79,1.0,2366.6320162566562,0.2023387602601949,1.332645125509798,0.9003847963666086,0.288233,0.6471531265132997
0.0205,1.78949375,1.0,2393.647786215515,0.20681301003706237,1.332153527066523,0.9041113388724434,0.2882117375,0.6481952629377187
0.021,1.788975,1.0,2419.104107553904,0.21126216245799426,1.3316728176382029,0.9076172586789276,0.28818995000000003,0.6492128253824472
0.021500000000000002,1.78844375,1.0,2443.0693226205417,0.21568635791214785,1.3312020802147915,0.9109194430176596,0.2881676375,0.6502078509610805
0.022,1.7879,1.0,2465.6153385454613,0.22008573678868049,1.3307403977862418,0.914033211945862,0.2881448,0.6511823637506332
0.0225,1.78734375,1.0,2486.8065605687852,0.22446043728707857,1.3302869557935835,0.9169725045013484,0.28812143749999997,0.6521381595427533
0.023,1.786775,1.0,2506.719779579721,0.22881060115149773,1.3298408487112165,0.9197499894862845,0.28809755,0.6530772146730369
0.0235,1.78619375,1.0,2525.411779551302,0.23313636538237634,1.3294013855355447,0.9223772503238719,0.28807313749999996,0.6540010433905086
0.024,1.7856,1.0,2542.9340805957063,0.23743786531735717,1.32896794487038,0.9248648702370118,0.2880482,0.6549110052543325
0.0245,1.78499375,1.0,2559.340052253263,0.2417152362940829,1.328539905319535,0.9272225215594876,0.2880227375,0.6558084522086447
0.025,1.784375,1.0,2574.6847570240902,0.24596861365019634,1.3281166454868223,0.9294590566238776,0.28799675,0.6566947288089127
0.025500000000000002,1.78374375,1.0,2589.024802461013,0.25019813272334024,1.3276975439760543,0.9315825884745114,0.2879702375,0.6575711724236669
0.026000000000000002,1.7831000000000001,1.0,2602.406468728412,0.2544039254385498,1.3272820886134957,0.9336005788226963,0.2879432,0.658438885436186
0.0265,1.78244375,1.0,2614.890982681606,0.25858612965381633,1.3268696392153538,0.935519866610864,0.2879156375,0.6592992313750778
0.027,1.781775,1.0,2626.5212550184824,0.2627448771561439,1.3264597362722665,0.9373467697091659,0.28788755,0.6601531906665886
0.0275,1.7810937500000001,1.0,2637.3345550115764,0.26688029763282306,1.326051980793067,0.9390871163909741,0.2878589375,0.6610016129493541
0.028,1.7804,1.0,2647.3689241656066,0.27099252077114405,1.3256459737865884,0.9407462821326206,0.2878298,0.6618453436115579
0.0285,1.77969375,1.0,2656.663109047146,0.2750816762583975,1.3252413162616636,0.9423292307242742,0.2878001375,0.662685223840499
0.029,1.778975,1.0,2665.2564976432873,0.27914789378187377,1.3248376092271257,0.9438405511528034,0.28776995,0.6635220906620064
0.029500000000000002,1.7782437500000001,1.0,2673.189059250259,0.28319130302886336,1.3244344536918078,0.9452844907374961,0.2877392375,0.664356776969701
0.03,1.7775,1.0,2680.49284770267,0.28721202904118914,1.324031528080747,0.9466649936290327,0.287708,0.665189951561403
0.0305,1.77674375,1.0,2687.209962049138,0.2912102051599378,1.3236284227295367,0.9479857095928169,0.2876762375,0.6660224617397713
0.031,1.775975,1.0,2693.3703318523826,0.29518595764784933,1.3232248432883824,0.9492500399689703,0.28764395,0.6668549128864816
0.0315,1.7751937500000001,1.0,2698.999858893243,0.2991394101145893,1.3228205352598672,0.9504611503330667,0.2876111375,0.667687825301444
0.032,1.7744,1.0,2704.124727632616,0.30307068616982297,1.322415244146574,0.9516219859322819,0.2875778,0.6685217166514832
0.0325,1.77359375,1.0,2708.771378187575,0.30697990942321585,1.3220087154510851,0.9527352897144233,0.2875439375,0.669357101956448
0.033,1.772775,1.0,2712.9664807427303,0.3108672034844333,1.3216006946759837,0.9538036186744594,0.28750955,0.6701944935711885
0.0335,1.7719437500000002,1.0,2716.7369113984664,0.31473269196314085,1.3211909273238527,0.9548293586935255,0.2874746375,0.6710344011634043
0.034,1.7711000000000001,1.0,2720.1097294545457,0.3185764984690038,1.3207791588972746,0.9558147380254554,0.2874392,0.6718773316873631
0.0345,1.7702437500000001,1.0,2723.0939796046077,0.3223987361827326,1.320365300310527,0.9567618550064356,0.2874032375,0.6727234513933225
0.035,1.7693750000000001,1.0,2725.731228952763,0.32619954033729764,1.3199489676290534,0.9576726465236917,0.28736675,0.6735735271463741
0.035500000000000004,1.76849375,1.0,2728.041395580841,0.32997903074716095,1.3195299751549199,0.9585489434161376,0.2873297375,0.6744279176578326
0.036000000000000004,1.7676,1.0,2730.039478654867,0.3337373240067095,1.3191081827731173,0.9593924653747693,0.2872922,0.6752868867577768
0.0365,1.76669375,1.0,2731.7405555691266,0.33747453671033023,1.3186834503686367,0.9602048252657799,0.2872541375,0.6761506966235354
0.037,1.765775,1.0,2733.1597733246567,0.34119078545241,1.3182556378264694,0.9609875369669032,0.28721555,0.6770196077540407
0.0375,1.76484375,1.0,2734.3123403434306,0.3448861868273358,1.3178246050316063,0.9617420225449242,0.2871764375,0.6778938789429321
0.038,1.7639,1.0,2735.213518717334,0.3485608574294945,1.3173902118690388,0.9624696188364172,0.28713679999999997,0.678773767250404
0.0385,1.76294375,1.0,2735.878616892968,0.35221491385327297,1.3169523182237581,0.9631715834873218,0.28709663750000003,0.679659527973806
0.039,1.761975,1.0,2736.3229827910136,0.35584847269305825,1.3165107839807553,0.9638491005012698,0.28705595,0.6805514146169888
0.0395,1.7609937500000001,1.0,2736.5619973618154,0.35946165054323714,1.3160654690250215,0.964503285341485,0.2870147375,0.6814496788583966
0.04,1.76,1.0,2736.607170769658,0.36305455826119826,1.3156162686250787,0.9651351917274537,0.286973,0.6823544992958614
0.0405,1.7589937500000001,1.0,2736.471701381609,0.36662731256099995,1.3151630629219604,0.9657458134864072,0.2869307375,0.6832660834491341
0.041,1.757975,1.0,2736.1705846386603,0.3701800332035398,1.3147057159006146,0.9663360879381776,0.28688795,0.6841846695774287
0.0415,1.75694375,1.0,2735.7123128217695,0.37371282954423274,1.314244150705312,0.9669069037373504,0.2868446375,0.6851103754703354
0.042,1.7559,1.0,2735.105389419863,0.3772258109384934,1.3137782904803235,0.9674591008879967,0.28680079999999997,0.6860433176761663
0.0425,1.75484375,1.0,2734.3583267636836,0.38071908674173666,1.3133080583699195,0.9679934739006634,0.2867564375,0.6869836114810941
0.043000000000000003,1.753775,1.0,2733.4796437901505,0.3841927663093773,1.312833377518371,0.9685107747135759,0.28671155,0.6879313708879096
0.043500000000000004,1.75269375,1.0,2732.47786393905,0.3876469589968302,1.3123541710699487,0.9690117153978653,0.28666613750000003,0.6888867085944045
0.044,1.7516,1.0,2731.3615131788597,0.39108177415951006,1.3118703621689234,0.9694969706647915,0.2866202,0.6898497359713793
0.0445,1.75049375,1.0,2730.1391181653034,0.3944973211528317,1.3113818739595655,0.9699671801912793,0.2865737375,0.690820563040272
0.045,1.7493750000000001,1.0,2728.8192045295564,0.39789370933220997,1.3108886295861462,0.9704229507785983,0.28652675,0.6917992984504082
0.0455,1.7482437971649336,1.0,2727.4129167063684,0.40127104798403673,1.310390549656496,0.9708648581568996,0.28647923948092724,0.692786054476844
0.046,1.747107383039393,1.0,2726.2804276929733,0.40462944261580136,1.3098876292781974,0.9712934540770825,0.2864315100876545,0.6937807947077121
0.0465,1.7459709689138523,1.0,2725.629647379112,0.4079690013168692,1.3093803291878916,0.9717092972304341,0.2863837806943818,0.6947825634935965
0.047,1.7448345547883115,1.0,2725.4279325482053,0.41128982823161686,1.3088689447522435,0.9721129060759583,0.28633605130110906,0.69579073650394
0.0475,1.7436981406627707,1.0,2725.642761291824,0.41459202750442115,1.3083537713379183,0.972504773645693,0.2862883219078364,0.6968046929262844
0.048,1.7425617265372302,1.0,2726.241707229084,0.4178757032796587,1.307835104311581,0.9728853690372486,0.2862405925145637,0.6978238155404275
0.0485,1.7414253124116894,1.0,2727.1924156613622,0.4211409597017062,1.3073132390398967,0.9732551388055946,0.28619286312129094,0.698847490787013
0.049,1.7402888982861486,1.0,2728.463935289623,0.4243879004223014,1.3067884585832146,0.9736145073583794,0.28614513372801825,0.6998751329085946
0.0495,1.7391524841606079,1.0,2730.029438019068,0.4276166282557467,1.3062610088119782,0.973963876501658,0.2860974043347455,0.7009062324026449
0.05,1.738016070035067,1.0,2731.8604650840957,0.4308272471512516,1.305731150588738,0.9743036304534645,0.2860496749414728,0.7019402536979799
0.0505,1.7368796559095265,1.0,2733.9383494012814,0.4340198573186831,1.3051990558730244,0.974634129399746,0.28600194554820013,0.702976837672878
0.051000000000000004,1.7357432417839858,1.0,2736.2444301421506,0.43719455896790804,1.3046648966243688,0.9749557170911914,0.2859542161549274,0.7040156274389754
0.051500000000000004,1.734606827658445,1.0,2738.7600445345247,0.44035145230879347,1.3041288448023016,0.9752687217429575,0.2859064867616547,0.7050562683648518
0.052000000000000005,1.7334704135329042,1.0,2741.466520318427,0.44349063755120616,1.3035910723663537,0.9755734568776004,0.28585875736838195,0.7060984080977275
0.0525,1.7323339994073637,1.0,2744.346627204611,0.4466122140637442,1.303051738056147,0.9758702211938304,0.28581102797510927,0.7071417221337641
0.053,1.7311975852818229,1.0,2747.3840853644633,0.4497162814588485,1.3025109918245235,0.9761592997511099,0.2857632985818366,0.7081859050553033
0.0535,1.730061171156282,1.0,2750.5639396788292,0.4528029388622742,1.3019689714269556,0.9764409644065901,0.28571556918856383,0.7092306769622019
0.054,1.7289247570307413,1.0,2753.8755428840964,0.4558722826980217,1.301425775422536,0.9767154726449468,0.28566783979529115,0.7102758351751368
0.0545,1.7277883429052008,1.0,2757.3082312423317,0.4589244093900916,1.3008815023703575,0.9769830709654435,0.2856201104020184,0.71132117835254
0.055,1.72665192877966,1.0,2760.8513220804875,0.4619594153624843,1.3003362508295127,0.9772439954452627,0.2855723810087457,0.7123665064976787
0.0555,1.7255155146541192,1.0,2764.4941115440247,0.4649773970392004,1.2997901193590942,0.9774984722694587,0.285524651615473,0.7134116209651151
0.056,1.7243791005285785,1.0,2768.2309164544517,0.46797844468234406,1.2992431609929975,0.9777467150016348,0.2854769222222003,0.7144564113485936
0.0565,1.7232426864030377,1.0,2772.048464142461,0.4709626591287757,1.2986954971188969,0.9779889333415246,0.2854291928289276,0.7155006377579562
0.057,1.7221062722774971,1.0,2775.934591773246,0.4739301407598904,1.2981472388205542,0.9782253277918926,0.28538146343565485,0.7165440815806106
0.0575,1.7209698581519564,1.0,2779.8845873888545,0.4768809807484627,1.2975984297857361,0.9784560861110191,0.28533373404238216,0.717586653664108
0.058,1.7198334440264156,1.0,2783.89372737035,0.47981527026726745,1.2970491137022093,0.9786813885395642,0.28528600464910947,0.7186282654615177
0.0585,1.7186970299008748,1.0,2787.9572759257144,0.4827331004890793,1.2964993342577402,0.9789014081625966,0.2852382752558367,0.7196688290328981
0.059000000000000004,1.7175606157753343,1.0,2792.0704846199296,0.4856345625866731,1.2959491351400954,0.9791163112514372,0.28519054586256404,0.7207082570466505
0.059500000000000004,1.7164242016497935,1.0,2796.228591946887,0.48851974773282353,1.2953985600370415,0.979326257586591,0.2851428164692913,0.7217464627807475
0.06,1.7152877875242527,1.0,2800.4268229446666,0.4913887471003053,1.2948476526363448,0.9795314007629545,0.2850950870760186,0.7227833601238436
0.0605,1.714151373398712,1.0,2804.66038885198,0.4942416518618931,1.2942964566257726,0.9797318884784013,0.2850473576827459,0.7238188635762587
0.061,1.7130149592731714,1.0,2808.9244868076544,0.49707855319036176,1.2937450156930907,0.9799278628067701,0.28499962828947323,0.7248528882508478
0.0615,1.7118785451476306,1.0,2813.214299592237,0.499899542258486,1.2931933735260663,0.9801194604562131,0.2849518988962005,0.725885349873739
0.062,1.7107421310220898,1.0,2817.5281053379686,0.5027047000442231,1.2926415459895,0.980306810786664,0.28490416950292774,0.726916216711975
0.0625,1.709605716896549,1.0,2821.8620524857192,0.5054941199927817,1.2920895679404436,0.9804900402839192,0.28485644010965505,0.7279454218761638
0.063,1.7084693027710083,1.0,2826.209835445483,0.5082679037870204,1.291537496051736,0.9806692724934651,0.28480871071638236,0.7289728584052424
0.0635,1.7073328886454677,1.0,2830.5699986221553,0.5110261358072614,1.2909853435322816,0.9808446229586275,0.2847609813231097,0.729998500795281
0.064,1.706196474519927,1.0,2834.941081908338,0.513768900433827,1.290433123590984,0.9810162030376465,0.28471325192983693,0.7310223237282658
0.0645,1.7050600603943862,1.0,2839.321620662356,0.5164962820470392,1.289880849436748,0.9811841200864008,0.2846655225365642,0.7320443020721603
0.065,1.7039236462688454,1.0,2843.710145690781,0.5192083650272206,1.2893285342784773,0.9813484776318754,0.2846177931432915,0.7330644108809568
0.0655,1.7027872321433049,1.0,2848.105183234053,0.5219052337546933,1.2887761913250766,0.9815093755369041,0.2845700637500188,0.7340826253947155
0.066,1.701650818017764,1.0,2852.50525495671,0.5245869726097795,1.2882238337854497,0.9816669101566852,0.2845223343567461,0.7350989210395966
0.0665,1.7005144038922233,1.0,2856.9088779411136,0.5272536659728015,1.287671474868501,0.9818211744875371,0.2844746049634734,0.7361132734278744
0.067,1.6993779897666825,1.0,2861.3145646851085,0.5299053982240817,1.2871191277831349,0.9819722583083323,0.28442687557020063,0.7371256583579461
0.0675,1.6982415756411418,1.0,2865.720823103761,0.532542253743942,1.286566805738255,0.9821202483150177,0.28437914617692794,0.7381360518143277
0.068,1.6971051615156012,1.0,2870.12615653425,0.5351643169127049,1.286014521942766,0.9822652282486037,0.28433141678365526,0.7391444299676371
0.0685,1.6959687473900604,1.0,2874.5290637455373,0.5377716721106927,1.2854622896055723,0.982407279016989,0.28428368739038257,0.7401507691745676
0.069,1.6948323332645197,1.0,2878.928038951405,0.5403644037182274,1.2849101219355774,0.9825464788109483,0.2842359579971098,0.7411550459778521
0.0695,1.6936959191389789,1.0,2883.323526674062,0.5429425718808047,1.2843580148533404,0.9826829009045923,0.2841882286038371,0.742157268458761
0.07,1.6925595050134383,1.0,2887.714132974605,0.5455062717918505,1.2838059805387607,0.9828166190732859,0.2841404992105644,0.7431574152118385
0.07050000000000001,1.6914230908878976,1.0,2892.097491499674,0.5480556087218206,1.2832540397218093,0.9829477056595031,0.2840927698172917,0.7441554495576392
0.07100000000000001,1.6902866767623568,1.0,2896.4733341989586,0.550590659089162,1.2827021945552104,0.9830762280528605,0.284045040424019,0.7451513686022575
0.07150000000000001,1.689150262636816,1.0,2900.841392344466,0.5531114993123223,1.2821504471916887,0.9832022514658467,0.28399731103074627,0.7461451694819199
0.07200000000000001,1.6880138485112752,1.0,2905.2013965355045,0.5556182058097483,1.2815987997839684,0.9833258390188648,0.2839495816374735,0.7471368493629735
