Time [s],Phi [rad],STIM [ ],Fsee [N],Gamma [ ],Lcerel [ ],q [ ],Lmtc [m],fisomrel [ ]
0.0,1.8,1.0,17.967352466598843,1.007751670392755e-05,1.379339724451792,0.005000027064914865,0.288653,0.5411395837144086
0.0005,1.79999375,1.0,18.27669252566177,0.005619230298599256,1.3793023935235305,0.012940729326538426,0.2886527375,0.5412298924340588
0.001,1.799975,1.0,21.61835887969553,0.011196920168310184,1.3789383044299337,0.03560898096968731,0.28865195,0.542110208659971
0.0015,1.79994375,1.0,31.069243113360454,0.01674332360875802,1.3780462031233054,0.07060225883686812,0.2886506375,0.5442636106634329
0.002,1.7999,1.0,53.582374482593266,0.022258616111213825,1.3763681325534871,0.11471849242967358,0.2886488,0.5483004744840586
0.0025,1.79984375,1.0,97.11886132951618,0.027742972182860377,1.3739351709370944,0.16457538743340333,0.28864643749999996,0.5541214538783356
0.003,1.7997750000000001,1.0,160.95818244860612,0.033196565354510814,1.3712143431713106,0.21728096349971768,0.28864354999999997,0.560586452244555
0.0035,1.79969375,1.0,237.68340957545723,0.03861956818019897,1.3685847318295474,0.27061339454107136,0.2886401375,0.5667898452236627
0.004,1.7996,1.0,321.4669115496579,0.044012152247961865,1.3661560886825186,0.3229162912179779,0.2886362,0.572479970410458
0.0045000000000000005,1.7994937500000001,1.0,409.2679579116118,0.04937448818502417,1.363922809304628,0.37303497224869114,0.2886317375,0.5776791736856739
0.005,1.799375,1.0,499.4137551343081,0.05470674564888766,1.3618583370137958,0.42024789584005623,0.28862675,0.5824570916250326
0.0055,1.79924375,1.0,590.7907080632543,0.06000909337480218,1.3599388293540213,0.4641741016280278,0.2886212375,0.5868751247552829
0.006,1.7991000000000001,1.0,682.5184285733834,0.065281699118909,1.358146408926191,0.5046803335616618,0.2886152,0.5909794316749797
0.006500000000000001,1.79894375,1.0,773.881763409756,0.07052472971373658,1.3564672449872293,0.5418010991734106,0.2886086375,0.5948058139388224
0.007,1.798775,1.0,864.2859500133652,0.07573835105233617,1.3548903927541474,0.5756770948223854,0.28860155,0.5983826821773184
0.0075,1.79859375,1.0,953.2431808322993,0.0809227280972758,1.3534067797229956,0.6065102043678459,0.2885939375,0.6017335715746877
0.008,1.7984,1.0,1040.351157576254,0.08607802477789663,1.352008753778635,0.6345323858532422,0.2885858,0.6048783075995292
0.0085,1.79819375,1.0,1125.3171825223121,0.09120440457167375,1.3506891996664676,0.6599846538607503,0.2885771375,0.607835093231162
0.009000000000000001,1.797975,1.0,1207.8856765757628,0.09630202930745291,1.349442233231167,0.6831045253357907,0.28856795,0.6106190230689242
0.0095,1.79774375,1.0,1287.8716537862988,0.1013710602171568,1.3482623957615556,0.7041178259318874,0.2885582375,0.6132439531199669
0.01,1.7975,1.0,1365.1605250421846,0.10641165812721753,1.3471444691332657,0.7232344560408401,0.288548,0.6157229513717575
0.0105,1.79724375,1.0,1439.6586192743653,0.11142398226603047,1.3460839574003,0.7406468351923685,0.2885372375,0.6180672654022554
0.011,1.796975,1.0,1511.310494937068,0.11640819105022523,1.3450766967990098,0.7565293510447562,0.28852595000000003,0.6202872236169781
0.0115,1.79669375,1.0,1580.1040589958602,0.12136444215355936,1.3441186855945264,0.771038843311401,0.2885141375,0.622392634645075
0.012,1.7964,1.0,1646.0570344516336,0.1262928932975398,1.3432061646804037,0.7843157205597966,0.28850180000000003,0.6243926292262999
0.0125,1.79609375,1.0,1709.172796144583,0.13119369947936407,1.3423360483312474,0.7964854527928955,0.2884889375,0.6262947385616895
0.013000000000000001,1.7957750000000001,1.0,1769.4901952682708,0.13606701566370943,1.3415052574337976,0.8076596776239583,0.28847555,0.6281063748248585
0.0135,1.79544375,1.0,1827.0617144883583,0.14091299588100686,1.340710926306699,0.8179376951420173,0.2884616375,0.6298343899720381
0.014,1.7951000000000001,1.0,1881.9747956948786,0.14573179507089962,1.3399501210879643,0.8274076971969884,0.2884472,0.6314856988911939
0.0145,1.79474375,1.0,1934.285367793712,0.15052356490054922,1.3392205342123837,0.8361482604915434,0.2884322375,0.6330657817878348
0.015,1.794375,1.0,1984.054600781159,0.15528845616545814,1.3385200268303985,0.8442292852145471,0.28841675,0.6345796920750838
0.0155,1.79399375,1.0,2031.3621532332388,0.16002661966112883,1.3378464600924498,0.8517129525584145,0.2884007375,0.6360324279432421
0.016,1.7936,1.0,2076.2960283728858,0.16473820544397735,1.3371977842339196,0.8586546636710597,0.2883842,0.637428744603747
0.0165,1.7931937500000001,1.0,2118.9499089160913,0.16942336379566847,1.3365720461436466,0.8651038452711046,0.2883671375,0.6387731433503796
0.017,1.792775,1.0,2159.4022529775834,0.17408224269935804,1.3359675847303734,0.8711047099363824,0.28834955,0.6400694579414522
0.0175,1.7923437500000001,1.0,2197.7265714293367,0.17871498856778492,1.3353829019037462,0.8766968316656903,0.2883314375,0.6413211387456064
0.018000000000000002,1.7919,1.0,2234.0060288165146,0.18332174781368796,1.3348164995734104,0.8819156461058205,0.2883128,0.6425316059101036
0.0185,1.79144375,1.0,2268.328336469878,0.18790266633295816,1.3342669223974293,0.8867929445743695,0.2882936375,0.6437041600476754
0.019,1.790975,1.0,2300.7786869726306,0.1924578894896765,1.333732818598668,0.8913573109862577,0.28827395,0.6448418551983052
0.0195,1.79049375,1.0,2331.4479104099614,0.19698756314002713,1.3332128494295221,0.8956344671674626,0.2882537375,0.6459476944357737
0.02,1.79,1.0,2360.3994528981007,0.20149182898501433,1.3327060055493096,0.8996476683391852,0.288233,0.6470239600491797
0.0205,1.78949375,1.0,2387.7017312849243,0.2059708287256423,1.3322112776173483,0.9034179045610875,0.2882117375,0.6480729178056415
0.021,1.788975,1.0,2413.4277243871734,0.21042470406291525,1.3317276562929559,0.9069641521761754,0.28818995000000003,0.6490968177626995
0.021500000000000002,1.78844375,1.0,2437.654586815375,0.21485359669783746,1.3312541322354503,0.9103035946341106,0.2881676375,0.6500978950157488
0.022,1.7879,1.0,2460.4460493020924,0.21925764546096693,1.3307898611172038,0.9134518488435188,0.2881448,0.6510780222642253
0.0225,1.78734375,1.0,2481.8909996684743,0.2236369935275838,1.3303337890362623,0.9164230608368225,0.28812143749999997,0.6520395019800579
0.023,1.786775,1.0,2502.0417371504786,0.22799177751614436,1.3298852403729757,0.9192301701606914,0.28809755,0.6529838271175512
0.0235,1.78619375,1.0,2520.952886058808,0.2323221340421561,1.3294435396724424,0.9218849652014639,0.28807313749999996,0.6539124814033541
0.024,1.7856,1.0,2538.681220754757,0.23662819972112656,1.3290080114797613,0.9243982014635053,0.2880482,0.6548269399940474
0.0245,1.78499375,1.0,2555.285483612609,0.24091011116856326,1.3285779803400306,0.926779706297917,0.2880227375,0.6557286697565895
0.025,1.784375,1.0,2570.8201482868967,0.24516800369976785,1.328152827600989,0.929038480901307,0.28799675,0.6566190106424603
0.025500000000000002,1.78374375,1.0,2585.3414238589653,0.2494020130617062,1.327731933026361,0.9311827725665026,0.2879702375,0.6574992987079235
0.026000000000000002,1.7831000000000001,1.0,2598.9105077741197,0.2536122755214261,1.3273146432097291,0.9332201429172162,0.2879432,0.6583709322081879
0.0265,1.78244375,1.0,2611.5673840490167,0.25779892231371837,1.3269005142335244,0.9351575700825754,0.2879156375,0.6592348654140858
0.027,1.781775,1.0,2623.353033867705,0.26196208467337384,1.3264891021801788,0.9370014726965631,0.28788755,0.6600920476963673
0.0275,1.7810937500000001,1.0,2634.309351094898,0.2661018938351833,1.3260799631321234,0.9387577622093328,0.2878589375,0.6609434236089065
0.028,1.7804,1.0,2644.479062157914,0.27021848103393764,1.3256726531717897,0.9404318896724031,0.2878298,0.6617899329593341
0.0285,1.77969375,1.0,2653.905650298379,0.27431197750442754,1.3252667283816093,0.9420288876413964,0.2878001375,0.6626325108671058
0.029,1.778975,1.0,2662.628329280832,0.27838251118845236,1.3248617904443305,0.9435534129099343,0.28776995,0.6634719933332395
0.029500000000000002,1.7782437500000001,1.0,2670.6890498403304,0.2824302151286546,1.324457421299391,0.945009773852949,0.2877392375,0.6643092530731809
0.03,1.7775,1.0,2678.1190063954637,0.28645521593727746,1.3240533065784774,0.9464019732476568,0.287708,0.6651449441822554
0.0305,1.77674375,1.0,2684.948779561282,0.29045763947341846,1.323649141480977,0.9477337240911465,0.2876762375,0.6659796977634775
0.031,1.775975,1.0,2691.2093352282095,0.29443761159617504,1.3232446212062763,0.9490084733105723,0.28764395,0.6668141417768207
0.0315,1.7751937500000001,1.0,2696.931987782878,0.29839525816464474,1.3228394409537618,0.9502294241486245,0.2876111375,0.667648901035276
0.032,1.7744,1.0,2702.148365388906,0.30233070503792503,1.3224332959228204,0.9513995564042683,0.2875778,0.6684845971949838
0.0325,1.77359375,1.0,2706.881343005672,0.30624407260592074,1.3220259637737197,0.9525216530036613,0.2875439375,0.6693216793865018
0.033,1.772775,1.0,2711.1619978137214,0.31013548909528954,1.3216171493838307,0.9535983014562871,0.28750955,0.6701607436932996
0.0335,1.7719437500000002,1.0,2715.0249873334833,0.31400508449307135,1.321206527033537,0.9546319126645472,0.2874746375,0.6710024457622887
0.034,1.7711000000000001,1.0,2718.4888445566207,0.3178529780494733,1.3207939197366503,0.9556247517133516,0.2874392,0.6718471334821288
0.0345,1.7702437500000001,1.0,2721.5722440629493,0.32167928901470266,1.3203791505069837,0.9565789355155431,0.2874032375,0.6726951528074728
0.035,1.7693750000000001,1.0,2724.2939880048816,0.3254841366389665,1.3199620423583491,0.9574964442366376,0.28736675,0.6735468477355677
0.035500000000000004,1.76849375,1.0,2726.672992786348,0.32926764017247223,1.3195424183045592,0.9583791317121053,0.2873297375,0.6744025602808486
0.036000000000000004,1.7676,1.0,2728.728276435921,0.3330299188654269,1.3191201013594263,0.9592287349565024,0.2872922,0.6752626304475431
0.0365,1.76669375,1.0,2730.478946675169,0.3367710919680377,1.3186949145367624,0.9600468828530038,0.2872541375,0.6761273962002734
0.037,1.765775,1.0,2731.9441896805865,0.3404912787305119,1.3182666808503802,0.9608351041024017,0.28721555,0.6769971934326602
0.0375,1.76484375,1.0,2733.1432595407578,0.34419059840305677,1.3178352233140922,0.9615948345022319,0.2871764375,0.6778723559339322
0.038,1.7639,1.0,2734.0910384192102,0.3478691654006932,1.3174004051747932,0.962327426482124,0.28713679999999997,0.6787531339122357
0.0385,1.76294375,1.0,2734.8030876550506,0.3515270980245115,1.3169620839349254,0.963034152443979,0.28709663750000003,0.6796397874605526
0.039,1.761975,1.0,2735.2988699521597,0.35516451895819967,1.3165200820366123,0.9637162077128616,0.28705595,0.6805326456235211
0.0395,1.7609937500000001,1.0,2735.589024882024,0.3587815402694172,1.316074302343662,0.9643747235509906,0.2870147375,0.6814318730802529
0.04,1.76,1.0,2735.684218304574,0.36237827402582357,1.3156246477198825,0.9650107663383056,0.286973,0.6823376331367987
0.0405,1.7589937500000001,1.0,2735.5951384518103,0.36595483229507814,1.3151710210290817,0.9656253419778502,0.2869307375,0.6832500877024431
0.041,1.757975,1.0,2735.3324922194697,0.36951132714484036,1.3147133251350673,0.9662193999573718,0.28688795,0.6841693972653999
0.0415,1.75694375,1.0,2734.907001668393,0.37304787064276973,1.3142514629016473,0.9667938370972803,0.2868446375,0.6850957208679037
0.042,1.7559,1.0,2734.329400735246,0.3765645748565256,1.3137853371926298,0.9673495010121879,0.28680079999999997,0.6860292160807004
0.0425,1.75484375,1.0,2733.6104321522453,0.38006155185376744,1.3133148508718226,0.9678871933106402,0.2867564375,0.6869700389769373
0.043000000000000003,1.753775,1.0,2732.760844575658,0.38353891370215476,1.3128399068030339,0.9684076725553129,0.28671155,0.6879183441054499
0.043500000000000004,1.75269375,1.0,2731.7865427669312,0.3869967645824485,1.3123604518904417,0.9689116593095142,0.28666613750000003,0.6888741967308644
0.044,1.7516,1.0,2730.695121267121,0.3904352143865218,1.3118764177245017,0.9693998359335513,0.2866202,0.6898376915412376
0.0445,1.75049375,1.0,2729.5037433116936,0.3938543881002171,1.3113876489368725,0.9698728447465784,0.2865737375,0.6908090946733643
0.045,1.7493750000000001,1.0,2728.2176234994813,0.39725439006229907,1.310894098713887,0.9703313002750311,0.28652675,0.691788454671173
0.0455,1.74824375,1.0,2726.841976721306,0.400635324611532,1.310395720241879,0.9707757857394007,0.2864792375,0.6927758190546084
0.046,1.7471,1.0,2725.3820172883115,0.40399729608668056,1.3098924667071816,0.9712068549477677,0.2864312,0.6937712343052881
0.0465,1.7459437500000001,1.0,2723.842958107937,0.40734040882650907,1.309384291296128,0.9716250340572643,0.28638263750000004,0.6947747458520173
0.047,1.744775,1.0,2722.230009908901,0.4106647671697821,1.3088711471950514,0.9720308232138488,0.28633355,0.6957863980561636
0.0475,1.74359375,1.0,2720.5483805151375,0.41397047545526416,1.3083529875902855,0.9724246980798769,0.28628393750000003,0.6968062341968917
0.048,1.7424,1.0,2718.8032741675374,0.41725763802171967,1.3078297656681634,0.9728071112581187,0.2862338,0.6978342964562614
0.0485,1.74119375,1.0,2716.999890895126,0.42052635920791315,1.3073014346150187,0.9731784936201541,0.2861831375,0.6988706259041817
0.049,1.739975,1.0,2715.1434259339185,0.4237767433526091,1.3067679476171843,0.9735392555463812,0.28613195,0.6999152624832286
0.0495,1.73874375,1.0,2713.239069195275,0.427008894794572,1.3062292578609938,0.9738897880842845,0.2860802375,0.7009682449933196
0.05,1.7375,1.0,2711.2920047822304,0.43022291787256633,1.3056853185327806,0.9742304640310377,0.286028,0.7020296110762516
0.0505,1.73624375,1.0,2709.3035853886063,0.43341890431577146,1.3051361177175314,0.9745616398215817,0.2859752375,0.7030993292865844
0.051000000000000004,1.734975,1.0,2707.27880429519,0.4365969632676402,1.3045816102647658,0.9748836553717791,0.28592195,0.7041774320424818
0.051500000000000004,1.73369375,1.0,2705.2241419165994,0.43975720654829625,1.304021737386071,0.9751968345580971,0.2858681375,0.7052639770304685
0.052000000000000005,1.7324,1.0,2703.141829385327,0.44289973045517617,1.3034564790214127,0.9755014874684506,0.2858138,0.7063589455992567
0.0525,1.73109375,1.0,2701.034094923536,0.44602463128571634,1.3028858151107576,0.9757979103881342,0.28575893750000003,0.7074623182547575
0.053,1.729775,1.0,2698.9031637317307,0.44913200533735353,1.3023097255940712,0.9760863865308524,0.28570355000000003,0.7085740746531803
0.0535,1.72844375,1.0,2696.7512578868445,0.4522219489075241,1.3017281904113203,0.9763671867249578,0.2856476375,0.709694193594101
0.054,1.7271,1.0,2694.5805962490163,0.4552945582936646,1.3011411895024703,0.9766405700579982,0.2855912,0.7108226530135118
0.0545,1.7257437500000001,1.0,2692.393394377226,0.4583499297932116,1.3005487028074876,0.9769067844824407,0.2855342375,0.7119594299768384
0.055,1.724375,1.0,2690.191864454049,0.4613881597036016,1.2999507102663383,0.9771660673852144,0.28547675,0.7131045006719361
0.0555,1.72299375,1.0,2687.9782152191997,0.4644093443222711,1.2993471918189885,0.9774186461235183,0.2854187375,0.714257840402059
0.056,1.7216,1.0,2685.7546519119983,0.4674135799466567,1.2987381274054044,0.9776647385291553,0.2853602,0.7154194235788023
0.0565,1.72019375,1.0,2683.523376222758,0.47040096287419486,1.2981234969655522,0.9779045533834835,0.28530113749999997,0.7165892237150204
0.057,1.718775,1.0,2681.2865862535205,0.4733715894023221,1.2975032804393976,0.9781382908649241,0.28524155,0.7177672134177207
0.0575,1.71734375,1.0,2679.0464764865696,0.476325555828475,1.2968774577669069,0.9783661429708203,0.2851814375,0.718953364380926
0.058,1.7159,1.0,2676.8036251168483,0.4792629226805879,1.2962460236899715,0.9785882916340406,0.2851208,0.7201476194128853
0.0585,1.71444375,1.0,2674.561908878837,0.4821838291667089,1.2956089426528905,0.9788049165987195,0.2850596375,0.7213499777539545
0.059000000000000004,1.7129750000000001,1.0,2672.32207424725,0.48508836530993044,1.2949662077960238,0.9790161877867413,0.28499795,0.7225603834771458
0.059500000000000004,1.71149375,1.0,2670.084755499493,0.4879766189522356,1.2943178132793478,0.9792222682838095,0.2849357375,0.723778778018058
0.06,1.71,1.0,2667.8505858492963,0.49084867793560716,1.2936637532628394,0.9794233147893127,0.284873,0.7250051021032595
0.0605,1.7084937500000001,1.0,2665.6201974493574,0.49370463010202825,1.2930040219064747,0.9796194779139741,0.2848097375,0.7262392957481827
0.061,1.7069750000000001,1.0,2663.394221393638,0.4965445632934816,1.2923386133702301,0.9798109024614057,0.28474595,0.7274812982550098
0.0615,1.7054437500000001,1.0,2661.1732877216846,0.49936856535195034,1.291667521814082,0.9799977276945575,0.2846816375,0.7287310482105611
0.062,1.7039,1.0,2658.9580254231532,0.5021767241194173,1.2909907413980068,0.980180087587973,0.2846168,0.7299884834841783
0.0625,1.70234375,1.0,2656.749062442634,0.5049691274378654,1.2903082662819811,0.9803581110667174,0.2845514375,0.7312535412256069
0.063,1.7007750000000001,1.0,2654.547025686109,0.5077458631492775,1.2896200906259812,0.9805319222327681,0.28448555,0.7325261578628778
0.0635,1.69919375,1.0,2652.3525410278417,0.5105070190956367,1.2889262085899833,0.9807016405796185,0.28441913750000003,0.7338062691001832
0.064,1.6976,1.0,2650.1662333171503,0.5132526831189259,1.288226614333964,0.9808673811957908,0.2843522,0.7350938099157538
0.0645,1.69599375,1.0,2647.9887263878104,0.5159829430611279,1.2875213020179,0.981029254957904,0.2842847375,0.7363887145597308
0.065,1.694375,1.0,2645.820643066342,0.5186978867642258,1.286810265801767,0.9811873687139104,0.28421675,0.73769091655204
0.0655,1.69274375,1.0,2643.6626051819867,0.5213976020702024,1.286093499845542,0.9813418254570643,0.2841482375,0.7390003486802579
0.066,1.6911,1.0,2641.5152335774424,0.5240821768210407,1.285370998309201,0.9814927244911564,0.2840792,0.740316942997481
0.0665,1.6894437500000001,1.0,2639.3749743899966,0.5267516707912261,1.2846427939326144,0.9816401615578643,0.2840096375,0.7416405607851888
0.067,1.687775,1.0,2637.2411630321003,0.5294061695322299,1.2839088927912141,0.9817842295004837,0.28393955,0.7429711115882235
0.0675,1.68609375,1.0,2635.1206893160775,0.5320458023764933,1.2831692310848921,0.9819250174574045,0.2838689375,0.7443086306338997
0.068,1.6844000000000001,1.0,2633.013420474543,0.5346706477941261,1.2824238099030414,0.9820626111635733,0.2837978,0.7456530344382996
0.0685,1.68269375,1.0,2630.9192240159005,0.5372807842552377,1.2816726303350556,0.9821970933979663,0.2837261375,0.7470042389034792
0.069,1.680975,1.0,2628.837967721596,0.5398762902299379,1.2809156934703285,0.9823285441044148,0.28365395,0.7483621593178713
0.0695,1.67924375,1.0,2626.7695196435566,0.5424572441883363,1.2801530003982533,0.9824570405066838,0.28358123749999997,0.7497267103566846
0.07,1.6775,1.0,2624.713748101398,0.5450237246005425,1.2793845522082237,0.982582657218111,0.283508,0.7510978060823035
0.07050000000000001,1.67574375,1.0,2622.670521679692,0.5475758099366661,1.2786103499896333,0.9827054663461003,0.2834342375,0.7524753599446876
0.07100000000000001,1.673975,1.0,2620.6397092253546,0.5501135786668168,1.2778303948318754,0.9828255375917413,0.28335995,0.7538592847817737
0.07150000000000001,1.67219375,1.0,2618.621179845193,0.5526371092611042,1.2770446878243435,0.9829429383448159,0.2832851375,0.7552494928198725
0.07200000000000001,1.6704,1.0,2616.6148029031215,0.5551464801896379,1.2762532300564315,0.9830577337744342,0.2832098,0.7566458956740698
0.0725,1.66859375,1.0,2614.62044801766,0.5576417699225273,1.2754560226175327,0.9831699869155235,0.2831339375,0.7580484043486267
0.073,1.6667750000000001,1.0,2612.637985059366,0.5601230569298825,1.2746530665970406,0.9832797587513933,0.28305755,0.7594569292373775
0.0735,1.66494375,1.0,2610.667284148454,0.5625904196818129,1.2738443630843486,0.9833871082925725,0.2829806375,0.7608713801241309
0.074,1.6631,1.0,2608.708215652051,0.5650439366484281,1.2730299131688505,0.9834920926521128,0.2829032,0.7622916661830674
0.0745,1.6612437500000001,1.0,2606.760650182026,0.5674836862998378,1.2722097179399396,0.9835947671175379,0.2828252375,0.7637176959791406
0.075,1.659375,1.0,2604.824458592434,0.5699097471061515,1.2713837784870097,0.9836951852196067,0.28274675,0.7651493774684748
