Time [s],Phi [rad],STIM [ ],Fsee [N],Gamma [ ],Lcerel [ ],q [ ],Lmtc [m],fisomrel [ ]
0.0,1.8,1.0,17.966479757935367,1.5303330132234828e-05,1.3793398222250068,0.005000062207088786,0.288653,0.5411393471757022
0.0005,1.79999375,1.0,18.27766174940436,0.0056244267993491815,1.379302285862914,0.012955245625934312,0.2886527375,0.5412301528672457
0.001,1.799975,1.0,21.62327105580717,0.011202087520799086,1.3789378027516783,0.03563622334748216,0.28865195,0.5421114210641906
0.0015,1.79994375,1.0,31.082429131231113,0.016748461976487827,1.3780450798391597,0.07063955000266332,0.2886506375,0.5442663189075363
0.002,1.7999,1.0,53.61205552942604,0.022263725656758656,1.3763662072664595,0.11476265733082386,0.2886488,0.5483050957521061
0.0025,1.79984375,1.0,97.16959427507217,0.027748053067898144,1.3739327265557544,0.16462343496058737,0.28864643749999996,0.5541272831970008
0.003,1.7997750000000001,1.0,161.02466245128753,0.03320161773980017,1.3712118550185532,0.21733053164968874,0.28864354999999997,0.560592342773229
0.0035,1.79969375,1.0,237.75878917406953,0.038624592225598074,1.368582410122953,0.27066269573349944,0.2886401375,0.5667953027677148
0.004,1.7996,1.0,321.54727643519345,0.04401714811243669,1.3661539602571364,0.32296402844635125,0.2886362,0.5724849406505592
0.0045000000000000005,1.7994937500000001,1.0,409.3512963109115,0.0493794560266595,1.363920853134812,0.37308028753584505,0.2886317375,0.5776837138189754
0.005,1.799375,1.0,499.4988804239786,0.054711685624913096,1.3618565281859891,0.4202902916923801,0.28862675,0.5824612659731584
0.0055,1.79924375,1.0,590.8766701913521,0.06001400564137715,1.3599371499240036,0.4642133533859748,0.2886212375,0.586878979925336
0.006,1.7991000000000001,1.0,682.6045691725781,0.06528658383151618,1.3581448431691516,0.5047164052373548,0.2886152,0.5909830080081115
0.006500000000000001,1.79894375,1.0,773.9696954520555,0.07052958702768442,1.356465743972701,0.5418340560251449,0.2886086375,0.5948092263201172
0.007,1.798775,1.0,864.3745497607218,0.0757431811194887,1.354888961621117,0.5757071111834,0.28860155,0.5983859212993792
0.0075,1.79859375,1.0,953.3309854347685,0.08092753107571922,1.3534054292285418,0.6065374976161041,0.2885939375,0.6017366154074941
0.008,1.7984,1.0,1040.4421707584663,0.0860828009123452,1.3520074138174998,0.6345571409195838,0.2885858,0.6048813157446284
0.0085,1.79819375,1.0,1125.4008583290542,0.09120915378367997,1.3506880151482672,0.6600071834445892,0.2885771375,0.6078377424469666
0.009000000000000001,1.797975,1.0,1207.9653282783115,0.09630675184744517,1.349441144896743,0.6831250125406512,0.28856795,0.6106214485116502
0.0095,1.79774375,1.0,1287.9548030501292,0.10137575644176003,1.3482612954834154,0.7041364174553458,0.2885582375,0.6132463969011901
0.01,1.7975,1.0,1365.2287331399064,0.10641632762904775,1.3471435924836834,0.7232514643394227,0.288548,0.6157248922114871
0.0105,1.79724375,1.0,1439.7250711224424,0.11142862575812618,1.346083125713767,0.7406623387829696,0.2885372375,0.618069101072031
0.011,1.796975,1.0,1511.3802109695393,0.11641280878781722,1.345075845194046,0.7565434749470582,0.28852595000000003,0.6202890977793838
0.0115,1.79669375,1.0,1580.1691571830513,0.12136903413740902,1.3441179079001553,0.771051772276153,0.2885141375,0.6223943413980237
0.012,1.7964,1.0,1646.1017721447774,0.12629745873079065,1.3432056410370763,0.7843276549213378,0.28850180000000003,0.6243937753837039
0.0125,1.79609375,1.0,1709.218115463052,0.13119823941276668,1.3423355277663451,0.796496392639788,0.2884889375,0.6262958750922767
0.013000000000000001,1.7957750000000001,1.0,1769.5459240983885,0.13607153066791502,1.3415046283046528,0.8076696790127715,0.28847555,0.6281077450462402
0.0135,1.79544375,1.0,1827.126207515551,0.14091748619323458,1.340710209800917,0.8179468592079537,0.2884616375,0.6298359468667576
0.014,1.7951000000000001,1.0,1882.0252225800953,0.14573625944489715,1.3399495690871597,0.8274161969478847,0.2884472,0.6314868956551482
0.0145,1.79474375,1.0,1934.3228764349408,0.15052800340486067,1.339220129211164,0.8361561552866065,0.2884322375,0.6330666579654374
0.015,1.794375,1.0,1984.0950041162048,0.15529287016498883,1.3385195960801144,0.844236576611334,0.28841675,0.6345806220336614
0.0155,1.79399375,1.0,2031.4068829137475,0.1600310094850783,1.3378459888036647,0.8517196925822316,0.2884007375,0.6360334433969199
0.016,1.7936,1.0,2076.339950235228,0.1647425711249258,1.337197326491468,0.8586609201574267,0.2883842,0.6374297289764231
0.0165,1.7931937500000001,1.0,2118.9801188960073,0.16942770392782594,1.3365717344873385,0.8651097006811308,0.2883671375,0.638773812322017
0.017,1.792775,1.0,2159.425503326787,0.17408655764604897,1.335967347129018,0.8711101800647421,0.28834955,0.6400699670379141
0.0175,1.7923437500000001,1.0,2197.760775847984,0.17871927999595782,1.3353825554214314,0.8767019008392049,0.2883314375,0.6413218798437198
0.018000000000000002,1.7919,1.0,2234.0545397911737,0.1833260161961329,1.3348160121764119,0.8819203401648383,0.2883128,0.6425326466526939
0.0185,1.79144375,1.0,2268.3837171207524,0.1879069114651546,1.3342663702057938,0.8867973145199883,0.2882936375,0.6437053372112349
0.019,1.790975,1.0,2300.8328548703894,0.19246211102160338,1.3337322823214104,0.8913614037093232,0.28827395,0.6448429966088726
0.0195,1.79049375,1.0,2331.4842060675082,0.19699175889857506,1.3332124924629913,0.8956383434287579,0.2882537375,0.645948453018498
0.02,1.79,1.0,2360.4268276627836,0.20149600009635452,1.3327057379754021,0.8996513259110306,0.288233,0.64702452780052
0.0205,1.78949375,1.0,2387.735649247566,0.20597497724220343,1.3322109479882396,0.9034213280670167,0.2882117375,0.6480736161886327
0.021,1.788975,1.0,2413.4733612067994,0.2104288306561364,1.331727215145735,0.9069673491499344,0.28818995000000003,0.649097751057574
0.021500000000000002,1.78844375,1.0,2437.706585876446,0.21485770065816795,1.3312536320921213,0.9103065927450251,0.2881676375,0.6500989516128111
0.022,1.7879,1.0,2460.505550662884,0.21926172756831255,1.3307892914716302,0.9134546612376306,0.2881448,0.6510792240041356
0.0225,1.78734375,1.0,2481.938914466988,0.22364105077251203,1.3303333323019957,0.916425735696968,0.28812143749999997,0.6520404641908779
0.023,1.786775,1.0,2502.0746081722486,0.22799580957784277,1.3298849283030765,0.9192327237867617,0.28809755,0.6529844836686036
0.0235,1.78619375,1.0,2520.9838029390608,0.23232614379181882,1.3294432472576452,0.9218873847302456,0.28807313749999996,0.6539130957791393
0.024,1.7856,1.0,2538.716558348597,0.2366321885978689,1.3290076784226152,0.9244004860990509,0.2880482,0.6548276388359726
0.0245,1.78499375,1.0,2555.3247929592894,0.24091407917942181,1.328577611054901,0.9267818660244475,0.2880227375,0.6557294436015759
0.025,1.784375,1.0,2570.862129234258,0.24517195071990633,1.3281524344114157,0.9290405261746816,0.28799675,0.656619833513589
0.025500000000000002,1.78374375,1.0,2585.3837467388453,0.2494059384027512,1.3277315377490737,0.9311847143007984,0.2879702375,0.657500124887205
0.026000000000000002,1.7831000000000001,1.0,2598.939480040077,0.25361617577035966,1.3273143733283206,0.9332220071646383,0.2879432,0.6583714955761759
0.0265,1.78244375,1.0,2611.581254254859,0.25780279749783497,1.3269003853435641,0.9351593646298271,0.2879156375,0.6592351341270066
0.027,1.781775,1.0,2623.3640126115997,0.2619659383015786,1.3264890003887506,0.9370031861238545,0.28788755,0.6600922596465383
0.0275,1.7810937500000001,1.0,2634.324663645366,0.2661057278563865,1.3260798214546206,0.9387593903239625,0.2878589375,0.6609437182401875
0.028,1.7804,1.0,2644.5008975002133,0.2702222958370546,1.3256724515319147,0.9404334348391082,0.2878298,0.6617903517640072
0.0285,1.77969375,1.0,2653.9311185680403,0.2743157719183788,1.3252664936113736,0.9420303581772083,0.2878001375,0.6626329978755174
0.029,1.778975,1.0,2662.6543816223216,0.27838628577515506,1.3248615506837376,0.9435548173864217,0.28776995,0.6634724900744815
0.029500000000000002,1.7782437500000001,1.0,2670.7103314457527,0.2824339670821793,1.3244572257397473,0.9450111218634738,0.2877392375,0.6643096577336309
0.03,1.7775,1.0,2678.1325227774346,0.2864589427850863,1.3240531825468762,0.9464032709341685,0.287708,0.6651452005141612
0.0305,1.77674375,1.0,2684.9615263417163,0.2904613435791298,1.3236490246603951,0.947734966853603,0.2876762375,0.6659799388915018
0.031,1.775975,1.0,2691.2286628475986,0.29444129605306735,1.3232444442804543,0.9490096566746553,0.28764395,0.6668145065109066
0.0315,1.7751937500000001,1.0,2696.960061135204,0.298398924370793,1.3228391842421423,0.9502305493076667,0.2876111375,0.6676494295850386
0.032,1.7744,1.0,2702.1821394471963,0.30233435269620096,1.3224329873805478,0.9514006297537725,0.2875778,0.6684852316608912
0.0325,1.77359375,1.0,2706.9215778498774,0.3062477051931853,1.32202559653076,0.9525226774712767,0.2875439375,0.6693224336065313
0.033,1.772775,1.0,2711.205292120643,0.31013910602564015,1.321616754527867,0.95359928302411,0.28750955,0.6701615535936281
0.0335,1.7719437500000002,1.0,2715.060409101816,0.31400867935745963,1.3212062042069577,0.9546328631914178,0.2874746375,0.6710031070757596
0.034,1.7711000000000001,1.0,2718.5059131369853,0.3178565409005661,1.3207937642760572,0.9556256809605718,0.2874392,0.6718474515357061
0.0345,1.7702437500000001,1.0,2721.578281956919,0.32168282501876266,1.320379095544964,0.956579838799215,0.2874032375,0.6726952651077516
0.035,1.7693750000000001,1.0,2724.295803110597,0.3254876509051275,1.3199620258439706,0.9574973175966724,0.28736675,0.6735468814343823
0.035500000000000004,1.76849375,1.0,2726.6754057995413,0.32927113636821576,1.3195423963598185,0.9583799729374959,0.2873297375,0.6744026050019919
0.036000000000000004,1.7676,1.0,2728.7341152597924,0.33303339921658276,1.319120048279248,0.9592295434706076,0.2872922,0.6752627384765639
0.0365,1.76669375,1.0,2730.4890421771956,0.3367745572587836,1.3186948227890003,0.9600476596073533,0.2872541375,0.6761275826769378
0.037,1.765775,1.0,2731.9573726625163,0.3404947283033735,1.3182665610758157,0.9608358514784017,0.28721555,0.6769974365464734
0.0375,1.76484375,1.0,2733.156358785364,0.3441940301589078,1.3178351043264356,0.961595556220211,0.2871764375,0.6778725971230989
0.038,1.7639,1.0,2734.1033096670553,0.3478725806339416,1.3174002937276004,0.962328124654345,0.28713679999999997,0.6787533595077584
0.0385,1.76294375,1.0,2734.8155831336617,0.35153049753703014,1.3169619704660511,0.9630348274163436,0.28709663750000003,0.6796400168312441
0.039,1.761975,1.0,2735.3041362722033,0.3551678910893819,1.3165200342185448,0.9637168645219235,0.28705595,0.6805327421501635
0.0395,1.7609937500000001,1.0,2735.5854075171155,0.3587848818123554,1.3160743351875388,0.964375363850287,0.2870147375,0.68143180687422
0.04,1.76,1.0,2735.6777215612183,0.36238159193962177,1.3156247067060751,0.9650113873646652,0.286973,0.6823375144027553
0.0405,1.7589937500000001,1.0,2735.5902759469664,0.3659581319216764,1.3151710651781667,0.9656259419613592,0.2869307375,0.6832499989619254
0.041,1.757975,1.0,2735.332285966759,0.3695146122090147,1.3147133270078266,0.9662199780699302,0.28688795,0.6841693935065842
0.0415,1.75694375,1.0,2734.9129817154712,0.37305114325213207,1.3142514085990675,0.9667943934043474,0.2868446375,0.6850958296986668
0.042,1.7559,1.0,2734.341605297786,0.37656783550152384,1.313785226355902,0.9673500364275438,0.28680079999999997,0.6860294378851255
0.0425,1.75484375,1.0,2733.6274081906367,0.38006479940768534,1.3133146966823435,0.9678877095539938,0.2867564375,0.6869703470754182
0.043000000000000003,1.753775,1.0,2732.779648760035,0.383542145421112,1.3128397359824042,0.9684081721125953,0.28671155,0.6879186849185575
0.043500000000000004,1.75269375,1.0,2731.8075899339156,0.3869999839922992,1.3123602606600975,0.9689121430900369,0.28666613750000003,0.6888745776797065
0.044,1.7516,1.0,2730.720497028517,0.3904384255717422,1.3118761871194358,0.969400303672962,0.2866202,0.6898381502163351
0.0445,1.75049375,1.0,2729.5276357311427,0.39385758060993653,1.3113874317644323,0.9698732996055341,0.2865737375,0.6908095259539255
0.045,1.7493750000000001,1.0,2728.234991443688,0.3972575533417313,1.3108939408089904,0.9703317447650852,0.28652675,0.6917887677559185
0.0455,1.74824375,1.0,2726.8484833861717,0.4006384499578491,1.3103956610699712,0.9707762220804168,0.2864792375,0.6927759361892079
0.046,1.7471,1.0,2725.3820978332737,0.4040003922366884,1.3098924659745055,0.9712072817556204,0.2864312,0.6937712357533162
0.0465,1.7459437500000001,1.0,2723.840184563785,0.4073434829411006,1.3093843165327683,0.9716254503319405,0.28638263750000004,0.6947746960572443
0.047,1.744775,1.0,2722.2270918027116,0.41066782483393743,1.3088711737549354,0.9720312283268786,0.28633355,0.6957863457373995
0.0475,1.74359375,1.0,2720.547165641374,0.4139735206780503,1.3083529986511826,0.9724250917622332,0.28628393750000003,0.696806212445229
0.048,1.7424,1.0,2718.804749490285,0.41726067323629085,1.307829752231685,0.9728074935885952,0.2862338,0.6978343228347557
0.0485,1.74119375,1.0,2717.004183566591,0.42052938527151046,1.3073013955066186,0.9731788650142166,0.2861831375,0.6988707025500152
0.049,1.739975,1.0,2715.1498044147247,0.4237797595465608,1.3067678894861585,0.9735396167454943,0.28613195,0.6999153762123981
0.0495,1.73874375,1.0,2713.245944460699,0.42701189882429325,1.3062291951804808,0.973890140145705,0.2860802375,0.7009683674078924
0.05,1.7375,1.0,2711.29693160089,0.4302259058675595,1.3056852735997604,0.9742308083180732,0.286028,0.7020296986742336
0.0505,1.73624375,1.0,2709.3070888230855,0.43342188343921095,1.3051360857541734,0.9745619771187491,0.2859752375,0.703099391487952
0.051000000000000004,1.734975,1.0,2707.2807338629113,0.4365999343020992,1.304581592653895,0.9748839861048262,0.28592195,0.7041774662513289
0.051500000000000004,1.73369375,1.0,2705.222131599756,0.43976016059585865,1.3040217557408997,0.975197159381751,0.2858681375,0.7052639414420303
0.052000000000000005,1.7324,1.0,2703.1347546116704,0.4429026413243675,1.3034565436412406,0.9755018044521764,0.2858138,0.7063588205398974
0.0525,1.73109375,1.0,2701.0247773153274,0.44602750877775715,1.302885900249487,0.9757982192444964,0.28575893750000003,0.7074621537948271
0.053,1.729775,1.0,2698.893966479293,0.4491348577487917,1.3023098096662309,0.9760866870603779,0.28570355000000003,0.7085739125623955
0.0535,1.72844375,1.0,2696.744086401501,0.4522247830302355,1.3017282559920638,0.9763674788174667,0.2856476375,0.7096940673979197
0.054,1.7271,1.0,2694.576898842235,0.45529737941485265,1.3011412233275768,0.9766408536936562,0.2855912,0.7108225880509265
0.0545,1.7257437500000001,1.0,2692.3941629624555,0.45835274169540746,1.300548695773362,0.9769070597325707,0.2855342375,0.7119594434596016
0.055,1.724375,1.0,2690.197635268447,0.4613909646646641,1.2999506574300108,0.9771663344128961,0.28547675,0.7131046017452305
0.0555,1.72299375,1.0,2687.9890695614195,0.4644121431153868,1.2993470923981145,0.9774189051840073,0.2854187375,0.7142580302066157
0.056,1.7216,1.0,2685.770216892849,0.4674163718403398,1.298737984778265,0.9776649899701437,0.2853602,0.7154196953144807
0.0565,1.72019375,1.0,2683.542825525771,0.4704037456322873,1.298123318671054,0.9779047976452264,0.28530113749999997,0.7165895627058585
0.057,1.718775,1.0,2681.308640901397,0.4733743592839936,1.2975030781770724,0.9781385284802531,0.28524155,0.7177675971784654
0.0575,1.71734375,1.0,2679.0694056110033,0.47632830758822275,1.2968772473969123,0.9783663745650565,0.2851814375,0.7189537626850526
0.058,1.7159,1.0,2676.826859374107,0.4792656853377391,1.2962458104311652,0.9785885202061004,0.2851208,0.7201480223277492
0.0585,1.71444375,1.0,2674.5827390221234,0.4821865873253069,1.2956087513804224,0.9788051423018459,0.2850596375,0.721350338352384
0.059000000000000004,1.7129750000000001,1.0,2672.33877848681,0.4850911083436903,1.294966054345276,0.9790164106971221,0.28499795,0.7225606721427926
0.059500000000000004,1.71149375,1.0,2670.094212601689,0.48797928436902255,1.2943177263667858,0.9792224848893453,0.2849357375,0.7237789411552482
0.06,1.71,1.0,2667.854873763232,0.49085128139610557,1.293663713839582,0.9794235255683412,0.284873,0.7250051759373219
0.0605,1.7084937500000001,1.0,2665.621355277056,0.4937071896145084,1.2930040112569032,0.9796196835120128,0.2848097375,0.7262393156484839
0.061,1.7069750000000001,1.0,2663.393988813238,0.49654709441476047,1.292338615510373,0.9798111034286974,0.28474595,0.7274812942649178
0.0615,1.7054437500000001,1.0,2661.173105491493,0.4993710811873913,1.2916675234916153,0.9799979244951698,0.2846816375,0.7287310450901405
0.062,1.7039,1.0,2658.959035885044,0.5021792353229304,1.2909907320922536,0.9801802806082405,0.2846168,0.7299885007538722
0.0625,1.70234375,1.0,2656.752110023705,0.5049716422119074,1.290308238203911,0.9803583006230726,0.2845514375,0.7312535932109097
0.063,1.7007750000000001,1.0,2654.552657398043,0.5077483872448516,1.2896200387182115,0.980532108579011,0.28448555,0.7325262537399926
0.0635,1.69919375,1.0,2652.361006963568,0.5105095558122925,1.2889261305267787,0.9807018239136656,0.28441913750000003,0.7338064129426748
0.064,1.6976,1.0,2650.1774871443918,0.5132552333047599,1.288226510521236,0.9808675616659408,0.2843522,0.7350940007421933
0.0645,1.69599375,1.0,2648.0024258385856,0.515985505112783,1.287521175593207,0.981029432668661,0.2842847375,0.736388946382335
0.065,1.694375,1.0,2645.836150422235,0.5187004566268913,1.2868101226343152,0.9811875437313929,0.28421675,0.7376911784263045
0.0655,1.69274375,1.0,2643.6789877544516,0.5214001732376146,1.286093348536184,0.9813419978140344,0.2841482375,0.7390006247555916
0.066,1.6911,1.0,2641.531264182662,0.524084740335482,1.2853708501904375,0.9814928941916964,0.2840792,0.7403172125688358
0.0665,1.6894437500000001,1.0,2639.3933055480206,0.5267542433110234,1.284642624488699,0.9816403286113736,0.2840096375,0.7416408683806934
0.067,1.687775,1.0,2637.2654371906706,0.5294087675547681,1.283908668322592,0.981784393440871,0.28393955,0.742971518020703
0.0675,1.68609375,1.0,2635.14798395581,0.5320483984572456,1.28316897858374,0.9819251778104139,0.2838689375,0.7443090866321476
0.068,1.6844000000000001,1.0,2633.0412701994182,0.5346732214089854,1.2824235521637668,0.982062767747358,0.2837978,0.7456534986709187
0.0685,1.68269375,1.0,2630.9456197946165,0.5372833218005171,1.2816723859542958,0.9821972463043747,0.2837261375,0.7470046779043822
0.069,1.680975,1.0,2628.8613561381826,0.5398787850223702,1.2809154768469506,0.9823286936814715,0.28365395,0.7483625474102371
0.0695,1.67924375,1.0,2626.7888021568533,0.5424596964650741,1.2801528217333549,0.9824571873421876,0.28358123749999997,0.7497270295753797
0.07,1.6775,1.0,2624.7326861880338,0.5450260763304058,1.2793843766659494,0.9825827961474914,0.283508,0.7510981188615399
0.07050000000000001,1.67574375,1.0,2622.6891942030925,0.5475780848809517,1.2786101768415252,0.9827055989918131,0.2834342375,0.752475667603106
0.07100000000000001,1.673975,1.0,2620.6580897693243,0.5501157991266988,1.2778302243252269,0.9828256654755698,0.28335995,0.7538595868985782
0.07150000000000001,1.67219375,1.0,2618.6392135733436,0.5526392947137305,1.277044520470454,0.9829430627785614,0.2832851375,0.7552497885117865
0.07200000000000001,1.6704,1.0,2616.632406602158,0.5551486472881298,1.2762530666306067,0.9830578558696477,0.2832098,0.7566461836007193
0.0725,1.66859375,1.0,2614.6375101400363,0.55764393249598,1.2754558641590856,0.98317010759268,0.2831339375,0.758048682718021
0.073,1.6667750000000001,1.0,2612.654365765414,0.5601252259833644,1.2746529144092906,0.9832798787485353,0.28305755,0.7594571958114888
0.0735,1.66494375,1.0,2610.682815347874,0.5625926033963663,1.2738442187346222,0.9833872281734576,0.2829806375,0.7608716322245677
0.074,1.6631,1.0,2608.722701044944,0.5650461403810688,1.2730297784884803,0.9834922128138921,0.2829032,0.7622919006968475
0.0745,1.6612437500000001,1.0,2606.7738652991857,0.5674859125835552,1.2722095950242653,0.9835948877979928,0.2828252375,0.7637179093645583
0.075,1.659375,1.0,2604.8361508354265,0.5699119956499087,1.2713836696953773,0.9836953065039687,0.28274675,0.7651495657610662
0.0755,1.65749375,1.0,2602.9094006574205,0.5723244652262125,1.2705520038552165,0.9837935206254337,0.2826677375,0.7665867768173691
