Time [s],Phi [rad],STIM [ ],Fsee [N],Gamma [ ],Lcerel [ ],q [ ],Lmtc [m],fisomrel [ ]
0.0,1.8,1.0,17.967999921369987,3.04804058767202e-05,1.3793396519162504,0.005000245441434964,0.288653,0.5411397591966135
0.0005,1.79999375,1.0,18.284170838737897,0.005639518743705944,1.3793015629122987,0.012997469341466495,0.2886527375,0.5412319016973455
0.001,1.799975,1.0,21.641024216926382,0.011217094811280644,1.3789359901045697,0.035715376795941875,0.28865195,0.5421158016692267
0.0015,1.79994375,1.0,31.1242210186581,0.01676338508794186,1.3780415212653485,0.0707478530882614,0.2886506375,0.544274898594965
0.002,1.7999,1.0,53.701864619825976,0.02227856506134428,1.3763603849650832,0.11489089598308592,0.2886488,0.5483190708830816
0.0025,1.79984375,1.0,97.32047658593281,0.02776280923516652,1.3739254606122249,0.1647629355125934,0.28864643749999996,0.5541446106694371
0.003,1.7997750000000001,1.0,161.2209790059123,0.03321629113663576,1.3712045104583757,0.21747444355982623,0.28864354999999997,0.560609730278564
0.0035,1.79969375,1.0,237.9805905707715,0.038639183316270184,1.3685755807298234,0.27080583133742847,0.2886401375,0.5668113561532954
0.004,1.7996,1.0,321.7832244877402,0.04403165735862184,1.3661477128226698,0.32310262279324004,0.2886362,0.5724995293199227
0.0045000000000000005,1.7994937500000001,1.0,409.59559554775797,0.0493938838874724,1.363915119941025,0.3732118500689562,0.2886317375,0.577697020020119
0.005,1.799375,1.0,499.74811194237486,0.05472603255697079,1.3618512331499817,0.42041337857961164,0.28862675,0.5824734855479516
0.0055,1.79924375,1.0,591.12812078792,0.06002827209826288,1.3599322380702197,0.46432731245817965,0.2886212375,0.5868902550949067
0.006,1.7991000000000001,1.0,682.8563244555766,0.0653007702647731,1.3581402676398882,0.5048211325027794,0.2886152,0.5909934588483077
0.006500000000000001,1.79894375,1.0,774.2079653948122,0.07054369374179405,1.356461677093812,0.5419299414857106,0.2886086375,0.5948184718222796
0.007,1.798775,1.0,864.6289505587723,0.07575720893628372,1.3548848527462987,0.5757943024177065,0.28860155,0.5983952209542026
0.0075,1.79859375,1.0,953.5816717233581,0.08094148020110578,1.3534015738452865,0.6066167924126392,0.2885939375,0.6017453048586561
0.008,1.7984,1.0,1040.6819858011988,0.08609667169381048,1.3520038833696326,0.6346292384653678,0.2885858,0.6048892413670219
0.0085,1.79819375,1.0,1125.6365082946884,0.09122294679668183,1.3506846795141658,0.66007266526443,0.2885771375,0.6078452026595881
0.009000000000000001,1.797975,1.0,1208.192194782833,0.09632046748592328,1.3494380452647594,0.683184537815946,0.28856795,0.6106283562549233
0.0095,1.79774375,1.0,1288.1719545628869,0.10138939503946258,1.3482584221791263,0.7041905752842552,0.2885582375,0.6132527786393669
0.01,1.7975,1.0,1365.4543456221222,0.10642989019052039,1.3471406929387026,0.7233006734833368,0.288548,0.6157313115626192
0.0105,1.79724375,1.0,1439.9392402589936,0.11144211191917977,1.3460804453833806,0.7407072268408992,0.2885372375,0.6180750169746203
0.011,1.796975,1.0,1511.5747373015788,0.11642621858993356,1.34507346909283,0.7565845304153456,0.28852595000000003,0.6202943269395397
0.0115,1.79669375,1.0,1580.3694166734638,0.12138236911774776,1.3441155156040392,0.7710892503772999,0.2885141375,0.6223995915834384
0.012,1.7964,1.0,1646.3159226480627,0.126310719813444,1.3432031345584128,0.7843618813189298,0.28850180000000003,0.6243992615729592
0.0125,1.79609375,1.0,1709.4207406735834,0.13121142588868406,1.3423332003759223,0.7965278191703479,0.2884889375,0.6263009563787585
0.013000000000000001,1.7957750000000001,1.0,1769.72670854373,0.13608464255512975,1.3415025874765394,0.807698633034946,0.28847555,0.6281121898814687
0.0135,1.79544375,1.0,1827.2889567003126,0.14093052413611132,1.3407084017433426,0.8179735697436449,0.2884616375,0.6298398755787534
0.014,1.7951000000000001,1.0,1882.1917818605518,0.14574922504132432,1.339947745888949,0.8274407968646189,0.2884472,0.631490848421628
0.0145,1.79474375,1.0,1934.488323898601,0.15054089681870367,1.3392183428316835,0.836178867703702,0.2884322375,0.633070522597342
0.015,1.794375,1.0,1984.2440308921114,0.1553056906189769,1.3385180073054808,0.8442576357201753,0.28841675,0.6345840520724697
0.0155,1.79399375,1.0,2031.5417169997515,0.1600437574577651,1.3378445681722715,0.8517392458241402,0.2884007375,0.6360365043255467
0.016,1.7936,1.0,2076.470325720261,0.1647552474243255,1.337195967779916,0.8586790749841632,0.2883842,0.6374326508704271
0.0165,1.7931937500000001,1.0,2119.121385223597,0.16944031064873583,1.336570277165899,0.8651265382346006,0.2883671375,0.6387769404606823
0.017,1.792775,1.0,2159.5636431477815,0.17409909417793584,1.3359659354686944,0.8711258590102144,0.28834955,0.6400729917239958
0.0175,1.7923437500000001,1.0,2197.876634021539,0.17873174505886522,1.3353813818267752,0.8767165759470484,0.2883314375,0.6413243900636569
0.018000000000000002,1.7919,1.0,2234.1485874154164,0.1833384101885459,1.3348150672809767,0.8819340969029247,0.2883128,0.6425346642909282
0.0185,1.79144375,1.0,2268.4611464625254,0.18791923480633982,1.3342655981814788,0.8868102173196555,0.2882936375,0.6437069830114099
0.019,1.790975,1.0,2300.9157237150243,0.1924743666126722,1.333731461909009,0.8913734709741331,0.28827395,0.6448447427680983
0.0195,1.79049375,1.0,2331.5766815182246,0.19700394799091883,1.333211582982706,0.8956496344068818,0.2882537375,0.6459503857339262
0.02,1.79,1.0,2360.5140000351817,0.20150812132445547,1.3327048859217097,0.8996619360499858,0.288233,0.6470263357264738
0.0205,1.78949375,1.0,2387.802815493452,0.20598702899665797,1.3322102952451584,0.9034313423861571,0.2882117375,0.6480749991489945
0.021,1.788975,1.0,2413.5229840763027,0.2104408133909021,1.331726735472192,0.9069768090103183,0.28818995000000003,0.6490987658576606
0.021500000000000002,1.78844375,1.0,2437.7412429218766,0.2148696143710448,1.331253298752717,0.9103155351432887,0.2881676375,0.6500996558209287
0.022,1.7879,1.0,2460.545781041942,0.21927357558640462,1.3307889063237135,0.9134630865507352,0.2881448,0.651080036521561
0.0225,1.78734375,1.0,2481.99343210951,0.2236528349258833,1.3303328126333471,0.9164336663943681,0.28812143749999997,0.6520415589851467
0.023,1.786775,1.0,2502.1398426871547,0.2280075296452925,1.3298843089877088,0.9192402019307597,0.28809755,0.6529857866189472
0.0235,1.78619375,1.0,2521.0430717194854,0.23233779700044385,1.3294426866928897,0.9218944705377382,0.28807313749999996,0.6539142735477377
0.024,1.7856,1.0,2538.7633881391494,0.2366437742471491,1.329007237054981,0.9244072178803409,0.2880482,0.6548285649408403
0.0245,1.78499375,1.0,2555.3605167352434,0.24092559811440223,1.3285772754562835,0.9267882665125415,0.2880227375,0.6557301468549925
0.025,1.784375,1.0,2570.886208097778,0.2451834034123725,1.3281522088925115,0.9290466190344709,0.28799675,0.656620305481395
0.025500000000000002,1.78374375,1.0,2585.412191027692,0.2494173286541727,1.3277312720936076,0.9311904968575365,0.2879702375,0.6575006801400055
0.026000000000000002,1.7831000000000001,1.0,2598.979709463801,0.2536275057259633,1.3273139985871356,0.9332274893824998,0.2879432,0.6583722778345045
0.0265,1.78244375,1.0,2611.6311269346584,0.2578140665139047,1.3268999219006588,0.9351645685929304,0.2879156375,0.6592361003231608
0.027,1.781775,1.0,2623.409832699432,0.26197714290415736,1.3264885755617406,0.9370081475632555,0.28788755,0.6600931442208724
0.0275,1.7810937500000001,1.0,2634.3601527125534,0.2661168667828817,1.3260794930979447,0.9387641327104767,0.2878589375,0.6609444010873324
0.028,1.7804,1.0,2644.527265413057,0.2702333700362381,1.3256722080368344,0.9404379705260453,0.2878298,0.6617908575013165
0.0285,1.77969375,1.0,2653.9520798042918,0.2743267816315964,1.3252663003884764,0.9420346949664561,0.2878001375,0.6626333986976833
0.029,1.778975,1.0,2662.677757837503,0.27839723486002776,1.3248613355526253,0.9435589585786334,0.28776995,0.6634729357875147
0.029500000000000002,1.7782437500000001,1.0,2670.7376000766794,0.28244485741911196,1.3244569751656292,0.945015077752978,0.2877392375,0.664310176232048
0.03,1.7775,1.0,2678.1636785973114,0.28646977586397765,1.324052896650094,0.9464070527311942,0.287708,0.6651457913669756
0.0305,1.77674375,1.0,2684.988502930037,0.29047211674975376,1.3236487774286252,0.9477385932025597,0.2876762375,0.6659804491994779
0.031,1.775975,1.0,2691.244978824142,0.29445200663156906,1.3232442949238288,0.9490131430647467,0.28764395,0.6668148144107041
0.0315,1.7751937500000001,1.0,2696.9663693174925,0.2984095720645523,1.3228391265583106,0.9502339027835698,0.2876111375,0.6676495483516172
0.032,1.7744,1.0,2702.1759665938857,0.30234493425416636,1.3224330437723886,0.9514038594650636,0.2875778,0.6684851157004877
0.0325,1.77359375,1.0,2706.907475676419,0.3062582225729817,1.3220257252478338,0.9525257858507706,0.2875439375,0.669322169255761
0.033,1.772775,1.0,2711.1968763409473,0.31014956663538396,1.3216168312818413,0.953602264196291,0.28750955,0.6701613961614403
0.0335,1.7719437500000002,1.0,2715.063658139887,0.3140190864876406,1.3212061745960102,0.9546357184192288,0.2874746375,0.671003167734048
0.034,1.7711000000000001,1.0,2718.527472739667,0.31786690217601893,1.32079356791194,0.9556284118574914,0.2874392,0.6718478532727281
0.0345,1.7702437500000001,1.0,2721.6081181886952,0.3216931337467862,1.3203788239512304,0.9565824598019977,0.2874032375,0.6726958200370743
0.035,1.7693750000000001,1.0,2724.325523962952,0.32549790124620986,1.31996175543548,0.9574998409113435,0.28736675,0.6735474332227233
0.035500000000000004,1.76849375,1.0,2726.699736789205,0.32928132472055716,1.3195421750862892,0.958382407619852,0.2873297375,0.6744030559347043
0.036000000000000004,1.7676,1.0,2728.750907245821,0.33304352421609545,1.3191198956252566,0.9592318956382453,0.2872922,0.6752630491585631
0.0365,1.76669375,1.0,2730.4992771413336,0.3367846197790921,1.3186947297739817,0.9600499326354207,0.2872541375,0.6761277717292371
0.037,1.765775,1.0,2731.965167670372,0.3405047314558144,1.318266490254064,0.9608380461803289,0.28721555,0.6769975802977035
0.0375,1.76484375,1.0,2733.1559174804624,0.3442039716816238,1.3178351083350464,0.9615976809894597,0.2871764375,0.6778725889976063
0.038,1.7639,1.0,2734.099073033437,0.34788246580492965,1.3174003322045817,0.962330180054751,0.28713679999999997,0.6787532816212409
0.0385,1.76294375,1.0,2734.8131706754316,0.35154033160843984,1.3169619923730684,0.963036812915049,0.28709663750000003,0.6796399725474965
0.039,1.761975,1.0,2735.3092400702426,0.35517768208048567,1.3165199878762166,0.9637187800465443,0.28705595,0.6805328356978306
0.0395,1.7609937500000001,1.0,2735.598341914308,0.3587946302093985,1.3160742177497358,0.9643772122824678,0.2870147375,0.6814320436029739
0.04,1.76,1.0,2735.691563615295,0.36239128898350964,1.3156245810293359,0.9650131755945321,0.286973,0.6823377673790056
0.0405,1.7589937500000001,1.0,2735.6000151985672,0.36596777139115055,1.3151709767507267,0.9656276754972217,0.2869307375,0.6832501767027834
0.041,1.757975,1.0,2735.3348254381594,0.3695241904206525,1.3147133039496184,0.9662216611083436,0.28688795,0.6841694397867191
0.0415,1.75694375,1.0,2734.9071382146794,0.3730606590603468,1.3142514616617205,0.9667960288959787,0.2868446375,0.6850957233529089
0.042,1.7559,1.0,2734.3281090990895,0.3765772902985649,1.313785348922743,0.9673516261390626,0.28680079999999997,0.6860291926066087
0.0425,1.75484375,1.0,2733.608902162305,0.38007419712363805,1.3133148647683954,0.9678892541261963,0.2867564375,0.6869700112090629
0.043000000000000003,1.753775,1.0,2732.7617032636713,0.3835514904947563,1.3128398990025432,0.9684096700416648,0.28671155,0.687918359668618
0.043500000000000004,1.75269375,1.0,2731.7918080106188,0.38700927946359176,1.3123604040514232,0.9689135955765386,0.28666613750000003,0.6888742920307132
0.044,1.7516,1.0,2730.707536284342,0.39044767281623394,1.311876304901512,0.9694017122637909,0.2866202,0.6898379159469996
0.0445,1.75049375,1.0,2729.5175025635517,0.39386677927190344,1.311387523870716,0.9698746659659156,0.2865737375,0.6908093430410214
0.045,1.7493750000000001,1.0,2728.2301984023147,0.3972667054520651,1.3108939843860437,0.9703330690758257,0.28652675,0.6917886813538598
0.0455,1.748248831945665,1.0,2727.0920946398305,0.4006475626191043,1.3103957407811262,0.9707775133338752,0.2864794509417179,0.6927757783958416
0.046,1.747122603531251,1.0,2726.4368708645557,0.40400945729038473,1.3098930802204065,0.9712085772478443,0.2864321493483125,0.6937700217841476
0.0465,1.745996375116837,1.0,2726.234100842581,0.40735249444039473,1.3093863051087085,0.9716268112172294,0.28638484775490713,0.6947707723570828
0.047,1.744870146702423,1.0,2726.450483351323,0.4106767790436223,1.3088757178508559,0.9720327383183787,0.28633754616150175,0.6957773945220616
0.0475,1.743743918288009,1.0,2727.052813866995,0.41398241607455577,1.3083616208516728,0.9724268559267507,0.2862902445680964,0.6967892563320446
0.048,1.742617689873595,1.0,2728.0079600185913,0.41726951050768313,1.307844316515983,0.9728096372284334,0.286242942974691,0.6978057295561457
0.0485,1.741491461459181,1.0,2729.2845514919277,0.4205381666210984,1.307324091682725,0.973181531459176,0.2861956413812856,0.6988262202531509
0.049,1.740365233044767,1.0,2730.860565998906,0.423788485759187,1.3068011485245836,0.9735429602751354,0.28614833978788023,0.6998503037754986
0.0495,1.739239004630353,1.0,2732.6969962183543,0.4270205772136273,1.3062758437473432,0.9738943369092378,0.28610103819447485,0.7008772561761896
0.05,1.738112776215939,1.0,2734.7770782425755,0.43023454104631303,1.3057483319613443,0.9742360406372602,0.2860537366010694,0.7019067522412488
0.0505,1.736986547801525,1.0,2737.0840562235044,0.4334304773191378,1.305218767776928,0.9745684332376505,0.28600643500766404,0.7029384687395845
0.051000000000000004,1.7358603193871112,1.0,2739.6011750721045,0.4366084860939953,1.3046873058044348,0.974891859958808,0.28595913341425866,0.7039720844439886
0.051500000000000004,1.7347340909726972,1.0,2742.3116736878887,0.4397686674327791,1.3041541006542057,0.975206650424709,0.2859118318208533,0.7050072801506102
0.052000000000000005,1.7336078625582831,1.0,2745.1987787186035,0.442911121397383,1.303619306936581,0.9755131194833065,0.2858645302274479,0.7060437386969078
0.0525,1.7324816341438691,1.0,2748.2456988493154,0.4460359480497004,1.303083079261902,0.9758115680017875,0.2858172286340425,0.707081144978073
0.053,1.7313554057294551,1.0,2751.435619622283,0.44914324745162526,1.3025455722405088,0.9761022836124444,0.2857699270406371,0.7081191859619358
0.0535,1.7302291773150411,1.0,2754.7597037478727,0.4522331144278559,1.3020068680549775,0.9763855364086367,0.2857226254472317,0.7091576902028809
0.054,1.729102948900627,1.0,2758.1987238970028,0.45530565356774744,1.3014671427287234,0.9766615915462392,0.2856753238538263,0.7101963069355214
0.0545,1.727976720486213,1.0,2761.7444324457856,0.4583609602227418,1.3009264726997094,0.9769306959030264,0.28562802226042094,0.711234878917446
0.055,1.726850492071799,1.0,2765.3889526364264,0.46139912943756717,1.3003849309172208,0.9771930856695589,0.28558072066701556,0.7122732566258179
0.0555,1.725724263657385,1.0,2769.1243917603038,0.4644202562569516,1.2998425903305422,0.9774489871293492,0.2855334190736102,0.7133112915301998
0.056,1.7245980352429713,1.0,2772.9428398068303,0.4674244357256232,1.299299523888959,0.9776986171582593,0.2854861174802048,0.7143488360964363
0.0565,1.7234718068285573,1.0,2776.836368230628,0.47041176288831005,1.298755804541756,0.9779421836947875,0.2854388158867994,0.7153857437902044
0.057,1.7223455784141433,1.0,2780.7970288364945,0.47338233278974023,1.2982115052382184,0.9781798861831629,0.28539151429339404,0.7164218690802171
0.0575,1.7212193499997293,1.0,2784.8168527821585,0.4763362404746419,1.297666698927631,0.9784119159910328,0.2853442126999886,0.7174570674410938
0.058,1.7200931215853152,1.0,2788.894923727253,0.47927356884479305,1.2971213949473863,0.9786384521756923,0.28529691110658323,0.718491315894513
0.0585,1.7189668931709012,1.0,2793.017260693817,0.4821944272524269,1.2965757200169794,0.9788596754804588,0.28524960951317785,0.7195243695676348
0.059000000000000004,1.7178406647564872,1.0,2797.178819291216,0.48509890853235627,1.2960297202508428,0.979075753658534,0.28520230791977247,0.7205561375261726
0.059500000000000004,1.7167144363420732,1.0,2801.376574130695,0.48798710178122057,1.2954834235181782,0.9792868465975212,0.2851550063263671,0.7215865638583447
0.06,1.7155882079276592,1.0,2805.6074911357828,0.4908590960956591,1.2949368576881874,0.9794931079900654,0.28510770473296165,0.7226155930389601
0.0605,1.7144619795132452,1.0,2809.8685273681344,0.49371498057231117,1.2943900506300723,0.9796946856227052,0.2850604031395563,0.7236431699299217
0.061,1.7133357510988314,1.0,2814.1566308692036,0.49655484430781616,1.2938430302130346,0.979891721649116,0.2850131015461509,0.7246692397806813
0.0615,1.7122095226844174,1.0,2818.4687405201275,0.49937877639881334,1.2932958243062762,0.9800843528487015,0.2849657999527455,0.7256937482286414
0.062,1.7110832942700034,1.0,2822.8017859185034,0.5021868659419421,1.2927484607789985,0.9802727108714264,0.28491849835934013,0.7267166412995126
0.0625,1.7099570658555894,1.0,2827.152687272218,0.5049792020338416,1.2922009675004038,0.9804569224697187,0.28487119676593475,0.7277378654076148
0.063,1.7088308374411754,1.0,2831.518355310829,0.5077558737711513,1.2916533723396935,0.9806371097182155,0.2848238951725294,0.7287573673561356
0.0635,1.7077046090267614,1.0,2835.895691213837,0.5105169702505105,1.2911057031660695,0.980813390222079,0.284776593579124,0.7297750943373349
0.064,1.7065783806123473,1.0,2840.281586556607,0.5132625805685586,1.2905579878487337,0.9809858773145546,0.2847292919857186,0.7307909939327013
0.0645,1.7054521521979333,1.0,2844.6771756049093,0.5159927716744128,1.290010216395353,0.9811546767740119,0.2846819903923132,0.7318050841400525
0.065,1.7043259237835193,1.0,2849.077009258835,0.5187076545120086,1.2894624374156818,0.9813198966192375,0.2846346887989078,0.7328172746344787
0.0655,1.7031996953691053,1.0,2853.4786101609016,0.5214073207426156,1.2889146729507646,0.9814816383656101,0.2845873872055024,0.7338275247249769
0.066,1.7020734669546913,1.0,2857.8811859749508,0.5240918521786565,1.2883669300054423,0.9816399985432093,0.28454008561209704,0.7348358216812383
0.0665,1.7009472385402775,1.0,2862.2839419369266,0.5267613306325544,1.2878192155845565,0.9817950703154618,0.28449278401869166,0.7358421528708247
0.067,1.6998210101258635,1.0,2866.686080858627,0.5294158379167321,1.287271536692948,0.9819469436207912,0.2844454824252863,0.7368465057591591
0.0675,1.6986947817114495,1.0,2871.0868031327454,0.5320554558436125,1.2867239003354578,0.9820957053073477,0.28439818083188084,0.7378488679095104
0.068,1.6975685532970355,1.0,2875.4853067390322,0.5346802662256186,1.2861763135169277,0.982241439261201,0.28435087923847546,0.7388492269829754
0.0685,1.6964423248826215,1.0,2879.88078725128,0.5372903508751733,1.2856287832421986,0.9823842265283581,0.2843035776450701,0.7398475707384602
0.069,1.6953160964682075,1.0,2884.272437845556,0.5398857916046995,1.2850813165161117,0.9825241454309421,0.2842562760516647,0.7408438870326548
0.0695,1.6941898680537935,1.0,2888.6594493096673,0.5424666702266202,1.2845339203435084,0.9826612716778527,0.2842089744582593,0.7418381638200064
0.07,1.6930636396393794,1.0,2893.041010053572,0.5450330685533582,1.2839866017292296,0.9827956784702024,0.28416167286485394,0.7428303891526911
0.07050000000000001,1.6919374112249654,1.0,2897.4163061206777,0.5475850683973366,1.2834393676781166,0.9829274366018137,0.28411437127144856,0.7438205511805785
0.07100000000000001,1.6908111828105514,1.0,2901.784521200636,0.5501227515709781,1.2828922251950106,0.9830566145550357,0.2840670696780432,0.7448086381511971
0.07150000000000001,1.6896849543961374,1.0,2906.144836642916,0.5526461998867057,1.2823451812847528,0.9831832785921314,0.2840197680846378,0.7457946384096941
0.07200000000000001,1.6885587259817236,1.0,2910.496431471671,0.5551554951569424,1.2817982429521846,0.9833074928424667,0.2839724664912324,0.7467785403987932
