Time [s],Phi [rad],STIM [ ],Fsee [N],Gamma [ ],Lcerel [ ],q [ ],Lmtc [m],fisomrel [ ]
0.0,1.8,1.0,17.967273686707117,3.668362223345237e-05,1.3793397332777364,0.005000354989900268,0.288653,0.5411395623621678
0.0005,1.79999375,1.0,18.285613990250855,0.005645687164926885,1.3793014026419792,0.013014761109087905,0.2886527375,0.5412322893935816
0.001,1.799975,1.0,21.647142075754317,0.011223228632535451,1.3789353656264394,0.03574776379744889,0.28865195,0.5421173108340457
0.0015,1.79994375,1.0,31.14018742318828,0.0167694845033122,1.378040162358852,0.07079215382071623,0.2886506375,0.5442781748842245
0.002,1.7999,1.0,53.73745404883934,0.022284630263811524,1.3763580790581271,0.1149433413052276,0.2886488,0.5483246056367237
0.0025,1.79984375,1.0,97.38104700112764,0.027768840416647633,1.3739225453457602,0.16481997785671515,0.28864643749999996,0.5541515627619513
0.003,1.7997750000000001,1.0,161.3001889298396,0.033222288487956574,1.3712015483369093,0.2175332823689179,0.28864354999999997,0.5606167427049782
0.0035,1.79969375,1.0,238.07031539056672,0.038645147027187944,1.368572818954947,0.2708643470338277,0.2886401375,0.5668178479834305
0.004,1.7996,1.0,321.87883058620906,0.04403758761783444,1.3661451820157162,0.32315927777718656,0.2886362,0.5725054390519071
0.0045000000000000005,1.7994937500000001,1.0,409.6947035286658,0.0493997808826313,1.363912794570845,0.3732656275807683,0.2886317375,0.5777024169248661
0.005,1.799375,1.0,499.84933140130215,0.05473189647475235,1.3618490830739416,0.42046368922246236,0.28862675,0.5824784473167977
0.0055,1.79924375,1.0,591.2302834394342,0.06003410312394319,1.3599302427161966,0.46437389106645216,0.2886212375,0.5868948353898592
0.006,1.7991000000000001,1.0,682.9586821095676,0.06530656858296727,1.3581384075807186,0.5048639365838498,0.2886152,0.5909977073199845
0.006500000000000001,1.79894375,1.0,774.3183042333412,0.0705494596395348,1.3564597940019973,0.5419689856558074,0.2886086375,0.594822752742518
0.007,1.798775,1.0,864.723045147661,0.07576294235440811,1.3548833331601526,0.5758300334530893,0.28860155,0.5983986602204723
0.0075,1.79859375,1.0,953.6639589266383,0.08094718140976478,1.3534003084349906,0.6066493867475312,0.2885939375,0.6017481568815483
0.008,1.7984,1.0,1040.7727943113982,0.0861023410263227,1.352002546634272,0.6346587649979646,0.2885858,0.6048922422289131
0.0085,1.79819375,1.0,1125.7267757296177,0.09122858432338075,1.3506834018677294,0.6600994742663704,0.2885771375,0.6078480601226933
0.009000000000000001,1.797975,1.0,1208.2720024700684,0.09632607306234439,1.3494369549373773,0.6832089604514509,0.28856795,0.6106307861099917
0.0095,1.79774375,1.0,1288.2548748539791,0.10139496932726935,1.3482573250587337,0.7042127482501075,0.2885582375,0.6132552153792585
0.01,1.7975,1.0,1365.5443359904168,0.10643543349451857,1.347139536459945,0.7233207977475008,0.288548,0.6157338718953269
0.0105,1.79724375,1.0,1440.0302693853034,0.11144762424086979,1.3460793062126823,0.7407255495373963,0.2885372375,0.6180775312861877
0.011,1.796975,1.0,1511.6662456875501,0.11643170024310073,1.3450723513886167,0.7566012402414684,0.28852595000000003,0.6202967866936577
0.0115,1.79669375,1.0,1580.4446676160533,0.12138781951904382,1.3441146166968698,0.7711046025429793,0.2885141375,0.622401564335352
0.012,1.7964,1.0,1646.3814952588239,0.1263161394362595,1.3432023671104463,0.7843759800672757,0.28850180000000003,0.6244009413577375
0.0125,1.79609375,1.0,1709.4838447541938,0.13121681519570108,1.3423324755790187,0.796540756763461,0.2884889375,0.6263025387880758
0.013000000000000001,1.7957750000000001,1.0,1769.7893394268526,0.13609000176202102,1.3415018804772643,0.8077105170620928,0.28847555,0.62811372968907
0.0135,1.79544375,1.0,1827.3488609657222,0.14093585326069955,1.3407077362588333,0.8179845143446445,0.2884616375,0.6298413215987924
0.014,1.7951000000000001,1.0,1882.2502560610908,0.1457545242982672,1.3399471058353243,0.8274508889771879,0.2884472,0.6314922360784019
0.0145,1.79474375,1.0,1934.545414583753,0.15054616637729643,1.3392177264263716,0.8361881896555915,0.2884322375,0.6330718561164647
0.015,1.794375,1.0,1984.2990933748881,0.15531093062763032,1.3385174202993813,0.8442662632881671,0.28841675,0.6345853193681508
0.0155,1.79399375,1.0,2031.594266633858,0.1600489681351728,1.3378440145145087,0.8517472459695393,0.2884007375,0.6360376972471953
0.016,1.7936,1.0,2076.5182117197064,0.1647604287547603,1.3371954687454217,0.8586865125146813,0.2883842,0.6374337240355719
0.0165,1.7931937500000001,1.0,2119.1673861773456,0.16944546290604634,1.3365698026246815,0.8651334556613108,0.2883671375,0.6387779590598945
0.017,1.792775,1.0,2159.6091661281926,0.17410421757609368,1.3359654702761203,0.8711322986619803,0.28834955,0.6400739884634736
0.0175,1.7923437500000001,1.0,2197.921651834961,0.17873683975196514,1.3353809258235703,0.876722579888156,0.2883314375,0.6413253654136635
0.018000000000000002,1.7919,1.0,2234.1927695066493,0.18334347642072346,1.334814623390863,0.8819397037844409,0.2883128,0.6425356121289366
0.0185,1.79144375,1.0,2268.5009073959586,0.18792427251273336,1.3342652017424768,0.8868154700280345,0.2882936375,0.6437078281379507
0.019,1.790975,1.0,2300.951348253486,0.19247937596789827,1.3337311092259594,0.8913783983865899,0.28827395,0.6448454934145752
0.0195,1.79049375,1.0,2331.6091512132684,0.19700892923515984,1.3332112636530713,0.8956542609355427,0.2882537375,0.645951064332664
0.02,1.79,1.0,2360.5441219361146,0.20151307465874913,1.3327045915032216,0.899666284136735,0.288233,0.6470269604358241
0.0205,1.78949375,1.0,2387.8312146504086,0.20599195458289712,1.3322100192558204,0.9034354327201579,0.2882117375,0.6480755838840799
0.021,1.788975,1.0,2413.5500970164007,0.21044571135183493,1.331726473390277,0.9069806607179979,0.28818995000000003,0.6490993203190366
0.021500000000000002,1.78844375,1.0,2437.767992939901,0.21487448493487865,1.3312530414665347,0.9103191646586535,0.2881676375,0.6501001993595992
0.022,1.7879,1.0,2460.5712965246644,0.21927841879276969,1.3307886620513603,0.9134665122567464,0.2881448,0.6510805518439764
0.0225,1.78734375,1.0,2482.0175558533874,0.22365765091958406,1.330332582684775,0.9164369036890027,0.28812143749999997,0.6520420434209386
0.023,1.786775,1.0,2502.162618017113,0.22801231858448803,1.329884092768,0.9192432644704673,0.28809755,0.6529862415134999
0.0235,1.78619375,1.0,2521.064745651385,0.23234255905664786,1.329442481702257,0.921897370422196,0.28807313749999996,0.6539147042406189
0.024,1.7856,1.0,2538.7844140223083,0.23664850960522987,1.3290070388887671,0.9244099658159353,0.2880482,0.6548289807450423
0.0245,1.78499375,1.0,2555.380336633705,0.24093030676549015,1.3285770892639175,0.9267908738862662,0.2880227375,0.6557305370243993
0.025,1.784375,1.0,2570.905837604435,0.2451880858431158,1.3281520250463752,0.9290490939807237,0.28799675,0.6566206902358519
0.025500000000000002,1.78374375,1.0,2585.431465622834,0.24942198489968206,1.3277310920793364,0.9311928484703041,0.2879702375,0.6575010563918544
0.026000000000000002,1.7831000000000001,1.0,2598.998473930723,0.25363213585495303,1.3273138237952042,0.9332297260163289,0.2879432,0.6583726427058737
0.0265,1.78244375,1.0,2611.6492356243034,0.2578186706286928,1.3268997536263818,0.9351666979318681,0.2879156375,0.6592364511448051
0.027,1.781775,1.0,2623.4271497616437,0.2619817211406655,1.326488415005272,0.9370101766825606,0.28788755,0.6600934785310755
0.0275,1.7810937500000001,1.0,2634.3765522962526,0.2661214193106351,1.3260793413642784,0.9387660681319371,0.2878589375,0.6609447166308622
0.028,1.7804,1.0,2644.542631837613,0.2702378970583658,1.3256720661358037,0.9404398182676259,0.2878298,0.6617911522284334
0.0285,1.77969375,1.0,2653.963716213939,0.27433128268937196,1.3252661931231484,0.942036463750501,0.2878001375,0.6626336212091031
0.029,1.778975,1.0,2662.689383217797,0.27840171063914304,1.3248612285647,0.943560648615132,0.28776995,0.6634731574471742
0.029500000000000002,1.7782437500000001,1.0,2670.7519846226587,0.28244930836438004,1.3244568429851442,0.9450166903461777,0.2877392375,0.6643104497452599
0.03,1.7775,1.0,2678.1819917715484,0.2864742022536545,1.3240527286027295,0.9464085910002816,0.287708,0.665146138664304
0.0305,1.77674375,1.0,2685.010303347797,0.2904765186955379,1.3236485776357036,0.9477400619171202,0.2876762375,0.6659808615892409
0.031,1.775975,1.0,2691.268206052116,0.2944563840786018,1.3232440823023144,0.9490145484961271,0.28764395,0.6668152527312966
0.0315,1.7751937500000001,1.0,2696.9873373795335,0.2984139247914176,1.32283893482081,0.9502352525705967,0.2876111375,0.66764994312425
0.032,1.7744,1.0,2702.199339863722,0.30234926693696945,1.3224328302472081,0.9514051528977716,0.2875778,0.6684855547792572
0.0325,1.77359375,1.0,2706.9276420381757,0.3062625279480015,1.3220255411802055,0.9525270299129549,0.2875439375,0.6693225472818742
0.033,1.772775,1.0,2711.2142272217416,0.31015384591044093,1.3216166730376848,0.9536034614877357,0.28750955,0.670161720740341
0.0335,1.7719437500000002,1.0,2715.0785553008095,0.3140233406821533,1.3212060388271156,0.9546368713340267,0.2874746375,0.6710034458577598
0.034,1.7711000000000001,1.0,2718.540247968084,0.3178711321210042,1.320793451555968,0.9556295226036258,0.2874392,0.671848091322732
0.0345,1.7702437500000001,1.0,2721.619073028443,0.3216973400848592,1.320378724231712,0.956583530418883,0.2874032375,0.6726960237871832
0.035,1.7693750000000001,1.0,2724.3349294787695,0.3255020844315838,1.3199616698618175,0.95750087328556,0.28736675,0.6735476078419557
0.035500000000000004,1.76849375,1.0,2726.7078333644195,0.3292854850190436,1.3195421014537545,0.9583834034992742,0.2873297375,0.6744032059901737
0.036000000000000004,1.7676,1.0,2728.7579044096583,0.3330476617051041,1.3191198320149928,0.9592328566447446,0.2872922,0.6752631786183763
0.0365,1.76669375,1.0,2730.5053534244043,0.3367887343476308,1.3186946745530026,0.9600508602762948,0.2872541375,0.6761278839654201
0.037,1.765775,1.0,2731.9704704854366,0.34050882280448946,1.3182664420752537,0.9608389418586025,0.28721555,0.6769976780891556
0.0375,1.76484375,1.0,2733.170854340782,0.3442080461204317,1.3178349726556506,0.9615985383175071,0.2871764375,0.6778728640209879
0.038,1.7639,1.0,2734.1217563570463,0.34788652061730185,1.317400126195654,0.9623310018016937,0.28713679999999997,0.6787536986319608
0.0385,1.76294375,1.0,2734.838033778537,0.3515443619571141,1.316961766597008,0.9630376044388064,0.28709663750000003,0.6796404289403823
0.039,1.761975,1.0,2735.3320410803008,0.3551816853639964,1.316519780844281,0.9637195457691369,0.28705595,0.6805332536169908
0.0395,1.7609937500000001,1.0,2735.616165387584,0.358798606062077,1.316074055922042,0.9643779557343387,0.2870147375,0.6814323698118299
0.04,1.76,1.0,2735.687160610154,0.36239523792870804,1.3156246210056899,0.9650139119476197,0.286973,0.6823376869101232
0.0405,1.758993841669446,1.0,2735.600759517819,0.36597169695695847,1.3151710113917991,0.9656283876483367,0.28693074135011676,0.6832501070735664
0.041,1.7579828555175723,1.0,2735.7096102254864,0.36952809523852936,1.314713448702538,0.966222360569349,0.28688827993173804,0.6841691492530452
0.0415,1.7569718693656984,1.0,2736.222639052257,0.37306454449161647,1.314252216586952,0.9667967591819969,0.28684581851335933,0.6850942103641182
0.042,1.7559608832138247,1.0,2737.108710313207,0.37658115643441575,1.313787598694086,0.9673524607463951,0.2868033570949806,0.6860246903883906
0.0425,1.7549498970619508,1.0,2738.336748775327,0.380078042785123,1.3133198786729854,0.9678902946679733,0.2867608956766019,0.6869599924373269
0.043000000000000003,1.753938910910077,1.0,2739.8791474817162,0.38355531386535036,1.3128493090704918,0.9684110428498951,0.28671843425822324,0.6878995848664411
0.043500000000000004,1.7529279247582032,1.0,2741.703494432565,0.38701308151423525,1.31237618624792,0.9689154492375052,0.28667597283984453,0.6888428516109848
0.044,1.7519169386063294,1.0,2743.7877611724716,0.3904514542460733,1.3119007124610331,0.9694042105598315,0.2866335114214658,0.6897893672394768
0.0445,1.7509059524544557,1.0,2746.111496057385,0.39387054002913496,1.3114230757222565,0.9698779860264668,0.28659105000308716,0.6907387369505411
0.045,1.7498949663025818,1.0,2748.6542453231655,0.3972704468316904,1.3109434640440154,0.9703374008441232,0.28654858858470844,0.6916905681387375
0.0455,1.7488839801507081,1.0,2751.3955444613775,0.40065128262200983,1.3104620654387347,0.9707830483068783,0.2865061271663297,0.6926444704193713
0.046,1.7478729939988342,1.0,2754.32377127361,0.40401314972184255,1.3099789877403578,0.9712154849891809,0.286463665747951,0.6936002141564512
0.0465,1.7468620078469603,1.0,2757.410152126302,0.4073561628546441,1.3094944938395119,0.9716352527605036,0.2864212043295723,0.6945572649331133
0.047,1.7458510216950867,1.0,2760.639620083915,0.4106804282135669,1.3090087222911768,0.9720428564785465,0.28637874291119364,0.6955153365687958
0.0475,1.7448400355432128,1.0,2764.002123214404,0.41398604869313804,1.308521766132708,0.9724387726184509,0.2863362814928149,0.6964742341274064
0.048,1.743829049391339,1.0,2767.487594359477,0.41727312718788484,1.30803371840146,0.9728234546036858,0.28629382007443627,0.697433763800287
0.0485,1.7428180632394652,1.0,2771.0859487866396,0.42054176659233455,1.307544672134788,0.9731973341376638,0.28625135865605755,0.6983937329129646
0.049,1.7418070770875915,1.0,2774.787082033608,0.4237920698010144,1.3070547203700469,0.9735608224466494,0.28620889723767884,0.699353949931353
0.0495,1.7407960909357176,1.0,2778.580867944642,0.4270241397084517,1.3065639561445914,0.9739143114406273,0.2861664358193001,0.7003142244674012
0.05,1.7397851047838437,1.0,2782.4571568983965,0.43023807920917356,1.3060724724957766,0.9742581747982402,0.2861239744009214,0.7012743672841903
0.0505,1.73877411863197,1.0,2786.4057742282207,0.4334339911977073,1.3055803624609572,0.9745927689814061,0.28608151298254275,0.7022341903004784
0.051000000000000004,1.7377631324800962,1.0,2790.4213766923226,0.43661197146709785,1.305087675406045,0.9749184305385776,0.28603905156416404,0.7031935915667594
0.051500000000000004,1.7367521463282225,1.0,2794.4941787144876,0.43977212614662503,1.3045945004827988,0.9752354845379286,0.2859965901457853,0.7041523924605686
0.052000000000000005,1.7357411601763486,1.0,2798.614082903828,0.4429145618461007,1.3041009293983674,0.9755442416933507,0.28595412872740666,0.7051104105199272
0.0525,1.734730174024475,1.0,2802.7773528187,0.4460393750367445,1.3036069965431385,0.9758449942395394,0.28591166730902795,0.7060675754147152
0.053,1.733719187872601,1.0,2806.9802415516465,0.4491466621897763,1.3031127363075,0.9761380215945646,0.28586920589064924,0.707023817245472
0.0535,1.7327082017207274,1.0,2811.218991466664,0.45223651977641577,1.3026181830818395,0.9764235910329647,0.2858267444722705,0.7079790665441525
0.054,1.7316972155688535,1.0,2815.4898339628226,0.45530904426788266,1.302123371256545,0.9767019583179589,0.28578428305389186,0.7089332542748084
0.0545,1.7306862294169796,1.0,2819.7889892635076,0.4583643321353967,1.3016283352220042,0.9769733682955889,0.28574182163551315,0.7098863118341909
0.055,1.729675243265106,1.0,2824.1126662329552,0.46140247985017757,1.3011331093686047,0.9772380554533845,0.28569936021713443,0.7108381710522831
0.0555,1.728664257113232,1.0,2828.457062218139,0.4644235838834452,1.300637728086735,0.9774962444459466,0.2856568987987558,0.7117887641927501
0.056,1.7276532709613583,1.0,2832.818362916946,0.46742774070641907,1.3001422257667823,0.9777481505896721,0.28561443738037706,0.7127380239533223
0.0565,1.7266422848094845,1.0,2837.1927422731765,0.47041504679031915,1.2996466367991346,0.9779939803286642,0.28557197596199835,0.7136858834660954
0.057,1.7256312986576106,1.0,2841.577446800138,0.4733855939175799,1.2991509859137065,0.978233930701773,0.28552951454361963,0.7146322947284993
0.0575,1.7246203125057369,1.0,2845.972057583877,0.4763394685352286,1.298655276982795,0.9784681891294907,0.2854870531252409,0.715577249777838
0.058,1.723609326353863,1.0,2850.3701169627657,0.4792767853043509,1.2981595675804454,0.9786969409795919,0.28544459170686226,0.7165206385849548
0.0585,1.7225983402019893,1.0,2854.7705744997597,0.4821976335814548,1.297663867043982,0.9789203593680171,0.28540213028848355,0.717462443419715
0.059000000000000004,1.7215873540501154,1.0,2859.1723765183683,0.48510210272304854,1.297168184710729,0.9791386105908462,0.28535966887010483,0.7184026466700575
0.059500000000000004,1.7205763678982418,1.0,2863.574466105186,0.4879902820856404,1.2966725299180113,0.9793518544469438,0.2853172074517262,0.7193412308419856
0.06,1.7195653817463679,1.0,2867.9757831145926,0.4908622610257383,1.2961769120031528,0.9795602445429126,0.28527474603334746,0.7202781785595558
0.0605,1.7185543955944942,1.0,2872.375264175695,0.4937181288998507,1.295681340303478,0.9797639285814482,0.28523228461496875,0.7212134725648562
0.061,1.7175434094426203,1.0,2876.771842700621,0.49655797506448557,1.2951858241563112,0.979963048634127,0.28518982319659003,0.7221470957179825
0.0615,1.7165324232907464,1.0,2881.1644488951897,0.4993818888761512,1.2946903728989771,0.980157741399573,0.2851473617782113,0.7230790309970083
0.062,1.7155214371388727,1.0,2885.552009771614,0.5021899596913557,1.2941949958688,0.9803481384479014,0.28510490035983266,0.724009261497949
0.0625,1.7145104509869988,1.0,2889.9334491622617,0.5049822768666073,1.293699702403104,0.9805343664522573,0.28506243894145394,0.7249377704347197
0.063,1.7134994648351252,1.0,2894.3076877367275,0.5077589297584143,1.293204501839214,0.9807165474082302,0.2850199775230753,0.7258645411390892
0.0635,1.7124884786832513,1.0,2898.6736430196324,0.5105200077232845,1.2927094035144537,0.9808947988418601,0.28497751610469657,0.7267895570606273
0.064,1.7114774925313774,1.0,2903.030229410884,0.5132656001177265,1.2922144167661482,0.9810692340069127,0.28493505468631786,0.7277128017666449
0.0645,1.7104665063795037,1.0,2907.378463622123,0.5159957597852184,1.2917195323888693,0.9812399585571061,0.28489259326793914,0.7286342934401131
0.065,1.7094555202276298,1.0,2911.716363163224,0.5187106077263766,1.2912247676001676,0.9814070804904594,0.28485013184956043,0.7295540010721568
0.0655,1.7084445340757561,1.0,2916.042695508088,0.521410246563567,1.2907301329718286,0.9815707023303801,0.28480767043118177,0.7304719061931852
0.066,1.7074335479238822,1.0,2920.3573534310144,0.5240947571204313,1.290235629156548,0.9817309210026993,0.28476520901280306,0.7313880088268583
0.0665,1.7064225617720086,1.0,2924.6602296003607,0.5267642202206111,1.289741256807021,0.9818878300527822,0.28472274759442434,0.7323023090047446
0.067,1.7054115756201347,1.0,2928.951216580168,0.5294187166877482,1.2892470165759433,0.9820415197875927,0.2846802861760457,0.7332148067663137
0.0675,1.704400589468261,1.0,2933.230206832103,0.5320583273454844,1.2887529091160106,0.9821920774108247,0.28463782475766697,0.7341255021589316
0.068,1.7033896033163871,1.0,2937.4970927175764,0.5346831330174612,1.2882589350799183,0.9823395871514813,0.28459536333928825,0.7350343952378554
0.0685,1.7023786171645132,1.0,2941.7517664995025,0.5372932145273205,1.2877650951203616,0.9824841303862665,0.28455290192090954,0.7359414860662283
0.069,1.7013676310126395,1.0,2945.994120344197,0.5398886526987039,1.2872713898900365,0.9826257857561251,0.2845104405025308,0.7368467747150722
0.0695,1.7003566448607657,1.0,2950.2240463235294,0.5424695283552531,1.2867778200416384,0.9827646292772501,0.28446797908415217,0.7377502612632834
0.07,1.699345658708892,1.0,2954.4414364165345,0.5450359223206099,1.286284386227863,0.982900734446857,0.28442551766577345,0.7386519457976268
0.07050000000000001,1.698334672557018,1.0,2958.646182511718,0.547587915418416,1.2857910891014055,0.9830341723440035,0.28438305624739474,0.7395518284127313
0.07100000000000001,1.6973236864051442,1.0,2962.8381764089963,0.550125588472313,1.2852979293149616,0.9831650117257199,0.2843405948290161,0.7404499092110817
0.07150000000000001,1.6963127002532705,1.0,2967.017309821234,0.5526490223059427,1.2848049075212267,0.9832933191186988,0.28429813341063737,0.7413461883030151
