Time [s],Phi [rad],STIM [ ],Fsee [N],Gamma [ ],Lcerel [ ],q [ ],Lmtc [m],fisomrel [ ]
0.0,1.8,1.0,17.97869783722871,0.0001036067922926873,1.3793384535983182,0.0050028085830496755,0.288653,0.5411426582322596
0.0005,1.79999375,1.0,18.31889346351115,0.005712234948942246,1.3792977085170302,0.013202424902391721,0.2886527375,0.5412412254902106
0.001,1.799975,1.0,21.730029694269284,0.011289403136103842,1.378926913584957,0.03609801125247976,0.28865195,0.5421377364827125
0.0015,1.79994375,1.0,31.329767755139564,0.01683528782026214,1.378024053656458,0.0712705951001684,0.2886506375,0.5443170116617962
0.002,1.7999,1.0,54.139761541926525,0.022350064476129985,1.3763320657019003,0.11550933616702716,0.2886488,0.5483870418512138
0.0025,1.79984375,1.0,98.05247691522466,0.027833907594813787,1.3738902898165586,0.16543534531510304,0.28864643749999996,0.5542284795308987
0.003,1.7997750000000001,1.0,162.17084453466555,0.03328699069069045,1.3711690372513305,0.21816788903703566,0.28864354999999997,0.5606937046744911
0.0035,1.79969375,1.0,239.05237585782115,0.038709486301685025,1.368542624597009,0.2714953740211315,0.2886401375,0.5668888196911612
0.004,1.7996,1.0,322.92260612898224,0.044101565999852446,1.3661175764509608,0.3237701724194675,0.2886362,0.572569898640545
0.0045000000000000005,1.7994937500000001,1.0,410.7748230155226,0.049463400396622746,1.363887469944646,0.37384544953244575,0.2886317375,0.5777611901061366
0.005,1.799375,1.0,500.9508977892696,0.054795159134382834,1.3618256979638157,0.42100610351905443,0.28862675,0.5825324116485894
0.0055,1.79924375,1.0,592.3409548767404,0.06009701092896955,1.3599085611412716,0.46487605110833674,0.2886212375,0.586944603371236
0.006,1.7991000000000001,1.0,684.0698459871555,0.06536912352454825,1.3581182243010748,0.5053254016195575,0.2886152,0.5910438055594551
0.006500000000000001,1.79894375,1.0,775.423617661396,0.07061166372847962,1.356440937629058,0.5423908959431221,0.2886086375,0.5948656185654273
0.007,1.798775,1.0,865.8123824478233,0.07582479743879696,1.3548657468582361,0.5762145426421842,0.28860155,0.5984384620750838
0.0075,1.79859375,1.0,954.7479379696557,0.08100868962882142,1.3533836441293783,0.6069989721137409,0.2885939375,0.6017857144829112
0.008,1.7984,1.0,1041.8256619893205,0.08616350406714994,1.3519870522824817,0.6349764759229701,0.2885858,0.6049270249537293
0.0085,1.79819375,1.0,1126.7546487642435,0.09128940435810884,1.3506688569506067,0.6603880867465458,0.2885771375,0.6078805891739636
0.009000000000000001,1.797975,1.0,1209.28272289216,0.0963865524410952,1.3494231496557907,0.6834711597972108,0.28856795,0.6106615512902644
0.0095,1.79774375,1.0,1289.2233733564492,0.1014551092964166,1.348244513445109,0.704451301641705,0.2885582375,0.6132836698194492
0.01,1.7975,1.0,1366.4570380121395,0.10649523537182548,1.347127809351594,0.7235381638245363,0.288548,0.6157598341031998
0.0105,1.79724375,1.0,1440.915336386846,0.11150709092686979,1.3460682320474093,0.7409237069526036,0.2885372375,0.6181019731109071
0.011,1.796975,1.0,1512.5296019759792,0.11649083378946545,1.345061807823597,0.7567821212723248,0.28852595000000003,0.6203199897369613
0.0115,1.79669375,1.0,1581.2769528651106,0.12144662146122936,1.3441046760931137,0.7712700279399137,0.2885141375,0.6224233797539966
0.012,1.7964,1.0,1647.1650621931071,0.12637461082748486,1.343193197590989,0.7845276158941952,0.28850180000000003,0.6244210112476798
0.0125,1.79609375,1.0,1710.2392891460931,0.13127495881539855,1.342323799781514,0.7966799019575402,0.2884889375,0.6263214799207457
0.013000000000000001,1.7957750000000001,1.0,1770.524975564527,0.13614781973973253,1.341493577295919,0.8078383889467261,0.28847555,0.6281318133470545
0.0135,1.79544375,1.0,1828.063981353417,0.14099334732294388,1.3406997927328392,0.8181022360104077,0.2884616375,0.6298585817340574
0.014,1.7951000000000001,1.0,1882.9233428250775,0.1458116950490709,1.3399397390006151,0.8275595417760027,0.2884472,0.631508207424087
0.0145,1.79474375,1.0,1935.1829312347652,0.15060301589802985,1.3392108438083008,0.8362886261000193,0.2884322375,0.633086745672387
0.015,1.794375,1.0,1984.9180450188112,0.15536746187806727,1.3385108223850994,0.8443592061769132,0.28841675,0.6345995635464403
0.0155,1.79399375,1.0,2032.1942323818382,0.16010518276970395,1.3378376938420444,0.8518334001435842,0.2884007375,0.6360513157509218
0.016,1.7936,1.0,2077.093178659926,0.1648163283534606,1.337189477290169,0.8587665248732037,0.2883842,0.6374466084336182
0.0165,1.7931937500000001,1.0,2119.6998057251403,0.16950104740039873,1.3365643106128513,0.8652079371705478,0.2883671375,0.6387897475181638
0.017,1.792775,1.0,2160.1140950307,0.17415948985960253,1.3359603108114273,0.8712016998822117,0.28834955,0.6400850432381671
0.0175,1.7923437500000001,1.0,2198.417747822159,0.17879180311574427,1.3353759009807153,0.8767872956828798,0.2883314375,0.6413361130145836
0.018000000000000002,1.7919,1.0,2234.680262921716,0.18339813244731817,1.3348097259170515,0.8820001381689577,0.2883128,0.6425460696152706
0.0185,1.79144375,1.0,2268.979475849846,0.18797862313281843,1.3342604304167722,0.8868719876892087,0.2882936375,0.6437179995458998
0.019,1.790975,1.0,2301.4008616670276,0.19253342045073932,1.3337266592762143,0.8914313744305661,0.28827395,0.6448549645674031
0.0195,1.79049375,1.0,2332.0254607013,0.1970626682689523,1.3332071695721084,0.8957039951327272,0.2882537375,0.6459597644953579
0.02,1.79,1.0,2360.944223533186,0.20156651193666614,1.3327006809950275,0.899713000589961,0.288233,0.6470352578617505
0.0205,1.78949375,1.0,2388.2288244534843,0.2060450935946572,1.332206155367451,0.9034793417483381,0.2882117375,0.6480837702040085
0.021,1.788975,1.0,2413.942690294833,0.2104985536364828,1.3317226786293581,0.9070219863657232,0.28818995000000003,0.6491073484788381
0.021500000000000002,1.78844375,1.0,2438.15319125352,0.21492703245570025,1.3312493367207296,0.9103581099819418,0.2881676375,0.6501080258994791
0.022,1.7879,1.0,2460.93131182875,0.21933067044586688,1.3307852155815454,0.9135032899729023,0.2881448,0.6510878225531587
0.0225,1.78734375,1.0,2482.3453610639494,0.22370960671470577,1.3303294581420524,0.9164716869647757,0.28812143749999997,0.6520486259042668
0.023,1.786775,1.0,2502.4654599297705,0.22806398133565967,1.3298812178037247,0.919276186273936,0.28809755,0.6529922899883022
0.0235,1.78619375,1.0,2521.356720190482,0.23239393327095065,1.3294397203120127,0.9219285409247951,0.28807313749999996,0.6539205059972667
0.024,1.7856,1.0,2539.0703259006978,0.2366995977817841,1.3290043442879427,0.9244395007323539,0.2880482,0.6548346346927962
0.0245,1.78499375,1.0,2555.6593368796443,0.2409811101293654,1.3285744683525402,0.9268188878778778,0.2880227375,0.6557360291672372
0.025,1.784375,1.0,2571.1785308837198,0.2452386055749,1.3281494711268311,0.9290756896831419,0.28799675,0.656626035073919
0.025500000000000002,1.78374375,1.0,2585.684254339956,0.2494722193795932,1.327728731231841,0.9312181409777852,0.2879702375,0.657505990832805
0.026000000000000002,1.7831000000000001,1.0,2599.2249570907525,0.25368208441628715,1.3273117141432091,0.9332538104128412,0.2879432,0.6583770465071243
0.0265,1.78244375,1.0,2611.8556445015947,0.25786833668625386,1.326897835621337,0.9351896448017597,0.2879156375,0.6592404498280782
0.027,1.781775,1.0,2623.6270248963306,0.26203111011609226,1.3264865618860058,0.9370320413841721,0.28788755,0.6600973370786203
0.0275,1.7810937500000001,1.0,2634.5761289228544,0.26617053433712023,1.3260774948617595,0.9387869109666555,0.2878589375,0.6609485565837985
0.028,1.7804,1.0,2644.740769515054,0.2702867389806556,1.3256702364731427,0.9404597040105155,0.2878298,0.6617949524092069
0.0285,1.77969375,1.0,2654.159474349498,0.2743798536780162,1.3252643886447004,0.9420554525240351,0.2878001375,0.6626373644119556
0.029,1.778975,1.0,2662.8714218158007,0.2784500080605199,1.3248595533009766,0.9435788076373367,0.28776995,0.6634766282815368
0.029500000000000002,1.7782437500000001,1.0,2670.9163804994414,0.2824973317594845,1.324455332366516,0.9450340733518013,0.2877392375,0.6643135755705791
0.03,1.7775,1.0,2678.3268884481136,0.28652195150077375,1.3240513990061606,0.9464252454036898,0.287708,0.665148886486448
0.0305,1.77674375,1.0,2685.1412101197966,0.2905239975681497,1.323647377939678,0.9477560242371813,0.2876762375,0.6659833378596021
0.031,1.775975,1.0,2691.396240892133,0.29450359859513764,1.3232429102907806,0.9490298468100732,0.28764395,0.6668176688352883
0.0315,1.7751937500000001,1.0,2697.1175260004197,0.2984608782587731,1.3228377443583366,0.9502499190387205,0.2876111375,0.6676523941888436
0.032,1.7744,1.0,2702.330895956006,0.3023959602360916,1.3224316284412152,0.9514192231843666,0.2875778,0.668488026086563
0.0325,1.77359375,1.0,2707.0624396424546,0.3063089682041286,1.3220243108382848,0.9525405361947687,0.2875439375,0.6693250740724738
0.033,1.772775,1.0,2711.338478815732,0.3102000258399197,1.3216155398484142,0.9536164463306298,0.28750955,0.6701640450510622
0.0335,1.7719437500000002,1.0,2715.1855440094214,0.3140692568205003,1.3212050637704724,0.9546493682555506,0.2874746375,0.6710054432659653
0.034,1.7711000000000001,1.0,2718.630351844429,0.3179167848229061,1.320792630903328,0.9556415567478368,0.2874392,0.6718497702746211
0.0345,1.7702437500000001,1.0,2721.6625832003397,0.3217427286618333,1.320378328170081,0.9565951551211551,0.2874032375,0.6726968330323467
0.035,1.7693750000000001,1.0,2724.3755970832062,0.32554721563295974,1.3199612998597945,0.9575120684634391,0.28736675,0.6735483628572407
0.035500000000000004,1.76849375,1.0,2726.778555928584,0.3293303646376962,1.3195414582874885,0.9583941603431683,0.2873297375,0.6744045166948509
0.036000000000000004,1.7676,1.0,2728.8703033204233,0.3330922935112717,1.3191188102229763,0.9592431863026617,0.2872922,0.6752652581692349
0.0365,1.76669375,1.0,2730.6497352134325,0.33683312008891503,1.3186933624360708,0.9600607923709406,0.2872541375,0.6761305508265025
0.037,1.765775375184558,1.0,2732.1344501609397,0.34055296220585535,1.3182651216965853,0.9608485231311595,0.2872155657577514,0.6770003581360261
0.0375,1.764853437800098,1.0,2733.749187079702,0.3442519376973216,1.3178340947743328,0.9616078291076868,0.2871768443876041,0.6778746434916469
0.038,1.7639315004156377,1.0,2735.6705166131314,0.3479301643985427,1.3174002884391265,0.9623400735370802,0.2871381230174568,0.6787533702128805
0.0385,1.7630095630311777,1.0,2737.9000543654697,0.3515877585767532,1.3169636909556761,0.9630465365181619,0.28709940164730946,0.6796365389532992
0.039,1.7620876256467177,1.0,2740.3984259964436,0.3552248361541407,1.3165246629166563,0.9637284573905553,0.28706068027716214,0.6805233984869169
0.0395,1.7611656882622577,1.0,2743.1215265930095,0.3588415160627032,1.3160836075437674,0.9643870076038125,0.2870219589070148,0.6814131155679771
0.04,1.7602437508777977,1.0,2746.052758263289,0.3624379105717971,1.3156406782678887,0.9650232673284825,0.2869832375368675,0.6823053642301888
0.0405,1.7593218134933377,1.0,2749.1755116441946,0.366014131950779,1.3151960285198996,0.9656382553281253,0.2869445161667202,0.6831998201699064
0.041,1.7583998761088777,1.0,2752.4731597879977,0.36957029246900513,1.3147498117306795,0.9662329331001159,0.28690579479657285,0.6840961607637175
0.0415,1.7574779387244177,1.0,2755.929052570343,0.3731065043958322,1.314302181331108,0.9668082086959614,0.28686707342642553,0.6849940650845259
0.042,1.7565560013399577,1.0,2759.526511620765,0.37662288000061656,1.313853290752064,0.9673649402489699,0.2868283520562782,0.6858932139161367
0.0425,1.7556340639554977,1.0,2763.248825774483,0.3801195315527146,1.313403293424427,0.9679039392344618,0.2867896306861309,0.6867932897663345
0.043000000000000003,1.7547121265710377,1.0,2767.0870694647315,0.3835965648040192,1.3129522721607727,0.9684259667095639,0.28675090931598357,0.6876941178233726
0.043500000000000004,1.7537901891865777,1.0,2771.0213363245266,0.3870540978110716,1.3125004086710712,0.968931753154077,0.28671218794583625,0.6885953271059104
0.044,1.7528682518021177,1.0,2775.039535138338,0.39049224155499945,1.3120478137472729,0.9694219838777188,0.28667346657568893,0.6894966898454953
0.0445,1.7519463144176577,1.0,2779.1347780700753,0.393911102254667,1.3115945510236202,0.9698973041643287,0.2866347452055416,0.69039807325379
0.045,1.7510243770331977,1.0,2783.3001596206195,0.3973107861289384,1.3111406841343567,0.9703583261269543,0.2865960238353943,0.6912993452691469
0.0455,1.7501024396487377,1.0,2787.5287557307993,0.4006913993966777,1.3106862767137244,0.9708056307382308,0.28655730246524697,0.6922003745591936
0.046,1.7491805022642777,1.0,2791.813622973453,0.40405304827674904,1.3102313923959668,0.9712397697175926,0.28651858109509964,0.6931010305231495
0.0465,1.7482585648798177,1.0,2796.1477978362645,0.4073958389880166,1.309776094815326,0.971661267286688,0.2864798597249523,0.694001183293897
0.047,1.7473366274953577,1.0,2800.5242960933156,0.41071987774934443,1.3093204476060454,0.9720706218033766,0.286441138354805,0.6949007037397823
0.0475,1.7464146901108974,1.0,2804.936112267183,0.4140252707795967,1.3088645144023676,0.9724683072837781,0.2864024169846577,0.695799463466166
0.048,1.7454927527264374,1.0,2809.376219180482,0.4173121242976376,1.3084083588385351,0.972854774821022,0.28636369561451036,0.6966973348167136
0.0485,1.7445708153419774,1.0,2813.845565183101,0.4205805281423405,1.3079519729515203,0.9732304469117545,0.28632497424436304,0.6975943314900067
0.049,1.7436488779575174,1.0,2818.3310225951655,0.4238306085900505,1.307495474719793,0.9735957391561048,0.2862862528742157,0.6984902201111258
0.0495,1.7427269405730574,1.0,2822.830091227636,0.4270624656739691,1.3070388867583702,0.9739510379713431,0.2862475315040684,0.699384955415117
0.05,1.7418050031885974,1.0,2827.3406246769277,0.4302761985753498,1.306582228451134,0.9742967115270195,0.2862088101339211,0.7002784987179105
0.0505,1.7408830658041374,1.0,2831.86046965128,0.43347190647544603,1.3061255191819658,0.9746331110726841,0.28617008876377376,0.7011708115611348
0.051000000000000004,1.7399611284196774,1.0,2836.387465945024,0.43664968855551134,1.3056687783347483,0.9749605718670986,0.28613136739362643,0.7020618557121892
0.051500000000000004,1.7390391910352174,1.0,2840.9194464205434,0.43980964399679917,1.305212025293363,0.9752794140484704,0.2860926460234791,0.702951593164297
0.052000000000000005,1.7381172536507574,1.0,2845.454236999107,0.44295187198056307,1.3047552794416921,0.9755899434499419,0.2860539246533318,0.7038399861365311
0.0525,1.7371953162662974,1.0,2849.9896566595858,0.4460764716880564,1.3042985601636177,0.9758924523642307,0.28601520328318447,0.7047269970738175
0.053,1.7362733788818374,1.0,2854.523517445982,0.4491835423005329,1.3038418868430213,0.9761872202610049,0.28597648191303715,0.7056125886469153
0.0535,1.7353514414973774,1.0,2859.053624482611,0.4522731829992459,1.3033852788637852,0.9764745144602971,0.28593776054288983,0.7064967237523703
0.054,1.7344295041129174,1.0,2863.5777759984853,0.4553454929654489,1.3029287556097913,0.9767545907650066,0.2858990391727425,0.707379365512447
0.0545,1.7335075667284574,1.0,2868.0937633591616,0.45840057138039536,1.3024723364649213,0.9770276940553012,0.2858603178025952,0.7082604772750365
0.055,1.7325856293439974,1.0,2872.602513315189,0.4614384946561611,1.3020160129720717,0.9772940550120244,0.28582159643244787,0.7091400762386908
0.0555,1.7316636919595374,1.0,2877.1003885807545,0.46445938484463223,1.3015598171084521,0.97755390137512,0.2857828750623006,0.710018101739531
0.056,1.7307417545750772,1.0,2881.585994450229,0.4674633420349694,1.301103760913151,0.9778074481603171,0.2857441536921532,0.7108945317728188
0.0565,1.7298198171906172,1.0,2886.05898230108,0.4704504574570177,1.3006478471418734,0.9780549001783775,0.2857054323220059,0.7117693622734589
0.057,1.7288978798061572,1.0,2890.5190026772143,0.4734208223406221,1.300192078550324,0.9782964538898661,0.2856667109518586,0.7126425892080233
0.0575,1.7279759424216972,1.0,2894.965705297727,0.4763745279156276,1.2997364578942077,0.9785322978133468,0.28562798958171126,0.7135142085747255
0.058,1.7270540050372372,1.0,2899.3987390661273,0.4793116654118792,1.2992809879292286,0.9787626129104535,0.28558926821156394,0.7143842164033958
0.0585,1.7261320676527772,1.0,2903.817752079161,0.48223232605922184,1.298825671411092,0.9789875729493254,0.2855505468414166,0.7152526087554532
0.059000000000000004,1.7252101302683172,1.0,2908.2223916362964,0.48513660108750056,1.2983705110955024,0.9792073448477823,0.2855118254712693,0.7161193817238798
0.059500000000000004,1.7242881928838572,1.0,2912.6123042491226,0.4880245817265604,1.2979155097381645,0.9794220889975191,0.285473104101122,0.716984531433194
0.06,1.7233662554993971,1.0,2916.9871356509425,0.49089635920624614,1.297460670094783,0.9796319595705123,0.28543438273097466,0.7178480540394216
0.0605,1.7224443181149371,1.0,2921.3465308066693,0.49375202475640306,1.2970059949210628,0.9798371048087432,0.2853956613608274,0.718709945730069
0.061,1.7215223807304771,1.0,2925.6901339225183,0.496591669606876,1.2965514869727084,0.98003766729827,0.28535693999068,0.719570202724093
0.0615,1.7206004433460171,1.0,2930.017588456722,0.49941538498751,1.2960971490054245,0.980233784228607,0.28531821862053275,0.7204288212718732
0.062,1.7196785059615571,1.0,2934.328537128976,0.50222326212815,1.295642983774916,0.9804255876383033,0.28527949725038537,0.7212857976551812
0.0625,1.7187565685770971,1.0,2938.6226219319,0.5050153922586411,1.2951889940368875,0.9806132046475571,0.2852407758802381,0.7221411281871506
0.063,1.7178346311926371,1.0,2942.90057527721,0.507791811269802,1.2947351729953867,0.9807967531060111,0.28520205451009073,0.7229948271663887
0.0635,1.7169126938081771,1.0,2947.161666800175,0.5105526666887867,1.294281526671595,0.9809763554010128,0.28516333313994346,0.723846884757128
0.064,1.7159907564237171,1.0,2951.4057184833987,0.5132980590071415,1.293828056242821,0.9811521257615513,0.2851246117697961,0.7246973002696607
0.0645,1.715068819039257,1.0,2955.6328514465545,0.5160280699717034,1.293374760271823,0.981324172823716,0.28508589039964877,0.7255460779191656
0.065,1.7141468816547971,1.0,2959.843187483483,0.5187427813293088,1.2929216373213592,0.9814926013453938,0.28504716902950145,0.7263932219036164
0.0655,1.713224944270337,1.0,2964.036849057129,0.5214422748267952,1.2924686859541876,0.9816575123728897,0.2850084476593542,0.7272387364037971
0.066,1.7123030068858769,1.0,2968.2139592933377,0.5241266322109991,1.2920159047330666,0.9818190033992324,0.2849697262892068,0.7280826255833182
0.0665,1.7113810695014169,1.0,2972.3746419763997,0.5267959352287577,1.291563292220754,0.9819771685146405,0.28493100491905954,0.7289248935886325
0.067,1.7104591321169569,1.0,2976.519021542523,0.5294502656269077,1.2911108469800083,0.9821320985495859,0.28489228354891216,0.7297655445490503
0.0675,1.7095371947324969,1.0,2980.6472230756785,0.532089705152286,1.2906585675735875,0.9822838812108727,0.2848535621787649,0.7306045825767546
0.068,1.7086152573480369,1.0,2984.759372301023,0.5347143355517299,1.29020645256425,0.9824326012111139,0.2848148408086175,0.7314420117668166
0.0685,1.7076933199635769,1.0,2988.8555955809784,0.5373242385720758,1.2897545005147537,0.9825783403919754,0.28477611943847025,0.7322778361972118
0.069,1.7067713825791169,1.0,2992.9360199086063,0.5399194959601609,1.289302709987857,0.9827211778415249,0.2847373980683229,0.7331120599288328
0.0695,1.7058494451946569,1.0,2997.0007729039166,0.5425001894628221,1.2888510795463177,0.9828611900060057,0.2846986766981756,0.7339446870055064
0.07,1.7049275078101969,1.0,3001.049982807229,0.5450664008268963,1.2883996077528943,0.9829984507963399,0.28465995532802824,0.7347757214540074
0.07050000000000001,1.7040055704257369,1.0,3005.0837784755417,0.5476182117992203,1.287948293170345,0.9831330316896414,0.28462123395788097,0.7356051672840722
0.07100000000000001,1.7030836330412769,1.0,3009.102289376258,0.5501557041266311,1.2874971343614279,0.9832650018260032,0.2845825125877336,0.7364330284884155
0.07150000000000001,1.7021616956568169,1.0,3013.1056455831636,0.5526789595559657,1.287046129888901,0.9833944281008121,0.28454379121758633,0.7372593090427427
