Time [s],Phi [rad],STIM [ ],Fsee [N],Gamma [ ],Lcerel [ ],q [ ],Lmtc [m],fisomrel [ ]
0.0,1.8,1.0,18.601369228559463,0.0008115051091979463,1.3792693095551372,0.005169468990305795,0.288653,0.5413099197371478
0.0005,1.79999375,1.0,19.15266331288302,0.006416162516122121,1.3792062288498275,0.015314566813202316,0.2886527375,0.5414624872496565
0.001,1.799975,1.0,23.089885722349,0.011989382226395985,1.378790483615802,0.039906634207146914,0.28865195,0.5424673773026365
0.0015,1.79994375,1.0,33.87965095017642,0.017531340581042738,1.3778119488291434,0.07640507237141261,0.2886506375,0.5448282248785866
0.002,1.7999,1.0,59.02709320666401,0.023042212931171695,1.3760234515145893,0.12153938843635242,0.2886488,0.5491274359408652
0.0025,1.79984375,1.0,105.76163318948021,0.028522173644410682,1.3735275712294626,0.17196319421684403,0.28864643749999996,0.5550929640670241
0.003,1.7997750000000001,1.0,171.8804336250953,0.03397139611191509,1.3708122227171364,0.22488124223641864,0.28864354999999997,0.5615379320267118
0.0035,1.79969375,1.0,249.84848703655845,0.03939005274979973,1.3682146910857216,0.2781576678741188,0.2886401375,0.567659251494409
0.004,1.7996,1.0,334.30741879811256,0.04477831500873709,1.3658193227382665,0.3302104994647529,0.2886362,0.5732660175743498
0.0045000000000000005,1.7994937500000001,1.0,422.49839618299126,0.0501363533757325,1.3636147107442165,0.37995162471775806,0.2886317375,0.5783939481198973
0.005,1.799375,1.0,512.8593559607896,0.05546433737113841,1.3615745168034996,0.42671396781596677,0.28862675,0.5831118265252416
0.0055,1.79924375,1.0,604.3249633762265,0.060762435627078185,1.3596759002069607,0.47015729147802193,0.2886212375,0.5874784655941085
0.006,1.7991000000000001,1.0,696.0302429176232,0.0660308157054773,1.357902003857405,0.5101768502486126,0.2886152,0.5915374860805296
0.006500000000000001,1.79894375,1.0,787.2880564813853,0.07126964434493127,1.3562393734852662,0.5468255308190794,0.2886086375,0.5953236887079879
0.007,1.798775,1.0,877.5166285907795,0.07647908732110065,1.3546774866257363,0.5802551902216458,0.28860155,0.598864414798631
0.0075,1.79859375,1.0,966.2268112295225,0.08165930928947791,1.353207753482127,0.61067377315374,0.2885939375,0.6021820244901437
0.008,1.7984,1.0,1053.063191087293,0.08681047459262863,1.3518221622990472,0.6383153090893448,0.2885858,0.6052970858266037
0.0085,1.79819375,1.0,1137.7055832109772,0.0919327458054048,1.3505143057170654,0.6634212859658514,0.2885771375,0.6082261527030727
0.009000000000000001,1.797975,1.0,1219.917585284919,0.09702628492893543,1.349278237897025,0.6862278525173173,0.28856795,0.6109844149602974
0.0095,1.79774375,1.0,1299.5411442017391,0.10209125358118419,1.348108324190584,0.7069586420318648,0.2885582375,0.6135860798125742
0.01,1.7975,1.0,1376.4451310408874,0.1071278118073473,1.3469997295885368,0.7258212902693704,0.288548,0.6160433280149311
0.0105,1.79724375,1.0,1450.5444056180975,0.11213611870126315,1.345947969967068,0.7430056220193727,0.2885372375,0.618367353557604
0.011,1.796975,1.0,1521.7974164882967,0.11711633265285627,1.3449488154782117,0.758683432995811,0.28852595000000003,0.6205686055490391
0.0115,1.79669375,1.0,1590.208230716468,0.1220686123439705,1.343998167398129,0.7730090970695406,0.2885141375,0.6226570817178854
0.012,1.7964,1.0,1655.7630450491652,0.12699311353315393,1.3430927245011703,0.7861209777655931,0.28850180000000003,0.6246408877371302
0.0125,1.79609375,1.0,1718.4825959249763,0.13188999171800364,1.3422292548998562,0.7981424194466928,0.2884889375,0.6265278606208202
0.013000000000000001,1.7957750000000001,1.0,1778.4163908719913,0.13675940194455616,1.3414046145596765,0.8091831803913195,0.28847555,0.6283255394048428
0.0135,1.79544375,1.0,1835.6312258649457,0.1416014991856906,1.3406158311327796,0.8193408677495946,0.2884616375,0.6300409935641766
0.014,1.7951000000000001,1.0,1890.1855379070375,0.14641643660333836,1.3398603389427137,0.8287023411076386,0.2884472,0.6316803252989278
0.0145,1.79474375,1.0,1942.134570327764,0.15120436563806677,1.3391358674945175,0.8373448755683978,0.2884322375,0.6332489265903734
0.015,1.794375,1.0,1991.5542375790064,0.15596543773044322,1.3384401462932298,0.8453371642981945,0.28841675,0.6347521281154885
0.0155,1.79399375,1.0,2038.5286681310686,0.1606998034732899,1.3377710170537314,0.8527403606444586,0.2884007375,0.6361949618574232
0.016,1.7936,1.0,2083.152878091288,0.16540761411270066,1.3371263824179118,0.8596089529489985,0.2883842,0.637582277671594
0.0165,1.7931937500000001,1.0,2125.503517906214,0.17008901825991507,1.3365044888652344,0.8659916346675701,0.2883671375,0.6389181408595259
0.017,1.792775,1.0,2165.6529348815393,0.17474416300610165,1.3359037533757836,0.8719319354664024,0.28834955,0.6402062132272346
0.0175,1.7923437500000001,1.0,2203.6842273575903,0.1793731954424289,1.3353225929296437,0.8774687821560038,0.2883314375,0.6414501233129479
0.018000000000000002,1.7919,1.0,2239.688160979807,0.1839762624051574,1.3347594462893968,0.8826370451467378,0.2883128,0.642653421938828
0.0185,1.79144375,1.0,2273.7478979207795,0.1885535094042516,1.3342129167236678,0.8874680475638385,0.2882936375,0.6438192802776106
0.019,1.790975,1.0,2305.959902459054,0.1931050834427159,1.3336815516682436,0.8919899203868282,0.28827395,0.6449509632534224
0.0195,1.79049375,1.0,2336.3882783301206,0.19763112689111886,1.3331642866063382,0.8962280712099974,0.2882537375,0.6460508868944188
0.02,1.79,1.0,2365.1026497341736,0.20213178212002914,1.3326600570211649,0.9002054010956788,0.288233,0.6471214491794495
0.0205,1.78949375,1.0,2392.1777078742416,0.2066071915000153,1.3321677983959372,0.9039425856207576,0.2882117375,0.6481650309591709
0.021,1.788975,1.0,2417.6921123270617,0.21105749729770606,1.3316864526875458,0.9074583228288687,0.28818995000000003,0.6491839831108177
0.021500000000000002,1.78844375,1.0,2441.711745293192,0.21548283935693643,1.3312151252244355,0.9107695813694338,0.2881676375,0.6501802959903109
0.022,1.7879,1.0,2464.327221137633,0.21988336113915952,1.3307527185292625,0.9138917145950062,0.2881448,0.6511563749537707
0.0225,1.78734375,1.0,2485.5927798398693,0.22425919998226,1.330298515841041,0.9168387448597957,0.28812143749999997,0.6521138087793545
0.023,1.786775,1.0,2505.5652726401063,0.22861049322412244,1.3298518003987858,0.9196234307109071,0.28809755,0.6530541765742334
0.0235,1.78619375,1.0,2524.303947647899,0.23293737820263152,1.329411855441512,0.9222573982691058,0.28807313749999996,0.6539790481332284
0.024,1.7856,1.0,2541.8702468420993,0.23723999225567183,1.3289779642082338,0.9247512573819651,0.2880482,0.6548899842646877
0.0245,1.78499375,1.0,2558.3207036026397,0.24151847111456803,1.3285494748225501,0.9271147151018496,0.2880227375,0.6557884011282733
0.025,1.784375,1.0,2573.7161343035455,0.24577295202751484,1.3281257115940497,0.9293566517863178,0.28799675,0.6566757569862836
0.025500000000000002,1.78374375,1.0,2588.112675768426,0.25000357075056545,1.3277060575653172,0.931485214915838,0.2879702375,0.6575533795758832
0.026000000000000002,1.7831000000000001,1.0,2601.552946999442,0.25421045933072406,1.3272900346399894,0.9335079020230801,0.2879432,0.6584222998257478
0.0265,1.78244375,1.0,2614.080690788552,0.25839374981499497,1.3268771647217021,0.9354316019870579,0.2879156375,0.6592835433147359
0.027,1.781775,1.0,2625.7406779219814,0.26255357425038245,1.3264669697140923,0.9372626526004652,0.28788755,0.6601381303753124
0.0275,1.7810937500000001,1.0,2636.5786164525457,0.2666900646838907,1.3260589715207958,0.9390068919915526,0.2878589375,0.6609870761824008
0.028,1.7804,1.0,2646.6374924982474,0.27080335181624277,1.325652725032145,0.9406697089234136,0.2878298,0.6618313223186802
0.0285,1.77969375,1.0,2655.9559992717222,0.27489356498082146,1.3252478315685678,0.9422560854279537,0.2878001375,0.6626717093748231
0.029,1.778975,1.0,2664.5878937216667,0.27896083968605695,1.3248437597782317,0.9437706108908078,0.28776995,0.6635093486388474
0.029500000000000002,1.7782437500000001,1.0,2672.5625831793714,0.28300530203964647,1.3244402081239721,0.945217560972551,0.2877392375,0.6643448703841635
0.03,1.7775,1.0,2679.909932294936,0.2870270781492873,1.3240368750686247,0.9466008970156726,0.287708,0.6651789017721956
0.0305,1.77674375,1.0,2686.660222826866,0.2910262941226766,1.323633459075025,0.9479242931351811,0.2876762375,0.666012066859484
0.031,1.775975,1.0,2692.8441154477086,0.2950030760675118,1.3232296586060086,0.9491911606547327,0.28764395,0.6668449865989896
0.0315,1.7751937500000001,1.0,2698.492613565559,0.29895755009149,1.3228251721244109,0.950404670177136,0.2876111375,0.667678278835601
0.032,1.7744,1.0,2703.637029161434,0.3028898423023085,1.3224196980930676,0.9515677715438186,0.2875778,0.6685125582958391
0.0325,1.77359375,1.0,2708.302329300304,0.30680007585530933,1.3220129953953539,0.9526832182415187,0.2875439375,0.6693483124888769
0.033,1.772775,1.0,2712.5168406982534,0.3106883761530695,1.3216047943388294,0.9537535742624437,0.28750955,0.6701860850072681
0.0335,1.7719437500000002,1.0,2716.315362420955,0.31455487062681337,1.3211947681838292,0.9547812259530883,0.2874746375,0.671026533454516
0.034,1.7711000000000001,1.0,2719.7167783214963,0.3183996790407495,1.3207827369636858,0.9557684163584547,0.2874392,0.6718700116903278
0.0345,1.7702437500000001,1.0,2722.7401128138217,0.32222292115908635,1.3203685207117313,0.956717242051983,0.2874032375,0.6727168716102583
0.035,1.7693750000000001,1.0,2725.404516707044,0.32602471674603245,1.3199519394612975,0.9576296644102263,0.28736675,0.6735674631216653
0.035500000000000004,1.76849375,1.0,2727.7292537582475,0.32980518556579624,1.319532813245717,0.958507519894857,0.2873297375,0.6744221341175951
0.036000000000000004,1.7676,1.0,2729.7336879432496,0.3335644473825863,1.3191109620983215,0.9593525294397103,0.2872922,0.6752812304486087
0.0365,1.76669375,1.0,2731.437271445287,0.337302621960611,1.3186862060524434,0.9601663070300118,0.2872541375,0.676145095892537
0.037,1.765775,1.0,2732.859533362288,0.3410198290640789,1.3182583651414148,0.9609503675515878,0.28721555,0.6770140721221745
0.0375,1.76484375,1.0,2734.0192246279607,0.34471618171070756,1.3178272670684388,0.961706133292643,0.2871764375,0.6778884831243855
0.038,1.7639,1.0,2734.9334766367438,0.34839180561965927,1.317392754750837,0.9624349454152339,0.28713679999999997,0.6787686199989638
0.0385,1.76294375,1.0,2735.6147857294386,0.35204681492080175,1.316954713609879,0.9631380671808282,0.28709663750000003,0.6796546859709172
0.039,1.761975,1.0,2736.075588255451,0.35568132320293244,1.3165130299490349,0.9638166878169226,0.28705595,0.6805468809709228
0.0395,1.7609937500000001,1.0,2736.328352497512,0.359295444054849,1.3160675900717758,0.9644719276770581,0.2870147375,0.681445403399936
0.04,1.76,1.0,2736.385573766052,0.3628892910653488,1.3156182802815723,0.965104842961628,0.286973,0.6823504501023687
0.0405,1.7589937500000001,1.0,2736.2597697812707,0.3664629778232294,1.3151649868818953,0.9657164300668633,0.2869307375,0.6832622163384399
0.041,1.757975,1.0,2735.963476341055,0.37001661791728835,1.3147075961762154,0.9663076295948844,0.28688795,0.6841808957557021
0.0415,1.75694375,1.0,2735.509243275871,0.3735503249363231,1.3142459944680034,0.9668793300545032,0.2868446375,0.6851066803597436
0.042,1.7559,1.0,2734.8727957884457,0.3770642098733324,1.3137804025458992,0.967432398851318,0.28680079999999997,0.686039091129252
0.0425,1.75484375,1.0,2734.1210889038093,0.38055838628120087,1.313310212902584,0.9679675883232484,0.2867564375,0.6869793064124283
0.043000000000000003,1.753775,1.0,2733.282634524514,0.38403296540841514,1.3128351669863585,0.9684856387474949,0.28671155,0.6879278006907437
0.043500000000000004,1.75269375,1.0,2732.33153133759,0.38748805543727716,1.3123555004708223,0.9689872902508184,0.28666613750000003,0.6888840603495605
0.044,1.75160346727132,1.0,2731.414229280146,0.39092376455008876,1.3118714490295744,0.9694732439321332,0.28662034562539546,0.6898475742353112
0.0445,1.7505127775765248,1.0,2730.933440801638,0.3943402009291521,1.3113832483362144,0.9699441643122997,0.28657453665821403,0.6908178337231741
0.045,1.7494220878817293,1.0,2730.8833413423627,0.39773747275676913,1.3108911340643417,0.9704006816072873,0.28652872769103266,0.6917943327812103
0.0455,1.748331398186934,1.0,2731.237982969774,0.40111568821524174,1.3103953418875551,0.9708433938390304,0.28648291872385123,0.6927765680309559
0.046,1.7472407084921384,1.0,2731.975178521262,0.4044749537968767,1.3098960741032601,0.9712728660838174,0.2864371097566698,0.6937641047684525
0.0465,1.7461500187973429,1.0,2733.0546001077914,0.4078153770670511,1.3093936984435155,0.9716896474391005,0.2863913007894884,0.6947561841946525
0.047,1.7450593291025476,1.0,2734.439734613321,0.4111370657259633,1.308888548338617,0.9720942573042188,0.286345491822307,0.6957521195958606
0.0475,1.743968639407752,1.0,2736.1099140305323,0.41444012309736517,1.308380813533241,0.9724871787769357,0.2862996828551256,0.6967515109839808
0.048,1.7428779497129567,1.0,2738.0444915234334,0.41772465250500856,1.307870683772064,0.9728688715538077,0.2862538738879442,0.697753960694266
0.0485,1.7417872600181612,1.0,2740.2228309523794,0.4209907572726455,1.3073583487997615,0.9732397732855893,0.2862080649207628,0.6987590734154469
0.049,1.7406965703233659,1.0,2742.6242971981824,0.4242385407240278,1.3068439983610105,0.9736003008422215,0.28616225595358136,0.6997664562175644
0.0495,1.7396058806285704,1.0,2745.2282472839133,0.42746810618290737,1.3063278222004866,0.9739508514942019,0.28611644698639993,0.7007757185775099
0.05,1.738515190933775,1.0,2748.0155114857585,0.4306795560722649,1.3058099965723626,0.9742918030095865,0.28607063801921856,0.7017864987130471
0.0505,1.7374245012389795,1.0,2750.9706788298517,0.43387299169179394,1.3052906635174755,0.974623513356982,0.28602482905203713,0.7027985037278686
0.051000000000000004,1.736333811544184,1.0,2754.0744709210526,0.4370485174104288,1.3047699999135485,0.9749463267919076,0.2859790200848557,0.7038113748491571
0.051500000000000004,1.7352431218493887,1.0,2757.316368783987,0.4402062319115726,1.30424810313906,0.9752605662491873,0.28593321111767434,0.7048249098733543
0.052000000000000005,1.7341524321545931,1.0,2760.6858387841953,0.44334623387862826,1.3037250705724883,0.9755665402263024,0.2858874021504929,0.7058389078626818
0.0525,1.7330617424597978,1.0,2764.1723300711747,0.44646862199499887,1.3032009995923115,0.9758645435570712,0.2858415931833115,0.7068531691524973
0.053,1.7319710527650023,1.0,2767.7652722310913,0.4495734949440875,1.3026759875770082,0.9761548581374523,0.2857957842161301,0.7078674953580446
0.0535,1.730880363070207,1.0,2771.4540731498378,0.45266095140929713,1.3021501319050564,0.976437753606815,0.2857499752489487,0.7088816893806029
0.054,1.7297896733754115,1.0,2775.2283692785295,0.45573108973831555,1.3016235276815704,0.9767134878158923,0.28570416628176726,0.7098955597861127
0.0545,1.7286989836806161,1.0,2779.08639035524,0.4587839978102574,1.3010961923798587,0.9769823019082665,0.2856583573145859,0.7109090654794359
0.055,1.7276082939858206,1.0,2783.008198992336,0.4618197894350955,1.3005683069941054,0.9772444390933506,0.28561254834740446,0.7119218521387028
0.0555,1.726517604291025,1.0,2786.989412064973,0.4648385576189464,1.3000399121145316,0.9775001220968912,0.28556673938022303,0.7129338365379596
0.056,1.7254269145962298,1.0,2791.0256353738137,0.4678403953679267,1.2995110483313592,0.9777495644055019,0.28552093041304166,0.7139449359931448
0.0565,1.7243362249014342,1.0,2795.112463204685,0.4708253956881531,1.2989817562348098,0.9779929707267685,0.28547512144586024,0.714955068363357
0.057,1.723245535206639,1.0,2799.2454779253126,0.4737936515857422,1.2984520764151048,0.978230537422837,0.28542931247867886,0.7159641520520166
0.0575,1.7221548455118434,1.0,2803.4202496176636,0.4767452560668106,1.2979220494624661,0.9784624529192133,0.28538350351149744,0.7169721060079206
0.058,1.721064155817048,1.0,2807.6323357475476,0.4796803021374749,1.2973917159671153,0.9786888980903783,0.285337694544316,0.7179788497261945
0.0585,1.7199734661222525,1.0,2811.8772808705453,0.4825988828038518,1.2968611165192738,0.9789100466237108,0.2852918855771346,0.7189843032491394
0.059000000000000004,1.7188827764274572,1.0,2816.1506163741356,0.48550109107205786,1.2963302917091633,0.9791260653630995,0.2852460766099532,0.7199883871669714
0.059500000000000004,1.7177920867326617,1.0,2820.4478602566173,0.4883870199482097,1.2957992821270055,0.9793371146335272,0.2852002676427718,0.7209910226184574
0.06,1.7167013970378664,1.0,2824.7645169429575,0.4912567624384239,1.295268128363022,0.9795433485478243,0.2851544586755904,0.7219921312914475
0.0605,1.7156107073430709,1.0,2829.1021984858776,0.49411039101083504,1.294736816354879,0.9797449107353254,0.285108649708409,0.7229917381536684
0.061,1.7145200176482753,1.0,2833.4518625967453,0.49694802271908883,1.2942054271355237,0.9799419479285357,0.28506284074122756,0.7239896895535844
0.0615,1.71342932795348,1.0,2837.8113714606084,0.4997697467476772,1.2936739799401673,0.9801345958702744,0.28501703177404614,0.7249859486801729
0.062,1.7123386382586845,1.0,2842.1794179677668,0.5025756490996703,1.2931424865455887,0.9803229845878267,0.28497122280686477,0.7259804929268793
0.0625,1.7112479485638892,1.0,2846.554690959921,0.5053658157781388,1.2926109587285664,0.9805072392811011,0.28492541383968334,0.7269732998467769
0.063,1.7101572588690936,1.0,2850.9358752200865,0.5081403327861526,1.2920794082658793,0.9806874805383996,0.2848796048725019,0.727964347152595
0.0635,1.7090665691742983,1.0,2855.321651464737,0.510899286126782,1.2915478469343065,0.9808638245410011,0.28483379590532054,0.7289536127167418
0.064,1.7079758794795028,1.0,2859.71069633943,0.5136427618030975,1.2910162865106263,0.981036383257211,0.2847879869381391,0.7299410745713173
0.0645,1.7068851897847075,1.0,2864.1016824178437,0.5163708458181694,1.2904847387716176,0.9812052646265,0.2847421779709577,0.7309267109081157
0.065,1.705794500089912,1.0,2868.4932782034152,0.5190836241750679,1.2899532154940592,0.9813705727342997,0.2846963690037763,0.7319105000786215
0.0655,1.7047038103951166,1.0,2872.8841481337886,0.5217811828768633,1.28942172845473,0.981532407977999,0.2846505600365949,0.732892420593994
0.066,1.7036131207003211,1.0,2877.2729525893424,0.5244636079266258,1.2888902894304086,0.9816908672246417,0.28460475106941346,0.733872451125047
0.0665,1.7025224310055256,1.0,2881.658347903923,0.527130985327426,1.288358910197874,0.9818460439607954,0.2845589421022321,0.7348505705022144
0.067,1.7014317413107303,1.0,2886.0389863787814,0.5297834010823338,1.2878276025339048,0.9819980284350379,0.28451313313505067,0.7358267577155119
0.0675,1.7003410516159347,1.0,2890.413516299929,0.5324209411944197,1.2872963782152798,0.9821469077934676,0.28446732416786924,0.7368009919144864
0.068,1.6992503619211394,1.0,2894.7833275260527,0.5350436543002968,1.286765224785531,0.9822927626488762,0.28442151520068787,0.737773296727372
0.0685,1.698159672226344,1.0,2899.1455521261287,0.5376516637857601,1.2862341673784037,0.9824356774549013,0.28437570623350644,0.738743626993597
0.069,1.6970689825315486,1.0,2903.4990713398856,0.540245061529328,1.2857032156369534,0.9825757310798919,0.28432989726632507,0.7397119661183179
0.0695,1.695978292836753,1.0,2907.843676818732,0.5428239253086936,1.2851723711584304,0.9827129985044452,0.28428408829914364,0.7406783122700205
0.07,1.6948876031419577,1.0,2912.179159747807,0.5453883329015501,1.2846416355400845,0.982847552231597,0.2842382793319622,0.7416426636386024
0.07050000000000001,1.6937969134471622,1.0,2916.505310849601,0.5479383620855909,1.2841110103791658,0.9829794623856962,0.2841924703647808,0.7426050184353621
0.07100000000000001,1.6927062237523667,1.0,2920.821920387978,0.550474090638509,1.2835804972729241,0.9831087968066899,0.28414666139759936,0.7435653748929881
0.07150000000000001,1.6916155340575714,1.0,2925.128778171945,0.5529955963379981,1.2830500978186097,0.9832356211400706,0.284100852430418,0.7445237312655468
0.07200000000000001,1.6905248443627758,1.0,2929.425673559783,0.5555029569617512,1.2825198136134726,0.9833599989227008,0.28405504346323657,0.7454800858284717
