Time [s],Phi [rad],STIM [ ],Fsee [N],Gamma [ ],Lcerel [ ],q [ ],Lmtc [m],fisomrel [ ]
0.0,1.8,1.0,17.968501942823714,2.3477537853320434e-05,1.379339595674769,0.005000145917063944,0.288653,0.5411398952592565
0.0005,1.79999375,1.0,18.28225717579461,0.005632555156231522,1.3793017754453876,0.012977970938600984,0.2886527375,0.5412313875764566
0.001,1.799975,1.0,21.63385444176011,0.011210170284026379,1.3789367220690134,0.03567883525586079,0.28865195,0.5421140327410436
0.0015,1.79994375,1.0,31.105945495522626,0.0167564994018072,1.3780430771296508,0.07069785884843706,0.2886506375,0.5442711474309467
0.002,1.7999,1.0,53.66144477030228,0.02227171799847065,1.3763630047710749,0.11483170311509186,0.2886488,0.548312782652066
0.0025,1.79984375,1.0,97.25185914106926,0.027756000578897256,1.3739287642800861,0.16469854883401594,0.28864643749999996,0.5541367322830606
0.003,1.7997750000000001,1.0,161.13132791858214,0.03320952067154567,1.3712078639138938,0.21740802516030505,0.28864354999999997,0.5606017913535846
0.0035,1.79969375,1.0,237.87908682080098,0.038632450828140555,1.3685787056937808,0.2707397747328236,0.2886401375,0.5668040105519685
0.004,1.7996,1.0,321.67510183831746,0.04402496263442993,1.366150575410654,0.32303866456243285,0.2886362,0.5724928447909662
0.0045000000000000005,1.7994937500000001,1.0,409.4835388976407,0.049387226715376875,1.3639177494646728,0.3731511387358479,0.2886317375,0.5776909171701774
0.005,1.799375,1.0,499.6337025407074,0.05471941272626986,1.3618536636653402,0.4203565798927114,0.28862675,0.5824678765687845
0.0055,1.79924375,1.0,591.012634402297,0.06002168939970363,1.3599344938597193,0.46427472670912195,0.2886212375,0.5868850769449863
0.006,1.7991000000000001,1.0,682.7406376185623,0.06529422448999314,1.3581423700868684,0.5047728075181221,0.2886152,0.5909886567237264
0.006500000000000001,1.79894375,1.0,774.1045789558959,0.07053718482517532,1.3564634416546502,0.541885630754324,0.2886086375,0.5948144603435007
0.007,1.798775,1.0,864.5093219173667,0.07575073630748744,1.3548867848155328,0.5757540965785195,0.28860155,0.5983908480972375
0.0075,1.79859375,1.0,953.4637092389803,0.08093504387022138,1.3534033879642902,0.6065802287326315,0.2885939375,0.6017412161204128
0.008,1.7984,1.0,1040.5767745436328,0.08609027158923625,1.352005432191773,0.6345959262145164,0.2885858,0.6048857643733518
0.0085,1.79819375,1.0,1125.5334464194377,0.09121658253602932,1.3506861383159119,0.6600424065917765,0.2885771375,0.6078419400289321
0.009000000000000001,1.797975,1.0,1208.0949110739425,0.0963141389462782,1.3494393743971058,0.6831570174094395,0.28856795,0.6106253941994877
0.0095,1.79774375,1.0,1288.0705972016374,0.10138310183662189,1.3482597632888054,0.7041655953558625,0.2885582375,0.6132497999809479
0.01,1.7975,1.0,1365.358409727454,0.10642363242054681,1.347141925866217,0.7232779153611767,0.288548,0.6157285819703251
0.0105,1.79724375,1.0,1439.8504488484127,0.11143588942466666,1.3460815565852033,0.7406864542900463,0.2885372375,0.6180725643863607
0.011,1.796975,1.0,1511.494668377488,0.11642003133501713,1.3450744471006104,0.756565532063668,0.28852595000000003,0.6202921746116328
0.0115,1.79669375,1.0,1580.2787231716945,0.12137621602970669,1.3441165990081307,0.7710719487279242,0.2885141375,0.6223972139256293
0.012,1.7964,1.0,1646.2208593130574,0.12630460105459068,1.3432042471867187,0.784346070646099,0.28850180000000003,0.6243968262531814
0.0125,1.79609375,1.0,1709.3287500124604,0.13120534158139927,1.3423342569804722,0.7965133123738253,0.2884889375,0.6262986495460079
0.013000000000000001,1.7957750000000001,1.0,1769.639764679605,0.13607859249776194,1.3415035689499706,0.8076852900144676,0.28847555,0.6281100522781655
0.0135,1.79544375,1.0,1827.206314728609,0.14092450795408604,1.3407093198419826,0.8179612777577745,0.2884616375,0.6298378806531046
0.014,1.7951000000000001,1.0,1882.1127946436698,0.14574324254835433,1.3399486104920917,0.8274294554719263,0.2884472,0.6314889739301535
0.0145,1.79474375,1.0,1934.4157084665858,0.1505349479843824,1.3392191268700637,0.8361683747200446,0.2884322375,0.6330688264206366
0.015,1.794375,1.0,1984.1778485810657,0.15529977524686048,1.3385187128678122,0.8442479100880882,0.28841675,0.6345825288211726
0.0155,1.79399375,1.0,2031.480574061688,0.16003787532047875,1.3378452123772508,0.8517302203503463,0.2884007375,0.6360351163066654
0.016,1.7936,1.0,2076.404326717863,0.16474939806267117,1.337196655584927,0.8586707173298135,0.2883842,0.637431171754911
0.0165,1.7931937500000001,1.0,2119.055218149985,0.16943449399843113,1.3365709597478155,0.8651187729971506,0.2883671375,0.6387754753011301
0.017,1.792775,1.0,2159.5032346668236,0.17409331028802094,1.3359665527815574,0.8711186156913906,0.28834955,0.640071669043613
0.0175,1.7923437500000001,1.0,2197.823909748843,0.17872599375341758,1.3353819158976865,0.8767098031571856,0.2883314375,0.6413232477321338
0.018000000000000002,1.7919,1.0,2234.102501045686,0.18333269121659793,1.3348155303077358,0.8819277567779156,0.2883128,0.6425336755891251
0.0185,1.79144375,1.0,2268.4194960319433,0.18791354818431627,1.3342660134635618,0.8868042790978261,0.2882936375,0.6437060977142154
0.019,1.790975,1.0,2300.8738475265727,0.1924687115314924,1.3337318764869055,0.8913679121765977,0.28827395,0.6448438603843395
0.0195,1.79049375,1.0,2331.536012596926,0.19699832435135017,1.3332119829523887,0.8956444205378146,0.2882537375,0.6459495357682941
0.02,1.79,1.0,2360.4758806429018,0.20150252908369168,1.332705258512237,0.8996570363115124,0.288233,0.6470255451476581
0.0205,1.78949375,1.0,2387.768491180388,0.20598146816831894,1.332210628818675,0.9034267292599192,0.2882117375,0.6480742924103972
0.021,1.788975,1.0,2413.4909776506965,0.2104352835435692,1.331727044857919,0.9069724631004225,0.28818995000000003,0.6490981113196179
0.021500000000000002,1.78844375,1.0,2437.7164884882854,0.21486411635070427,1.3312535368462894,0.9103114265713633,0.2881676375,0.6500991528278826
0.022,1.7879,1.0,2460.5221594469276,0.21926810879400443,1.3307891324660708,0.9134592092338473,0.2881448,0.6510795594462508
0.0225,1.78734375,1.0,2481.9648314067936,0.22364739852576623,1.3303330852579331,0.9164300144695727,0.28812143749999997,0.6520409846427777
0.023,1.786775,1.0,2502.104052986027,0.22800212319828603,1.3298846487625462,0.9192367629564399,0.28809755,0.6529850717819246
0.0235,1.78619375,1.0,2521.00185497703,0.23233242046386032,1.3294430765205805,0.9218912262562489,0.28807313749999996,0.6539134545046396
0.024,1.7856,1.0,2538.722537137312,0.2366384279747855,1.329007622072706,0.9244041448948582,0.2880482,0.6548277570729064
0.0245,1.78499375,1.0,2555.319884783457,0.2409202802258429,1.3285776571637886,0.9267853522145747,0.2880227375,0.655729346979451
0.025,1.784375,1.0,2570.861898296601,0.24517811737714276,1.3281524365743473,0.9290438283867634,0.28799675,0.6566198289869865
0.025500000000000002,1.78374375,1.0,2585.395764251768,0.2494120731399654,1.3277314255113206,0.9311878340506007,0.2879702375,0.657500359478054
0.026000000000000002,1.7831000000000001,1.0,2598.964969113884,0.2536222797505286,1.3273141358946619,0.9332249549440699,0.2879432,0.6583719912102386
0.0265,1.78244375,1.0,2611.614151544617,0.25780886944505,1.326900079644324,0.9351621597539199,0.2879156375,0.6592357714557865
0.027,1.781775,1.0,2623.38900368335,0.26197197445974746,1.3264887686802607,0.9370058585865368,0.28788755,0.6600927421098446
0.0275,1.7810937500000001,1.0,2634.336177709005,0.2661117270308387,1.3260797149224246,0.9387619551862044,0.2878589375,0.6609439397835151
0.028,1.7804,1.0,2644.500867039631,0.27022825846159654,1.3256724518132041,0.9404358964297678,0.2878298,0.6617903511797711
0.0285,1.77969375,1.0,2653.9207194162595,0.2743216974691344,1.3252665894721403,0.9420327211217264,0.2878001375,0.662632799021563
0.029,1.778975,1.0,2662.648632350555,0.2783921798012431,1.3248616035943823,0.9435570703957895,0.28776995,0.6634723804530817
0.029500000000000002,1.7782437500000001,1.0,2670.714365619907,0.2824398317136653,1.3244571886692458,0.9450132656464096,0.2877392375,0.6643097344414843
0.03,1.7775,1.0,2678.1481456105316,0.28646477946214355,1.3240530391860466,0.9464053099796979,0.287708,0.6651454967930057
0.0305,1.77674375,1.0,2684.9806242466707,0.29046714930242046,1.3236488496341001,0.9477369156960126,0.2876762375,0.6659803001611087
0.031,1.775975,1.0,2691.242839989046,0.29444706749023863,1.3232443145027224,0.9490115290750732,0.28764395,0.666814774048677
0.0315,1.7751937500000001,1.0,2696.966180902627,0.2984046602813406,1.3228391282812293,0.9502323527575927,0.2876111375,0.6676495448042601
0.032,1.7744,1.0,2702.1823497938244,0.302340053931469,1.3224329854589363,0.9514023659824901,0.2875778,0.6684852356123641
0.0325,1.77359375,1.0,2706.9170023412994,0.30625337157237437,1.3220256382935107,0.9525243488930443,0.2875439375,0.6693223478369166
0.033,1.772775,1.0,2711.200315511019,0.31014474017577415,1.3216167999157526,0.9536008892106802,0.28750955,0.6701614604972919
0.0335,1.7719437500000002,1.0,2715.0601380582907,0.3140142843904764,1.3212062066771835,0.95463440309131,0.2874746375,0.6710031020154799
0.034,1.7711000000000001,1.0,2718.516759652222,0.3178621244900137,1.3207936654862737,0.9556271534334139,0.2874392,0.6718476536475788
0.0345,1.7702437500000001,1.0,2721.5906180611173,0.3216883807479187,1.3203789832514945,0.95658125512177,0.2874032375,0.6726954945495491
0.035,1.7693750000000001,1.0,2724.3022837376984,0.32549317343772394,1.3199619668813165,0.9574986864393059,0.28736675,0.6735470017520386
0.035500000000000004,1.76849375,1.0,2726.672445230977,0.329276622832962,1.3195424232842103,0.9583812994725593,0.2873297375,0.674402550132827
0.036000000000000004,1.7676,1.0,2728.7218954241544,0.3330388492071655,1.319120159368647,0.9592308296099755,0.2872922,0.675262512386892
0.0365,1.76669375,1.0,2730.471518600351,0.33677997283386696,1.318694982043097,0.9600489042215007,0.2872541375,0.6761272589941009
0.037,1.765775,1.0,2731.9282711019296,0.34050011224062865,1.3182668254797143,0.9608370629012193,0.28721555,0.6769968998694678
0.0375,1.76484375,1.0,2733.1407879630447,0.34419938556360763,1.3178352457648264,0.9615967144653069,0.2871764375,0.67787231042606
0.038,1.7639,1.0,2734.105851355775,0.3478779089152336,1.3174002706440728,0.962329228360692,0.28713679999999997,0.6787534062342772
0.0385,1.7629462765362294,1.0,2734.9414838787443,0.3515357982093774,1.316961968218073,0.9630358963147758,0.28709674361452164,0.6796400213753993
0.039,1.76199172407709,1.0,2736.094993131043,0.35517316935990983,1.3165204065874467,0.9637179340412062,0.2870566524112378,0.6805319904774152
0.0395,1.7610371716179505,1.0,2737.5952207400096,0.35879013748268834,1.3160757001889298,0.964376490606246,0.28701656120795394,0.6814290553255031
0.04,1.760082619158811,1.0,2739.401005849843,0.36238681811589696,1.315628225065538,0.9650126724803079,0.2869764700046701,0.6823304322129403
0.0405,1.7591280666996716,1.0,2741.4862110539198,0.3659633243852238,1.3151782210129892,0.9656275105153702,0.2869363788013862,0.6832356154307633
0.041,1.7581735142405321,1.0,2743.8274289136525,0.369519768880169,1.314725903123982,0.9662219752649467,0.2868962875981024,0.684144151475746
0.0415,1.7572189617813927,1.0,2746.4012494136005,0.3730562641902328,1.3142714864912146,0.9667969832493211,0.2868561963948185,0.6850555892174819
0.042,1.7562644093222533,1.0,2749.1875922579375,0.376572921256759,1.3138151559314157,0.9673533977119713,0.28681610519153466,0.685969540522134
0.0425,1.755309856863114,1.0,2752.1620746372096,0.38006985386699316,1.3133571350690922,0.9678920385924387,0.2867760139882508,0.686885541777075
0.043000000000000003,1.7543553044039746,1.0,2755.30639586385,0.38354717305218083,1.3128975922089006,0.9684136767152953,0.28673592278496696,0.6878032423146447
0.043500000000000004,1.7534007519448351,1.0,2758.6070715944047,0.3870049873742325,1.3124366518744415,0.968919037985352,0.2866958315816831,0.6887223806297483
0.044,1.7524461994856957,1.0,2762.0505983140906,0.39044340539505845,1.3119744385893146,0.9694088101222248,0.28665574037839925,0.689642696641843
0.0445,1.7514916470265562,1.0,2765.6234496503735,0.39386253567656904,1.3115110768771208,0.9698836450508688,0.28661564917511534,0.6905639317055375
0.045,1.7505370945674168,1.0,2769.3120730306027,0.39726248678067466,1.31104669126146,0.9703441611199103,0.2865755579718315,0.6914858286202104
0.0455,1.7495825421082773,1.0,2773.105003772596,0.4006433650579543,1.3105813871742797,0.970790943408416,0.28653546676854763,0.692408169454401
0.046,1.7486279896491381,1.0,2776.9940199702414,0.4040052745581458,1.3101152405914018,0.9712245449934229,0.28649537556526383,0.6933307957682939
0.0465,1.7476734371899987,1.0,2780.958962898167,0.4073483332281909,1.30964843481363,0.9716455011331161,0.2864552843619799,0.6942533380659095
0.047,1.7467188847308592,1.0,2784.9940423152098,0.41067264387935626,1.3091810233542847,0.9720543091669025,0.28641519315869607,0.695175684941318
0.0475,1.7457643322717198,1.0,2789.0934533315076,0.41397830932290836,1.308713059726688,0.9724514421580135,0.2863751019554122,0.6960977256192167
0.048,1.7448097798125803,1.0,2793.2513757218526,0.4172654323701137,1.308244597444161,0.9728373503071407,0.28633501075212836,0.6970193499569106
0.0485,1.743855227353441,1.0,2797.4619733024374,0.42053411583223893,1.307775690020025,0.9732124622711141,0.2862949195488445,0.6979404484461016
0.049,1.7429006748943014,1.0,2801.719393370798,0.4237844625205506,1.3073063909676017,0.9735771863938175,0.28625482834556065,0.6988609122145011
0.0495,1.7419461224351622,1.0,2806.0177662095093,0.4270165752463151,1.306836753800212,0.9739319118559345,0.2862147371422768,0.6997806330272581
0.05,1.7409915699760228,1.0,2810.3512046532774,0.43023055682079914,1.3063668320311772,0.9742770097495691,0.28617464593899294,0.7006995032882031
0.0505,1.7400370175168833,1.0,2814.7138037193877,0.4334265100552692,1.3058966791738191,0.9746128340832829,0.2861345547357091,0.7016174160409105
0.051000000000000004,1.7390824650577439,1.0,2819.099640302012,0.4366045377609919,1.3054263487414588,0.97493972272264,0.28609446353242524,0.7025342649695816
0.051500000000000004,1.7381279125986044,1.0,2823.509021244879,0.4397647280311425,1.30495583840606,0.9752579930608856,0.2860543723291414,0.7034500530040084
0.052000000000000005,1.737173360139465,1.0,2827.932022931774,0.44290720061782185,1.304485237206988,0.975567957565541,0.28601428112585753,0.7043646056218249
0.0525,1.7362188076803255,1.0,2832.3662824899097,0.44603205295341075,1.3040145664413267,0.9758699081707279,0.2859741899225737,0.7052778807126663
0.053,1.7352642552211863,1.0,2836.8099637172554,0.4491393809955109,1.303543842644036,0.9761641235595742,0.2859340987192898,0.7061898456406017
0.0535,1.7343097027620469,1.0,2841.2612246227745,0.4522292807017236,1.3030730823500758,0.9764508703097126,0.28589400751600597,0.7071004679681894
0.054,1.7333551503029074,1.0,2845.7182174100435,0.45530184802965046,1.3026023020944053,0.9767304035228314,0.2858539163127221,0.7080097154565251
0.0545,1.732400597843768,1.0,2850.1790884667707,0.45835717893689304,1.3021315184119844,0.977002967416344,0.28581382510943826,0.7089175560652703
0.055,1.7314460453846285,1.0,2854.6419783605775,0.4613953693810527,1.3016607478377729,0.9772687958797542,0.2857737339061544,0.7098239579526646
0.0555,1.730491492925489,1.0,2859.105021840737,0.46441651531973105,1.3011900069067304,0.9775281129981024,0.28573364270287055,0.7107288894755222
0.056,1.7295369404663496,1.0,2863.5663478461115,0.46742071271052954,1.3007193121538168,0.9777811335446979,0.2856935514995867,0.7116323191892071
0.0565,1.7285823880072102,1.0,2868.024079519019,0.47040805751104975,1.3002486801139914,0.9780280634451803,0.28565346029630284,0.7125342158475958
0.057,1.727627835548071,1.0,2872.4763342250235,0.4733786456788931,1.2997781273222142,0.9782691002147954,0.285613369093019,0.7134345484030177
0.0575,1.7266732830889315,1.0,2876.9212235792256,0.4763325731716611,1.2993076703134447,0.978504433370641,0.28557327788973513,0.7143332860061807
0.058,1.725718730629792,1.0,2881.3610922814382,0.4792698984102266,1.298837288122583,0.9787342394789084,0.2855331866864513,0.7152304694755751
0.0585,1.7247641781706526,1.0,2885.7903820974125,0.4821907648523348,1.2983670297118408,0.978958699261884,0.2854930954831674,0.7161260063167523
0.059000000000000004,1.7238096257115132,1.0,2890.20866844145,0.48509526167673167,1.29789689854684,0.9791779791673997,0.28545300427988357,0.7170198910592275
0.059500000000000004,1.7228550732523737,1.0,2894.615666675792,0.4879834766481186,1.2974268968482825,0.9793922389568996,0.28541291307659966,0.7179121206352077
0.06,1.7219005207932345,1.0,2899.011091506896,0.490855497531197,1.2969570268368704,0.9796016322043913,0.28537282187331586,0.7188026920032087
0.0605,1.720945968334095,1.0,2903.394656990948,0.4937114120906684,1.2964872907333056,0.9798063065842337,0.285332730670032,0.7196916021480368
0.061,1.7199914158749556,1.0,2907.7660765412816,0.49655130809123416,1.2960176907582903,0.9800064041433999,0.2852926394667481,0.7205788480807691
0.0615,1.7190368634158162,1.0,2912.125062934824,0.49937527329759573,1.2955482291325262,0.9802020615591641,0.28525254826346425,0.7214644268387366
0.062,1.7180823109566767,1.0,2916.471328318345,0.5021833954744546,1.2950789080767153,0.980393410383102,0.2852124570601804,0.7223483354855018
0.0625,1.7171277584975373,1.0,2920.804584215965,0.5049757623865121,1.2946097298115598,0.9805805772722255,0.28517236585689654,0.7232305711108411
0.063,1.7161732060383978,1.0,2925.1245415357266,0.5077524617984697,1.2941406965577615,0.9807636842080236,0.2851322746536127,0.7241111308307233
0.0635,1.7152186535792584,1.0,2929.4309105769157,0.5105135814750288,1.2936718105360225,0.9809428487041276,0.28509218345032883,0.7249900117872912
0.064,1.714264101120119,1.0,2933.723401037053,0.513259209180891,1.2932030739670448,0.9811181840032717,0.285052092247045,0.7258672111488382
0.0645,1.7133095486609797,1.0,2938.0017220193677,0.5159894326807575,1.2927344890715302,0.9812897992641726,0.2850120010437611,0.7267427261097901
0.065,1.7123549962018403,1.0,2942.265582040143,0.5187043397393298,1.2922660580701808,0.9814577997389199,0.28497190984047727,0.7276165538906815
0.0655,1.7114004437427008,1.0,2946.5146890362016,0.5214040181213094,1.2917977831836986,0.981622286941417,0.2849318186371934,0.7284886917381352
0.066,1.7104458912835614,1.0,2950.748750372577,0.5240885555913978,1.2913296666327856,0.9817833588073919,0.28489172743390956,0.7293591369248407
0.0665,1.709491338824422,1.0,2954.9675852599134,0.5267580316905531,1.2908617096561363,0.9819411092480259,0.2848516362306257,0.7302278885711398
0.067,1.7085367863652825,1.0,2959.1718256517743,0.5294124929571948,1.2903939063953314,0.9820956264037741,0.28481154502734185,0.731094958955547
0.0675,1.7075822339061433,1.0,2963.3608110013224,0.5320520882781752,1.2899262622852348,0.9822470026397276,0.284771453824058,0.7319603394046978
0.068,1.7066276814470038,1.0,2967.53463572878,0.5346768961767839,1.2894587761654006,0.9823953222459284,0.28473136262077414,0.7328240334847849
0.0685,1.7056731289878644,1.0,2971.693394795596,0.5372869951763108,1.2889914468753834,0.9825406666606241,0.2846912714174903,0.7336860447476801
0.069,1.704718576528725,1.0,2975.837183700807,0.5398824638000456,1.2885242732547368,0.9826831145866001,0.28465118021420643,0.7345463767309501
0.0695,1.7037640240695855,1.0,2979.9660984765055,0.5424633805712777,1.2880572541430155,0.9828227421019979,0.2846110890109226,0.7354050329578641
0.07,1.702809471610446,1.0,2984.0802356845306,0.545029824013297,1.2875903883797732,0.9829596227659151,0.2845709978076387,0.7362620169374081
0.07050000000000001,1.7018549191513066,1.0,2988.1796924118617,0.5475818726493932,1.2871236748045642,0.9830938277190695,0.28453090660435487,0.7371173321642948
0.07100000000000001,1.7009003666921672,1.0,2992.2645662670275,0.5501196050028557,1.2866571122569428,0.9832254257797858,0.284490815401071,0.7379709821189748
0.07150000000000001,1.6999458142330277,1.0,2996.3349553761705,0.5526430995969746,1.286190699576463,0.9833544835355555,0.28445072419778716,0.738822970267649
