Time [s],Phi [rad],STIM [ ],Fsee [N],Gamma [ ],Lcerel [ ],q [ ],Lmtc [m],fisomrel [ ]
0.0,1.8,1.0,17.967584887607128,2.5960627459688647e-05,1.379339698413091,0.005000178273545511,0.288653,0.5411396467087537
0.0005,1.79999375,1.0,18.28226437476944,0.005635024317670074,1.3793017746458422,0.012984883574391346,0.2886527375,0.5412313895105698
0.001,1.799975,1.0,21.635765053785498,0.011212625595421234,1.3789365270022198,0.03569179486624886,0.28865195,0.542114504156556
0.0015,1.79994375,1.0,31.111797352111715,0.016758940940847886,1.3780425788892676,0.07071559256224469,0.2886506375,0.5442723486822445
0.002,1.7999,1.0,53.67513488450986,0.02227414584240535,1.3763621173380796,0.11485270107248531,0.2886488,0.5483149127321354
0.0025,1.79984375,1.0,97.27555920520767,0.027758414804548874,1.3739276230808128,0.16472138895862515,0.28864643749999996,0.5541394537536146
0.003,1.7997750000000001,1.0,161.16253493730113,0.03321192135529986,1.371206696489833,0.21743158501833168,0.28864354999999997,0.5606045551055643
0.0035,1.79969375,1.0,237.91455838998863,0.03863483804595522,1.3685776135659895,0.2707632053051311,0.2886401375,0.5668065777359698
0.004,1.7996,1.0,321.7129787068589,0.04402733646183916,1.3661495725515131,0.3230613501014961,0.2886362,0.5724951866082405
0.0045000000000000005,1.7994937500000001,1.0,409.5228614046106,0.04938958722749629,1.363916826680948,0.3731726720790347,0.2886317375,0.5776930588599134
0.005,1.799375,1.0,499.6739050942463,0.05472175999781234,1.361852809569871,0.4203767250375284,0.28862675,0.582469847596909
0.0055,1.79924375,1.0,591.0532567460615,0.06002402350486026,1.3599337003604883,0.4642933772934325,0.2886212375,0.5868868984209382
0.006,1.7991000000000001,1.0,682.781367642881,0.06529654550264594,1.358141629855144,0.5047899466277302,0.2886152,0.59099034746397
0.006500000000000001,1.79894375,1.0,774.123578810146,0.07053949253061922,1.3564631173634498,0.541901533855307,0.2886086375,0.5948151975750364
0.007,1.798775,1.0,864.5507921994129,0.07575303141369709,1.3548861150322271,0.5757683631686528,0.28860155,0.5983923640221074
0.0075,1.79859375,1.0,953.5130427022085,0.0809373262705973,1.3534026292621992,0.6065931240883367,0.2885939375,0.6017429261178717
0.008,1.7984,1.0,1040.608345134778,0.08609254098829497,1.3520049674307126,0.634607789345523,0.2885858,0.6048868077299201
0.0085,1.79819375,1.0,1125.5622288255613,0.09121883917209647,1.3506857309051508,0.6600531998420548,0.2885771375,0.6078428512102048
0.009000000000000001,1.797975,1.0,1208.1231379043259,0.09631638294170734,1.3494389887443603,0.6831668240415029,0.28856795,0.6106262536521647
0.0095,1.79774375,1.0,1288.0982183814167,0.10138533321698899,1.3482593978140018,0.7041745122219312,0.2885582375,0.6132506117162908
0.01,1.7975,1.0,1365.3814629542476,0.10642585119856449,1.3471416295919498,0.7232860580013754,0.288548,0.615729237896191
0.0105,1.79724375,1.0,1439.874650533038,0.11143809587482088,1.3460812537039057,0.7406938657951505,0.2885372375,0.6180732328913674
0.011,1.796975,1.0,1511.518925360234,0.11642222545535305,1.34507415080917,0.7565722936632957,0.28852595000000003,0.6202928266687827
0.0115,1.79669375,1.0,1580.3009545204277,0.1213783977456215,1.344116333434583,0.7710781380576194,0.2885141375,0.622397796758734
0.012,1.7964,1.0,1646.2423731106865,0.12630677039965774,1.3432039953848274,0.7843517391535922,0.28850180000000003,0.6243973773976129
0.0125,1.79609375,1.0,1709.3573893375292,0.13120749894613615,1.3423339280261937,0.7965184756277811,0.2884889375,0.6262993677364697
0.013000000000000001,1.7957750000000001,1.0,1769.6718787925445,0.13608073787599018,1.3415032064241836,0.8076900157958516,0.28847555,0.6281108418431167
0.0135,1.79544375,1.0,1827.2419179423746,0.14092664152630013,1.340708924310852,0.8179656099550986,0.2884616375,0.6298387400986674
0.014,1.7951000000000001,1.0,1882.1400993807017,0.1457453635426864,1.3399483116092543,0.827433479347331,0.2884472,0.6314896219196982
0.0145,1.79474375,1.0,1934.4394218504226,0.15053705712108353,1.3392188708319182,0.8361721029242177,0.2884322375,0.6330693803300971
0.015,1.794375,1.0,1984.1997759771518,0.15530187281856897,1.3385184791009532,0.8442513645061821,0.28841675,0.6345830335050303
0.0155,1.79399375,1.0,2031.499446197897,0.16003996119222022,1.3378450135384683,0.851733430744679,0.2884007375,0.6360355447295669
0.016,1.7936,1.0,2076.4236607947937,0.16475147196600695,1.3371964540947645,0.8586736940795971,0.2883842,0.6374316050571345
0.0165,1.7931937500000001,1.0,2119.0689554022597,0.16943655555067497,1.3365708180329492,0.8651215558325634,0.2883671375,0.6387757794918094
0.017,1.792775,1.0,2159.5222543665977,0.1740953607252874,1.335966358418756,0.871121190768348,0.28834955,0.6400720854937499
0.0175,1.7923437500000001,1.0,2197.8511511475326,0.1787280334889941,1.3353816399549367,0.8767121807442135,0.2883314375,0.6413238379500548
0.018000000000000002,1.7919,1.0,2234.1326558096694,0.18333471984094502,1.3348152273442433,0.8819299679611486,0.2883128,0.6425343225077254
0.0185,1.79144375,1.0,2268.4524099990413,0.18791556578029003,1.334265685289428,0.8868063384512929,0.2882936375,0.6437067973150165
0.019,1.790975,1.0,2300.89549348113,0.19247071627136694,1.3337316621896078,0.8913698657429706,0.28827395,0.6448443164928619
0.0195,1.79049375,1.0,2331.5519991583346,0.19700031688770703,1.3332118257277412,0.8956462641292172,0.2882537375,0.6459498698826066
0.02,1.79,1.0,2360.4998662195812,0.2015045112045846,1.3327050240695688,0.8996587487779388,0.288233,0.64702604259843
0.0205,1.78949375,1.0,2387.8034511742126,0.20598344035007665,1.332210289067453,0.9034283146735839,0.2882117375,0.6480750122376254
0.021,1.788975,1.0,2413.5315600821004,0.21043724545226014,1.3317266525737557,0.9069739424301768,0.28818995000000003,0.6490989412379171
0.021500000000000002,1.78844375,1.0,2437.7570787545133,0.21486606763921204,1.3312531464408388,0.9103128191863384,0.2881676375,0.6500999775926155
0.022,1.7879,1.0,2460.55125911948,0.21927004693126143,1.3307888538792574,0.9134605426867213,0.2881448,0.6510801471595897
0.0225,1.78734375,1.0,2481.986035715296,0.22364932390188386,1.3303328831363215,0.9164312866328441,0.28812143749999997,0.6520414104555019
0.023,1.786775,1.0,2502.1300525290367,0.22800403851301837,1.329884401931786,0.9192379566135327,0.28809755,0.6529855910781502
0.0235,1.78619375,1.0,2521.03641983417,0.23233432681116878,1.3294427496061634,0.9218923408742614,0.28807313749999996,0.653914141364575
0.024,1.7856,1.0,2538.760370069036,0.23664032484283884,1.3290072654999667,0.9244051947914329,0.2880482,0.6548285052558496
0.0245,1.78499375,1.0,2555.359079957517,0.24092216865453236,1.3285772889537089,0.9267863455956507,0.2880227375,0.6557301185708895
0.025,1.784375,1.0,2570.891502307779,0.24517999429275314,1.3281521593079026,0.929044785208438,0.28799675,0.6566204092524264
0.025500000000000002,1.78374375,1.0,2585.3954014952205,0.24941393528592773,1.3277314288992874,0.9311887872999909,0.2879702375,0.6575003523967835
0.026000000000000002,1.7831000000000001,1.0,2598.951033759964,0.2536241288009437,1.3273142657039445,0.9332258809636356,0.2879432,0.658371720238162
0.0265,1.78244375,1.0,2611.618228128893,0.2578107089388598,1.3269000417626533,0.9351630152403521,0.2879156375,0.6592358504323199
0.027,1.781775,1.0,2623.424397200575,0.26197380616548194,1.3264884405258175,0.9370066294313087,0.28788755,0.6600934253922823
0.0275,1.7810937500000001,1.0,2634.397727722583,0.2661135509466157,1.3260791454438405,0.9387626535771352,0.2878589375,0.6609451240644602
0.028,1.7804,1.0,2644.567123675225,0.27023007374806696,1.3256718399671263,0.9404365554597589,0.2878298,0.6617916219784007
0.0285,1.7796976377525726,1.0,2654.152624276095,0.27432350503564146,1.3252662075460782,0.9420333826988884,0.28780030078560803,0.6626335912901519
0.029,1.7789949964448952,1.0,2663.5943422196824,0.27839397527514487,1.3248619316310999,0.9435578005082826,0.2877707898506856,0.6634717008192302
0.029500000000000002,1.778292355137218,1.0,2672.928717541084,0.2824416135177547,1.3244587956593101,0.9450141387952032,0.2877412789157632,0.6643064091814733
0.03,1.7775897138295407,1.0,2682.127468842133,0.28646654896287826,1.324057052991227,0.946406471205503,0.2877117679808407,0.6651372015517892
0.0305,1.7768870725218635,1.0,2691.184956024866,0.29046890826784133,1.3236567480949633,0.9477385457355304,0.28768225704591827,0.6659639968513824
0.031,1.7761844312141861,1.0,2700.0999276318166,0.2944488171048763,1.323257885154965,0.9490138355155545,0.2876527461109958,0.6667867974653682
0.0315,1.7754817899065087,1.0,2708.871142983011,0.2984064011462156,1.3228604683556777,0.9502355675106988,0.28762323517607336,0.6676056057817361
0.032,1.7747791485988316,1.0,2717.4973723095472,0.3023417860640915,1.3224645018815475,0.9514067430142118,0.2875937242411509,0.6684204241909613
0.0325,1.7740765072911542,1.0,2725.9809400668187,0.3062550848623936,1.322069957690073,0.9525301486228405,0.2875642133062285,0.66923132128034
0.033,1.773373865983477,1.0,2734.3177155789904,0.31014644023851573,1.3216768666599354,0.9536083967853999,0.287534702371306,0.6700382444382849
0.0335,1.7726712246757996,1.0,2742.508907552003,0.3140159755857106,1.3212852111895013,0.9546439130871384,0.2875051914363836,0.6708412406598137
0.034,1.7719685833681225,1.0,2750.556891586642,0.31786380991021207,1.320894963341385,0.9556389599014717,0.2874756805014611,0.6716403778766941
0.0345,1.771265942060445,1.0,2758.4640747075396,0.32169006221825397,1.320506095178202,0.9565956515374321,0.2874461695665387,0.6724357237041497
0.035,1.7705633007527677,1.0,2766.232894499929,0.3254948515160702,1.3201185787625673,0.957515965668544,0.28741665863161625,0.6732273454433482
0.035500000000000004,1.7698606594450905,1.0,2773.8658182637655,0.32927829680989457,1.319732386157096,0.9584017537532199,0.2873871476966938,0.6740153100838318
0.036000000000000004,1.7691580181374131,1.0,2781.3653421848876,0.3330405171059609,1.319347489424403,0.9592547505461388,0.28735763676177134,0.6747996843059018
0.0365,1.768455376829736,1.0,2788.733990524017,0.33678163141050305,1.3189638606271035,0.9600765827893051,0.2873281258268489,0.675580534482952
0.037,1.7677527355220586,1.0,2795.974314822262,0.3405017587297549,1.3185814718278126,0.9608687771619553,0.28729861489192643,0.676357926683752
0.0375,1.7670500942143814,1.0,2803.088893124961,0.3442010180699503,1.3182002950891452,0.9616327675600892,0.287269103957004,0.6771319266746841
0.038,1.766347452906704,1.0,2810.080329221761,0.347879528437323,1.3178203024737165,0.9623699017689572,0.2872395930220816,0.6779025999219239
0.0385,1.7656448115990266,1.0,2816.9495233197135,0.3515373864828333,1.3174414815105158,0.9630814445394936,0.28721008208715915,0.678669980281916
0.039,1.7649421702913495,1.0,2823.7014414064724,0.35517472319740423,1.3170637835367591,0.9637685900311017,0.28718057115223666,0.6794341746471785
0.0395,1.764239528983672,1.0,2830.3410754432107,0.3587916748349548,1.3166871599674892,0.9644324640635459,0.28715106021731424,0.6801952892593301
0.04,1.763536887675995,1.0,2836.8710130406052,0.36238835077142595,1.3163115839531967,0.9650741247381521,0.28712154928239175,0.6809533860236601
0.0405,1.7628342463683175,1.0,2843.293863106372,0.3659648603827589,1.3159370286443717,0.9656945702837487,0.2870920383474693,0.6817085265668542
0.041,1.7621316050606404,1.0,2849.6122552292854,0.3695213130448947,1.3155634671915044,0.9662947430758183,0.2870625274125469,0.6824607722387638
0.0415,1.761428963752963,1.0,2855.828839079617,0.3730578181337745,1.3151908727450854,0.9668755333454682,0.28703301647762447,0.6832101841141307
0.042,1.7607263224452856,1.0,2861.946283825457,0.37657448502533936,1.3148192184556047,0.9674377826051399,0.287003505542702,0.6839568229942674
0.0425,1.7600236811376084,1.0,2867.9672775653903,0.38007142309553044,1.3144484774735525,0.9679822868153828,0.28697399460777956,0.6847007494086885
0.043000000000000003,1.759321039829931,1.0,2873.8945267762083,0.3835487417202888,1.3140786229494195,0.9685097993147134,0.2869444836728571,0.6854420236166978
0.043500000000000004,1.7586183985222539,1.0,2879.73075577786,0.3870065502755556,1.3137096280336957,0.9690210335325137,0.28691497273793465,0.6861807056089295
0.044,1.7579157572145765,1.0,2885.4787062131622,0.3904449581372718,1.3133414658768718,0.9695166655030519,0.2868854618030122,0.686916855108843
0.0445,1.7572131159068993,1.0,2891.1411365445465,0.3938640746813787,1.3129741096294376,0.9699973361970479,0.2868559508680898,0.6876505315741734
0.045,1.756510474599222,1.0,2896.7208215659757,0.39726400928381733,1.3126075324418836,0.9704636536857038,0.2868264399331673,0.6883817941983315
0.0455,1.7558078332915446,1.0,2902.2205519314534,0.4006448713205288,1.3122417074647001,0.9709161951507643,0.2867969289982449,0.6891107019117622
0.046,1.7551051919838674,1.0,2907.6431336989403,0.4040067701674542,1.3118766078483775,0.9713555087529586,0.2867674180633224,0.6898373133832569
0.0465,1.75440255067619,1.0,2912.991387890934,0.40734981520053465,1.311512206743406,0.9717821153700713,0.28673790712839997,0.6905616870212166
0.047,1.7536999093685128,1.0,2918.2628916880985,0.41067406068622175,1.3111485235252973,0.9721965063160242,0.28670839619347754,0.6912837892475368
0.0475,1.7529972680608354,1.0,2923.4645940033156,0.4139796609733229,1.3107854952180171,0.9725991561866137,0.2866788852585551,0.6920037498791194
0.048,1.7522946267531583,1.0,2928.6010775664145,0.4172667467905087,1.3104230798599916,0.9729905149473621,0.28664937432363263,0.6927216565377463
0.0485,1.751591985445481,1.0,2933.673807732097,0.4205354160665447,1.3100612629916613,0.9733710088184944,0.2866198633887102,0.6934375420663772
0.049,1.7508893441378035,1.0,2938.684257981979,0.42378576673019636,1.309700030153466,0.9737410438810261,0.2865903524537877,0.6941514391675454
0.0495,1.7501867028301263,1.0,2943.6339097356813,0.42701789671022905,1.309339366885846,0.9741010072120582,0.2865608415188653,0.694863380403903
0.05,1.749484061522449,1.0,2948.5242521652694,0.43023190393540833,1.308979258729241,0.9744512679461318,0.28653133058394287,0.6955733981987524
0.0505,1.7487814202147718,1.0,2953.3567820152775,0.43342788633449963,1.3086196912240915,0.9747921782680814,0.28650181964902044,0.6962815248365639
0.051000000000000004,1.7480787789070944,1.0,2958.1330034270304,0.43660594183626844,1.3082606499108373,0.9751240743423798,0.28647230871409796,0.6969877924634826
0.051500000000000004,1.747376137599417,1.0,2962.8544277678006,0.4397661683694801,1.3079021203299186,0.9754472771835744,0.28644279777917553,0.6976922330878199
0.052000000000000005,1.7466734962917398,1.0,2967.5225734639967,0.4429086638629002,1.3075440880217755,0.975762093472027,0.28641328684425305,0.6983948785805307
0.0525,1.7459708549840625,1.0,2972.138965839929,0.4460335262452941,1.307186538526848,0.9760688163188537,0.2863837759093306,0.6990957606756804
0.053,1.7452682136763853,1.0,2976.7051369604073,0.44914085344542726,1.306829457385576,0.9763677259836346,0.2863542649744082,0.6997949109708959
0.0535,1.744565572368708,1.0,2981.222625478199,0.45223074339206526,1.3064728301384,0.9766590905481971,0.28632475403948576,0.7004923609278041
0.054,1.7438629310610307,1.0,2985.6929764864394,0.45530329401397346,1.3061166423257597,0.9769431665495139,0.2862952431045633,0.7011881418724581
0.0545,1.7431602897533534,1.0,2990.1177413754344,0.4583586032399173,1.3057608794880955,0.9772201995745246,0.28626573216964085,0.7018822849957473
0.055,1.742457648445676,1.0,2994.4984776937936,0.4613967689986623,1.3054055271658471,0.9774904248194701,0.28623622123471837,0.7025748213537979
0.0555,1.7417550071379988,1.0,2998.836749014913,0.46441788921897387,1.3050505708994549,0.977754067616143,0.28620671029979594,0.7032657818683568
0.056,1.7410523658303214,1.0,3003.134124807381,0.46742206182961743,1.3046959962293587,0.9780113439272639,0.2861771993648735,0.7039551973271639
0.0565,1.7403497245226442,1.0,3007.392180310321,0.47040938475935856,1.304341788695999,0.9782624608130381,0.2861476884299511,0.704643098384311
0.057,1.7396470832149669,1.0,3011.612496413615,0.4733799559369627,1.3039879338398153,0.9785076168707945,0.2861181774950286,0.705329515560587
0.0575,1.7389444419072897,1.0,3015.7963302884414,0.4763338671304626,1.3036344200484447,0.9787470022720067,0.2860886665601062,0.7060144737303721
0.058,1.7382418005996123,1.0,3019.9420989731266,0.4792711651061474,1.303281260291513,0.9789807970649786,0.2860591556251837,0.7066979501147691
0.0585,1.737539159291935,1.0,3024.0542469234742,0.4821920122588977,1.3029284154596767,0.979209181122949,0.28602964469026126,0.7073800226629129
0.059000000000000004,1.7368365179842578,1.0,3028.1334629909466,0.4850964955796938,1.3025758789661528,0.9794323225830688,0.28600013375533884,0.7080607062112885
0.059500000000000004,1.7361338766765804,1.0,3032.1804387254574,0.48798470205951616,1.3022236442241577,0.9796503830152332,0.28597062282041635,0.708740015535299
0.06,1.7354312353689032,1.0,3036.1958683310995,0.49085671868934505,1.3018717046469082,0.9798635177297491,0.2859411118854939,0.7094179653493937
0.0605,1.7347285940612258,1.0,3040.18044862235,0.49371263246016106,1.3015200536476206,0.9800718760682909,0.2859116009505715,0.7100945703071939
0.061,1.7340259527535486,1.0,3044.1348789813073,0.4965525303629445,1.301168684639512,0.9802756016791652,0.285882090015649,0.710769845001614
0.0615,1.7333233114458713,1.0,3048.059861316409,0.49937649938867573,1.3008175910357993,0.9804748327778544,0.2858525790807266,0.7114438039649829
0.062,1.7326206701381939,1.0,3051.9561000214894,0.5021846265283352,1.3004667662496985,0.980669702393723,0.28582306814580416,0.7121164616691615
0.0625,1.7319180288305167,1.0,3055.8243019359725,0.5049769987729033,1.300116203694427,0.9808603386037266,0.28579355721088173,0.7127878325256545
0.063,1.7312153875228393,1.0,3059.665176306196,0.5077537031133603,1.2997658967832006,0.9810468647538978,0.28576404627595925,0.7134579308857254
0.0635,1.7305127462151622,1.0,3063.4794347478423,0.5105148265406868,1.2994158389292367,0.9812293996693366,0.2857345353410368,0.7141267710405018
0.064,1.7298101049074848,1.0,3067.267791208458,0.513260456045863,1.2990660235457518,0.9814080578533796,0.28570502440611434,0.7147943672210836
0.0645,1.7291074635998074,1.0,3071.0309619322966,0.5159906786198695,1.2987164440459626,0.9815829496765834,0.2856755134711919,0.7154607335986456
0.065,1.7284048222921302,1.0,3074.7696654248607,0.5187055812536865,1.2983670938430858,0.9817541815561133,0.2856460025362695,0.7161258842845384
0.0655,1.7277021809844528,1.0,3078.484622419012,0.5214052509382944,1.298017966350338,0.9819218561260896,0.285616491601347,0.7167898333303854
0.066,1.7269995396767757,1.0,3082.1765558424136,0.5240897746646738,1.2976690549809355,0.9820860723994098,0.2855869806664246,0.7174525947281785
0.0665,1.7262968983690983,1.0,3085.8461907847914,0.5267592394238049,1.2973203531480957,0.9822469259215315,0.28555746973150214,0.7181141824103688
0.067,1.725594257061421,1.0,3089.4942544673067,0.5294137322066681,1.2969718542650348,0.9824045089166682,0.28552795879657966,0.7187746102499584
0.0675,1.7248916157537437,1.0,3093.121476212471,0.532053340004244,1.2966235517449698,0.9825589104268251,0.28549844786165723,0.7194338920605843
0.068,1.7241889744460663,1.0,3096.727926880149,0.5346781259943953,1.2962754446379003,0.9827102151941752,0.2854689369267348,0.720092030945837
0.0685,1.7234863331383892,1.0,3100.3139264860565,0.5372881721534649,1.2959275298732282,0.9828585061863526,0.2854394259918123,0.7207490340023266
0.069,1.7227836918307118,1.0,3103.8809037948618,0.5398835988820212,1.2955797949387882,0.9830038655197565,0.2854099150568899,0.7214049260967601
0.0695,1.7220810505230346,1.0,3107.4291885164344,0.5424644836110053,1.2952322367158897,0.983146370323841,0.28538040412196747,0.7220597142976175
0.07,1.7213784092153572,1.0,3110.9591114072446,0.5450309037713587,1.2948848520858418,0.983286095172426,0.285350893187045,0.722713405645125
0.07050000000000001,1.72067576790768,1.0,3114.4710042582524,0.5475829367940221,1.2945376379299536,0.9834231121857817,0.28532138225212256,0.7233660071512868
