Time [s],Phi [rad],STIM [ ],Fsee [N],Gamma [ ],Lcerel [ ],q [ ],Lmtc [m],fisomrel [ ]
0.0,1.8,1.0,17.97023004486334,4.449809030855382e-05,1.3793394020814416,0.0050005215453176825,0.288653,0.5411403636112705
0.0005,1.79999375,1.0,18.29095167952583,0.005653457800017497,1.3793008099156725,0.013036562210892676,0.2886527375,0.5412337232057235
0.001,1.799975,1.0,21.658163561223663,0.011230955680507857,1.3789342408351153,0.035788559279696534,0.28865195,0.5421200290902897
0.0015,1.79994375,1.0,31.163604175588254,0.016777168208657448,1.378038169980525,0.07084793394164761,0.2886506375,0.5442829784367845
0.002,1.7999,1.0,53.78566997708705,0.022292270869639457,1.3763549562738653,0.11500936532630758,0.2886488,0.5483321010462275
0.0025,1.79984375,1.0,97.46067050777486,0.027776438164722545,1.3739187144290443,0.16489178786309827,0.28864643749999996,0.5541606983409784
0.003,1.7997750000000001,1.0,161.4030308065027,0.03322984361867133,1.3711977035637182,0.21760735726172917,0.28864354999999997,0.5606258446078508
0.0035,1.79969375,1.0,238.18607464128675,0.03865265977958902,1.368569256595992,0.2709380188056989,0.2886401375,0.5668262215952737
0.004,1.7996,1.0,322.0016906943949,0.04404505822963245,1.3661419303145426,0.3232306097765811,0.2886362,0.5725130320967495
0.0045000000000000005,1.7994937500000001,1.0,409.8217083399433,0.04940720959021626,1.3639098150685585,0.3733333388564593,0.2886317375,0.5777093319412232
0.005,1.799375,1.0,499.9787431000008,0.05473928351324176,1.361846334463126,0.4205270374053415,0.28862675,0.5824847902920904
0.0055,1.79924375,1.0,591.3607066619679,0.06004144872686324,1.3599276956512425,0.4644325412524515,0.2886212375,0.5869006820892428
0.006,1.7991000000000001,1.0,683.0891455674898,0.06531387298282927,1.3581360369805597,0.5049178355958737,0.2886152,0.5910031218617958
0.006500000000000001,1.79894375,1.0,774.4501293954715,0.07055672309518694,1.3564575443908973,0.5420182435172956,0.2886086375,0.5948278668584551
0.007,1.798775,1.0,864.8521616766728,0.07577016501326368,1.354881248119662,0.5758749330459001,0.28860155,0.5984033792507365
0.0075,1.79859375,1.0,953.7935262931604,0.08095436350929253,1.3533983160623264,0.6066901976166544,0.2885939375,0.6017526473351789
0.008,1.7984,1.0,1040.9017462285367,0.08610948294604691,1.3520006485138405,0.6346958283855191,0.2885858,0.6048965033349354
0.0085,1.79819375,1.0,1125.8518990923674,0.0912356861504139,1.3506816309547522,0.6601331491494088,0.2885771375,0.6078520207618462
0.009000000000000001,1.797975,1.0,1208.3966045443378,0.09633313522966387,1.3494352527040154,0.6832395415978999,0.28856795,0.6106345796163293
0.0095,1.79774375,1.0,1288.3751477423332,0.10140199197108188,1.348255733787964,0.7042405663512803,0.2885582375,0.6132587496294859
0.01,1.7975,1.0,1365.6473456550352,0.10644241636184108,1.3471382127151708,0.7233462144285318,0.288548,0.615736802528434
0.0105,1.79724375,1.0,1440.1213966031817,0.11145456776981759,1.346078165850495,0.7407487738663462,0.2885372375,0.6180800482192516
0.011,1.796975,1.0,1511.7599024386805,0.11643860491832111,1.345071207478813,0.7566224119412047,0.28852595000000003,0.6202993041106953
0.0115,1.79669375,1.0,1580.551230422402,0.12139468601588276,1.3441133437916746,0.7711238769286096,0.2885141375,0.622404357858778
0.012,1.7964,1.0,1646.4798637524061,0.12632296713556948,1.343201215855064,0.7843936588211414,0.28850180000000003,0.6244034612104779
0.0125,1.79609375,1.0,1709.5697079027345,0.13122360420948423,1.3423314893989202,0.7965570219861168,0.2884889375,0.6263046918556027
0.013000000000000001,1.7957750000000001,1.0,1769.8700901194638,0.13609675244644143,1.3415009689537156,0.8077254767279305,0.28847555,0.6281157149351829
0.0135,1.79544375,1.0,1827.4491637344156,0.14094256718281586,1.340706622006361,0.8179981945353748,0.2884616375,0.6298437427328273
0.014,1.7951000000000001,1.0,1882.3463857177574,0.1457612005224636,1.3399460536298864,0.8274635106661389,0.2884472,0.6314945172878393
0.0145,1.79474375,1.0,1934.6248392476596,0.15055280456924067,1.3392168688973212,0.8361999026915914,0.2884322375,0.6330737112739082
0.015,1.794375,1.0,1984.367455321702,0.1553175312800193,1.3385166915226587,0.8442771338090649,0.28841675,0.6345868927313556
0.0155,1.79399375,1.0,2031.6584736213915,0.16005553142413653,1.3378433380457386,0.8517573288431246,0.2884007375,0.6360391547771453
0.016,1.7936,1.0,2076.59531219942,0.16476695644489384,1.3371946652700768,0.8586958264261955,0.2883842,0.6374354518922222
0.0165,1.7931937500000001,1.0,2119.2422306337444,0.16945195401436422,1.3365690305477949,0.8651421167297826,0.2883671375,0.6387796163141504
0.017,1.792775,1.0,2159.6756172270075,0.1741106718046208,1.335964791231015,0.871140383058303,0.28834955,0.6400754434091214
0.0175,1.7923437500000001,1.0,2197.982974276891,0.17874325748773665,1.3353803046718593,0.8767301291672148,0.2883314375,0.6413266939993968
0.018000000000000002,1.7919,1.0,2234.248371494995,0.18334985734736112,1.3348140647731823,0.8819467652327045,0.2883128,0.6425368049427911
0.0185,1.79144375,1.0,2268.570928384116,0.18793061924292917,1.334264503602056,0.8868220348692816,0.2882936375,0.6437093164275227
0.019,1.790975,1.0,2301.0242370801316,0.19248568736726676,1.3337303876348399,0.8913845357231585,0.28827395,0.6448470292382
0.0195,1.79049375,1.0,2331.6778661951607,0.19701520471255934,1.3332105878693294,0.8956600220908212,0.2882537375,0.6459525004202038
0.02,1.79,1.0,2360.6071658558376,0.2015193142709924,1.33270397530332,0.8996717028533154,0.288233,0.6470282679125248
0.0205,1.78949375,1.0,2387.8927821667976,0.20599815903475144,1.3322094209346071,0.9034405273143282,0.2882117375,0.6480768515379242
0.021,1.788975,1.0,2413.606099427869,0.21045188001330556,1.3317259320586166,0.906985464577081,0.28818995000000003,0.6491004655607211
0.021500000000000002,1.78844375,1.0,2437.834627792988,0.21488062101387703,1.3312524005674229,0.910323669021258,0.2881676375,0.6501015533109682
0.022,1.7879,1.0,2460.6404205136937,0.2192845212304459,1.3307880002995411,0.9134707548708577,0.2881448,0.651081947888491
0.0225,1.78734375,1.0,2482.0811650544706,0.22366371868124063,1.3303319763644705,0.9164409184522013,0.28812143749999997,0.652043320762573
0.023,1.786775,1.0,2502.2172759652854,0.22801835138448964,1.3298835738717103,0.9192470741220721,0.28809755,0.6529873331939664
0.0235,1.78619375,1.0,2521.1116665203904,0.23234855735842144,1.3294420379307597,0.9219009877734046,0.28807313749999996,0.653915636619987
0.024,1.7856,1.0,2538.8252855591923,0.23665447383585572,1.3290066536821958,0.9244134017374812,0.2880482,0.6548297890077923
0.0245,1.78499375,1.0,2555.4151826229,0.2409362371270522,1.328576761914991,0.9267941410042443,0.2880227375,0.6557312229893472
0.025,1.784375,1.0,2570.9530417170363,0.24519398571912837,1.3281515829447241,0.9290521757339577,0.28799675,0.6566216154683413
0.025500000000000002,1.78374375,1.0,2585.4817737539292,0.2494278523363449,1.327730622231821,0.9311957706360587,0.2879702375,0.6575020384296666
0.026000000000000002,1.7831000000000001,1.0,2599.0455548712816,0.2536379697029625,1.3273133852367078,0.9332325081423878,0.2879432,0.6583735581788472
0.0265,1.78244375,1.0,2611.6897209936737,0.25782447054324187,1.3268993774198106,0.9351693539400476,0.2879156375,0.659237235467284
0.027,1.781775,1.0,2623.460667817507,0.2619874875814438,1.3264881042415553,0.9370127154112169,0.28788755,0.6600941256018984
0.0275,1.7810937500000001,1.0,2634.405756217324,0.2661271535418289,1.3260790711623682,0.9387684938236975,0.2878589375,0.6609452785391812
0.028,1.7804,1.0,2644.5677063654553,0.270243597217454,1.325671834586315,0.9404421369069557,0.2878298,0.6617916331542855
0.0285,1.77969375,1.0,2653.994446058281,0.2743369541992158,1.3252659098541866,0.9420386710503686,0.2878001375,0.662634208822475
0.029,1.778975,1.0,2662.7191314858205,0.2784073520124132,1.324860954793602,0.9435627591567587,0.28776995,0.6634737246511135
0.029500000000000002,1.7782437500000001,1.0,2670.775034577911,0.28245491789490135,1.324456631178418,0.9450187164002731,0.2877392375,0.6643108880240817
0.03,1.7775,1.0,2678.195921185636,0.2864797790845354,1.324052600782492,0.9464105402095195,0.287708,0.6651464028255831
0.0305,1.77674375,1.0,2685.0160052817823,0.29048206281917044,1.3236485253796808,0.9477419376988553,0.2876762375,0.6659809694501215
0.031,1.775975,1.0,2691.269905696807,0.29446189633666153,1.3232440667438417,0.9490163504072245,0.28764395,0.6668152848051749
0.0315,1.7751937500000001,1.0,2696.986310081655,0.29841940271022904,1.322838944214676,0.9502369825131745,0.2876111375,0.6676499237830145
0.032,1.7744,1.0,2702.1927345681497,0.30235470651971413,1.3224328905894174,0.9514068168120767,0.2875778,0.6684854306956404
0.0325,1.77359375,1.0,2706.9331191422784,0.306267944630577,1.3220254911882838,0.9525286167227721,0.2875439375,0.6693226499519915
0.033,1.772775,1.0,2711.227447741907,0.3101592373164745,1.3216165524637387,0.9536049790897917,0.28750955,0.67016196805274
0.0335,1.7719437500000002,1.0,2715.095887294864,0.31402870485106343,1.3212058808682459,0.9546383265121408,0.2874746375,0.671003769437673
0.034,1.7711000000000001,1.0,2718.5587705149837,0.31787646750800075,1.3207932828542686,0.955630921109823,0.2874392,0.6718484364655015
0.0345,1.7702437500000001,1.0,2721.6365795288393,0.32170264556094325,1.3203785648742707,0.9565848770479162,0.2874032375,0.6726963493912714
0.035,1.7693750000000001,1.0,2724.349930332935,0.32550735928354774,1.3199615333807155,0.9575021719433915,0.28736675,0.6735478863413944
0.035500000000000004,1.76849375,1.0,2726.7195580817843,0.32929072894947115,1.3195419948260667,0.9583846572660293,0.2873297375,0.6744034232862818
0.036000000000000004,1.7676,1.0,2728.7663032058304,0.3330528748323702,1.3191197556627878,0.9592340678325911,0.2872922,0.675263334010595
0.0365,1.76669375,1.0,2730.5110983609034,0.3367939172059018,1.3186946223433424,0.9600520304826794,0.2872541375,0.6761279900811044
0.037,1.765775,1.0,2731.974956207258,0.3405139763437229,1.318266401320194,0.960840072015219,0.28721555,0.6769977608121598
0.0375,1.76484375,1.0,2733.1653977195515,0.34421316381739064,1.3178350222209818,0.9615996366502295,0.2871764375,0.67787276355162
0.038,1.7639,1.0,2734.1089293546092,0.3478916058895104,1.3174002426898102,0.9623320683632547,0.28713679999999997,0.6787534628203113
0.0385,1.76294375,1.0,2734.8234671549662,0.35154942041330906,1.3169618988730063,0.9630386370679698,0.28709663750000003,0.6796401615523537
0.039,1.761975,1.0,2735.3200605208567,0.3551867202453899,1.316519889627004,0.9637205430096346,0.28705595,0.6805330340258584
0.0395,1.7609937500000001,1.0,2735.6097898773387,0.35880361824235596,1.3160741138082366,0.964378916807647,0.2870147375,0.6814322531260776
0.04,1.76,1.0,2735.703762347949,0.36240022726081056,1.3156244702731374,0.9650148242355433,0.286973,0.682337990321433
0.0405,1.7589937500000001,1.0,2735.6131076554307,0.36597666015735686,1.3151708578781405,0.96562927062398,0.2869307375,0.6832504156388934
0.041,1.757975,1.0,2735.34897424934,0.36953302978859814,1.3147131754796786,0.9662232049200962,0.28688795,0.6841696976387023
0.0415,1.75694375,1.0,2734.9225256599793,0.37306944901113753,1.3142513219341858,0.9667975234333882,0.2868446375,0.6850960033884461
0.042,1.7559,1.0,2734.3449370798667,0.37658603068157825,1.3137851960980953,0.9673530732953052,0.28680079999999997,0.6860294984364792
0.0425,1.75484375,1.0,2733.62739217159,0.38008288765652354,1.3133146968278406,0.9678906556571689,0.2867564375,0.6869703467846886
0.043000000000000003,1.753775,1.0,2732.7754829784567,0.3835601261967254,1.312839773825071,0.9684110317365922,0.28671155,0.6879186094167042
0.043500000000000004,1.75269375,1.0,2731.801754237349,0.387017862143117,1.312360313681994,0.968914918749537,0.28666613750000003,0.6888744720551223
0.044,1.7516,1.0,2730.7178622432507,0.3904562086137263,1.311876211063291,0.9694029964128723,0.2866202,0.6898381025918543
0.0445,1.75049375,1.0,2729.5298789973676,0.39387527160948205,1.3113874113740975,0.9698759119682343,0.2865737375,0.6908095664468704
0.045,1.7493750000000001,1.0,2728.2438774879406,0.39727515713131256,1.3108938600195483,0.9703342793410735,0.28652675,0.6917889279405149
0.0455,1.74824375,1.0,2726.8659305758633,0.40065597118014656,1.3103955024047789,0.9707786811762973,0.2864792375,0.6927762502770565
0.046,1.7471,1.0,2725.4021099462584,0.40401781975691253,1.3098922839349243,0.9712096707305026,0.2864312,0.6937715955280493
0.0465,1.7459437500000001,1.0,2723.85848512604,0.407360808862539,1.3093841500151195,0.9716277736321957,0.28638263750000004,0.6947750246155039
0.047,1.744775,1.0,2722.2411225673295,0.4106850444979546,1.3088710460505,0.9720334895203784,0.28633355,0.6957865972948658
0.0475,1.74359375,1.0,2720.5560847978722,0.41399063266408787,1.3083529174462005,0.972427293570976,0.28628393750000003,0.6968063721378082
0.048,1.7424,1.0,2718.8094296359036,0.4172776793618673,1.3078297096073568,0.9728096379197697,0.2862338,0.6978344065148291
0.0485,1.74119375,1.0,2717.004573342798,0.4205462825746481,1.3073013919555627,0.9731809536714408,0.2861831375,0.6988707095094822
0.049,1.739975,1.0,2715.1470239453665,0.423796549317331,1.3067679148262807,0.9735416512344832,0.28613195,0.6999153266362748
0.0495,1.73874375,1.0,2713.2445552645013,0.42702859378102115,1.3062292078455173,0.9738921211181418,0.2860802375,0.7009683426731728
0.05,1.7375,1.0,2711.3001128129663,0.4302425147991822,1.3056852445868474,0.9742327367349684,0.286028,0.7020297552355844
0.0505,1.73624375,1.0,2709.3166390011133,0.43343841120527765,1.305135998623846,0.9745638542509594,0.2859752375,0.7030995610453707
0.051000000000000004,1.734975,1.0,2707.2970729169015,0.436616381832771,1.3045814435300873,0.974885813532923,0.28592195,0.7041777559219651
0.051500000000000004,1.73369375,1.0,2705.2443501211396,0.43977652551512597,1.304021552879147,0.9751989390356918,0.2858681375,0.705264334773444
0.052000000000000005,1.7324,1.0,2703.161402458407,0.442918941085806,1.3034563002445991,0.975503540633491,0.2858138,0.7063592915875628
0.0525,1.73109375,1.0,2701.051157883396,0.44604372737827463,1.302885659200019,0.9757999143994448,0.28575893750000003,0.7074626194227356
0.053,1.729775,1.0,2698.916540302802,0.4491509832259955,1.3023096033189816,0.9760883433368664,0.28570355000000003,0.7085743103989797
0.0535,1.72844375,1.0,2696.760469432496,0.4522408074624321,1.3017281061750612,0.976369098065712,0.2856476375,0.7096943556888107
0.054,1.7271,1.0,2694.585860670453,0.4553132989210481,1.301141141341833,0.9766424374673028,0.2855912,0.7108227455080937
0.0545,1.7257437500000001,1.0,2692.395624984859,0.45836855643530694,1.3005486823928718,0.9769086092901854,0.2855342375,0.7119594691068516
0.055,1.724375,1.0,2690.1926704499137,0.4614066759159147,1.2999507028868114,0.9771678504373801,0.28547675,0.7131045147886091
0.0555,1.72299375,1.0,2687.9804029550105,0.46442772874955435,1.2993471717803002,0.9774203852103341,0.2854187375,0.7142578786579574
0.056,1.7216,1.0,2685.7608788455964,0.46743185259809233,1.298738070345874,0.9776664354629548,0.2853602,0.7154195322896163
0.0565,1.72019375,1.0,2683.5351978245876,0.4704191380455606,1.2981233885951873,0.9779062099313969,0.28530113749999997,0.7165894297593207
0.057,1.718775,1.0,2681.304457819071,0.47338967567599105,1.2975031165398951,0.9781399087664231,0.28524155,0.7177675243911019
0.0575,1.71734375,1.0,2679.069754966659,0.47634355607341555,1.2968772441916527,0.9783677239537533,0.2851814375,0.7189537687537302
0.058,1.7159,1.0,2676.832183605034,0.4792808698218661,1.2962457615621146,0.978589839710562,0.2851208,0.7201481146571517
0.0585,1.71444375,1.0,2674.5928362626614,0.48220170750537455,1.2956086586629356,0.9788064328596598,0.2850596375,0.721350513148916
0.059000000000000004,1.7129750000000001,1.0,2672.352803652335,0.4851061597079728,1.2949659255057708,0.979017673182777,0.28499795,0.7225609145105997
0.059500000000000004,1.71149375,1.0,2670.1131746669635,0.4879943170136928,1.294317552102275,0.979223723754276,0.2849357375,0.7237792682542241
0.06,1.71,1.0,2667.8750363768586,0.4908662700065664,1.2936635284641032,0.9794247412565164,0.284873,0.7250055231186635
0.0605,1.7084937500000001,1.0,2665.6394740304004,0.4937221092706256,1.29300384460291,0.9796208762780181,0.2848097375,0.7262396270660516
0.061,1.7069750000000001,1.0,2663.407571055814,0.4965619253899023,1.2923384905303503,0.9798122735954864,0.28474595,0.7274815272781769
0.0615,1.7054437500000001,1.0,2661.180409065544,0.4993858089484283,1.2916674562580792,0.9799990724406848,0.2846816375,0.7287311701528745
0.062,1.7039,1.0,2658.9590678634286,0.5021938505302357,1.2909907317977516,0.9801814067530851,0.2846168,0.7299885013004114
0.0625,1.70234375,1.0,2656.7446254530787,0.5049861407193562,1.290308307161022,0.980359405419146,0.2845514375,0.7312534655398653
0.063,1.7007750000000001,1.0,2654.538158049051,0.507762770099822,1.2896201723595457,0.9805331924990288,0.28448555,0.7325260068954944
0.0635,1.69919375,1.0,2652.340865329744,0.5105238211328046,1.2889263162501599,0.9807028867826857,0.28441913750000003,0.7338060707210223
0.064,1.6976,1.0,2650.154332741604,0.5132693343268315,1.2882267241129646,0.9808685994506696,0.2843522,0.7350936081221588
0.0645,1.69599375,1.0,2647.977547333689,0.5159994737839163,1.287521405183481,0.9810304477569559,0.2842847375,0.7363885253868514
0.065,1.694375,1.0,2645.810672372868,0.5187143204963476,1.2868103578537085,0.9811885381709811,0.28421675,0.737690748175471
0.0655,1.69274375,1.0,2643.65387088605,0.521413955456414,1.2860935805156477,0.9813429733319567,0.2841482375,0.739000201491507
0.066,1.6911,1.0,2641.507305663605,0.5240984596564042,1.2853710715612985,0.9814938522125188,0.2840792,0.740316809680983
0.0665,1.6894437500000001,1.0,2639.3711392623504,0.5267679140886069,1.284642829382661,0.981641270274247,0.2840096375,0.7416404964318665
0.067,1.687775,1.0,2637.2455340081774,0.5294223997453107,1.2839088523717355,0.9817853196155135,0.28393955,0.7429711847734826
0.0675,1.68609375,1.0,2635.130651999931,0.5320619976188043,1.2831691389205215,0.9819260891120883,0.2838689375,0.7443087970759259
0.068,1.6844000000000001,1.0,2633.0266551120553,0.5346867887013765,1.2824236874210198,0.9820636645509069,0.2837978,0.7456532550494711
0.0685,1.68269375,1.0,2630.933704998163,0.5372968539853158,1.28167249626523,0.9821981287573746,0.2837261375,0.7470044797439861
0.069,1.680975,1.0,2628.8519630943156,0.5398922744629109,1.2809155638451521,0.9823295617165646,0.28365395,0.7483623915483426
0.0695,1.67924375,1.0,2626.7815906224823,0.5424731311264505,1.2801528885527864,0.9824580406886403,0.28358123749999997,0.7497269101898278
0.07,1.6775,1.0,2624.7227485938365,0.5450395049682233,1.279384468780133,0.9825836403188147,0.283508,0.7510979547335551
0.07050000000000001,1.67574375,1.0,2622.6755978124256,0.5475914769805179,1.2786103029191918,0.9827064327421429,0.2834342375,0.7524754435818757
0.07100000000000001,1.673975,1.0,2620.6402988785508,0.5501291281556231,1.2778303893619631,0.982826487683418,0.28335995,0.7538592944737882
0.07150000000000001,1.67219375,1.0,2618.6170121927457,0.5526525394858274,1.2770447265004468,0.9829438725524358,0.2832851375,0.7552494244843516
0.07200000000000001,1.6704,1.0,2616.6058979590443,0.5551617919634195,1.2762533127266429,0.98305865253487,0.2832098,0.7566457500240933
0.0725,1.66859375,1.0,2614.6071161889777,0.5576569665806881,1.2754561464325516,0.983170890678985,0.2831339375,0.7580481868384207
0.073,1.6667750000000001,1.0,2612.620826705374,0.5601381443299219,1.274653226010173,0.9832806479784084,0.28305755,0.7594566500070307
0.0735,1.66494375,1.0,2610.6471891460865,0.5626054062034097,1.2738445498515072,0.9833879834511596,0.2829806375,0.7608710539433208
0.074,1.6631,1.0,2608.6863629679697,0.56505883319344,1.273030116348554,0.9834929542151352,0.2829032,0.762291312393798
0.0745,1.6612437500000001,1.0,2606.7384347827333,0.5674984914486655,1.272209924569213,0.9835956147493207,0.2828252375,0.7637173372641054
0.075,1.659375,1.0,2604.802580051154,0.5699244262643103,1.2713839820587183,0.9836960170098953,0.28274675,0.7651490251337796
0.0755,1.65749375,1.0,2602.8784340973143,0.5723367778730526,1.270552292093796,0.9837942164128328,0.2826677375,0.766586279473193
