Time [s],Phi [rad],STIM [ ],Fsee [N],Gamma [ ],Lcerel [ ],q [ ],Lmtc [m],fisomrel [ ]
0.0,1.8,1.0,17.965333329950514,1.0000005902219644e-05,1.3793399506677548,0.0050000266518178205,0.288653,0.5411390364393666
0.0005,1.79999375,1.0,18.274833989744216,0.005619153222572557,1.3793025999762343,0.012940518216960628,0.2886527375,0.5412293930206276
0.001,1.799975,1.0,21.616552607457134,0.011196843524618465,1.3789384889180072,0.03560859034468907,0.28865195,0.542109762807836
0.0015,1.79994375,1.0,31.067327022866863,0.016743247394977488,1.3780463663701343,0.07060172864629839,0.2886506375,0.5442632170737824
0.002,1.7999,1.0,53.58018054408053,0.02225854032493173,1.3763682748863868,0.11471786570403374,0.2886488,0.548300132841343
0.0025,1.79984375,1.0,97.11638632364262,0.02774289682167973,1.3739352902025272,0.16457470318591663,0.28864643749999996,0.5541211694552033
0.003,1.7997750000000001,1.0,160.95560383853643,0.03319649041604664,1.3712144396915216,0.21728025375240814,0.28864354999999997,0.5605862237388702
0.0035,1.79969375,1.0,237.6808659018282,0.038619493662079805,1.3685848101816207,0.2706126851903423,0.2886401375,0.566789661043937
0.004,1.7996,1.0,321.4644529274631,0.04401207814783016,1.3661561538021403,0.3229156017764312,0.2886362,0.5724798183444624
0.0045000000000000005,1.7994937500000001,1.0,409.2655939148531,0.049374414500536624,1.363922864796709,0.373034315880961,0.2886317375,0.57767904489208
0.005,1.799375,1.0,499.41149287315176,0.05470667237772596,1.3618583850866999,0.42024728021978647,0.28862675,0.5824569806838189
0.0055,1.79924375,1.0,590.7885319913671,0.0600090205146115,1.3599388718692176,0.4641735306310961,0.2886212375,0.5868750271604432
0.006,1.7991000000000001,1.0,682.5163527736223,0.06528162666739754,1.3581464466587252,0.5046798078259588,0.2886152,0.590979345490207
0.006500000000000001,1.79894375,1.0,773.861281183052,0.07052465740242733,1.356467594634477,0.5418008175024579,0.2886086375,0.5948050190545604
0.007,1.798775,1.0,864.2901532557772,0.07573827947317734,1.3548903248584019,0.5756765939046307,0.28860155,0.598382835847889
0.0075,1.79859375,1.0,953.2559991220447,0.08092265705585043,1.3534065825651114,0.606509666963923,0.2885939375,0.6017340159427587
0.008,1.7984,1.0,1040.3576241782816,0.08607795406623615,1.3520086585707627,0.6345319504138586,0.2885858,0.6048785213367738
0.0085,1.79819375,1.0,1125.3181116165322,0.09120433409583317,1.3506891865139294,0.6599843016834293,0.2885771375,0.6078351226473164
0.009000000000000001,1.797975,1.0,1207.8833792291387,0.09630195920162732,1.349442264621881,0.6831042297301104,0.28856795,0.6106189531120256
0.0095,1.79774375,1.0,1287.873911895674,0.1013709906384913,1.3482623658805044,0.7041175255332033,0.2885582375,0.6132440194876074
0.01,1.7975,1.0,1365.161837616599,0.10641158887214983,1.3471444522631,0.7232341882618577,0.288548,0.615722988721149
0.0105,1.79724375,1.0,1439.6600100781552,0.11142391333521943,1.3460839399933222,0.7406465901982499,0.2885372375,0.6180673038223806
0.011,1.796975,1.0,1511.308409993654,0.11640812213053704,1.3450767222676026,0.7565291463440056,0.28852595000000003,0.6202871675671171
0.0115,1.79669375,1.0,1580.1105753607847,0.12136437400446776,1.3441186077461635,0.7710386103858038,0.2885141375,0.6223928054937565
0.012,1.7964,1.0,1646.0675560956113,0.12629282571021194,1.3432060415265952,0.7843154862419709,0.28850180000000003,0.6243928987871334
0.0125,1.79609375,1.0,1709.1834349744097,0.13119363228123107,1.3423359261266405,0.7964852360177714,0.2884889375,0.626295005366758
0.013000000000000001,1.7957750000000001,1.0,1769.4984659902875,0.1360669487509866,1.3415051640640436,0.8076594878231763,0.28847555,0.6281065781810926
0.0135,1.79544375,1.0,1827.0721921215127,0.1409129294680026,1.3407108099012433,0.8179375102807884,0.2884616375,0.6298346429095627
0.014,1.7951000000000001,1.0,1881.9835334935715,0.14573172889507516,1.3399500254386176,0.8274075325127015,0.2884472,0.6314859062636582
0.0145,1.79474375,1.0,1934.2925894661162,0.1505234989863769,1.33922045623575,0.8361481132052199,0.2884322375,0.6330659504821737
0.015,1.794375,1.0,1984.0610417186724,0.15528839057304794,1.338519958161623,0.8442291510745208,0.28841675,0.6345798403260621
0.0155,1.79399375,1.0,2031.3690822648236,0.16002655448622835,1.3378463870852195,0.8517128260817247,0.2884007375,0.6360325852470154
0.016,1.7936,1.0,2076.300438846436,0.1647381406091755,1.33719773826887,0.8586545540102648,0.2883842,0.6374288434513987
0.0165,1.7931937500000001,1.0,2118.9548277790477,0.16942329952298066,1.3365719953988513,0.8651037416571195,0.2883671375,0.6387732522743483
0.017,1.792775,1.0,2159.40770249461,0.17408217877237872,1.3359675290402293,0.8711046114949069,0.28834955,0.6400695772659524
0.0175,1.7923437500000001,1.0,2197.732994577556,0.17871492489972704,1.3353828368386351,0.8766967365880137,0.2883314375,0.6413212779147623
0.018000000000000002,1.7919,1.0,2234.014303137429,0.18332168444738295,1.3348164164396996,0.8819155517694507,0.2883128,0.642531783426268
0.0185,1.79144375,1.0,2268.3376307420367,0.18790260319101024,1.3342668297252536,0.8867928530372271,0.2882936375,0.6437043576065955
0.019,1.790975,1.0,2300.7932338581018,0.19245782722504462,1.3337326745798348,0.8913572120555654,0.28827395,0.644842161727647
0.0195,1.79049375,1.0,2331.462895935439,0.19698750121368894,1.333212702047063,0.8956343725403572,0.2882537375,0.6459480076355077
0.02,1.79,1.0,2360.412654043606,0.20149176712167705,1.3327058765148712,0.8996475825935355,0.288233,0.6470242338407886
0.0205,1.78949375,1.0,2387.713589781934,0.2059707669137428,1.3322111623711919,0.9034178260395588,0.2882117375,0.6480731619769822
0.021,1.788975,1.0,2413.4414096806076,0.21042464255462004,1.331727524003958,0.9069640737657096,0.28818995000000003,0.6490970976345771
0.021500000000000002,1.78844375,1.0,2437.668385740188,0.21485353457831288,1.3312539995125299,0.9103035191733392,0.2881676375,0.6500981754048242
0.022,1.7879,1.0,2460.4725309547184,0.21925758511618593,1.3307896075901144,0.9134517528720588,0.2881448,0.6510785571121751
0.0225,1.78734375,1.0,2481.920742437256,0.2236369339892365,1.3303335055212109,0.9164229631784158,0.28812143749999997,0.652040099266799
0.023,1.786775,1.0,2502.068406585577,0.22799171815888059,1.3298849871793532,0.9192300822613946,0.28809755,0.652984359801269
0.0235,1.78619375,1.0,2520.973316617137,0.23232207458653414,1.3294433464380755,0.9218848919177931,0.28807313749999996,0.6539128873969458
0.024,1.7856,1.0,2538.6954709871775,0.23662814023361317,1.3290078771709113,0.9243981417926235,0.2880482,0.6548272218096
0.0245,1.78499375,1.0,2555.296882860743,0.24091005206153368,1.3285778732513944,0.9267796540267116,0.2880227375,0.6557288941632353
0.025,1.784375,1.0,2570.828998806375,0.2451679438364514,1.3281527447075956,0.929038434465176,0.28799675,0.6566191841226774
0.025500000000000002,1.78374375,1.0,2585.3581584801736,0.24940195486298866,1.3277317767318921,0.9311827164244665,0.2879702375,0.6574996253831544
0.026000000000000002,1.7831000000000001,1.0,2598.9301404932307,0.2536122182441281,1.3273144603275666,0.9332200848791548,0.2879432,0.6583713139683477
0.0265,1.78244375,1.0,2611.586198408376,0.2577988654303647,1.326900339399718,0.9351575155154738,0.2879156375,0.6592352299118276
0.027,1.781775,1.0,2623.368600276108,0.26196202787219336,1.3264889578534447,0.9370014247621031,0.28788755,0.6600923482135574
0.0275,1.7810937500000001,1.0,2634.320541541235,0.2661018370201091,1.3260798595938452,0.9387577220774446,0.2878589375,0.660943638926206
0.028,1.7804,1.0,2644.4860625618126,0.27021842432460697,1.3256725885260183,0.9404318567132366,0.2878298,0.6617900672281976
0.0285,1.77969375,1.0,2653.909409530641,0.27431192094031703,1.3252666937283857,0.9420288602255434,0.2878001375,0.6626325827519278
0.029,1.778975,1.0,2662.62665363368,0.2783824533302329,1.324861805865409,0.943553393031211,0.28776995,0.6634719613834993
0.029500000000000002,1.7782437500000001,1.0,2670.688371208909,0.28243015776115543,1.3244574275354424,0.9450097536864537,0.2877392375,0.6643092401692703
0.03,1.7775,1.0,2678.122923135057,0.2864551597200647,1.3240532706369126,0.9464019486108367,0.287708,0.6651450184614793
0.0305,1.77674375,1.0,2684.959081325323,0.2904575846939409,1.323649047068247,0.9477336931408878,0.2876762375,0.6659798926397185
0.031,1.775975,1.0,2691.2259921739624,0.2944375581697642,1.3232444687278726,0.9490084363404357,0.28764395,0.6668144561123578
0.0315,1.7751937500000001,1.0,2696.9531418430047,0.29839520563451466,1.322839247514216,0.9502293834051037,0.2876111375,0.6676492993126745
0.032,1.7744,1.0,2702.170323389061,0.3023306525751725,1.3224330953257049,0.9513995159202437,0.2875778,0.6684850096896842
0.0325,1.77359375,1.0,2706.907605730758,0.30624402447871785,1.322025724060766,0.9525216102011114,0.2875439375,0.6693221716936844
0.033,1.772775,1.0,2711.1870231615276,0.31013544155905315,1.3216169211454047,0.9535982612530336,0.28750955,0.6701612118397657
0.0335,1.7719437500000002,1.0,2715.0388370918995,0.31400503074747993,1.3212064008094881,0.9546318834461922,0.2874746375,0.671002704333592
0.034,1.7711000000000001,1.0,2718.4963733226973,0.3178529210969185,1.320793851164605,0.9556247288895385,0.2874392,0.6718472737722618
0.0345,1.7702437500000001,1.0,2721.5772978192917,0.3216792312254859,1.3203791045034132,0.9565789155990909,0.2874032375,0.6726952468035428
0.035,1.7693750000000001,1.0,2724.2993999814476,0.32548407975129945,1.3199619931185715,0.95749642476707,0.28736675,0.6735469482129821
0.035500000000000004,1.76849375,1.0,2726.6805801343585,0.3292675852924761,1.319542349302738,0.958379111185114,0.2873297375,0.6744027008995119
0.036000000000000004,1.7676,1.0,2728.738837642247,0.33302986646713295,1.319120005348571,0.9592287127588817,0.2872922,0.6752628258492603
0.0365,1.76669375,1.0,2730.492259646184,0.3367710418933872,1.3186947935487285,0.9600468592026368,0.2872541375,0.6761276421075679
0.037,1.765775,1.0,2731.9590104253944,0.34049123018935595,1.3182665461958694,0.9608350799929027,0.28721555,0.676997466749211
0.0375,1.76484375,1.0,2733.1573213819634,0.3441905499731563,1.3178350955826514,0.9615948116518898,0.2871764375,0.677872614846833
0.038,1.7639,1.0,2734.1054816493242,0.34786911986290536,1.3174002740017332,0.9623274044239691,0.28713679999999997,0.6787533994375787
0.0385,1.76294375,1.0,2734.8153839608312,0.35152705271362455,1.3169619722746966,0.9630341327643496,0.28709663750000003,0.6796400131751736
0.039,1.761975,1.0,2735.304243745342,0.35516446848082994,1.3165200332426916,0.9637161932890725,0.28705595,0.6805327441200427
0.0395,1.7609937500000001,1.0,2735.590628356652,0.3587814871382572,1.3160742877849154,0.9643747120904977,0.2870147375,0.6814319024274824
0.04,1.76,1.0,2735.684565434589,0.3623782202246382,1.3156246445681703,0.9650107560712835,0.286973,0.682337639480919
0.0405,1.7589937500000001,1.0,2735.5961043456236,0.36595477927870496,1.315171012259259,0.9656253316272646,0.2869307375,0.6832501053299553
0.041,1.757975,1.0,2735.335312736835,0.36951127583918936,1.3147132995249846,0.9662193887110969,0.28688795,0.6841694486674021
0.0415,1.75694375,1.0,2734.9122732748833,0.3730478214448233,1.3142514150321494,0.9667938245821251,0.2868446375,0.6850958168057775
0.042,1.7559,1.0,2734.337080570069,0.3765645276343387,1.3137852674475563,0.9673494872697027,0.28680079999999997,0.6860293556532704
0.0425,1.75484375,1.0,2733.619838284975,0.3800615059464675,1.3133147654380082,0.9678871787745823,0.2867564375,0.686970209689177
0.043000000000000003,1.753775,1.0,2732.77065642826,0.3835388679199416,1.3128398176703076,0.9684076580306606,0.28671155,0.6879185219388033
0.043500000000000004,1.75269375,1.0,2731.7996488336935,0.38699672509349287,1.3123603328112572,0.9689116436472591,0.28666613750000003,0.6888744339478337
0.044,1.7516,1.0,2730.7135508907922,0.39043517852968046,1.3118762502431316,0.9693998172890849,0.2866202,0.689838024662894
0.0445,1.75049375,1.0,2729.5222217002683,0.39385434603546315,1.3113874809757025,0.9698728254688739,0.2865737375,0.6908094282257862
0.045,1.7493750000000001,1.0,2728.2346489160063,0.3972543436302215,1.3108939439231595,0.9703312817089526,0.28652675,0.6917887615813245
0.0455,1.74824375,1.0,2726.8563208829833,0.40063527540307986,1.3103955897955106,0.9707757689427282,0.2864792375,0.6927760772815597
0.046,1.7471,1.0,2725.3927252152844,0.4039972454431627,1.309892369302763,0.9712068407089423,0.2864312,0.6937714268109691
0.0465,1.7459437500000001,1.0,2723.8493479176154,0.4073403578395942,1.309384233154925,0.971625022911798,0.28638263750000004,0.694774860571234
0.047,1.744775,1.0,2722.231672561437,0.4106647166814989,1.3088711320620037,0.9720308154595054,0.28633355,0.6957864278658683
0.0475,1.74359375,1.0,2720.5451795147997,0.41397042605800105,1.3083530167340067,0.9724246937907142,0.28628393750000003,0.6968061768846856
0.048,1.7424,1.0,2718.795345225323,0.41725759005822505,1.307829837880942,0.9728071102974898,0.2862338,0.6978341546881152
0.0485,1.74119375,1.0,2716.9876415584845,0.42052631277129526,1.3073015462128172,0.9731784956527388,0.2861831375,0.6988704071913641
0.049,1.739975,1.0,2715.1275351881,0.423776698286336,1.3067680924396399,0.9735392600493282,0.28613195,0.6999149791484203
0.0495,1.73874375,1.0,2713.2204870419837,0.4270088506924717,1.3062294272714174,0.973889794357526,0.2860802375,0.7009679141359045
0.05,1.7375,1.0,2711.271951800948,0.43022287407882664,1.3056855014181579,0.9742304712068444,0.286028,0.7020292545367647
0.0505,1.73624375,1.0,2709.2839354033813,0.433418859142354,1.3051362969932856,0.9745616465526722,0.2859752375,0.7030989804120709
0.051000000000000004,1.734975,1.0,2707.2579351723457,0.43659690493021736,1.304581800734475,0.9748836613233752,0.28592195,0.7041770620578591
0.051500000000000004,1.73369375,1.0,2705.2036030301774,0.4397571407734611,1.304021924912925,0.9751968394829597,0.2858681375,0.705263613431887
0.052000000000000005,1.7324,1.0,2703.122945504232,0.4428996621029931,1.3034566515038886,0.9755014911503774,0.2858138,0.7063586117922434
0.0525,1.73109375,1.0,2701.0179665127666,0.4460245643497209,1.3028859624826192,0.9757979126437252,0.28575893750000003,0.7074620335809227
0.053,1.729775,1.0,2698.890667269471,0.4491319429445524,1.30230983982437,0.9760863872110349,0.28570355000000003,0.7085738544176141
0.0535,1.72844375,1.0,2696.743046195498,0.4522218933183953,1.3017282655043938,0.9763671857162975,0.2856476375,0.7096940490934631
0.054,1.7271,1.0,2694.5770988384033,0.45529451090215733,1.3011412214979443,0.9766405672838236,0.2855912,0.7108225915648152
0.0545,1.7257437500000001,1.0,2692.3948177985103,0.4583498911267463,1.3005486897802745,0.9769067799037964,0.2855342375,0.7119594549469399
0.055,1.724375,1.0,2690.1981926621625,0.46138812942306984,1.2999506523266375,0.9771660610016696,0.28547675,0.7131046115077315
0.0555,1.72299375,1.0,2687.9892099427266,0.4644093212220358,1.2993470911122866,0.9774186379738428,0.2854187375,0.7142580326613914
0.056,1.7216,1.0,2685.769853028148,0.4674135619545519,1.2987379881124748,0.9776647286918804,0.2853602,0.7154196889620883
0.0565,1.72019375,1.0,2683.542102136269,0.4704009470515259,1.2981233253024556,0.9779045419773635,0.28530113749999997,0.7165895500975965
0.057,1.718775,1.0,2681.307934277273,0.47337157194386553,1.297503084657482,0.978138278049308,0.28524155,0.7177675848829181
0.0575,1.71734375,1.0,2679.0693232225967,0.47632553206247846,1.2968772481528072,0.978366128945946,0.2851814375,0.7189537612538792
0.058,1.7159,1.0,2676.828239482146,0.4792629228382726,1.2962457977636843,0.9785882789225328,0.2851208,0.7201480462607087
0.0585,1.71444375,1.0,2674.586650288029,0.4821838397021555,1.2956087154653668,0.9788049048267217,0.2850596375,0.7213504060615938
0.059000000000000004,1.7129750000000001,1.0,2672.3446680675775,0.48508836100659586,1.2949660002417254,0.979016175952317,0.28499795,0.7225607739202757
0.059500000000000004,1.71149375,1.0,2670.1031381411026,0.4879765777264576,1.2943176443395277,0.9792222556085807,0.2849357375,0.7237790951225488
0.06,1.71,1.0,2667.8661214040144,0.49084861135486413,1.293663610428458,0.979423301593097,0.284873,0.7250053696113612
0.0605,1.7084937500000001,1.0,2665.6340474984727,0.49370454825613136,1.2930038945154025,0.9796194644697868,0.2848097375,0.7262395337972158
0.061,1.7069750000000001,1.0,2663.407345348119,0.49654447479457514,1.2923384926072472,0.9798108890007057,0.28474595,0.7274815234060028
0.0615,1.7054437500000001,1.0,2661.1864431614204,0.4993684773345113,1.2916674007108782,0.9799977144121016,0.2846816375,0.7287312734775512
0.062,1.7039,1.0,2658.9717684358798,0.5021766422402557,1.2909906148331813,0.9801800746463128,0.2846168,0.7299887183641809
0.0625,1.70234375,1.0,2656.7637479616337,0.5049690558761243,1.2903081309810427,0.9803580986003613,0.2845514375,0.7312537917292531
0.063,1.7007750000000001,1.0,2654.5628078262403,0.5077458046064329,1.2896199451613484,0.980531910352039,0.28448555,0.7325264265457193
0.0635,1.69919375,1.0,2652.369373419662,0.5105069747954972,1.2889260533809845,0.9807016293742279,0.28441913750000003,0.73380655509467
0.064,1.6976,1.0,2650.1838694390526,0.5132526528076334,1.2882264516468371,0.9808673707381513,0.2843522,0.7350941089638823
0.0645,1.69599375,1.0,2648.0067198948964,0.515982925007157,1.2875211359657919,0.9810292453062037,0.2842847375,0.7363890190463668
0.065,1.694375,1.0,2645.838348116308,0.5186978777583843,1.2868101023447354,0.9811873599149614,0.28421675,0.7376912155389108
0.0655,1.69274375,1.0,2643.6791767577206,0.5213975974256306,1.2860933467905533,0.9813418175489493,0.2841482375,0.7390006279406256
0.066,1.6911,1.0,2641.5296278053734,0.5240821703732123,1.2853708653101317,0.9814927175056853,0.2840792,0.7403171850514882
0.0665,1.6894437500000001,1.0,2639.390122584353,0.5267516829654448,1.2846426539103568,0.9816401555525025,0.2840096375,0.7416408149708829
0.067,1.687775,1.0,2637.2610817655964,0.5294062215666443,1.2839087085981145,0.9817842240756157,0.28393955,0.7429714450961447
0.0675,1.68609375,1.0,2635.1429253741526,0.5320458725411266,1.2831690253802908,0.9819250122218649,0.2838689375,0.7443090021210977
0.068,1.6844000000000001,1.0,2633.035858869262,0.5346707167498702,1.2824236022435913,0.9820626057669702,0.2837978,0.7456534084686024
0.0685,1.68269375,1.0,2630.939147735838,0.5372807943409771,1.281672445874621,0.9821970852988949,0.2837261375,0.7470045702646962
0.069,1.680975,1.0,2628.8560104408493,0.5398762546356062,1.280915526358683,0.9823285339486142,0.28365395,0.748362458707347
0.0695,1.67924375,1.0,2626.786232341535,0.5424571748385885,1.2801528455443103,0.9824570288678623,0.28358123749999997,0.7497269870326079
0.07,1.6775,1.0,2624.7295992003365,0.5450236321547555,1.2793844052800343,0.9825826446021321,0.283508,0.7510980678773009
0.07050000000000001,1.67574375,1.0,2622.68589717995,0.5475757037889383,1.2786102074143872,0.9827054531949156,0.2834342375,0.7524756132796943
0.07100000000000001,1.673975,1.0,2620.6549128386528,0.5501134669459681,1.277830253795901,0.9828255242870925,0.28335995,0.7538595346801826
0.07150000000000001,1.67219375,1.0,2618.6364331257582,0.5526369988306763,1.2770445462731075,0.9829429252117156,0.2832851375,0.7552497429219643
0.07200000000000001,1.6704,1.0,2616.6302453773833,0.555146376647894,1.2762530866945387,0.9830577210844408,0.2832098,0.7566461482517208
0.0725,1.66859375,1.0,2614.6361373115137,0.5576416776024524,1.2754558769087272,0.983169974889824,0.2831339375,0.7580486603202938
0.073,1.6667750000000001,1.0,2612.653897024207,0.5601229788991829,1.2746529187642042,0.9832797475637056,0.28305755,0.7594571881833657
0.0735,1.66494375,1.0,2610.6833129849388,0.5625903577429168,1.273844214109502,0.9833870980718759,0.2829806375,0.7608716403021338
0.074,1.6631,1.0,2608.7241740324134,0.5650438913384851,1.273029764793153,0.9834920834852195,0.2829032,0.762291924543991
0.0745,1.6612437500000001,1.0,2606.776269370831,0.5674836568907192,1.2722095726636886,0.983594759051516,0.2828252375,0.7637179481832016
0.075,1.659375,1.0,2604.8393885654314,0.5699097316044504,1.2713836395696412,0.9836951782640613,0.28274675,0.7651496179015788
0.0755,1.65749375,1.0,2602.913321538754,0.5723221926845098,1.2705519673595427,0.9837933929272752,0.2826677375,0.7665868397891612
