Time [s],Phi [rad],STIM [ ],Fsee [N],Gamma [ ],Lcerel [ ],q [ ],Lmtc [m],fisomrel [ ]
0.0,1.8,1.0,17.96840262940419,3.864691060632011e-05,1.3793396068007924,0.005000393842249725,0.288653,0.541139868342539
0.0005,1.79999375,1.0,18.28730507542672,0.00564763944080486,1.3793012148452404,0.013020234876459296,0.2886527375,0.5412327436764184
0.001,1.799975,1.0,21.650239659836,0.011225169957689607,1.3789350494753645,0.035758008333908915,0.28865195,0.5421180748695889
0.0015,1.79994375,1.0,31.146395466528492,0.016771414939167673,1.3780396340840892,0.07080616183629379,0.2886506375,0.544279448538163
0.002,1.7999,1.0,53.74989721799963,0.022286549871446903,1.3763572730216402,0.11495992256009198,0.2886488,0.5483265403179673
0.0025,1.79984375,1.0,97.40137511700999,0.027770749256803003,1.3739215671525966,0.16483801327638808,0.28864643749999996,0.5541538954660274
0.003,1.7997750000000001,1.0,161.32632707519275,0.03322418662102779,1.371200571038671,0.2175518877705639,0.28864354999999997,0.5606190563155758
0.0035,1.79969375,1.0,238.09966815706323,0.03864703451323253,1.3685719155750784,0.2708828521314982,0.2886401375,0.5668199714582822
0.004,1.7996,1.0,321.9099376730838,0.04403946451657421,1.3661443586552313,0.3231771958690381,0.2886362,0.5725073616867007
0.0045000000000000005,1.7994937500000001,1.0,409.72682585945824,0.04940164725345603,1.3639120409450745,0.37328263668288564,0.2886317375,0.5777041659923166
0.005,1.799375,1.0,499.8820336201677,0.054733752376728076,1.3618483884688892,0.4204796027157094,0.28862675,0.5824800502629714
0.0055,1.79924375,1.0,591.2632229408589,0.060035948615751344,1.359929599406622,0.4643886246325076,0.2886212375,0.5868963120886115
0.006,1.7991000000000001,1.0,682.9916130879056,0.0653084037230189,1.3581378091835072,0.5048774768265204,0.2886152,0.5909990740855796
0.006500000000000001,1.79894375,1.0,774.351565645252,0.07055128449347137,1.35645922637423,0.5419813600940713,0.2886086375,0.5948240431526958
0.007,1.798775,1.0,864.7557288896327,0.075764756958761,1.3548828053514692,0.5758413119572412,0.28860155,0.5983998548018853
0.0075,1.79859375,1.0,953.6974324107083,0.08094898582468489,1.3533997936963158,0.6066596317404832,0.2885939375,0.6017493170133974
0.008,1.7984,1.0,1040.806281263226,0.08610413534562847,1.3520020537084871,0.6346680675526243,0.2885858,0.6048933488042326
0.0085,1.79819375,1.0,1125.759419433601,0.0912303685654597,1.3506829398409348,0.6601079251223603,0.2885771375,0.6078490934455336
0.009000000000000001,1.797975,1.0,1208.3050897397547,0.09632784735243578,1.3494365029118305,0.6832166303357968,0.28856795,0.6106317934717803
0.0095,1.79774375,1.0,1288.2882624839403,0.10139673376313842,1.3482568833161588,0.7042197152234043,0.2885582375,0.6132561965016434
0.01,1.7975,1.0,1365.5704728915446,0.10643718787079968,1.3471392005781293,0.723327182017753,0.288548,0.6157346155037542
0.0105,1.79724375,1.0,1440.050182974589,0.11144936863528174,1.3460790570117795,0.7407314029509222,0.2885372375,0.6180780813068796
0.011,1.796975,1.0,1511.684674413949,0.11643343476705462,1.3450721263000587,0.7566065888252061,0.28852595000000003,0.6202972820496058
0.0115,1.79669375,1.0,1580.4718567037748,0.121389544599883,1.3441142919159568,0.7711094428009546,0.2885141375,0.6224022771019762
0.012,1.7964,1.0,1646.41282150909,0.12631785491745873,1.3432020004800338,0.7843803880441549,0.28850180000000003,0.6244017438345117
0.0125,1.79609375,1.0,1709.5133411819947,0.13121852094705289,1.3423321367953804,0.7965448051910063,0.2884889375,0.6263032784346586
0.013000000000000001,1.7957750000000001,1.0,1769.8154562549084,0.13609169791593667,1.3415015856650871,0.807714249304753,0.28847555,0.6281143717736963
0.0135,1.79544375,1.0,1827.3783382074341,0.14093753992843983,1.3407074087962105,0.8179879327559195,0.2884616375,0.6298420331357522
0.014,1.7951000000000001,1.0,1882.2802123544138,0.14575620158536506,1.3399467779401373,0.8274540364131259,0.2884472,0.6314929469646652
0.0145,1.79474375,1.0,1934.570740191452,0.1505478341915117,1.3392174529899468,0.8361911118783304,0.2884322375,0.6330724476626699
0.015,1.794375,1.0,1984.3198055633266,0.15531258901435496,1.338517199494502,0.8442689816166058,0.28841675,0.634585796066325
0.0155,1.79399375,1.0,2031.6117903321335,0.16005061693773548,1.3378438298881439,0.8517497741943483,0.2884007375,0.6360380950462721
0.016,1.7936,1.0,2076.536261858513,0.16476206833815926,1.3371952806409553,0.8586888563558556,0.2883842,0.6374341285505977
0.0165,1.7931937500000001,1.0,2119.18764489358,0.1694470935130159,1.3365695936394335,0.8651356268635041,0.2883671375,0.6387784076447277
0.017,1.792775,1.0,2159.632198159865,0.17410583928609277,1.3359652349170779,0.8711343110238546,0.28834955,0.6400744927522726
0.0175,1.7923437500000001,1.0,2197.946857508809,0.1787384524811773,1.335380670507388,0.8767244489531624,0.2883314375,0.6413259115115268
0.018000000000000002,1.7919,1.0,2234.2183446299623,0.1833450799220569,1.3348143664438634,0.8819414465675676,0.2883128,0.6425361607869717
0.0185,1.79144375,1.0,2268.5311988345215,0.18792586718920315,1.334264899722028,0.8868170862634627,0.2882936375,0.6437084719828523
0.019,1.790975,1.0,2300.9805715468065,0.19248096108810606,1.3337308199172964,0.8913799124097139,0.28827395,0.6448461091751566
0.0195,1.79049375,1.0,2331.641970755965,0.19701050542152812,1.33321094088505,0.8956556704839483,0.2882537375,0.6459517502375627
0.02,1.79,1.0,2360.5824309312907,0.20151464225076315,1.3327042170648777,0.8996675935312,0.288233,0.6470277549338225
0.0205,1.78949375,1.0,2387.874058137625,0.20599351363710489,1.3322096028963668,0.9034366520320642,0.2882117375,0.6480764660186169
0.021,1.788975,1.0,2413.593606330618,0.21044726164184716,1.3317260528191057,0.9069818050352852,0.28818995000000003,0.6491002100798976
0.021500000000000002,1.78844375,1.0,2437.812663760484,0.21487602672144118,1.3312526118181989,0.9103202389017809,0.2881676375,0.6501011070268548
0.022,1.7879,1.0,2460.6111647482303,0.21927995129904543,1.3307882803756461,0.9134675329935843,0.2881448,0.6510813570348308
0.0225,1.78734375,1.0,2482.0541213426177,0.22365917474242605,1.330332234143077,0.9164378724677061,0.28812143749999997,0.6520427776978424
0.023,1.786775,1.0,2502.1967364665984,0.228013834083941,1.3298837688631742,0.9192441837533807,0.28809755,0.6529869229611859
0.0235,1.78619375,1.0,2521.09661574208,0.23234406635594826,1.3294421802786205,0.9218982434908018,0.28807313749999996,0.6539153375423117
0.024,1.7856,1.0,2538.8135664698193,0.23665000859080584,1.3290067641320986,0.9244107966848512,0.2880482,0.6548295572555026
0.0245,1.78499375,1.0,2555.409407605976,0.2409317978208718,1.3285768161662912,0.9267916612943453,0.2880227375,0.6557311093049212
0.025,1.784375,1.0,2570.9055302671713,0.24518956768356487,1.328152027924831,0.9290498877873924,0.28799675,0.6566206842118018
0.025500000000000002,1.78374375,1.0,2585.438442918244,0.24942345777668865,1.3277310269153442,0.9311935909279038,0.2879702375,0.6575011925925189
0.026000000000000002,1.7831000000000001,1.0,2599.037310226809,0.2536336005380189,1.3273134620352027,0.9332303832424336,0.2879432,0.6583733978652102
0.0265,1.78244375,1.0,2611.719382370543,0.257820127564694,1.326899101796045,0.9351672761377237,0.2879156375,0.6592378100922801
0.027,1.7817767139596181,1.0,2623.586169837769,0.2619831704538524,1.3264877147095104,0.93701071802255,0.28788762198630397,0.6600949366829124
0.0275,1.7811082598736452,1.0,2635.1142521839906,0.26612286080263226,1.3260790692872375,0.9387666469981666,0.28785954691469307,0.6609452824386766
0.028,1.7804398057876722,1.0,2646.395677460416,0.27023933020817203,1.3256729340408653,0.9404405379810008,0.2878314718430822,0.6617893495957086
0.0285,1.7797713517016993,1.0,2657.452470966782,0.2743327098774201,1.3252690900377437,0.9420374465590394,0.2878033967714714,0.66262761181766
0.029,1.7791028976157264,1.0,2668.2778877019873,0.278403129610062,1.3248675850012153,0.9435620819535638,0.28777532169986053,0.6634599879320096
0.029500000000000002,1.7784344435297534,1.0,2678.867924179077,0.28245071792730614,1.3244684414434087,0.9450187966681958,0.28774724662824963,0.6642864493217004
0.03,1.7777659894437805,1.0,2689.2260900891542,0.28647560215638046,1.3240716132346868,0.9464116121435966,0.2877191715566388,0.6651071093605472
0.0305,1.7770975353578076,1.0,2699.355970101523,0.29047790962451286,1.3236770542454133,0.9477442571016166,0.2876910964850279,0.6659220808514408
0.031,1.7764290812718346,1.0,2709.2609769679707,0.2944577532530314,1.3232847205771232,0.9490201881097127,0.28766302141341704,0.6667314714329444
0.0315,1.775760627185862,1.0,2718.94591434981,0.2984152749056445,1.3228945562886587,0.9502426248533113,0.2876349463418062,0.6675354130074944
0.032,1.775092173099889,1.0,2728.4159713959275,0.30235060955953463,1.322506502621966,0.9514145592355449,0.28760687127019535,0.6683340426229204
0.0325,1.774423719013916,1.0,2737.676106024474,0.3062638774435252,1.322120503599186,0.9525387726807005,0.28757879619858445,0.6691274909470879
0.033,1.773755264927943,1.0,2746.731346509704,0.31015519878643966,1.321736503242459,0.9536178574653673,0.2875507211269736,0.6699158880143978
0.0335,1.7730868108419702,1.0,2755.5867889659457,0.31402469381710163,1.3213544455739261,0.9546542318624915,0.28752264605536276,0.6706993632330184
0.034,1.7724183567559972,1.0,2764.247594902257,0.3178724827643346,1.3209742746157278,0.9556501539017167,0.28749457098375186,0.671478045391924
0.0345,1.7717499026700243,1.0,2772.718988846101,0.321698685856962,1.3205959343900047,0.9566077338870596,0.287466495912141,0.6722520626677291
0.035,1.7710814485840514,1.0,2781.0062560361002,0.3255034233238074,1.3202193689188975,0.9575289457972159,0.2874384208405302,0.6730215426313235
0.035500000000000004,1.7704129944980784,1.0,2789.1147401847225,0.3292868153936943,1.319844522224547,0.9584156376799237,0.2874103457689193,0.673786612254309
0.036000000000000004,1.7697445404121055,1.0,2797.0498413107775,0.33304898229544616,1.319471338329094,0.9592695411396167,0.28738227069730843,0.6745473979152348
0.0365,1.7690760863261328,1.0,2804.8170136403974,0.3367900442578865,1.3190997612546789,0.9600922800068403,0.2873541956256976,0.6753040254056344
0.037,1.7684076322401598,1.0,2812.421763578247,0.34051012150983884,1.3187297350234426,0.9608853782684156,0.2873261205540867,0.6760566199358613
0.0375,1.767739178154187,1.0,2819.869647748313,0.3442093342801267,1.3183612036575256,0.9616502673289407,0.28729804548247584,0.6768053061407254
0.038,1.767070724068214,1.0,2827.1563394224395,0.34788775120362814,1.31799419988136,0.9623882904826494,0.287269970410865,0.6775500281945589
0.0385,1.766402269982241,1.0,2834.2973101491466,0.35154553929315724,1.317628579786427,0.963100714979287,0.28724189533925415,0.6782910883381934
0.039,1.765733815896268,1.0,2841.3016123136713,0.3551828362975019,1.3172642574989077,0.9637887329839973,0.28721382026764325,0.679028670005315
0.0395,1.7650653618102952,1.0,2848.1725882963046,0.35879975104375655,1.3169011984813355,0.964453466581332,0.2871857451960324,0.6797628520443024
0.04,1.7643969077243222,1.0,2854.9136100260894,0.36239639235901555,1.3165393681962438,0.9650959736594087,0.2871576701244215,0.6804937129525599
0.0405,1.7637284536383493,1.0,2861.528078027573,0.36597286907037324,1.3161787321061662,0.9657172522652352,0.28712959505281066,0.6812213308792641
0.041,1.7630599995523764,1.0,2868.0194204922573,0.36952929000492396,1.315819255673636,0.966318244620447,0.2871015199811998,0.6819457836280314
0.0415,1.7623915454664036,1.0,2874.391092377975,0.3730657639897621,1.3154609043611862,0.966899840827218,0.28707344490958897,0.6826671486595106
0.042,1.7617230913804307,1.0,2880.646574533873,0.376582399851982,1.3151036436313506,0.9674628822912159,0.28704536983797807,0.6833855030938993
0.0425,1.7610546372944578,1.0,2886.7893728520758,0.380079306418678,1.3147474389466627,0.9680081648859052,0.2870172947663672,0.6841009237133828
0.043000000000000003,1.7603861832084848,1.0,2892.8230174458686,0.3835565925169444,1.3143922557696555,0.968536441880187,0.2869892196947563,0.6848134869645011
0.043500000000000004,1.759717729122512,1.0,2898.751061854288,0.38701436697387565,1.3140380595628627,0.9690484266492945,0.2869611446231455,0.6855232689604334
0.044,1.759049275036539,1.0,2904.577082272892,0.39045273861656604,1.3136848157888175,0.9695447951870205,0.28693306955153464,0.6862303454832133
0.0445,1.758380820950566,1.0,2910.3046768115523,0.39387181627211,1.3133324899100534,0.9700261884356651,0.2869049944799238,0.6869347919858619
0.045,1.757712366864593,1.0,2915.9374647779478,0.3972717087676018,1.312981047389104,0.9704932144486109,0.2868769194083129,0.6876366835944498
0.0455,1.7570439127786202,1.0,2921.4790859885206,0.4006525249301358,1.312630453688502,0.9709464503990725,0.28684884433670205,0.688336095110081
0.046,1.7563754586926472,1.0,2926.9332001045273,0.4040143735868065,1.3122806742707818,0.9713864444473601,0.28682076926509115,0.6890331010107968
0.0465,1.7557070046066745,1.0,2932.3034859959216,0.40735736356470803,1.311931674598476,0.9718137174778905,0.2867926941934803,0.6897277754534137
0.047,1.7550385505207016,1.0,2937.593641130638,0.41068160369093487,1.3115834201341183,0.9722287647161969,0.28676461912186946,0.6904201922752726
0.0475,1.7543700964347286,1.0,2942.8073809908933,0.41398720279258133,1.3112358763402419,0.9726320572352903,0.2867365440502586,0.6911104249959237
0.048,1.7537016423487557,1.0,2947.9463538948216,0.41727425443113036,1.310889026912232,0.9730240427213974,0.28670846897864777,0.6917985106682574
0.0485,1.7530331882627828,1.0,2953.01194281049,0.4205428588324239,1.3105428579496208,0.9734051485002106,0.28668039390703687,0.6924844814301073
0.049,1.7523647341768098,1.0,2958.0097128225707,0.4237931455146487,1.3101973191108174,0.9737757827265646,0.286652318835426,0.6931684413790233
0.0495,1.7516962800908369,1.0,2962.9413984797898,0.4270252126640436,1.3098523936669553,0.9741363328989345,0.2866242437638151,0.693850427738706
0.05,1.751027826004864,1.0,2967.8087432659627,0.4302391584668475,1.3095080648891673,0.9744871685531199,0.2865961686922043,0.6945304775783261
0.0505,1.750359371918891,1.0,2972.6134993748324,0.4334350811092994,1.3091643160485873,0.9748286422561879,0.28656809362059343,0.6952086278131673
0.051000000000000004,1.749690917832918,1.0,2977.3574274923135,0.4366130787776382,1.3088211304163484,0.9751610905368416,0.2865400185489826,0.6958849152052575
0.051500000000000004,1.7490224637469454,1.0,2982.042296584387,0.4397732496581028,1.3084784912635843,0.9754848347568109,0.2865119434773717,0.6965593763639757
0.052000000000000005,1.7483540096609724,1.0,2986.669883691447,0.44291569193693225,1.3081363818614278,0.9758001819274941,0.28648386840576084,0.6972320477466466
0.0525,1.7476855555749995,1.0,2991.2419737282644,0.4460405038003653,1.3077947854810124,0.9761074254757375,0.28645579333414994,0.6979029656591123
0.053,1.7470171014890266,1.0,2995.7603592913215,0.449147783434641,1.3074536853934717,0.9764068459623387,0.2864277182625391,0.6985721662562887
0.0535,1.7463486474030536,1.0,3000.226840470846,0.4522376290259983,1.307113064869939,0.9766987117565744,0.28639964319092825,0.6992396855427063
0.054,1.7456801933170807,1.0,3004.643224670417,0.45531013876067605,1.3067729071815475,0.9769832796697969,0.2863715681193174,0.6999055593730282
0.0545,1.7450117392311078,1.0,3009.0113264318893,0.45836541082491317,1.3064331955994306,0.9772607955509126,0.2863434930477065,0.7005698234525546
0.055,1.7443432851451348,1.0,3013.332967267065,0.4614035434049487,1.3060939133947216,0.9775314948463382,0.28631541797609567,0.7012325133377062
0.0555,1.7436748310591619,1.0,3017.6099754950274,0.46442463468702144,1.305755043838554,0.9777956031268303,0.28628734290448477,0.7018936644364924
0.056,1.743006376973189,1.0,3021.8441860863613,0.46742878285737044,1.3054165702020608,0.978053336583414,0.2862592678328739,0.7025533120089593
0.0565,1.7423379228872162,1.0,3026.035496828889,0.4704160581239386,1.3050784925357566,0.9783049009318414,0.2862311927612631,0.70321145852076
0.057,1.7416694688012433,1.0,3030.185701213454,0.47338656492814013,1.3047407945450458,0.9785504956540922,0.28620311768965223,0.7038681382017035
0.0575,1.7410010147152704,1.0,3034.298253511305,0.47634043113037555,1.3044034456708504,0.978790313370869,0.2861750426180414,0.7045234128307194
0.058,1.7403325606292974,1.0,3038.373989037625,0.4792777450989924,1.3040664380072085,0.9790245367649225,0.2861469675464305,0.705177299992374
0.0585,1.7396641065433245,1.0,3042.4137463572674,0.48219859520233815,1.3037297636481577,0.9792533412602533,0.28611889247481964,0.705829817201002
0.059000000000000004,1.7389956524573515,1.0,3046.4183672248078,0.48510306980876033,1.3033934146877364,0.9794768953678658,0.28609081740320874,0.7064809819008777
0.059500000000000004,1.7383271983713786,1.0,3050.3886965276793,0.4879912572866064,1.303057383219982,0.9796953610124294,0.2860627423315979,0.7071308114663805
0.06,1.7376587442854057,1.0,3054.3255822290644,0.49086324600422393,1.3027216613389327,0.9799088938410432,0.28603466725998705,0.7077793232021572
0.0605,1.7369902901994327,1.0,3058.2298753135256,0.4937191243299604,1.302386241138626,0.9801176435152097,0.28600659218837615,0.7084265343432804
0.061,1.73632183611346,1.0,3062.1024297330496,0.49655898063216336,1.3020511147131002,0.980321753987064,0.2859785171167653,0.7090724620554005
0.0615,1.735653382027487,1.0,3065.9441023550685,0.4993829032791802,1.301716274156393,0.9805213637608076,0.28595044204515446,0.7097171234348989
0.062,1.7349849279415142,1.0,3069.755752911482,0.5021909806393586,1.3013817115625421,0.9807166061402596,0.28592236697354356,0.7103605355090328
0.0625,1.7343164738555412,1.0,3073.538243949556,0.5049833010810459,1.3010474190255856,0.9809076094633519,0.2858942919019327,0.711002715236076
0.063,1.7336480197695683,1.0,3077.2924407835103,0.5077599529725897,1.3007133886395612,0.9810944973243536,0.2858662168303219,0.7116436795054599
0.0635,1.7329795656835953,1.0,3081.019211448115,0.5105210246823375,1.300379612498507,0.9812773887845542,0.28583814175871103,0.7122834451379043
0.064,1.7323111115976224,1.0,3084.7194266531906,0.5132666045786367,1.3000460826964606,0.9814563985720841,0.28581006668710013,0.7129220288855509
0.0645,1.7316426575116495,1.0,3088.3939597402555,0.5159967810298349,1.2997127913274602,0.9816316372715082,0.2857819916154893,0.7135594474320864
0.065,1.7309742034256765,1.0,3092.043686639342,0.5187116424042797,1.2993797304855432,0.9818032115037885,0.2857539165438784,0.7141957173928684
0.0655,1.7303057493397036,1.0,3095.669485828526,0.5214112770703184,1.299046892264748,0.9819712240971701,0.28572584147226754,0.7148308553150389
0.066,1.7296372952537307,1.0,3099.2722382937177,0.5240957733962986,1.2987142687591122,0.9821357742495106,0.2856977664006567,0.7154648776776431
0.0665,1.728968841167758,1.0,3102.85191535367,0.5267651933824341,1.2983818598388646,0.9822969563116302,0.28566969132904585,0.7160977860940695
0.067,1.728300387081785,1.0,3106.409228959779,0.529419630821824,1.2980496590666832,0.9824548631576822,0.28564161625743495,0.7167295941652867
0.0675,1.727631932995812,1.0,3109.94563137733,0.5320591981688256,1.2977176537183386,0.9826095853525846,0.2856135411858241,0.7173603273738758
0.068,1.7269634789098391,1.0,3113.4615165686664,0.5346839743981521,1.2973858401076928,0.9827612086245463,0.28558546611421326,0.7179899939523017
0.0685,1.7262950248238662,1.0,3116.9572797223705,0.5372940384845165,1.2970542145486077,0.982909815796556,0.28555739104260236,0.7186186021011153
0.069,1.7256265707378933,1.0,3120.433317237814,0.5398894694026322,1.2967227733549453,0.9830554869049697,0.2855293159709915,0.7192461599889979
0.0695,1.7249581166519203,1.0,3123.89002670959,0.5424703461272121,1.296391512840568,0.9831982993124778,0.28550124089938067,0.7198726757528041
0.07,1.7242896625659474,1.0,3127.327806912875,0.5450367476329696,1.296060429319338,0.9833383278157459,0.28547316582776977,0.7204981574976059
0.07050000000000001,1.7236212084799745,1.0,3130.7470577888494,0.5475887528946177,1.295729519105117,0.9834756447480225,0.2854450907561589,0.7211226132967354
