Time [s],Phi [rad],STIM [ ],Fsee [N],Gamma [ ],Lcerel [ ],q [ ],Lmtc [m],fisomrel [ ]
0.0,1.8,1.0,17.986855004497208,0.00014170022510485598,1.3793375401197208,0.005005240548677553,0.288653,0.5411448681630078
0.0005,1.79999375,1.0,18.339521727703662,0.005750114707728335,1.3792954203999914,0.013310182285626287,0.2886527375,0.5412467604068678
0.001,1.799975,1.0,21.77898934730679,0.01132707041939716,1.3789219287460244,0.036298155624956564,0.28865195,0.542149782893472
0.0015,1.79994375,1.0,31.439911354990585,0.016872743819891536,1.3780147170972563,0.07154349900085391,0.2886506375,0.5443395205927337
0.002,1.7999,1.0,54.37159710181648,0.022387310377188115,1.3763171190102992,0.11583185763767806,0.2886488,0.5484229143488148
0.0025,1.79984375,1.0,98.4373964361016,0.027870944575840412,1.373871848053647,0.1657857894516973,0.28864643749999996,0.5542724529111951
0.003,1.7997750000000001,1.0,162.66854270851496,0.03332381992353086,1.3711504919365496,0.21852914825156208,0.28864354999999997,0.5607376031098764
0.0035,1.79969375,1.0,239.61298436441976,0.03874610895162873,1.3685254159734737,0.2718544945226854,0.2886401375,0.5669292658851346
0.004,1.7996,1.0,323.51802971008436,0.04413798322567579,1.366101848790383,0.32411776327983954,0.2886362,0.5726066208936973
0.0045000000000000005,1.7994937500000001,1.0,411.3907225724772,0.04949961335066285,1.3638730443853058,0.3741753100328043,0.2886317375,0.5777946669954379
0.005,1.799375,1.0,501.57884638698977,0.054831168962780306,1.3618123787724479,0.4213146485625144,0.28862675,0.5825631459407612
0.0055,1.79924375,1.0,592.9740743170549,0.06013281876986111,1.3598962110221984,0.4651616739928321,0.2886212375,0.5869729505480398
0.006,1.7991000000000001,1.0,684.7030025114738,0.06540473051164164,1.3581067309206196,0.5055878647767855,0.2886152,0.5910700550680706
0.006500000000000001,1.79894375,1.0,776.0528018483825,0.0706470709876138,1.3564302099049894,0.5426308590124269,0.2886086375,0.5948900046782054
0.007,1.798775,1.0,866.4312019529732,0.075860006108236,1.3548557615403296,0.5764332414147324,0.28860155,0.5984610602730636
0.0075,1.79859375,1.0,955.3468897536198,0.08104370065958652,1.3533744403377086,0.6071979623811088,0.2885939375,0.6018064570025868
0.008,1.7984,1.0,1042.4231899136773,0.08619831897315955,1.3519782623447012,0.6351571838793446,0.2885858,0.6049467564949129
0.0085,1.79819375,1.0,1127.3375781359089,0.09132402396515629,1.3506606111566761,0.6605522472088133,0.2885771375,0.6078990299210025
0.009000000000000001,1.797975,1.0,1209.8413969006244,0.09642097762335979,1.3494155212854335,0.6836204063246611,0.28856795,0.6106785506531529
0.0095,1.79774375,1.0,1289.7703469580729,0.10148934133440014,1.3482372800264408,0.7045870049373749,0.2885582375,0.6132997346931959
0.01,1.7975,1.0,1367.0054409782879,0.10652927594778587,1.347120764925539,0.7236615990464021,0.288548,0.6157754290736885
0.0105,1.79724375,1.0,1441.4400138896988,0.11154094024474275,1.3460616687654834,0.741036279343783,0.2885372375,0.6181164585817884
0.011,1.796975,1.0,1513.02588577895,0.11652449274032267,1.345055748419478,0.7568849686874518,0.28852595000000003,0.6203333242432203
0.0115,1.79669375,1.0,1581.7605361172295,0.12148009167853446,1.344098901499063,0.7713640609152059,0.2885141375,0.6224360522549048
0.012,1.7964,1.0,1647.652253117773,0.1264078942190287,1.3431874974460731,0.7846136528155222,0.28850180000000003,0.62443348723438
0.0125,1.79609375,1.0,1710.705147833331,0.13130805534362208,1.3423184506464332,0.7967588731884536,0.2884889375,0.6263331579943415
0.013000000000000001,1.7957750000000001,1.0,1770.9593324840694,0.13618073003413125,1.3414886754860682,0.8079110494996171,0.28847555,0.6281424888863865
0.0135,1.79544375,1.0,1828.4716269882585,0.1410260724803857,1.3406952653182165,0.8181691915049936,0.2884616375,0.6298684189724174
0.014,1.7951000000000001,1.0,1883.3244940516972,0.14584423732298585,1.3399353490862003,0.827621271401616,0.2884472,0.6315177246225867
0.0145,1.79474375,1.0,1935.5765556872184,0.15063537637613983,1.3392065948120047,0.8363456398063018,0.2884322375,0.6330959376149379
0.015,1.794375,1.0,1985.2894540741993,0.15539964043742652,1.3385068637245614,0.8444120055505934,0.28841675,0.634608109730106
0.0155,1.79399375,1.0,2032.5432783395022,0.16013718030442475,1.3378340170528016,0.8518823810056098,0.2884007375,0.6360592376338245
0.016,1.7936,1.0,2077.4236891686533,0.16484814591201438,1.3371860335737156,0.8588120273125954,0.2883842,0.6374540139120701
0.0165,1.7931937500000001,1.0,2120.0275636194037,0.16953268770528582,1.3365609300690173,0.8652502299937286,0.2883671375,0.6387970036705295
0.017,1.792775,1.0,2160.43178124997,0.1741909533815446,1.3359570649390358,0.8712410913083776,0.28834955,0.6400919978238154
0.0175,1.7923437500000001,1.0,2198.71011306405,0.1788230894105026,1.3353729399455248,0.876824082658366,0.2883314375,0.6413424462764523
0.018000000000000002,1.7919,1.0,2234.945963605827,0.18342924226187157,1.3348070568502384,0.8820345491106704,0.2883128,0.6425517687604632
0.0185,1.79144375,1.0,2269.225873581536,0.18800955772533048,1.3342579740285305,0.8869042053928367,0.2882936375,0.6437232359641014
0.019,1.790975,1.0,2301.638515503953,0.1925641816395601,1.3337243068020563,0.891461556318836,0.28827395,0.6448599714588232
0.0195,1.79049375,1.0,2332.268898232242,0.19709325907846215,1.3332047757220997,0.8957322751692036,0.2882537375,0.64596485151781
0.02,1.79,1.0,2361.1819904392014,0.20159693188271202,1.3326983572686542,0.8997395572440443,0.288233,0.6470401883633258
0.0205,1.78949375,1.0,2388.4477613888803,0.20607534189298501,1.3322040279217124,0.9035043394190465,0.2882117375,0.648088277527392
0.021,1.788975,1.0,2414.140766880066,0.21052863094995652,1.3317207641612683,0.9070455507688396,0.28818995000000003,0.649111398674312
0.021500000000000002,1.78844375,1.0,2438.3350634898406,0.2149569399685284,1.331247587618507,0.9103803416468671,0.2881676375,0.65011172097232
0.022,1.7879,1.0,2461.1040999959127,0.21936040997516582,1.3307835615491665,0.9135242758779822,0.2881448,0.6510913118904615
0.0225,1.78734375,1.0,2482.520319354598,0.22373918193814324,1.3303277905755937,0.9164914997177838,0.28812143749999997,0.6520521389459398
0.023,1.786775,1.0,2502.6386087754518,0.2280933926628242,1.3298795741307272,0.9192949182673906,0.28809755,0.6529957479953127
0.0235,1.78619375,1.0,2521.516245395464,0.23242317895457212,1.3294382116475056,0.9219462890518173,0.28807313749999996,0.6539236757222362
0.024,1.7856,1.0,2539.2126966942797,0.2367286776187506,1.3290030025588673,0.9244563399162159,0.2880482,0.654837449959343
0.0245,1.78499375,1.0,2555.789431790382,0.24101002546072312,1.328573246297751,0.9268348733902821,0.2880227375,0.6557385899788182
0.025,1.784375,1.0,2571.2986251254156,0.24526735669741528,1.328148346422482,0.9290908758763176,0.28799675,0.6566283888398942
0.025500000000000002,1.78374375,1.0,2585.8030867118196,0.24950080949808134,1.3277276214709688,0.9312325690591338,0.2879702375,0.6575083103475172
0.026000000000000002,1.7831000000000001,1.0,2599.3537254604794,0.25371051822448226,1.3273105147287985,0.933267515241336,0.2879432,0.6583795502167379
0.0265,1.78244375,1.0,2611.991115900526,0.2578966141555789,1.3268965768270096,0.9352026776539083,0.2879156375,0.6592430741670378
0.027,1.781775,1.0,2623.7568358374083,0.2620592285703321,1.3264853583966414,0.9370444614392915,0.28788755,0.66009984296115
0.0275,1.7810937500000001,1.0,2634.6933807759074,0.2661984927477027,1.3260764100687328,0.9387987658136706,0.2878589375,0.6609508124894377
0.028,1.7804,1.0,2644.8440828202115,0.27031453796665156,1.3256692824743228,0.940471030720443,0.2878298,0.6617969338413896
0.0285,1.77969375,1.0,2654.2530340515164,0.27440749550613946,1.32526352624445,0.9420662786163634,0.2878001375,0.6626391533642408
0.029,1.778975,1.0,2662.955843085494,0.2784774922186627,1.324858776408855,0.943589162114955,0.28776995,0.6634782378512165
0.029500000000000002,1.7782437500000001,1.0,2671.0013480670254,0.2825246629117365,1.3244545516255564,0.9450439735731803,0.2877392375,0.6643151911015919
0.03,1.7775,1.0,2678.4206984557372,0.2865491344061198,1.3240505382087424,0.946434709166593,0.287708,0.6651506654547972
0.0305,1.77674375,1.0,2685.242587513236,0.290551032109819,1.3236464488859407,0.9477650778312913,0.2876762375,0.6659852554959189
0.031,1.775975,1.0,2691.4960814610736,0.2945304814308405,1.3232419963846789,0.949038522773817,0.28764395,0.6668195528483649
0.0315,1.7751937500000001,1.0,2697.2105849233826,0.29848760777719074,1.3228368934324846,0.9502582438231457,0.2876111375,0.6676541461698425
0.032,1.7744,1.0,2702.415808199392,0.30242253655687623,1.3224308527568849,0.9514272176417661,0.2875778,0.6684896211430741
0.0325,1.77359375,1.0,2707.1417363658456,0.30633539317790337,1.3220235870854073,0.9525482160239886,0.2875439375,0.669326560461247
0.033,1.772775,1.0,2711.4164008420476,0.31022630254410904,1.3216148292035421,0.9536238246847168,0.28750955,0.6701655026670168
0.0335,1.7719437500000002,1.0,2715.265816992085,0.3140953877179815,1.321204332203969,0.9546564577535003,0.2874746375,0.6710069418794716
0.034,1.7711000000000001,1.0,2718.713196386005,0.31794277056224046,1.3207918763796238,0.9556483722562436,0.2874392,0.6718513139312505
0.0345,1.7702437500000001,1.0,2721.778118643849,0.32176857230679645,1.3203772764967436,0.9566016812709058,0.2874032375,0.6726989818384218
0.035,1.7693750000000001,1.0,2724.4802937123727,0.32557291418156004,1.3199603473215664,0.957518361396925,0.28736675,0.673550306574817
0.035500000000000004,1.7684938509775006,1.0,2726.845462052493,0.3293559155415693,1.3195408954391739,0.9584002618355739,0.287329741741055,0.6744056637178921
0.036000000000000004,1.7676079398253584,1.0,2729.2633244463746,0.33311769923200185,1.3191188232535214,0.9592491260499691,0.28729253347266503,0.6752652316495147
0.0365,1.7667220286732164,1.0,2731.94714824028,0.33685838271439644,1.31869434433878,0.9600666192178287,0.2872553252042751,0.6761285551226885
0.037,1.7658361175210742,1.0,2734.873692630347,0.3405780834139633,1.3182676732824428,0.9608543037355132,0.2872181169358851,0.6769951790286362
0.0375,1.764950206368932,1.0,2738.019700376024,0.3442769187559124,1.3178390246720024,0.9616136466290998,0.2871809086674951,0.6778646504960149
0.038,1.7640642952167898,1.0,2741.361887880934,0.3479550061654539,1.3174086130949516,0.9623460264380647,0.2871437003991052,0.6787365189194494
0.0385,1.7631783840646476,1.0,2744.879429217381,0.3516124618823204,1.3169766305426196,0.9630527371593357,0.2871064921307152,0.6796103816640551
0.039,1.7622924729125053,1.0,2748.5514486544766,0.3552494031804425,1.3165432691271057,0.9637349968064957,0.2870692838623252,0.6804858379155763
0.0395,1.7614065617603631,1.0,2752.3614915016665,0.3588659452112966,1.3161086805548592,0.9643939484021935,0.28703207559393523,0.6813625704013584
0.04,1.760520650608221,1.0,2756.2967055733016,0.36246220118330663,1.3156729836251502,0.9650306659417281,0.28699486732554524,0.6822403297487107
0.0405,1.7596347394560787,1.0,2760.344209954182,0.36603828430489666,1.3152362971372487,0.965646162416149,0.2869576590571553,0.6831188678800901
0.041,1.7587488283039365,1.0,2764.491092235957,0.36959430778449065,1.3147987398904244,0.9662413939227753,0.2869204507887653,0.6839979380210488
0.0415,1.7578629171517943,1.0,2768.7244060677135,0.37313038483051253,1.3143604306839478,0.9668172634576784,0.28688324252037534,0.6848772947072794
0.042,1.7569770059996521,1.0,2773.040818631301,0.37664661889806506,1.3139214012970053,0.9673746154926529,0.2868460342519854,0.6857568680093258
0.0425,1.75609109484751,1.0,2777.4164803624926,0.38014313703520125,1.3134818683153622,0.9679142678515854,0.2868088259835954,0.6866362188696107
0.043000000000000003,1.7552051836953677,1.0,2781.8458107443676,0.3836200469117598,1.3130418831738717,0.9684369777413873,0.28677161771520543,0.6875152403665691
0.043500000000000004,1.7543192725432255,1.0,2786.323407891536,0.38707745598886006,1.3126014955498253,0.9689434620254759,0.2867344094468155,0.6883938296556522
0.044,1.7534333613910833,1.0,2790.843853335659,0.3905154717276211,1.3121607551205146,0.9694343999426611,0.2866972011784255,0.6892718844470349
0.0445,1.752547450238941,1.0,2795.401711609933,0.39393420158916226,1.311719711563231,0.9699104354565319,0.2866599929100355,0.6901493030068113
0.045,1.7516615390867991,1.0,2799.9915298876313,0.3973337530346027,1.3112784145552663,0.9703721794359103,0.2866227846416456,0.6910259841580351
0.0455,1.750775627934657,1.0,2804.6078376755545,0.40071423352506175,1.3108369137739115,0.9708202116800485,0.2865855763732556,0.6919018272816004
0.046,1.7498897167825147,1.0,2809.2451465623,0.40407575052165856,1.3103952588964587,0.9712550828010343,0.2865483681048656,0.6927767323169656
0.0465,1.7490038056303725,1.0,2813.8979500213145,0.4074184114855124,1.3099534996001987,0.9716773159747426,0.2865111598364756,0.693650599762722
0.047,1.7481178944782303,1.0,2818.560723268191,0.4107423238777424,1.3095116855624236,0.972087408570689,0.28647395156808564,0.6945233306770008
0.0475,1.747231983326088,1.0,2823.2334775870604,0.4140475810330127,1.3090698168180661,0.9724858283112455,0.2864367432996957,0.6953949245282113
0.048,1.7463460721739459,1.0,2827.907684451766,0.4173343058882453,1.308627969663147,0.9728730294864185,0.2863995350313057,0.6962652306811339
0.0485,1.7454601610218037,1.0,2832.5808792187872,0.42060260173191577,1.308186166035428,0.9732494383564608,0.28636232676291573,0.697134206200203
0.049,1.7445742498696615,1.0,2837.2515697093195,0.42385256891913586,1.3077444191305332,0.973615460048561,0.2863251184945258,0.6980018255548812
0.0495,1.7436883387175193,1.0,2841.918258887726,0.4270843078050175,1.3073027421440877,0.9739714807106813,0.2862879102261358,0.6988680633632791
0.05,1.742802427565377,1.0,2846.5794448802944,0.4302979187446725,1.3068611482717167,0.974317868573252,0.2862507019577458,0.699732894392103
0.0505,1.7419165164132349,1.0,2851.23362099776,0.43349350209321275,1.3064196507090446,0.9746549749422535,0.2862134936893559,0.7005962935565915
0.051000000000000004,1.7410306052610927,1.0,2855.8792757611827,0.43667115820575014,1.3059782626516963,0.9749831351286901,0.2861762854209659,0.7014582359204387
0.051500000000000004,1.7401446941089505,1.0,2860.5148929323886,0.43983098743739646,1.3055369972952968,0.9753026693190675,0.2861390771525759,0.7023186966957072
0.052000000000000005,1.7392587829568082,1.0,2865.1389515477044,0.4429730901432637,1.305095867835471,0.975613883391101,0.28610186888418593,0.7031776512427323
0.0525,1.738372871804666,1.0,2869.7499259560213,0.44609756667846356,1.3046548874678432,0.9759170696785545,0.28606466061579594,0.7040350750700122
0.053,1.7374869606525238,1.0,2874.3462858602143,0.44920451739810807,1.3042140693880389,0.9762125076887979,0.286027452347406,0.7048909438340863
0.0535,1.7366010495003819,1.0,2878.9264963628925,0.452294042657309,1.3037734267916823,0.9765004647763854,0.285990244079016,0.7057452333394083
0.054,1.7357151383482394,1.0,2883.4928389947468,0.4553662023244542,1.303332939083267,0.9767811907086221,0.28595303581062603,0.7065979849078667
0.0545,1.7348292271960974,1.0,2888.040575392584,0.4584211488839759,1.302892647766068,0.9770549374578916,0.2859158275422361,0.7074491196723872
0.055,1.7339433160439552,1.0,2892.5696141960584,0.46145897443248346,1.3024525531830693,0.9773219379554902,0.2858786192738461,0.7082986386257737
0.0555,1.733057404891813,1.0,2897.0798896841156,0.4644797707543452,1.30201265545224,0.9775824153421855,0.2858414110054561,0.7091465431973425
0.056,1.7321714937396708,1.0,2901.571336351835,0.4674836296339296,1.3015729546915487,0.9778365835020412,0.2858042027370662,0.7099928348169935
0.0565,1.7312855825875286,1.0,2906.04388891057,0.47047064285560475,1.3011334510189638,0.9780846475225169,0.2857669944686762,0.7108375149152083
0.057,1.7303996714353864,1.0,2910.4974822889053,0.47344090220373913,1.3006941445524542,0.9783268041280782,0.2857297862002862,0.7116805849230476
0.0575,1.7295137602832442,1.0,2914.932051633003,0.476394499462701,1.3002550354099884,0.9785632420890396,0.2856925779318963,0.7125220462721511
0.058,1.728627849131102,1.0,2919.3475323067455,0.47933152641685867,1.2998161237095356,0.9787941426072476,0.2856553696635063,0.7133619003947336
0.0585,1.7277419379789598,1.0,2923.743859892998,0.48225207485058047,1.2993774095690638,0.9790196796800879,0.2856181613951163,0.7142001487235875
0.059000000000000004,1.7268560268268176,1.0,2928.1209701935136,0.48515623654823475,1.2989388931065418,0.9792400204441996,0.2855809531267263,0.7150367926920778
0.059500000000000004,1.7259701156746754,1.0,2932.478799229689,0.4880441032941898,1.2985005744399385,0.9794553255001772,0.28554374485833633,0.7158718337341414
0.06,1.7250842045225332,1.0,2936.8172832430805,0.49091576687281385,1.2980624536872225,0.9796657492194562,0.2855065365899464,0.7167052732842868
0.0605,1.724198293370391,1.0,2941.1363586957527,0.4937713190684754,1.2976245309663625,0.9798714400344839,0.2854693283215564,0.7175371127775916
0.061,1.7233123822182488,1.0,2945.4359622711017,0.4966108516655426,1.297186806395327,0.9800725407132186,0.2854321200531664,0.7183673536497018
0.0615,1.7224264710661066,1.0,2949.7160308742027,0.4994344564483839,1.2967492800920846,0.9802691886189064,0.2853949117847765,0.7191959973368289
0.062,1.7215405599139644,1.0,2953.976501632091,0.5022422252013675,1.2963119521746043,0.9804615159560393,0.2853577035163865,0.7200230452757495
0.0625,1.7206546487618222,1.0,2958.217334076798,0.5050342442946005,1.2958748225671797,0.9806496495882222,0.2853204952479965,0.7208484992692601
0.063,1.7197687376096802,1.0,2962.4389859024336,0.5078105548095159,1.2954378868501673,0.9808337081390764,0.2852832869796066,0.7216723693032774
0.0635,1.718882826457538,1.0,2966.6415367478094,0.5105713173347541,1.2950011439149023,0.9810138148115919,0.2852460787112166,0.7224946590844997
0.064,1.7179969153053958,1.0,2970.825189051725,0.5133166139642448,1.2945645915881137,0.9811900825414163,0.2852088704428266,0.72331537430653
0.0645,1.7171110041532536,1.0,2974.990146199176,0.5160465267919172,1.2941282276965305,0.9813626202006767,0.2851716621744367,0.7241345206380674
0.065,1.7162250930011114,1.0,2979.1366125122186,0.5187611379117012,1.2936920500668823,0.9815315327738702,0.2851344539060467,0.7249521037229334
0.0655,1.7153391818489692,1.0,2983.264793241252,0.5214605294175261,1.293256056525898,0.9816969215249128,0.2850972456376567,0.7257681291801
0.066,1.714453270696827,1.0,2987.374894555719,0.5241447834033215,1.2928202449003068,0.9818588841558538,0.2850600373692667,0.7265826026037129
0.0665,1.7135673595446848,1.0,2991.4671235355627,0.526813981963017,1.292384613016838,0.9820175149577256,0.28502282910087673,0.7273955295631185
0.067,1.7126814483925425,1.0,2995.5416881625115,0.529468207190542,1.2919491587022203,0.9821729049539745,0.2849856208324868,0.7282069156028885
0.0675,1.7117955372404003,1.0,2999.5987973109923,0.5321075411798262,1.2915138797831833,0.9823251420368846,0.2849484125640968,0.7290167662428435
0.068,1.7109096260882581,1.0,3003.6386607403797,0.5347320660247991,1.291078774086456,0.9824743110973848,0.2849112042957068,0.7298250869780801
0.0685,1.710023714936116,1.0,3007.6614890861547,0.5373418638193901,1.2906438394387676,0.9826204941486036,0.2848739960273169,0.730631883278992
0.069,1.7091378037839737,1.0,3011.6674938514334,0.5399370166575288,1.2902090736668472,0.9827637704435135,0.2848367877589269,0.731437160591296
0.0695,1.7082518926318315,1.0,3015.6568873992614,0.5425176066331447,1.2897744745974242,0.9829042165869878,0.2847995794905369,0.7322409243360547
0.07,1.7073659814796893,1.0,3019.6298829443235,0.5450837158401676,1.2893400400572275,0.9830419066425694,0.284762371222147,0.7330431799097004
0.07050000000000001,1.7064800703275471,1.0,3023.58669454472,0.5476354263725266,1.288905767872986,0.9831769122342378,0.284725162953757,0.7338439326840571
0.07100000000000001,1.705594159175405,1.0,3027.527537094369,0.5501728203241516,1.2884716558714295,0.9833093026434373,0.284687954685367,0.7346431880063633
0.07150000000000001,1.7047082480232627,1.0,3031.4526263153043,0.552695979788972,1.2880377018792868,0.9834391449016218,0.284650746416977,0.7354409511992956
