Time [s],Phi [rad],STIM [ ],Fsee [N],Gamma [ ],Lcerel [ ],q [ ],Lmtc [m],fisomrel [ ]
0.0,1.8,1.0,17.967772269964875,1.000003010184198e-05,1.3793396774203046,0.0050000266519277855,0.288653,0.5411396974957247
0.0005,1.79999375,1.0,18.277047411060185,0.005619153246635546,1.3793023541028064,0.012940513359018389,0.2886527375,0.5412299877935882
0.001,1.799975,1.0,21.618633144849028,0.011196843548547195,1.3789382764178593,0.03560857443559474,0.28865195,0.5421102763567032
0.0015,1.79994375,1.0,31.069392162226467,0.016743247418771135,1.3780461904248704,0.07060170137969879,0.2886506375,0.5442636412794726
0.002,1.7999,1.0,53.58228566664139,0.022258540348592735,1.3763681383154114,0.11471783193968883,0.2886488,0.5483004606536714
0.0025,1.79984375,1.0,97.11845411932131,0.027742896845207563,1.3739351905596102,0.16457466933730486,0.28864643749999996,0.5541214070827423
0.003,1.7997750000000001,1.0,160.95751566167507,0.033196490439442713,1.3712143681298048,0.2172802234289236,0.28864354999999997,0.5605863931568551
0.0035,1.79969375,1.0,237.68257735521522,0.038619493685345334,1.3685847574641505,0.2706126591291775,0.2886401375,0.566789784965221
0.004,1.7996,1.0,321.4659735519201,0.04401207817096554,1.3661561135265088,0.32291557964531337,0.2886362,0.5724799123952884
0.0045000000000000005,1.7994937500000001,1.0,409.26694803787433,0.04937441452354085,1.3639228330102227,0.373034297152476,0.2886317375,0.5776791186664976
0.005,1.799375,1.0,499.4126930790881,0.05470667240058322,1.3618583595823874,0.4202472645406531,0.28862675,0.582457039541912
0.0055,1.79924375,1.0,590.7896138393029,0.06000902053736893,1.3599388507325085,0.464173517349793,0.2886212375,0.5868750756803602
0.006,1.7991000000000001,1.0,682.517311055826,0.06528162669003858,1.3581464292396892,0.5046797968189201,0.2886152,0.590979385276978
0.006500000000000001,1.79894375,1.0,773.8805518452684,0.07052465769125146,1.3564672656694314,0.5418006094758183,0.2886086375,0.5948057669201499
0.007,1.798775,1.0,864.285067605072,0.07573827943376726,1.3548904070078713,0.5756766453472576,0.28860155,0.598382649916414
0.0075,1.79859375,1.0,953.2425753812702,0.08092265688018557,1.3534067890354597,0.606509793058919,0.2885939375,0.6017335505856061
0.008,1.7984,1.0,1040.34361722516,0.08607795363956985,1.3520088647957036,0.6345320716715905,0.2885858,0.6048780583713013
0.0085,1.79819375,1.0,1125.3135680716966,0.09120433385716006,1.350689250833773,0.6599843378471795,0.2885771375,0.6078349787935177
0.009000000000000001,1.797975,1.0,1207.9000093230588,0.09630195948670536,1.3494420373906182,0.6831041036426747,0.28856795,0.6106194595162431
0.0095,1.79774375,1.0,1287.8927090928642,0.10137099101388636,1.3482621171424587,0.7041173927554725,0.2885582375,0.6132445719497844
0.01,1.7975,1.0,1365.1672448466243,0.10641158892438372,1.3471443827655134,0.7232341523680652,0.288548,0.6157231425840266
0.0105,1.79724375,1.0,1439.6583069919336,0.11142391320612538,1.3460839613087556,0.740646600387169,0.2885372375,0.6180672567756369
0.011,1.796975,1.0,1511.3208840287023,0.11640812264802998,1.3450765698914893,0.7565290750364224,0.28852595000000003,0.6202875029079213
0.0115,1.79669375,1.0,1580.1201953835618,0.12136437442816178,1.3441184928199557,0.7710385588468494,0.2885141375,0.6223930577146752
0.012,1.7964,1.0,1646.057279419973,0.12629282521653223,1.3432061618130924,0.7843155378840915,0.28850180000000003,0.6243926355023133
0.0125,1.79609375,1.0,1709.173806331533,0.13119363172384563,1.3423360367275585,0.7964852813383339,0.2884889375,0.626294763895624
0.013000000000000001,1.7957750000000001,1.0,1769.5061115638098,0.1360669488881346,1.3415050777519038,0.8076594531925901,0.28847555,0.6281067661660273
0.0135,1.79544375,1.0,1827.0905751280877,0.14091293020923046,1.3407106056686864,0.8179374325328544,0.2884616375,0.6298350866864697
0.014,1.7951000000000001,1.0,1881.991223387805,0.1457317291869646,1.339949941260465,0.8274075017175071,0.2884472,0.6314860887659643
0.0145,1.79474375,1.0,1934.2804346132477,0.15052349816773442,1.3392205874789112,0.8361481586627943,0.2884322375,0.6330656665512193
0.015,1.794375,1.0,1984.0548971979956,0.1552883901948108,1.3385200236702066,0.8442291729384254,0.28841675,0.6345796988977128
0.0155,1.79399375,1.0,2031.3741281683162,0.1600265548498003,1.3378463339195081,0.851712809105474,0.2884007375,0.6360326997995798
0.016,1.7936,1.0,2076.3117170223222,0.1647381415991466,1.337197620730259,0.8586545181649866,0.2883842,0.6374290962176418
0.0165,1.7931937500000001,1.0,2118.9556801096296,0.16942329990929333,1.3365719866059023,0.865103739502705,0.2883671375,0.6387732711484577
0.017,1.792775,1.0,2159.3896758119904,0.17408217758946598,1.3359677132602277,0.8711046641052592,0.28834955,0.6400691825468541
0.0175,1.7923437500000001,1.0,2197.7202937846787,0.17871492418437893,1.335382965495029,0.8766967721372445,0.2883314375,0.641321002728827
0.018000000000000002,1.7919,1.0,2234.0144431751064,0.18332168480656033,1.3348164150327153,0.8819155517918857,0.2883128,0.6425317864306139
0.0185,1.79144375,1.0,2268.3466312956402,0.18790260450877677,1.3342667399818946,0.8867928308328265,0.2882936375,0.6437045489218001
0.019,1.790975,1.0,2300.7989032484984,0.19245782834379502,1.3337326184511744,0.8913571989290814,0.28827395,0.6448422811917183
0.0195,1.79049375,1.0,2331.4522769178843,0.19698750031907822,1.3332128064849214,0.8956343972928861,0.2882537375,0.6459477856965636
0.02,1.79,1.0,2360.395348988108,0.20149176527581364,1.332706045663002,0.8996476210039793,0.288233,0.6470238749339554
0.0205,1.78949375,1.0,2387.705413200341,0.20597076615579896,1.3322112418348235,0.9034178435939267,0.2882117375,0.6480729936178712
0.021,1.788975,1.0,2413.4447330771573,0.21042464323136903,1.3317274918783752,0.9069640671905109,0.28818995000000003,0.6490971655997528
0.021500000000000002,1.78844375,1.0,2437.6794937921727,0.21485353677485877,1.3312538926716455,0.9103034979288405,0.2881676375,0.6500984011156951
0.022,1.7879,1.0,2460.4794768375255,0.219257587058603,1.3307895410926232,0.9134517404579038,0.2881448,0.6510786973971039
0.0225,1.78734375,1.0,2481.913787878332,0.22363693364092255,1.3303335718135463,0.9164229762819358,0.28812143749999997,0.6520399596074766
0.023,1.786775,1.0,2502.048049115839,0.22799171531536627,1.3298851804484733,0.9192301181327845,0.28809755,0.6529839531903006
0.0235,1.78619375,1.0,2520.9577188425524,0.23232207241952255,1.3294434939633955,0.9218849185117062,0.28807313749999996,0.6539125774400198
0.024,1.7856,1.0,2538.692194912563,0.2366281400854448,1.329007908047975,0.9243981473806078,0.2880482,0.6548271570213494
0.0245,1.78499375,1.0,2555.302722493785,0.24091005344518646,1.3285778183918744,0.9267796450093043,0.2880227375,0.6557290091225652
0.025,1.784375,1.0,2570.8422407412454,0.24516794763080094,1.3281526206847558,0.9290384149807658,0.28799675,0.6566194436789756
0.025500000000000002,1.78374375,1.0,2585.365237567899,0.24940195777434163,1.327731710616281,0.9311827067616492,0.2879702375,0.6574997635731068
0.026000000000000002,1.7831000000000001,1.0,2598.9222454722344,0.25361221775287407,1.327314533870965,0.9332200967066978,0.2879432,0.6583711604490843
0.0265,1.78244375,1.0,2611.5631348061524,0.25779886153028003,1.326900553720011,0.9351575479174201,0.2879156375,0.659234783091678
0.027,1.781775,1.0,2623.3456848447922,0.2619620242776043,1.3264891703181056,0.937001456190931,0.28788755,0.6600919058194994
0.0275,1.7810937500000001,1.0,2634.3066539107085,0.2661018356790298,1.3260799880875331,0.9387577409682043,0.2878589375,0.6609433717118439
0.028,1.7804,1.0,2644.483580091042,0.27021842541873975,1.3256726114505768,0.9404318605502306,0.2878298,0.6617900196140358
0.0285,1.77969375,1.0,2653.914714155355,0.2743119231809172,1.3252666448295205,0.9420288540726676,0.2878001375,0.6626326841879674
0.029,1.778975,1.0,2662.6389559434206,0.2783824586497452,1.324861692646648,0.9435533791537046,0.28776995,0.6634721959526618
0.029500000000000002,1.7782437500000001,1.0,2670.6957942218605,0.2824301615094069,1.3244573593242428,0.9450097457082455,0.2877392375,0.6643093813148572
0.03,1.7775,1.0,2678.1194690838834,0.286455158615901,1.3240533023326626,0.9464019524642977,0.287708,0.6651449529569387
0.0305,1.77674375,1.0,2684.949884612612,0.29045758090466817,1.3236491313534882,0.9477337028746734,0.2876762375,0.6659797186675146
0.031,1.775975,1.0,2691.216932319462,0.29443755448800185,1.323244551662115,0.9490084457321137,0.28764395,0.6668142851427241
0.0315,1.7751937500000001,1.0,2696.947290029849,0.298395203636196,1.3228393010250064,0.9502293894582999,0.2876111375,0.6676491891380272
0.032,1.7744,1.0,2702.1679280104445,0.30233065261954445,1.3224331172086252,0.9513995186068898,0.2875778,0.6684849646911
0.0325,1.77359375,1.0,2706.9060808110826,0.3062440257083413,1.3220257379794347,0.9525216122261659,0.2875439375,0.66932214310842
0.033,1.772775,1.0,2711.1892206308603,0.3101354471728805,1.3216169011038976,0.9535982605041006,0.28750955,0.6701612529474673
0.0335,1.7719437500000002,1.0,2715.043766076057,0.3140050398844736,1.3212063558877472,0.9546318808119582,0.2874746375,0.6710027963562306
0.034,1.7711000000000001,1.0,2718.491369575232,0.3178529210935556,1.3207938967387554,0.955624734000047,0.2874392,0.6718471805330509
0.0345,1.7702437500000001,1.0,2721.5664680318614,0.3216792262073883,1.3203792030853634,0.9565789251412274,0.2874032375,0.6726950453775111
0.035,1.7693750000000001,1.0,2724.2859252326857,0.3254840729871503,1.3199621157159473,0.9574964362858401,0.28736675,0.6735466980439244
0.035500000000000004,1.76849375,1.0,2726.666712579534,0.3292675791940202,1.3195424754188836,0.9583791230298382,0.2873297375,0.6744024438876663
0.036000000000000004,1.7676,1.0,2728.7258978925297,0.3330298625891767,1.3191201229825487,0.9592287240331149,0.2872922,0.6752625864400608
0.0365,1.76669375,1.0,2730.480634775854,0.33677104093379834,1.3186948991953185,0.9600468697175708,0.2872541375,0.6761274273816512
0.037,1.765775,1.0,2731.9481525450674,0.34049123198906384,1.3182666448455695,0.9608350902240342,0.28721555,0.6769972665138524
0.0375,1.76484375,1.0,2733.1457467169985,0.34419055351615174,1.317835200721678,0.961594822698742,0.2871764375,0.6778724017289881
0.038,1.7639,1.0,2734.0907700607895,0.34786912327624075,1.3174004076120207,0.962327417972668,0.28713679999999997,0.678753128978709
0.0385,1.76294375,1.0,2734.800624212332,0.3515270590305094,1.3169621063049732,0.9630341466904041,0.28709663750000003,0.6796397422407999
0.039,1.761975,1.0,2735.290286147116,0.35516447466709544,1.3165201599774685,0.9637162062564658,0.28705595,0.680532488290299
0.0395,1.7609937500000001,1.0,2735.5695861499835,0.3587814804634063,1.3160744788379508,0.9643747282325664,0.2870147375,0.6814315173064981
0.04,1.76,1.0,2735.6599531915053,0.36237820734264986,1.3156248680316414,0.9650107737055835,0.286973,0.6823371896683961
0.0405,1.7589937500000001,1.0,2735.570608298244,0.36595476542960115,1.3151712437508711,0.9656253495245032,0.2869307375,0.683249640027197
0.041,1.757975,1.0,2735.310790224296,0.3695112648490352,1.3147135221879713,0.9662194060773968,0.28688795,0.6841690017603357
0.0415,1.75694375,1.0,2734.8897524976733,0.37304781572572693,1.3142516195352734,0.9667938410419376,0.2868446375,0.6850954069498016
0.042,1.7559,1.0,2734.316760621892,0.3765645281844514,1.3137854519851082,0.9673495028493855,0.28680079999999997,0.6860289863600171
0.0425,1.75484375,1.0,2733.601089433476,0.38006151234998353,1.3133149357298073,0.9678871938866599,0.2867564375,0.6869698694152638
0.043000000000000003,1.753775,1.0,2732.752020614769,0.3835388783470984,1.3128399869617016,0.9684076734587649,0.28671155,0.6879181841766658
0.043500000000000004,1.75269375,1.0,2731.7788403633867,0.38699673630057085,1.3123605218731225,0.9689116605317523,0.28666613750000003,0.68887405731872
0.044,1.7516,1.0,2730.69083721592,0.390435196335176,1.3118764566564012,0.9693998362745183,0.2866202,0.6898376141053824
0.0445,1.75049375,1.0,2729.497300029336,0.39385436857568884,1.3113877075038687,0.9698728464160458,0.2865737375,0.6908089783657052
0.045,1.7493750000000001,1.0,2728.2075161161983,0.3972543631468843,1.3108941906078562,0.9703313034331789,0.28652675,0.6917882724690243
0.0455,1.74824375,1.0,2726.8242461308546,0.4006352760045661,1.3103958814850376,0.9707757910665082,0.2864792375,0.692775499863286
0.046,1.7471,1.0,2725.357430049998,0.40399722689370643,1.3098926903651704,0.9712068620705259,0.2864312,0.6937707922775402
0.0465,1.7459437500000001,1.0,2723.8161487110247,0.4073403301740107,1.3093845352369364,0.9716250413772958,0.28638263750000004,0.6947742645287782
0.047,1.744775,1.0,2722.204599292486,0.41066468789453753,1.3088713784767045,0.9720308295232011,0.28633355,0.6957859424677945
0.0475,1.74359375,1.0,2720.52697694483,0.4139704021043454,1.3083531824608436,0.9724247025514474,0.28628393750000003,0.6968058509766253
0.048,1.7424,1.0,2718.7874742685613,0.4172575748524928,1.3078299095657224,0.9728071134362045,0.2862338,0.6978340139565025
0.0485,1.74119375,1.0,2716.990280825251,0.4205263081880384,1.3073015221677093,0.9731784934111584,0.2861831375,0.6988704543157169
0.049,1.739975,1.0,2715.1395826783364,0.4237767041600406,1.3067679826431735,0.9735392532097162,0.28613195,0.6999151939573903
0.0495,1.73874375,1.0,2713.2395619669387,0.427008864817558,1.3062292533684838,0.973889784223496,0.2860802375,0.7009682537671587
0.05,1.7375,1.0,2711.2943965098825,0.43022289220964915,1.3056852967200085,0.9742304595851757,0.286028,0.7020296536007664
0.0505,1.73624375,1.0,2709.3082594414354,0.4334188883853726,1.305136075074117,0.9745616351812827,0.2859752375,0.7030994122715652
0.051000000000000004,1.734975,1.0,2707.285318878851,0.43659695539378685,1.3045815508071774,0.9748836506000403,0.28592195,0.7041775475379299
0.051500000000000004,1.73369375,1.0,2705.229737620514,0.4397571952839504,1.304021686295559,0.9751968300189771,0.2858681375,0.7052640760905764
0.052000000000000005,1.7324,1.0,2703.145672876156,0.44289971010492185,1.3034564439156304,0.9755014830366241,0.2858138,0.7063590135397955
0.0525,1.73109375,1.0,2701.032532218305,0.4460245882330234,1.3028858293898127,0.9757979067500843,0.28575893750000003,0.7074622906723382
0.053,1.729775,1.0,2698.893042085309,0.44913193292239095,1.3023098181161321,0.9760863848168616,0.28570355000000003,0.7085738962710176
0.0535,1.72844375,1.0,2696.73615212858,0.45222186134582487,1.3017283285483365,0.9763671863631864,0.2856476375,0.7096939277787854
0.054,1.7271,1.0,2694.563488827892,0.4552944671760747,1.3011413460070405,0.9766405705308285,0.2855912,0.71082235243963
0.0545,1.7257437500000001,1.0,2692.37667624024,0.45834984408588997,1.300548855812858,0.9769067853324354,0.2855342375,0.711959136701473
0.055,1.724375,1.0,2690.177335952633,0.46138808574802026,1.299950843286404,0.977166068220401,0.28547675,0.7131042462110176
0.0555,1.72299375,1.0,2687.9670870402133,0.46440928583521524,1.2993472937482924,0.977418646622071,0.2854187375,0.7142576458085892
0.056,1.7216,1.0,2685.747546028252,0.46741353802022434,1.2987381925191375,0.9776647384435325,0.2853602,0.7154192995229552
0.0565,1.72019375,1.0,2683.520326859399,0.4704009359757973,1.298123524919554,0.9779045525440819,0.28530113749999997,0.7165891705661356
0.057,1.718775,1.0,2681.287040865945,0.4733715733746835,1.2975032762701562,0.9781382891832959,0.28524155,0.7177672213281988
0.0575,1.71734375,1.0,2679.0492967460787,0.4763255438896327,1.2968774318915581,0.9783661404425023,0.2851814375,0.7189534133720449
0.058,1.7159,1.0,2676.8087005458,0.47926294119339435,1.2962459771043742,0.9785882906223055,0.2851208,0.7201477074281717
0.0585,1.71444375,1.0,2674.5668556450582,0.48218385895871807,1.295608897229219,0.9788049166177097,0.2850596375,0.7213500633894294
0.059000000000000004,1.7129750000000001,1.0,2672.325362748829,0.4850883908583535,1.294966177586707,0.979016188272271,0.28499795,0.722560440305763
0.059500000000000004,1.71149375,1.0,2670.0858198831993,0.48797663056505003,1.294317803497452,0.979222268712601,0.2849357375,0.7237787963789388
0.06,1.71,1.0,2667.8498223954784,0.4908486717515574,1.2936637602820689,0.9794233146644631,0.284873,0.7250050889572563
0.0605,1.7084937500000001,1.0,2665.6176083741825,0.4937046057225103,1.2930040457205105,0.9796194772309419,0.2848097375,0.7262392512481282
0.061,1.7069750000000001,1.0,2663.3890401773697,0.4965445217923603,1.292338661046425,0.9798109017097717,0.28474595,0.7274812093672943
0.0615,1.7054437500000001,1.0,2661.16591144645,0.4993685100604859,1.2916675897169652,0.9799977269600109,0.2846816375,0.7287309219027298
0.062,1.7039,1.0,2658.948917996612,0.5021766584519376,1.2909908252720708,0.9801800869228637,0.2846168,0.7299883278299719
0.0625,1.70234375,1.0,2656.7387544870785,0.5049690548917658,1.2903083612516817,0.9803581104912084,0.2845514375,0.7312533653933773
0.063,1.7007750000000001,1.0,2654.536114429118,0.5077457873050211,1.2896201911957377,0.9805319217359207,0.28448555,0.7325259721037767
0.0635,1.69919375,1.0,2652.341690194139,0.510506943616754,1.288926308644179,0.9807016401204138,0.28441913750000003,0.7338060847361246
0.064,1.6976,1.0,2650.1561730227104,0.5132526117520149,1.2882267071369446,0.9808673807040885,0.2843522,0.735093639327149
0.0645,1.69599375,1.0,2647.9776008896583,0.5159828794604788,1.287521404689241,0.9810292555541713,0.2842847375,0.7363885262931306
0.065,1.694375,1.0,2645.808664237364,0.5186978328473718,1.2868103763933398,0.9811873704132433,0.28421675,0.7376907142637459
0.0655,1.69274375,1.0,2643.6526614688364,0.521397557439234,1.286093591685856,0.9813418268853927,0.2841482375,0.7390001811106082
0.066,1.6911,1.0,2641.504929598117,0.5240821386739236,1.2853710935156177,0.9814927265393045,0.2840792,0.7403167697248105
0.0665,1.6894437500000001,1.0,2639.3680408786818,0.5267516616243118,1.2846428580226252,0.9816401640616101,0.2840096375,0.7416404444410447
0.067,1.687775,1.0,2637.241710895341,0.5294062105916623,1.2839088877249878,0.9817842320178354,0.28393955,0.742971120761353
0.0675,1.6860965176060252,1.0,2635.256711099201,0.5320458696302083,1.2831692226547216,0.9819250215206279,0.28386905373945304,0.7443086458581656
0.068,1.684417335667736,1.0,2633.8236716578695,0.5346707223403043,1.2824241408854047,0.9820626318702004,0.2837985280980449,0.7456524382816999
0.0685,1.6827381537294472,1.0,2632.9307986560234,0.5372808516324054,1.2816740633275774,0.98219716576321,0.28372800245663676,0.7470016646955737
0.069,1.6810589717911582,1.0,2632.555252072002,0.5398763353909762,1.2809191988347968,0.9823287122050994,0.2836574768152286,0.7483558792283671
0.0695,1.6793797898528693,1.0,2632.613124684494,0.542457264831271,1.2801603229691279,0.9824573846287031,0.2835869511738205,0.7497136270211543
0.07,1.6777006079145802,1.0,2633.076581417835,0.5450237198225213,1.2793976934634443,0.9825832681140452,0.28351642553241235,0.7510743905845255
0.07050000000000001,1.6760214259762913,1.0,2633.919390920645,0.5475757799155972,1.2786315540287512,0.9827064443269958,0.2834458998910042,0.7524376820775609
0.07100000000000001,1.6743422440380022,1.0,2635.1153908525366,0.5501135246613685,1.277862148376054,0.982826992318326,0.2833753742495961,0.7538030181755223
0.07150000000000001,1.6726630620997134,1.0,2636.6384695769902,0.5526370336107052,1.2770897202163578,0.982944988631419,0.28330484860818794,0.7551699201225145
0.07200000000000001,1.6709838801614243,1.0,2638.4625491709116,0.555146386314477,1.2763145132606681,0.9830605074049188,0.2832343229667798,0.7565379137803574
0.0725,1.6693046982231354,1.0,2640.561569751042,0.5576416623235538,1.2755367712199905,0.9831736204705818,0.28316379732537167,0.757906529673669
0.073,1.6676255162848463,1.0,2642.909475117558,0.5601229411888058,1.27475673780533,0.9832843974465768,0.28309327168396353,0.7592753030311645
0.0735,1.6659463343465575,1.0,2645.480199714105,0.5625903024611028,1.273974656727692,0.9833929058264742,0.2830227460425554,0.7606437738231613
0.074,1.6642671524082684,1.0,2648.256738471728,0.5650438225527412,1.2731906878933614,0.9834992071736781,0.28295222040114726,0.7620116328072448
0.0745,1.6625879704699795,1.0,2651.216105861948,0.5674835824019039,1.2724050462617058,0.9836033638652071,0.2828816947597391,0.7633784782243556
