Time [s],Phi [rad],STIM [ ],Fsee [N],Gamma [ ],Lcerel [ ],q [ ],Lmtc [m],fisomrel [ ]
0.0,1.8,1.0,17.967879639237,2.5409697909021786e-05,1.3793396653915788,0.0050001708161834975,0.288653,0.541139726596317
0.0005,1.79999375,1.0,18.282345593832403,0.005634476478398204,1.3793017656253574,0.012983349413572515,0.2886527375,0.5412314113312705
0.001,1.799975,1.0,21.63541895310579,0.011212080829094612,1.3789365623372478,0.03568891867056276,0.28865195,0.5421144187628479
0.0015,1.79994375,1.0,31.11057611101831,0.016758399230229287,1.3780426828646435,0.07071165675078017,0.2886506375,0.5442720979990516
0.002,1.7999,1.0,53.67217588535594,0.022273607170355574,1.3763623091394177,0.11484804082837154,0.2886488,0.5483144523572876
0.0025,1.79984375,1.0,97.27037787027743,0.02775787915402297,1.3739278725592183,0.16471632003326714,0.28864643749999996,0.5541388588116614
0.003,1.7997750000000001,1.0,161.15568229554933,0.033211388709349976,1.371206952830776,0.21742635657283396,0.28864354999999997,0.5606039482464606
0.0035,1.79969375,1.0,237.90675215052266,0.0386343083877284,1.368577853903911,0.2707580057320697,0.2886401375,0.5668060127920511
0.004,1.7996,1.0,321.70463170459163,0.04402680977457644,1.3661497935485425,0.3230563159976973,0.2886362,0.5724946705496164
0.0045000000000000005,1.7994937500000001,1.0,409.514187453884,0.04938906349453151,1.3639170302292822,0.3731678937558823,0.2886317375,0.5776925864448332
0.005,1.799375,1.0,499.6650301221344,0.0547212392025681,1.3618529981139804,0.4203722548390365,0.28862675,0.5824694124870016
0.0055,1.79924375,1.0,591.044284302651,0.060023505630877355,1.3599338756219572,0.46428923878865447,0.2886212375,0.5868864961089204
0.006,1.7991000000000001,1.0,682.7723667952438,0.06529603053353134,1.3581417934355906,0.5047861435619941,0.2886152,0.5909899738352639
0.006500000000000001,1.79894375,1.0,774.1360268919098,0.07053898073701693,1.356462904900642,0.5418978254095962,0.2886086375,0.5948156805797061
0.007,1.798775,1.0,864.5406944730639,0.07575252214923493,1.354886278118342,0.5757652066865002,0.28860155,0.5983919949085168
0.0075,1.79859375,1.0,953.4937443239933,0.08093681968573228,1.3534029260507001,0.6065903410206736,0.2885939375,0.6017422572028169
0.008,1.7984,1.0,1040.6057318416144,0.08609203745694481,1.3520050059015938,0.6346051184849724,0.2885858,0.604886721365494
0.0085,1.79819375,1.0,1125.5597177030063,0.09121833847895564,1.350685766449517,0.6600507732861972,0.2885771375,0.6078427717146516
0.009000000000000001,1.797975,1.0,1208.1182751155122,0.09631588506382459,1.3494390551825244,0.6831646375472604,0.28856795,0.6106261055903848
0.0095,1.79774375,1.0,1288.0952071647807,0.10138483818652982,1.3482594376572874,0.7041725117864951,0.2885582375,0.6132505232226722
0.01,1.7975,1.0,1365.377750722633,0.10642535887831056,1.347141677300447,0.723284241912401,0.288548,0.6157291322737001
0.0105,1.79724375,1.0,1439.8707415862134,0.11143760629623148,1.346081302623753,0.7406922121977901,0.2885372375,0.6180731249178772
0.011,1.796975,1.0,1511.5154893775093,0.11642173863677707,1.3450741927784773,0.7565707820848788,0.28852595000000003,0.6202927343057472
0.0115,1.79669375,1.0,1580.2984750489873,0.12137791370672607,1.344116363054017,0.7710767514520319,0.2885141375,0.6223977317553444
0.012,1.7964,1.0,1646.2387650485957,0.1263062891051751,1.3432040376142098,0.7843504755443883,0.28850180000000003,0.6243972849658931
0.0125,1.79609375,1.0,1709.3497385331389,0.1312070202733301,1.3423340159038621,0.7965173363138504,0.2884889375,0.6262991758773415
0.013000000000000001,1.7957750000000001,1.0,1769.6620875687483,0.13608026183793281,1.3415033169537793,0.8076889793858508,0.28847555,0.6281106011146893
0.0135,1.79544375,1.0,1827.2320359208159,0.14092616801595154,1.3407090340940144,0.8179646570524046,0.2884616375,0.6298385015520527
0.014,1.7951000000000001,1.0,1882.1351090742585,0.14574489300498972,1.3399483662339347,0.8274325823193711,0.2884472,0.6314895034913222
0.0145,1.79474375,1.0,1934.4371822114183,0.15053658921677168,1.339218895013681,0.836171264180829,0.2884322375,0.6330693280156163
0.015,1.794375,1.0,1984.199482987916,0.15530140741095197,1.3385184822244878,0.8442505813107477,0.28841675,0.6345830267615726
0.0155,1.79399375,1.0,2031.5017127796314,0.16003949834718506,1.3378449896575906,0.8517326959403386,0.2884007375,0.6360355961838728
0.016,1.7936,1.0,2076.426283573466,0.16475101178438498,1.3371964267615384,0.8586730107140665,0.2883842,0.6374316638368958
0.0165,1.7931937500000001,1.0,2119.0757035225915,0.16943609847583008,1.3365707484188343,0.8651209080084745,0.2883671375,0.638775928918322
0.017,1.792775,1.0,2159.5249884963596,0.17409490602276392,1.335966330478684,0.8711205988568854,0.28834955,0.6400721453593359
0.0175,1.7923437500000001,1.0,2197.8451284267544,0.1787275808646504,1.335381700962161,0.8767116530915007,0.2883314375,0.6413237074608663
0.018000000000000002,1.7919,1.0,2234.1166762036146,0.1833342694409534,1.3348153878903377,0.8819295024746017,0.2883128,0.642533979693376
0.0185,1.7914469627411536,1.0,2268.5727760956042,0.18791511784332124,1.3342659360950557,0.8868059280504652,0.28829377243512844,0.6437062626482657
0.019,1.790993424801678,1.0,2301.6743901990653,0.19247027124956523,1.3337322725764116,0.8913695749315229,0.28827472384167047,0.6448430173500757
0.0195,1.790539886862202,1.0,2333.4888747932596,0.19699987533367175,1.3332136169309776,0.8956462860273992,0.2882556752482125,0.6459460634304073
0.02,1.7900863489227261,1.0,2364.055398674709,0.20150407191766243,1.3327092806153786,0.8996593648741377,0.28823662665475447,0.6470170108175932
0.0205,1.7896328109832504,1.0,2393.4163681963546,0.20598300282355897,1.3322185750862403,0.9034298426327283,0.2882175780612965,0.6480574565295539
0.021,1.7891792730437746,1.0,2421.617213923287,0.21043680987338312,1.3317408118001872,0.9069767305012779,0.2881985294678385,0.6490689852874769
0.021500000000000002,1.7887257351042987,1.0,2448.7006058292864,0.2148656332032793,1.331275355782023,0.9103172515915462,0.28817948087438056,0.6500530569244074
0.022,1.788272197164823,1.0,2474.714701674802,0.21926961416349403,1.3308215436374873,0.9134670193928192,0.2881604322809226,0.6510111806929532
0.0225,1.787818659225347,1.0,2499.7134984128525,0.22364889567635837,1.330378679324387,0.9164402095337834,0.28814138368746456,0.6519449242598019
0.023,1.7873651212858714,1.0,2523.730603842898,0.22800361395070193,1.3299462812927518,0.9192497546173497,0.2881223350940066,0.652855393689682
0.0235,1.7869115833463955,1.0,2546.8013491445204,0.2323339051953543,1.3295238679926111,0.9219074360121754,0.2881032865005486,0.653743687573942
0.024,1.7864580454069197,1.0,2568.9626797029932,0.2366399056191451,1.329110957873994,0.9244240022349146,0.2880842379070906,0.6546108973445861
0.0245,1.786004507467444,1.0,2590.2530510763686,0.24092175143090394,1.3287070693869296,0.9268092737365914,0.2880651893136327,0.6554581075735212
0.025,1.785550969527968,1.0,2610.7123301028473,0.2451795788394604,1.3283117209814475,0.929072235789887,0.28804614072017465,0.656286396257016
0.025500000000000002,1.7850974315884924,1.0,2630.3779437635076,0.2494135224984718,1.3279244658983564,0.9312211260193866,0.2880270921267167,0.6570967623255028
0.026000000000000002,1.7846438936490165,1.0,2649.2838019103797,0.2536237161165416,1.3275449006687694,0.9332635087795255,0.2880080435332587,0.6578901085646875
0.0265,1.7841903557095407,1.0,2667.474276482139,0.2578102980296064,1.3271725351234607,0.9352063214927726,0.2879889949398007,0.658667513587015
0.027,1.783736817770065,1.0,2684.9748960946563,0.26197339815798537,1.326807061768841,0.9370559703428858,0.2879699463463427,0.6594296695727582
0.0275,1.783283279830589,1.0,2701.8119530283716,0.26611314642199735,1.3264481731113205,0.9388183553284364,0.28795089775288474,0.6601772648988564
0.028,1.7828297418911132,1.0,2718.0124572883587,0.27022967274196136,1.32609556165731,0.940498916968816,0.28793184915942677,0.6609109842710572
0.0285,1.7823762039516375,1.0,2733.6040927607683,0.2743231070381963,1.32574891991322,0.9421026781353894,0.2879128005659688,0.6616315088500339
0.029,1.7819226660121616,1.0,2748.615175465501,0.27839357923102126,1.3254079403854606,0.943634281569666,0.28789375197251077,0.6623395163714685
0.029500000000000002,1.7814691280726858,1.0,2763.074613905547,0.2824412192407551,1.3250723155804427,0.9450980235802493,0.2878747033790528,0.6630356812601055
0.03,1.78101559013321,1.0,2777.0036809424523,0.28646615201233255,1.3247418118141903,0.9464978924570132,0.28785565478559483,0.6637205218738427
0.0305,1.7805620521937342,1.0,2790.43426114541,0.2904685106183325,1.3244161039636722,0.9478375778211231,0.2878366061921368,0.6643947432685966
0.031,1.7801085142542585,1.0,2803.390972588265,0.2944484232755685,1.3240949366417243,0.949120512467283,0.2878175575986789,0.6650589031989691
0.0315,1.7796549763147826,1.0,2815.891322004845,0.2984060133621666,1.3237781217339077,0.950349893563246,0.28779850900522086,0.6657134180053024
0.032,1.7792014383753068,1.0,2827.9531326767187,0.30234140425625255,1.3234654711257838,0.951528695403793,0.2877794604117629,0.6663587021344857
0.0325,1.778747900435831,1.0,2839.5945266720964,0.3062547193359523,1.3231567967029139,0.9526596876889519,0.2877604118183049,0.6669951681910447
0.033,1.7782943624963552,1.0,2850.8339078696663,0.3101460819793917,1.322851910350859,0.9537454520928192,0.2877413632248469,0.6676232269859725
0.0335,1.7778408245568795,1.0,2861.689945767628,0.3140156155646967,1.3225506239551803,0.9547883973011557,0.2877223146313889,0.6682432875833031
0.034,1.7773872866174036,1.0,2872.181560076102,0.3178634434699932,1.3222527494014389,0.9557907726755897,0.28770326603793095,0.6688557573444306
0.0345,1.7769337486779277,1.0,2882.327575682748,0.32168968872981707,1.3219581014978146,0.9567546809159947,0.287684217444473,0.669461035969142
0.035,1.776480210738452,1.0,2892.1365408977845,0.3254944646570571,1.3216665877364762,0.9576820966540319,0.287665168851015,0.6700593314221043
0.035500000000000004,1.7760266727989762,1.0,2901.636742456723,0.32927790637426013,1.321377942812139,0.9585748558660322,0.287646120257557,0.670651204954839
0.036000000000000004,1.7755731348595003,1.0,2910.8389985886515,0.33304013029348795,1.321092057424846,0.9594346907146845,0.287627071664099,0.671236896233034
0.0365,1.7751195969200246,1.0,2919.7542581140688,0.33678125282680244,1.320808822274639,0.9602632257289377,0.28760802307064104,0.6718166439756348
0.037,1.7746660589805487,1.0,2928.3935938898053,0.34050139038626565,1.3205281280615608,0.961061985711718,0.287588974477183,0.6723906859736979
0.0375,1.774212521041073,1.0,2936.768196519428,0.3442006593839395,1.3202498654856536,0.9618324029817642,0.2875699258837251,0.6729592591084846
0.038,1.7737589831015972,1.0,2944.889368327394,0.3478791762318858,1.31997392524696,0.9625758240124181,0.28755087729026707,0.673522599368791
0.0385,1.7733054451621213,1.0,2952.7685175997112,0.35153705734216656,1.3197001980455223,0.9632935155236694,0.2875318286968091,0.6740809418675187
0.039,1.7728519072226456,1.0,2960.417153087732,0.3551744191268436,1.319428574581383,0.9639866700779657,0.28751278010335113,0.6746345208574804
0.0395,1.7723983692831697,1.0,2967.846878778111,0.3587913779979789,1.3191589455545845,0.9646564112251487,0.2874937315098931,0.6751835697464471
0.04,1.7719448313436938,1.0,2975.0675504551,0.36238804706037014,1.3188912176716523,0.9653037990482285,0.28747468291643513,0.6757282885583256
0.0405,1.7714912934042182,1.0,2982.085200037117,0.36596453441552057,1.3186253315607037,0.9659298357426236,0.28745563432297716,0.6762688076780345
0.041,1.7710377554647423,1.0,2988.9172864954,0.369520969982857,1.3183611290715023,0.9665354628116356,0.2874365857295192,0.6768054575775455
0.0415,1.7705842175252666,1.0,2995.570014563078,0.37305746266502143,1.3180985505987306,0.9671215743468802,0.2874175371360612,0.6773383676880957
0.042,1.7701306795857907,1.0,3002.0496374833533,0.37657412136465584,1.3178375365370711,0.9676890155448686,0.2873984885426032,0.6778676669899425
0.0425,1.7696771416463148,1.0,3008.3624549026545,0.3800710549844023,1.3175780272812063,0.9682385858825209,0.2873794399491452,0.6783934840184227
0.043000000000000003,1.7692236037068392,1.0,3014.514810842416,0.38354837242690276,1.3173199632258188,0.9687710420552916,0.28736039135568725,0.6789159468697864
0.043500000000000004,1.7687700657673633,1.0,3020.5130917500096,0.38700618259479924,1.317063284765591,0.9692871006978829,0.2873413427622292,0.6794351832068042
0.044,1.7683165278278874,1.0,3026.3637246283456,0.3904445943907337,1.316807932295205,0.9697874409056593,0.28732229416877125,0.6799513202641478
0.0445,1.7678629898884117,1.0,3032.0731752436873,0.39386371671734816,1.316553846209344,0.9702727065732026,0.2873032455753133,0.6804644848535426
0.045,1.7674094519489358,1.0,3037.647946413103,0.3972636584772847,1.3163009669026897,0.970743508564956,0.2872841969818553,0.6809748033686976
0.0455,1.7669559140094602,1.0,3043.094576370069,0.4006445285731852,1.316049234769925,0.971200426731536,0.28726514838839734,0.6814824017900025
0.046,1.7665023760699843,1.0,3048.4196372091833,0.4040064359076918,1.3157985902057325,0.9716440117840895,0.2872460997949393,0.6819874056890045
0.0465,1.7660488381305084,1.0,3053.624630324081,0.40734947263604093,1.3155490174590974,0.9720747879747248,0.28722705120148134,0.6824898519789486
0.047,1.7655953001910327,1.0,3058.718789023265,0.4106737611265648,1.3153004345085888,0.9724932530153002,0.28720800260802337,0.6829899107101247
0.0475,1.7651417622515568,1.0,3063.708732489034,0.4139794139608136,1.3150527820929752,0.9728998806410292,0.2871889540145654,0.6834877056615953
0.048,1.764688224312081,1.0,3068.59771147335,0.41726653189105595,1.314806030072047,0.9732951222382527,0.28716990542110743,0.6839833017547112
0.0485,1.7642346863726053,1.0,3073.3889934503973,0.42053521566956037,1.3145601483055944,0.9736794076367672,0.2871508568276494,0.6844767637052374
0.049,1.7637811484331294,1.0,3078.08586202531,0.4237855660485954,1.3143151066534073,0.9740531463372782,0.28713180823419143,0.6849681560250548
0.0495,1.7633276104936537,1.0,3082.691616362132,0.4270176837804295,1.314070874975276,0.9744167286581247,0.28711275964073346,0.6854575430238026
0.05,1.7628740725541778,1.0,3087.2095706327614,0.43023166961733117,1.3138274231309912,0.9747705268072653,0.28709371104727543,0.685944988810465
0.0505,1.762420534614702,1.0,3091.643053485992,0.433427624311569,1.3135847209803424,0.9751148958850347,0.28707466245381746,0.6864305572949005
0.051000000000000004,1.7619669966752263,1.0,3095.9954075360065,0.4366056486154115,1.3133427383831202,0.9754501748227231,0.2870556138603595,0.6869143121893095
0.051500000000000004,1.7615134587357504,1.0,3100.2699888717393,0.4397658432811272,1.3131014451991145,0.9757766872616154,0.2870365652669015,0.6873963170096489
0.052000000000000005,1.7610599207962745,1.0,3104.470166585963,0.44290830906098466,1.312860811288116,0.9760947423767684,0.28701751667344355,0.6878766350769832
0.0525,1.7606063828567988,1.0,3108.599322324727,0.44603314670725225,1.3126208065099145,0.976404635649447,0.2869984680799855,0.6883553295187838
0.053,1.760152844917323,1.0,3112.66084985711,0.4491404569721986,1.3123814007243004,0.9767066495918436,0.28697941948652755,0.6888324632701659
0.0535,1.7596993069778473,1.0,3116.658154664312,0.4522303406080923,1.3121425637910638,0.9770010544274124,0.2869603708930696,0.6893080990750693
0.054,1.7592457690383714,1.0,3120.5883072578495,0.4553028543684792,1.3119043195196873,0.9772881076435185,0.2869413222996116,0.6897821921714311
0.0545,1.7587922310988955,1.0,3124.460927967213,0.4583581515099764,1.3116665850592688,0.9775680588173953,0.28692227370615364,0.6902549099409871
0.055,1.7583386931594198,1.0,3128.2780556127095,0.4613963275990885,1.3114293421515988,0.9778411451374779,0.2869032251126956,0.6907262909662705
0.0555,1.757885155219944,1.0,3132.041189017994,0.46441747416703266,1.3111925771790958,0.9781075937395225,0.28688417651923764,0.691196364504568
0.056,1.757431617280468,1.0,3135.751832412788,0.467421682745026,1.310956276524178,0.9783676223263341,0.2868651279257797,0.6916651597264635
0.0565,1.7569780793409924,1.0,3139.4114952905306,0.47040904486428575,1.3107204265692642,0.9786214396366236,0.28684607933232165,0.6921327057162452
0.057,1.7565245414015165,1.0,3143.021692270842,0.473379652056029,1.3104850136967723,0.9788692458868726,0.2868270307388637,0.6925990314723058
0.0575,1.7560710034620408,1.0,3146.5839429646626,0.47633359585147295,1.310250024289121,0.9791112331879629,0.2868079821454057,0.6930641659075248
0.058,1.755617465522565,1.0,3150.0997718450435,0.4792709677818347,1.3100154447287284,0.979347585938206,0.28678893355194773,0.6935281378496452
0.0585,1.755163927583089,1.0,3153.570708120858,0.4821918593783314,1.3097812613980129,0.9795784811942877,0.28676988495848976,0.6939909760416327
0.059000000000000004,1.7547103896436134,1.0,3156.998285615398,0.4850963621721803,1.3095474606793929,0.9798040890215289,0.28675083636503174,0.6944527091420272
0.059500000000000004,1.7542568517041375,1.0,3160.3840426489364,0.4879845676945984,1.3093140289552867,0.9800245728247786,0.28673178777157377,0.6949133657252808
0.06,1.7538033137646616,1.0,3163.729521924775,0.49085656747680295,1.3090809526081126,0.9802400896611455,0.2867127391781158,0.6953729742820843
0.0605,1.753349775825186,1.0,3167.036270420241,0.4937124530500111,1.3088482180202892,0.980450790535702,0.2866936905846578,0.695831563219681
0.061,1.75289623788571,1.0,3170.3058392814496,0.49655231594543997,1.3086158115742346,0.980656820681212,0.28667464199119985,0.6962891608621702
0.0615,1.7524426999462344,1.0,3173.539783722031,0.4993762476943067,1.308383719652367,0.9808583198228588,0.2866555933977418,0.6967457954507981
0.062,1.7519891620067585,1.0,3176.7396629262926,0.5021843398278285,1.3081519286371053,0.9810554224288909,0.28663654480428385,0.6972014951442359
0.0625,1.7515356240672826,1.0,3179.907039956097,0.5049766838772225,1.3079204249108674,0.9812482579480275,0.2866174962108259,0.6976562880188486
0.063,1.751082086127807,1.0,3183.042517559843,0.5077533553009074,1.307689202971085,0.9814369502801482,0.28659844761736786,0.6981101861448294
0.0635,1.750628548188331,1.0,3186.1459223231273,0.510514425024996,1.3074582638604437,0.9816216187941965,0.2865793990239099,0.6985631887242403
0.064,1.7501750102488551,1.0,3189.220941012537,0.5132600292337399,1.3072275761637342,0.9818023815149057,0.2865603504304519,0.6990153585604493
0.0645,1.7497214723093795,1.0,3192.268221151848,0.5159902498712634,1.3069971340749884,0.9819793496283717,0.28654130183699394,0.6994667081305599
0.065,1.7492679343699036,1.0,3195.2884119916966,0.5187051688816904,1.3067669317882378,0.9821526303419392,0.286522253243536,0.6999172498763734
0.0655,1.748814396430428,1.0,3198.2821644780515,0.521404868209145,1.306536963497514,0.9823223270553028,0.28650320465007795,0.7003669962044765
0.066,1.748360858490952,1.0,3201.2501312221816,0.5240894297977513,1.3063072233968482,0.9824885395230691,0.28648415605662,0.7008159594863308
0.0665,1.7479073205514761,1.0,3204.1929664703393,0.5267589355916332,1.3060777056802728,0.9826513640092587,0.286465107463162,0.7012641520583556
0.067,1.7474537826120005,1.0,3207.111326075185,0.5294134675349151,1.3058484045418188,0.9828108934342011,0.28644605886970403,0.7017115862220151
0.0675,1.7470002446725246,1.0,3210.0058674673933,0.5320531075717209,1.3056193141755184,0.9829672175142538,0.28642701027624606,0.7021582742438961
0.068,1.7465467067330487,1.0,3212.8772496280058,0.5346779376461746,1.3053904287754026,0.9831204228947362,0.28640796168278804,0.7026042283557901
0.0685,1.746093168793573,1.0,3215.7261330620604,0.5372880397024002,1.3051617425355033,0.9832705932764596,0.28638891308933007,0.7030494607547678
0.069,1.7456396308540971,1.0,3218.553179772158,0.5398834956845221,1.3049332496498522,0.9834178095361984,0.2863698644958721,0.7034939836032554
0.0695,1.7451860929146212,1.0,3221.359053233373,0.5424643875366641,1.3047049443124807,0.983562149841435,0.28635081590241407,0.7039378090291072
0.07,1.7447325549751456,1.0,3224.1444183688463,0.5450307972029503,1.3044768207174209,0.9837036897596885,0.2863317673089561,0.7043809491256746
