Time [s],Phi [rad],STIM [ ],Fsee [N],Gamma [ ],Lcerel [ ],q [ ],Lmtc [m],fisomrel [ ]
0.0,1.8,1.0,17.970013550032892,5.106816198765942e-05,1.3793394263341028,0.005000686179516822,0.288653,0.5411403049378629
0.0005,1.79999375,1.0,18.292990437119133,0.005659991018792391,1.3793005835436676,0.013054919409322487,0.2886527375,0.5412342708017642
0.001,1.799975,1.0,21.66513173952355,0.01123745225309102,1.378933529849375,0.03582289495825511,0.28865195,0.5421217473083317
0.0015,1.79994375,1.0,31.181021165863775,0.01678362834060794,1.3780366885681106,0.0708948759254806,0.2886506375,0.544286550052479
0.002,1.7999,1.0,53.82390665623636,0.022298694765351932,1.3763524808071674,0.11506492206947731,0.2886488,0.5483380426986311
0.0025,1.79984375,1.0,97.52535398912164,0.027782826027463584,1.3739156034719198,0.1649522050151404,0.28864643749999996,0.5541681169650193
0.003,1.7997750000000001,1.0,161.48739677458983,0.03323619565055214,1.371194550432177,0.21766967144039526,0.28864354999999997,0.5606333090862692
0.0035,1.79969375,1.0,238.28151475075495,0.038658976181589214,1.3685663201864624,0.2709999868636166,0.2886401375,0.5668331238016904
0.004,1.7996,1.0,322.1033079226579,0.04405133920160936,1.36613924131092,0.3232906045676563,0.2886362,0.5725193111360458
0.0045000000000000005,1.7994937500000001,1.0,409.92699211880756,0.04941345533091839,1.3639073454864354,0.3733902846336837,0.2886317375,0.5777150634598729
0.005,1.799375,1.0,500.08622422769906,0.05474549422037663,1.3618440519121573,0.4205803108409578,0.28862675,0.5824900577034184
0.0055,1.79924375,1.0,591.4691532032033,0.06004762459669507,1.3599255779877877,0.46448186211131687,0.2886212375,0.5869055430808576
0.006,1.7991000000000001,1.0,683.19775005667,0.06532001421087454,1.3581340637437793,0.5049631594932986,0.2886152,0.5910076287830568
0.006500000000000001,1.79894375,1.0,774.5593283475334,0.07056282988881601,1.3564556810435815,0.5420596706084405,0.2886086375,0.5948321028436113
0.007,1.798775,1.0,864.9585184699358,0.07577623752050947,1.3548795307320591,0.5759127007924242,0.28860155,0.5984072661587804
0.0075,1.79859375,1.0,953.9011522062834,0.08096040197339029,1.3533966611888664,0.6067245184432399,0.2885939375,0.6017563771063826
0.008,1.7984,1.0,1041.0096938726083,0.08611548757184845,1.3519990596582783,0.634726990244089,0.2885858,0.6049000701520659
0.0085,1.79819375,1.0,1125.9530132073855,0.09124165704535737,1.350680199924615,0.6601614917153926,0.2885771375,0.6078552212398982
0.009000000000000001,1.797975,1.0,1208.493579595325,0.09633907261753974,1.3494339279539989,0.6832653087342935,0.28856795,0.6106375318706618
0.0095,1.79774375,1.0,1288.4728891049072,0.10140789612653218,1.3482544406753114,0.7042639753299511,0.2885582375,0.6132616216515498
0.01,1.7975,1.0,1365.742164364777,0.10644828737533481,1.3471369942739064,0.7233675269236184,0.288548,0.6157395000206565
0.0105,1.79724375,1.0,1440.212482937944,0.1114604058008124,1.3460770260359718,0.7407682081409129,0.2885372375,0.6180825639352593
0.011,1.796975,1.0,1511.8484743695817,0.11644441023236991,1.3450701257068571,0.7566401533067829,0.28852595000000003,0.6203016847724931
0.0115,1.79669375,1.0,1580.6368946966347,0.12140045878256411,1.344112320553004,0.7711401009745389,0.2885141375,0.6224066034554423
0.012,1.7964,1.0,1646.5621269115604,0.12632870752324887,1.343200253114822,0.7844085229387737,0.28850180000000003,0.6244055684372518
0.0125,1.79609375,1.0,1709.6487879560984,0.13122931243518637,1.342330581147883,0.7965706630560963,0.2884889375,0.6263066747798238
0.013000000000000001,1.7957750000000001,1.0,1769.9455602128623,0.13610242863713454,1.3415001170570058,0.8077380194324233,0.28847555,0.6281175703126638
0.0135,1.79544375,1.0,1827.5203637620862,0.14094821150337433,1.340705831071609,0.818009750784714,0.2884616375,0.6298454613322841
0.014,1.7951000000000001,1.0,1882.4134275915037,0.14576681315554998,1.3399453198262112,0.8274741767254747,0.2884472,0.6314961081895886
0.0145,1.79474375,1.0,1934.688650495536,0.15055838571530564,1.3392161799553317,0.836209761102928,0.2884322375,0.6330752017108163
0.015,1.794375,1.0,1984.4283556662845,0.15532308103938353,1.3385160423013764,0.8442862602606062,0.28841675,0.6345882943386885
0.0155,1.79399375,1.0,2031.7185390185455,0.16006105014525385,1.337842705221407,0.851765785108195,0.2884007375,0.6360405182674792
0.016,1.7936,1.0,2076.653556966487,0.16477244425306048,1.3371940583027537,0.8587036776456944,0.2883842,0.6374367571598187
0.0165,1.7931937500000001,1.0,2119.297998910692,0.16945741104874845,1.336568455264918,0.8651494199301114,0.2883671375,0.6387808511498307
0.017,1.792775,1.0,2159.7285995137527,0.17411609821826285,1.3359642498274007,0.8711471881363136,0.28834955,0.6400766034372191
0.0175,1.7923437500000001,1.0,2198.033221580087,0.17874865344754873,1.3353797957097029,0.876736479755595,0.2883314375,0.6413277826202741
0.018000000000000002,1.7919,1.0,2234.2964085593176,0.18335522305023189,1.3348135821637814,0.881952699197775,0.2883128,0.6425378354549005
0.0185,1.79144375,1.0,2268.6166858840174,0.18793595483908762,1.3342640473852345,0.8868275877645977,0.2882936375,0.6437102889848269
0.019,1.790975,1.0,2301.0677871295106,0.19249099302703324,1.3337299564997431,0.8913897391894706,0.28827395,0.6448479468580344
0.0195,1.79049375,1.0,2331.7192992842897,0.19702048060683297,1.3332101803966567,0.8956649045928233,0.2882537375,0.6459533663266183
0.02,1.79,1.0,2360.646590531502,0.201524560571251,1.332703589965325,0.8996762900389073,0.288233,0.6470290855363039
0.0205,1.78949375,1.0,2387.9303247026287,0.20600337591305157,1.3322090560950974,0.9034448423296522,0.2882117375,0.6480776245165958
0.021,1.788975,1.0,2413.641755151699,0.21045706762383384,1.3317255874057983,0.9069895286445101,0.28818995000000003,0.6491011947075195
0.021500000000000002,1.78844375,1.0,2437.8686120285024,0.2148857795406547,1.3312520737078204,0.910327500951791,0.2881676375,0.6501022438273876
0.022,1.7879,1.0,2460.6727565563433,0.2192896508245464,1.3307876907367575,0.9134743721081423,0.2881448,0.6510826009472044
0.0225,1.78734375,1.0,2482.1119090148322,0.22366881949802983,1.3303316833170822,0.9164443367994066,0.28812143749999997,0.6520439381278793
0.023,1.786775,1.0,2502.2465170464834,0.22802342358362568,1.3298832962732667,0.9192503079144105,0.28809755,0.6529879172190183
0.0235,1.78619375,1.0,2521.1395272247087,0.2323536011038547,1.3294417744297837,0.9219040500305539,0.28807313749999996,0.6539161902441184
0.024,1.7856,1.0,2538.8518061448144,0.2366594892728273,1.3290064037323082,0.9244163044849857,0.2880482,0.6548303134666245
0.0245,1.78499375,1.0,2555.440683532993,0.240941224454325,1.3285765223566817,0.9267968948026017,0.2880227375,0.6557317249872101
0.025,1.784375,1.0,2570.9774799360116,0.245198945079964,1.328151354064207,0.9290547908210653,0.28799675,0.6566220944701132
0.025500000000000002,1.78374375,1.0,2585.5051204040524,0.24943278387782153,1.3277304041897835,0.931198256380457,0.2879702375,0.657502494163269
0.026000000000000002,1.7831000000000001,1.0,2599.0677953433988,0.2536428735759748,1.327313178068311,0.933234873127275,0.2879432,0.6583739906339994
0.0265,1.78244375,1.0,2611.71085505062,0.257829346902501,1.3268991810346886,0.9351716060381764,0.2879156375,0.6592376448942917
0.027,1.781775,1.0,2623.48070967185,0.2619923365854774,1.3264879184238163,0.9370148618517632,0.28788755,0.6600945125104702
0.0275,1.7810937500000001,1.0,2634.424734587228,0.2661319753529811,1.326078895570593,0.93877054125204,0.2878589375,0.6609456436972648
0.028,1.7804,1.0,2644.5857239558504,0.2702483919717286,1.3256716682044443,0.9404440913445267,0.2878298,0.6617919787274693
0.0285,1.77969375,1.0,2654.0115538819136,0.27434172207332047,1.3252657521542792,0.9420405381467201,0.2878001375,0.6626345359550734
0.029,1.778975,1.0,2662.735339038273,0.27841209314815435,1.3248608056373459,0.943564544177977,0.28776995,0.6634740336755567
0.029500000000000002,1.7782437500000001,1.0,2670.790369677531,0.28245963243609534,1.3244564902642364,0.9450204242009216,0.2877392375,0.6643111796090991
0.03,1.7775,1.0,2678.2104300352867,0.28648446717700843,1.324052467645544,0.9464121752684898,0.287708,0.6651466779745969
0.0305,1.77674375,1.0,2685.029752511103,0.2904867246107588,1.3236483993918613,0.947743504151685,0.2876762375,0.6659812294996372
0.031,1.775975,1.0,2691.2829743881425,0.2944665319772115,1.323243947113781,0.9490178520752598,0.28764395,0.6668155314231607
0.0315,1.7751937500000001,1.0,2696.9986473692416,0.2984240122797064,1.322838831399585,0.9502384230834168,0.2876111375,0.6676501560604285
0.032,1.7744,1.0,2702.204305797681,0.3023592901527347,1.3224327848813187,0.9514081997138625,0.2875778,0.6684856480665731
0.0325,1.77359375,1.0,2706.9441235714285,0.30627250252944505,1.322025390746205,0.9525299449168783,0.2875439375,0.6693228562332718
0.033,1.772775,1.0,2711.2380502340266,0.31016376966964404,1.3216164557669758,0.953606255369461,0.28750955,0.6701621663899517
0.0335,1.7719437500000002,1.0,2715.1062181110215,0.3140332118331384,1.3212057867163627,0.9546395535165375,0.2874746375,0.6710039623084265
0.034,1.7711000000000001,1.0,2718.5689251399067,0.31788094927973487,1.3207931903670975,0.955632101336249,0.2874392,0.6718486256827141
0.0345,1.7702437500000001,1.0,2721.6466185287345,0.32170710226924004,1.3203784734919124,0.9565860128629105,0.2874032375,0.6726965361064796
0.035,1.7693750000000001,1.0,2724.359879242046,0.32551179106146055,1.319961442863539,0.9575032655928347,0.28736675,0.6735480710480942
0.035500000000000004,1.76849375,1.0,2726.7294073147464,0.32929513591620324,1.3195419052547088,0.9583857108843502,0.2873297375,0.6744036058233123
0.036000000000000004,1.7676,1.0,2728.7760079936606,0.33305725709327466,1.319119667438154,0.9592350834511708,0.2872922,0.6752635135655676
0.0365,1.76669375,1.0,2730.520578707362,0.33679827485248154,1.3186945361866065,0.9600530100375284,0.2872541375,0.6761281651938896
0.037,1.765775,1.0,2731.984096863156,0.3405183094536306,1.3182663182727978,0.9608410173540033,0.28721555,0.6769979293784381
0.0375,1.76484375,1.0,2733.175184505868,0.34421747286985366,1.317834933322542,0.9616005486172009,0.2871764375,0.6778729437495383
0.038,1.7639,1.0,2734.118745978998,0.3478958905545168,1.3174001535357232,0.9623329489765676,0.28713679999999997,0.67875364328922
0.0385,1.76294375,1.0,2734.8331938343076,0.3515536809093348,1.3169618105473362,0.9630394879176888,0.28709663750000003,0.6796403400974317
0.039,1.761975,1.0,2735.3295949926173,0.35519095677504864,1.3165198030545833,0.9637213655756647,0.28705595,0.6805332087828055
0.0395,1.7609937500000001,1.0,2735.6190474307123,0.3588078309923993,1.3160740297546671,0.964379712467462,0.2870147375,0.6814324225594572
0.04,1.76,1.0,2735.712675846185,0.3624044164021279,1.3156243893447899,0.9650155942712892,0.286973,0.6823381532229863
0.0405,1.7589937500000001,1.0,2735.6216275501383,0.36598082584497527,1.315170780522154,0.9656300162290119,0.2869307375,0.6832505711258172
0.041,1.757975,1.0,2735.3570685875457,0.3695371721616824,1.3147131019839617,0.9662239272049998,0.28688795,0.6841698451518894
0.0415,1.75694375,1.0,2734.9301800845847,0.3730735681929904,1.3142512524274155,0.9667982234315272,0.2868446375,0.6850961426906914
0.042,1.7559,1.0,2734.352154824355,0.3765901267796402,1.3137851305497177,0.96735375196794,0.28680079999999997,0.6860296296106398
0.0425,1.75484375,1.0,2733.6341940495977,0.38008696076237275,1.3133146350480704,0.9678913138981801,0.2867564375,0.6869704702318062
0.043000000000000003,1.753775,1.0,2732.782240833321,0.3835641766010306,1.3128397124355853,0.9684116701645443,0.28671155,0.687918731898024
0.043500000000000004,1.75269375,1.0,2731.808371014962,0.3870218897351016,1.3123602535633656,0.9689155382268774,0.28666613750000003,0.6888745918170598
0.044,1.7516,1.0,2730.7242835792163,0.3904602135488644,1.311876152708825,0.9694035977681718,0.2866202,0.6898382186592529
0.0445,1.75049375,1.0,2729.536061161204,0.39387925403840357,1.3113873551809037,0.9698764959793841,0.2865737375,0.6908096780403117
0.045,1.7493750000000001,1.0,2728.2497873782863,0.3972791171998034,1.3108938062885425,0.9703348467383934,0.28652675,0.6917890344751985
0.0455,1.74824375,1.0,2726.8715457133003,0.4006599090291484,1.3103954513406824,0.9707792326454183,0.2864792375,0.692776351361652
0.046,1.7471,1.0,2725.407418464144,0.4040217355225229,1.309892235646264,0.9712102069150491,0.2864312,0.6937716909635219
0.0465,1.7459437500000001,1.0,2723.8634857592865,0.4073647026760113,1.3093841045142274,0.9716282951362756,0.28638263750000004,0.6947751143939083
0.047,1.744775,1.0,2722.2458246394945,0.41068891648569816,1.308871003253514,0.9720339969109005,0.28633355,0.6957866815981114
0.0475,1.74359375,1.0,2720.560508206796,0.41399448294766783,1.3083528771730644,0.9724277873798081,0.28628393750000003,0.6968064513363939
0.048,1.7424,1.0,2718.813604838289,0.4172815080580047,1.3078296715818192,0.9728101186457473,0.2862338,0.6978344811665478
0.0485,1.74119375,1.0,2717.0081092127307,0.42055008962703233,1.3073013597420313,0.973181422035651,0.2861831375,0.698870772642534
0.049,1.739975,1.0,2715.149711595138,0.4238003347209304,1.30676789033208,0.9735421078188614,0.28613195,0.6999153745574136
0.0495,1.73874375,1.0,2713.246913154569,0.42703235782266447,1.3062291863490858,0.9738925660633712,0.2860802375,0.7009683846555386
0.05,1.7375,1.0,2711.302560013201,0.4302462577333604,1.305685222268194,0.9742331702286894,0.286028,0.7020297987463163
0.0505,1.73624375,1.0,2709.319495310798,0.433442133254144,1.3051359725645502,0.9745642765256856,0.2859752375,0.7030996117572899
0.051000000000000004,1.734975,1.0,2707.3005589945387,0.4366200831861411,1.304581411713299,0.9748862248640928,0.28592195,0.7041778177255544
0.051500000000000004,1.73369375,1.0,2705.2485876224405,0.43978020633047765,1.304021514189586,0.9751993397398436,0.2858681375,0.7052644097891309
0.052000000000000005,1.7324,1.0,2703.166414181393,0.4429226014882794,1.3034562544685562,0.9755039310665636,0.2858138,0.7063593801783
0.0525,1.73109375,1.0,2701.0568679203543,0.4460473674606722,1.302885607025355,0.9758002949551838,0.28575893750000003,0.7074627202068949
0.053,1.729775,1.0,2698.922774196914,0.44915460304878196,1.3023095463351273,0.9760887144453396,0.28570355000000003,0.7085744202635509
0.0535,1.72844375,1.0,2696.766954339022,0.4522444070537345,1.3017280468730188,0.976369460191923,0.2856476375,0.7096944698029126
0.054,1.7271,1.0,2694.592225521061,0.4553168782766557,1.3011410831141745,0.9766427911098969,0.2855912,0.7108228573368043
0.0545,1.7257437500000001,1.0,2692.4014006542384,0.4583721155186713,1.3005486295337394,0.9769089549802438,0.2855342375,0.7119595704253542
0.055,1.724375,1.0,2690.1972882910577,0.4614102175809073,1.2999506606068592,0.977168189019695,0.28547675,0.7131045956680766
0.0555,1.72299375,1.0,2687.9839716913234,0.4644312524466009,1.2993471390922782,0.9774207168060307,0.2854187375,0.7142579410627177
0.056,1.7216,1.0,2685.763804583257,0.46743535688784665,1.2987380435363582,0.9776667599455152,0.2853602,0.7154195833675667
0.0565,1.72019375,1.0,2683.537856064278,0.47042262250929906,1.2981233642267453,0.9779065272878885,0.28530113749999997,0.7165894760909672
0.057,1.718775,1.0,2681.3072014958652,0.4733931399913555,1.2975030913777794,0.978140219003025,0.28524155,0.7177675721322214
0.0575,1.71734375,1.0,2679.072914484464,0.4763470000144134,1.2968772152038002,0.9783680270947571,0.2851814375,0.7189538236378716
0.058,1.7159,1.0,2676.8360668715804,0.4792842932588701,1.2962457259191473,0.9785901357974426,0.2851208,0.7201481819982061
0.0585,1.71444375,1.0,2674.59772872586,0.4822051104051231,1.2956086137381606,0.9788067219502098,0.2850596375,0.7213505978437595
0.059000000000000004,1.7129750000000001,1.0,2672.3589683369373,0.4851095421335697,1.29496586887518,0.9790179553502985,0.28499795,0.7225610210418053
0.059500000000000004,1.71149375,1.0,2670.120852211926,0.48799767912460745,1.294317481544545,0.979223999086829,0.2849357375,0.7237794006928455
0.06,1.71,1.0,2667.8844450734805,0.49086961205863366,1.2936634419605955,0.979425009856218,0.284873,0.7250056851270918
0.0605,1.7084937500000001,1.0,2665.650809860598,0.49372543161604576,1.2930037403376713,0.9796211382603905,0.2848097375,0.7262398219009392
0.061,1.7069750000000001,1.0,2663.4210077309926,0.4965652284772412,1.292338366890112,0.979812529088848,0.28474595,0.7274817577934383
0.0615,1.7054437500000001,1.0,2661.196098065686,0.4993890933226174,1.2916673118322575,0.9799993215855859,0.2846816375,0.7287314388027573
0.062,1.7039,1.0,2658.977138476506,0.5021971168325717,1.2909905653784477,0.9801816497017791,0.2846168,0.7299888101426383
0.0625,1.70234375,1.0,2656.765184814178,0.5049893896875015,1.290308117743022,0.980359642335101,0.2845514375,0.7312538162388511
0.063,1.7007750000000001,1.0,2654.56129117994,0.5077660025678044,1.2896199591403206,0.9805334235564718,0.28448555,0.7325264007256347
0.0635,1.69919375,1.0,2652.3617349166075,0.5105270101295785,1.2889261238144318,0.9807031124156029,0.28441913750000003,0.7338064253111212
0.064,1.6976,1.0,2650.1680973964512,0.5132725163257668,1.2882265971384512,0.9808688247403555,0.2843522,0.7350938415241994
0.0645,1.69599375,1.0,2647.9858343488368,0.5160026467500112,1.2875213287069778,0.9810306718505984,0.2842847375,0.736388665620453
0.065,1.694375,1.0,2645.8149764571845,0.5187174825755548,1.2868103181173018,0.9811887603105188,0.28421675,0.7376908208592223
0.0655,1.69274375,1.0,2643.655554395724,0.5214171049756408,1.2860935649667133,0.9813431928505187,0.2841482375,0.7390002298617251
0.066,1.6911,1.0,2641.5075988304584,0.5241015951235122,1.2853710688525026,0.9814940685310636,0.2840792,0.7403168146109063
0.0665,1.6894437500000001,1.0,2639.371140420104,0.526771034192412,1.2846428293719596,0.981641482898392,0.2840096375,0.741640496451293
0.067,1.687775,1.0,2637.2462098165406,0.5294255033555835,1.2839088461223742,0.9817855281325435,0.28393955,0.7429711960888459
0.0675,1.68609375,1.0,2635.132837666308,0.5320650837862696,1.2831691187010368,0.9819262931881341,0.2838689375,0.7443088335908105
0.068,1.6844000000000001,1.0,2633.0310546109686,0.5346898566577134,1.2824236467052372,0.9820638639282839,0.2837978,0.745653328385572
0.0685,1.68269375,1.0,2630.94089128822,0.5372999031431581,1.2816724297322657,0.9821983232520737,0.2837261375,0.7470045992625058
0.069,1.680975,1.0,2628.862378332753,0.5398953044158468,1.2809154673794123,0.9823297512158853,0.28365395,0.7483625643718315
0.0695,1.67924375,1.0,2626.795546377177,0.5424761416490224,1.280152759243967,0.9824582251489618,0.28358123749999997,0.7497271412244639
0.07,1.6775,1.0,2624.7404260528506,0.545042496015928,1.27938430492322,0.9825838197634954,0.283508,0.7510982466918661
0.07050000000000001,1.67574375,1.0,2622.6970479908787,0.547594448689807,1.2786101040144613,0.9827066072595413,0.2834342375,0.7524757970059026
0.07100000000000001,1.673975,1.0,2620.6654428227616,0.5501320808439021,1.2778301561149812,0.9828266574250307,0.28335995,0.75385970775869
0.07150000000000001,1.67219375,1.0,2618.6456411817167,0.5526554736514566,1.2770444608220695,0.9829440377311456,0.2832851375,0.7552498939024517
0.07200000000000001,1.6704,1.0,2616.63767370327,0.5551647082857135,1.2762530177330165,0.983058813423298,0.2832098,0.7566462697493677
0.0725,1.66859375,1.0,2614.6415710263,0.5576598659199159,1.275455826445112,0.9831710476079425,0.2831339375,0.7580487489714298
0.073,1.6667750000000001,1.0,2612.657363793857,0.560141027727307,1.2746528865556463,0.9832808013354422,0.28305755,0.759457244600291
0.0735,1.66494375,1.0,2610.6850826542795,0.5626082748811297,1.2738441976619095,0.9833881336791895,0.2829806375,0.7608716690271207
0.074,1.6631,1.0,2608.724758261799,0.5650616885546274,1.2730297593611917,0.9834931018111742,0.2829032,0.7622919340024547
0.0745,1.6612437500000001,1.0,2606.775573057765,0.5675013173046238,1.272209579140184,0.983595759574513,0.2828252375,0.7637179369398084
0.075,1.659375,1.0,2604.837931844798,0.5699272601908218,1.271383653123821,0.983696161453336,0.28274675,0.7651495944425052
0.0755,1.65749375,1.0,2602.912165327069,0.5723396134225818,1.2705519781215908,0.9837943600695244,0.2826677375,0.7665868212196882
