Time [s],Phi [rad],STIM [ ],Fsee [N],Gamma [ ],Lcerel [ ],q [ ],Lmtc [m],fisomrel [ ]
0.0,1.8,1.0,17.96853504363448,1.019804226444989e-05,1.3793395919665115,0.005000027713561168,0.288653,0.5411399042304866
0.0005,1.79999375,1.0,18.277806339735474,0.0056193501481063115,1.3793022698021777,0.012941061549430494,0.2886527375,0.5412301917184821
0.001,1.799975,1.0,21.619498063268733,0.011197039345556608,1.3789381880805707,0.03560960124483046,0.28865195,0.5421104898412438
0.0015,1.79994375,1.0,31.07056542135445,0.01674344211751395,1.3780460904684164,0.07060310528006508,0.2886506375,0.5442638822753377
0.002,1.7999,1.0,53.5840968149048,0.022258733955229634,1.376368020818326,0.11471949421859487,0.2886488,0.5483007426827046
0.0025,1.79984375,1.0,97.12105075884404,0.027743089365864285,1.373935065434274,0.16457647874660092,0.28864643749999996,0.5541217054804379
0.003,1.7997750000000001,1.0,160.96065818045912,0.03319668188021081,1.3712142505026719,0.21728209164014528,0.28864354999999997,0.5605866716318226
0.0035,1.79969375,1.0,237.68599177884627,0.03861968405228218,1.3685846522910814,0.27061451864322605,0.2886401375,0.566790032192164
0.004,1.7996,1.0,321.469514645908,0.04401226747009443,1.3661560197365963,0.32291738120243557,0.2886362,0.5724801314115221
0.0045000000000000005,1.7994937500000001,1.0,409.2705475021934,0.049374602760851226,1.363922748517178,0.3730360080650436,0.2886317375,0.5776793147694603
0.005,1.799375,1.0,499.4163100252083,0.05470685958202724,1.3618582827226593,0.42024886583841164,0.28862675,0.5824572169164796
0.0055,1.79924375,1.0,590.7932239152124,0.060009206668878934,1.3599387802004397,0.4641750003033152,0.2886212375,0.5868752375887104
0.006,1.7991000000000001,1.0,682.5208875607541,0.06528181177750031,1.3581463642283966,0.5046811600222932,0.2886152,0.5909795337690711
0.006500000000000001,1.79894375,1.0,773.8840741003002,0.070524841740519,1.356467205542268,0.5418018562232622,0.2886086375,0.5948059036125208
0.007,1.798775,1.0,864.2885355443678,0.07573846245065873,1.3548903509895716,0.5756777816225352,0.28860155,0.5983827767043964
0.0075,1.79859375,1.0,953.2459749159458,0.08092283887048748,1.353406736747132,0.6065108265872802,0.2885939375,0.6017336684366814
0.008,1.7984,1.0,1040.3457846305257,0.08607813455740422,1.3520088328848154,0.6345330207122344,0.2885858,0.6048781300097898
0.0085,1.79819375,1.0,1125.3152058602243,0.09120451374366255,1.3506892276487108,0.6599852038227181,0.2885771375,0.607835030647802
0.009000000000000001,1.797975,1.0,1207.9031912683433,0.09630213843417307,1.3494419939131437,0.6831048787265349,0.28856795,0.6106195564094594
0.0095,1.79774375,1.0,1287.8973221089725,0.10137116902568699,1.348262056099986,0.7041180870614008,0.2885582375,0.6132447075287314
0.01,1.7975,1.0,1365.1706787105811,0.10641176591495559,1.34714433863111,0.7232347914055818,0.288548,0.615723240294545
0.0105,1.79724375,1.0,1439.6579896883761,0.11142408915118308,1.3460839652800551,0.7406472055509985,0.2885372375,0.6180672480103112
0.011,1.796975,1.0,1511.3182497350153,0.11640829758738254,1.3450766020705538,0.7565296409760899,0.28852595000000003,0.6202874320900532
0.0115,1.79669375,1.0,1580.1184030432714,0.12136454842143282,1.3441185142322354,0.7710390721127849,0.2885141375,0.6223930107225728
0.012,1.7964,1.0,1646.057947648338,0.12629299835802663,1.3432061539915974,0.7843159958049185,0.28850180000000003,0.6243926526221172
0.0125,1.79609375,1.0,1709.1732983231886,0.13119380382446735,1.3423360425628847,0.7964857068575882,0.2884889375,0.6262947511555573
0.013000000000000001,1.7957750000000001,1.0,1769.5026459671785,0.13606711990627318,1.3415051168755723,0.8076598575222711,0.28847555,0.6281066809560004
0.0135,1.79544375,1.0,1827.0858500804763,0.14091310021561296,1.340710658163187,0.8179378104217767,0.2884616375,0.629834972621199
0.014,1.7951000000000001,1.0,1881.98570034941,0.14573189797849978,1.3399500017189085,0.8274078533948118,0.2884472,0.6314859576891393
0.0145,1.79474375,1.0,1934.2843569459271,0.15052366638899925,1.339220545127112,0.8361484482316192,0.2884322375,0.6330657581749521
0.015,1.794375,1.0,1984.0602417494042,0.15528855760864052,1.3385199666903305,0.8442294355350086,0.28841675,0.6345798219131937
0.0155,1.79399375,1.0,2031.375634826373,0.16002672126313985,1.337846318044753,0.8517130652778646,0.2884007375,0.6360327340038379
0.016,1.7936,1.0,2076.3088291897207,0.16473830697821354,1.33719765082657,0.858654770230762,0.2883842,0.6374290314956716
0.0165,1.7931937500000001,1.0,2118.9505129316,0.16942346415744636,1.3365720399123977,0.8651039809742914,0.2883671375,0.6387731567257888
0.017,1.792775,1.0,2159.387952394263,0.17408234102904852,1.335967730872383,0.8711048791258629,0.28834955,0.6400691448101469
0.0175,1.7923437500000001,1.0,2197.7210688708074,0.17871508682583145,1.335382957643557,0.8766969657545008,0.2883314375,0.641321019522513
0.018000000000000002,1.7919,1.0,2234.0163672948897,0.1833218466012093,1.3348163957007322,0.881915729493392,0.2883128,0.6425318277103659
0.0185,1.79144375,1.0,2268.3485833013733,0.1879027654085961,1.3342667205187206,0.8867929968537323,0.2882936375,0.6437045904134551
0.019,1.790975,1.0,2300.800002088831,0.19245798830140604,1.3337326075723346,0.8913573564068222,0.28827395,0.6448423043462057
0.0195,1.79049375,1.0,2331.4530820590076,0.19698765943534516,1.3332127985663638,0.8956345456739607,0.2882537375,0.6459478025241451
0.02,1.79,1.0,2360.394265749252,0.20149192329883525,1.3327060562511326,0.8996477644832332,0.288233,0.6470238524675325
0.0205,1.78949375,1.0,2387.703838669093,0.20597092327077468,1.3322112571368292,0.9034179796159932,0.2882117375,0.6480729611976006
0.021,1.788975,1.0,2413.4433339948555,0.21042479954205265,1.3317275054025888,0.9069641949880058,0.28818995000000003,0.6490971369878044
0.021500000000000002,1.78844375,1.0,2437.6781883767158,0.21485369230355836,1.3312539052275467,0.9103036183074885,0.2881676375,0.6500983745902408
0.022,1.7879,1.0,2460.4774192928326,0.21925774174618096,1.330789560790838,0.9134518556065714,0.2881448,0.6510786558412134
0.0225,1.78734375,1.0,2481.9117703893517,0.22363708780316655,1.330333591044698,0.9164230852831542,0.28812143749999997,0.6520399190928385
0.023,1.786775,1.0,2502.040815170448,0.22799186816030392,1.3298852491260709,0.9192302306468402,0.28809755,0.6529838087022646
0.0235,1.78619375,1.0,2520.9488116233347,0.2323222242406628,1.3294435782089749,0.9218850281711353,0.28807313749999996,0.6539124004364384
0.024,1.7856,1.0,2538.6840022297683,0.23662829108024167,1.32900798526425,0.924398250374435,0.2880482,0.6548269950011449
0.0245,1.78499375,1.0,2555.2964558655867,0.24091020371503916,1.3285778772627364,0.926779739806859,0.2880227375,0.6557288857573793
0.025,1.784375,1.0,2570.8379175596056,0.2451680971810538,1.3281526611752736,0.9290385020857175,0.28799675,0.6566193589400067
0.025500000000000002,1.78374375,1.0,2585.361666049674,0.2494021065142842,1.3277317439727017,0.9311827884929649,0.2879702375,0.6574996938539909
0.026000000000000002,1.7831000000000001,1.0,2598.919657817984,0.2536123661233349,1.3273145579754075,0.9332201732665759,0.2879432,0.6583711101318992
0.0265,1.78244375,1.0,2611.55757694269,0.25779900871348194,1.326900605367025,0.9351576251077113,0.2879156375,0.6592346754166858
0.027,1.781775,1.0,2623.338405579296,0.2619621704064266,1.3264892378093565,0.9370015322613515,0.28788755,0.6600917652891118
0.0275,1.7810937500000001,1.0,2634.298642746439,0.2661019808639617,1.3260800622100541,0.9387578146650389,0.2878589375,0.6609432175672425
0.028,1.7804,1.0,2644.475563898414,0.27021856974788,1.3256726854767698,0.9404319310691399,0.2878298,0.6617898658620823
0.0285,1.77969375,1.0,2653.9071543342916,0.27431206671997427,1.325266714517155,0.9420289210162123,0.2878001375,0.6626325396276007
0.029,1.778975,1.0,2662.6320460328607,0.2783826014420374,1.324861756238862,0.9435534424931102,0.28776995,0.6634720642008998
0.029500000000000002,1.7782437500000001,1.0,2670.68945791344,0.28243030357586213,1.3244574175495425,0.9450098057489676,0.2877392375,0.6643092608325314
0.03,1.7775,1.0,2678.1150328516615,0.28645530001966374,1.3240533430413273,0.9464020077811883,0.287708,0.6651448688257011
0.0305,1.77674375,1.0,2684.945856064372,0.29045772167580336,1.3236491682740257,0.9477337555136238,0.2876762375,0.6659796424602404
0.031,1.775975,1.0,2691.211247049912,0.29443769441949225,1.3232446037053536,0.9490084981840186,0.28764395,0.6668141778551304
0.0315,1.7751937500000001,1.0,2696.9389240810706,0.2983953426151925,1.3228393775259313,0.9502294428828768,0.2876111375,0.6676490316284096
0.032,1.7744,1.0,2702.1569031176145,0.3023307906273663,1.3224332179263785,0.951399572946633,0.2875778,0.668484757581762
0.0325,1.77359375,1.0,2706.8934685923177,0.3062441628204756,1.3220258530973152,0.9525216663096283,0.2875439375,0.6693219066866911
0.033,1.772775,1.0,2711.1771458348044,0.3101355835589826,1.3216170112293617,0.9535983121395293,0.28750955,0.6701610270659841
0.0335,1.7719437500000002,1.0,2715.029588411107,0.3140051719190028,1.32120648510016,0.9546319318785083,0.2874746375,0.6710025316632677
0.034,1.7711000000000001,1.0,2718.475048994742,0.3178530511387729,1.3207940453869547,0.9556247852265438,0.2874392,0.6718468764166852
0.0345,1.7702437500000001,1.0,2721.551346944461,0.32167935556178523,1.3203793407307096,0.9565789735317274,0.2874032375,0.6726947641357012
0.035,1.7693750000000001,1.0,2724.274575778351,0.3254842026290545,1.319962218976981,0.957496479691121,0.28736675,0.6735464873320358
0.035500000000000004,1.76849375,1.0,2726.6609339970432,0.3292677097815953,1.3195425279713253,0.9583791600865568,0.2873297375,0.6744023367911185
0.036000000000000004,1.7676,1.0,2728.7267144499106,0.3330299944604224,1.3191201155592986,0.9592287541079072,0.2872922,0.6752626015478951
0.0365,1.76669375,1.0,2730.4882942156482,0.33677117410655044,1.3186948295864571,0.9600468928556897,0.2872541375,0.6761275688611578
0.037,1.765775,1.0,2731.962124995356,0.3404913661609941,1.318266517898357,0.9608351071021438,0.28721555,0.6769975241863992
0.0375,1.76484375,1.0,2733.1647240193706,0.3441906880647681,1.3178350283405547,0.9615948345815298,0.2871764375,0.6778727511471901
0.038,1.7639,1.0,2734.112665467097,0.34786925725888707,1.317400208758606,0.9623274266729598,0.28713679999999997,0.6787535315050807
0.0385,1.76294375,1.0,2734.822572400491,0.35152719118436576,1.3169619069980678,0.9630341545324975,0.28709663750000003,0.6796401451280236
0.039,1.761975,1.0,2735.311109210081,0.35516460728221877,1.316519970904496,0.9637162147254221,0.28705595,0.6805328699573249
0.0395,1.7609937500000001,1.0,2735.592687401552,0.3587816192264861,1.3160742690898257,0.9643747355788325,0.2870147375,0.6814319401126672
0.04,1.76,1.0,2735.6789017409073,0.36237833933852165,1.315624695990808,0.9650107827848798,0.286973,0.6823375359716519
0.0405,1.7589937500000001,1.0,2735.5872125878636,0.36595489228677547,1.3151710929919382,0.9656253591571776,0.2869307375,0.6832499430556984
0.041,1.757975,1.0,2735.3265352406647,0.3695113879857204,1.3147133792240242,0.9662194153496954,0.28688795,0.6841692887034296
0.0415,1.75694375,1.0,2734.9057995247435,0.3730479363498293,1.314251473817873,0.9667938492908028,0.2868446375,0.6850956989900978
0.042,1.7559,1.0,2734.3339471140384,0.37656464729357486,1.313785295904292,0.9673495096483102,0.28680079999999997,0.6860292987061734
0.0425,1.75484375,1.0,2733.619928997366,0.3800616307314299,1.3133147646140886,0.9678871990325162,0.2867564375,0.6869702113355174
0.043000000000000003,1.753775,1.0,2732.7727030895026,0.3835389965778672,1.3128397990780698,0.9684076769595452,0.28671155,0.6879185590331407
0.043500000000000004,1.75269375,1.0,2731.8012319879813,0.38699685474735956,1.3123603184270434,0.9689116625951592,0.28666613750000003,0.6888744626025385
0.044,1.7516,1.0,2730.71448087384,0.39043531515437974,1.3118762417918164,0.969399837297343,0.2866202,0.6898380414726164
0.0445,1.75049375,1.0,2729.5214155585786,0.3938544877134006,1.3113874883031964,0.9698728469742824,0.2865737375,0.6908094136741924
0.045,1.7493750000000001,1.0,2728.231000675165,0.3972544823388949,1.3108939770919905,0.9703313042728251,0.28652675,0.691788695816087
0.0455,1.74824375,1.0,2726.8442895474336,0.400635389461762,1.3103956992089245,0.9707757932970768,0.2864792375,0.692775860690698
0.046,1.7471,1.0,2725.374683790143,0.4039973366891735,1.3098925334162945,0.9712068655154418,0.2864312,0.6937711024643839
0.0465,1.7459437500000001,1.0,2723.830995881557,0.40734043820358035,1.3093844001412172,0.9716250460148862,0.28638263750000004,0.6947745310881991
0.047,1.744775,1.0,2722.2173609656365,0.41066479571237813,1.3088712623227219,0.9720308353217703,0.28633355,0.6957861712728581
0.0475,1.74359375,1.0,2720.537912198184,0.41397051092296244,1.3083530828998384,0.9724247094715802,0.28628393750000003,0.6968060467671089
0.048,1.7424,1.0,2718.796780234825,0.41725768554272896,1.3078298248115963,0.9728071214328214,0.2862338,0.6978341803458609
0.0485,1.74119375,1.0,2716.998092751209,0.4205264212790732,1.307301450997025,0.9731785024353525,0.2861831375,0.6988705937982238
0.049,1.739975,1.0,2715.1459739917964,0.4237768198393907,1.3067679243951547,0.9735392632103934,0.28613195,0.6999153079154614
0.0495,1.73874375,1.0,2713.244544350906,0.42700898293107714,1.3062292079450144,0.9738897951488361,0.2860802375,0.7009683424788556
0.05,1.7375,1.0,2711.2979199829283,0.43022301226152815,1.305685264585634,0.974230471383937,0.286028,0.7020297162474838
0.0505,1.73624375,1.0,2709.3102124433253,0.43341900953813917,1.305136057256043,0.974561647803962,0.2859752375,0.7030994469459082
0.051000000000000004,1.734975,1.0,2707.2855283606405,0.43659707646830587,1.304581548895271,0.9748836639999074,0.28592195,0.7041775512517783
0.051500000000000004,1.73369375,1.0,2705.2279691379094,0.43975731475942387,1.3040217024423477,0.9751968441529925,0.2858681375,0.7052640447833437
0.052000000000000005,1.7324,1.0,2703.1416306855763,0.44289982611888873,1.3034564808363027,0.9755014978662546,0.2858138,0.7063589420868834
0.0525,1.73109375,1.0,2701.030603184171,0.446024712254096,1.3028858470161657,0.9757979209442237,0.28575893750000003,0.7074622566240429
0.053,1.729775,1.0,2698.895417182976,0.4491320619060233,1.3023097964053272,0.9760863968122326,0.28570355000000003,0.7085739381293674
0.0535,1.72844375,1.0,2696.7373924107173,0.4522219736439024,1.3017283172063643,0.9763671970754588,0.2856476375,0.7096939496040039
0.054,1.7271,1.0,2694.564617116062,0.4552945678270043,1.301141335685057,0.9766405799456152,0.2855912,0.7108223722634561
0.0545,1.7257437500000001,1.0,2692.3785041030455,0.45834993745649205,1.3005488390841269,0.9769067934748185,0.2855342375,0.7119591687665294
0.055,1.724375,1.0,2690.180464032675,0.46138817553352884,1.2999508146462957,0.9771660751554655,0.28547675,0.7131043009981619
0.0555,1.72299375,1.0,2687.971905388134,0.4644093750592778,1.2993472496142848,0.9774186524553329,0.2854187375,0.7142577300649333
0.056,1.7216,1.0,2685.7542344432736,0.4674136290349021,1.2987381312308162,0.9776647433212753,0.2853602,0.7154194162905602
0.0565,1.72019375,1.0,2683.5288552349325,0.4704010304615648,1.2981234467386111,0.9779045566536134,0.28530113749999997,0.7165893192113855
0.057,1.718775,1.0,2681.297169538943,0.47337167234042904,1.2975031833803914,0.9781382927531361,0.28524155,0.7177673975718534
0.0575,1.71734375,1.0,2679.0605768490154,0.47632564767265795,1.2968773283988786,0.9783661437425114,0.2851814375,0.7189536093199758
0.058,1.7159,1.0,2676.820474360413,0.4792630494594148,1.2962458690367942,0.9785882939637613,0.2851208,0.7201479116027889
0.0585,1.71444375,1.0,2674.5782569562534,0.48218397070186253,1.2956087925368598,0.9788049203533427,0.2850596375,0.7213502607617979
0.059000000000000004,1.7129750000000001,1.0,2672.33531719791,0.4850885044011644,1.2949660861417973,0.9790161927962607,0.28499795,0.7225606123284114
0.059500000000000004,1.71149375,1.0,2670.0930453188867,0.48797674355848353,1.2943177370943277,0.9792222744605441,0.2849357375,0.7237789210193692
0.06,1.71,1.0,2667.8528292221117,0.490848781174983,1.2936637326371734,0.9794233221133165,0.284873,0.7250051407321516
0.0605,1.7084937500000001,1.0,2665.616054481454,0.49370471025182594,1.2930040600130552,0.9796194864196089,0.2848097375,0.7262392245403888
0.061,1.7069750000000001,1.0,2663.3842758565747,0.4965446234394962,1.2923387048864974,0.9798109121130211,0.28474595,0.72748112763165
0.0615,1.7054437500000001,1.0,2661.162615611645,0.4993686048033962,1.2916676200570627,0.9799977359714538,0.2846816375,0.7287308654663549
0.062,1.7039,1.0,2658.947420302203,0.5021767507816314,1.2909908390649727,0.9801800947604082,0.2846168,0.7299883022329821
0.0625,1.70234375,1.0,2656.7391388023575,0.5049691479432779,1.2903083577108883,0.9803581173752066,0.2845514375,0.7312533719490018
0.063,1.7007750000000001,1.0,2654.538219247943,0.5077458828574118,1.2896201717954712,0.9805319278917757,0.28448555,0.7325260079373781
0.0635,1.69919375,1.0,2652.3451090420826,0.5105070420931093,1.2889262771193826,0.9807016457809853,0.28441913750000003,0.7338061428250439
0.064,1.6976,1.0,2650.1602548603933,0.5132527122194465,1.2882266694832836,0.9808673861119139,0.2843522,0.7350937085413712
0.0645,1.69599375,1.0,2647.984102657525,0.5159829798054993,1.287521344687836,0.981029259744691,0.2842847375,0.736388636316641
0.065,1.694375,1.0,2645.8170976737015,0.518697931420344,1.2868102985337007,0.9811873735135226,0.28421675,0.7376908566805149
0.0655,1.69274375,1.0,2643.6596844411647,0.5213976536330568,1.286093526821539,0.9813418304004661,0.2841482375,0.7390002994605018
0.066,1.6911,1.0,2641.512306791887,0.5240822330127135,1.2853710253520125,0.9814927297004867,0.2840792,0.7403168937804242
0.0665,1.6894437500000001,1.0,2639.3756903307394,0.5267517552654836,1.284642787314811,0.9816401669920273,0.2840096375,0.7416405727986457
0.067,1.687775,1.0,2637.2487026760505,0.5294063037836093,1.2839088230703144,0.9817842351554221,0.28393955,0.7429712378278983
0.0675,1.68609375,1.0,2635.1326582072134,0.5320459623011357,1.2831691203612032,0.9819250227563756,0.2838689375,0.7443088305926735
0.068,1.6844000000000001,1.0,2633.0293143871218,0.5346708144153298,1.28242366281038,0.9820626150703873,0.2837978,0.7456532993774515
0.0685,1.68269375,1.0,2630.938606016582,0.5372809432695617,1.281672450890029,0.982197095191606,0.2837261375,0.7470045612551155
0.069,1.6809790533341569,1.0,2629.0443729383264,0.5398764312837747,1.2809156123176941,0.982328549313938,0.28365412024003456,0.7483623047071906
0.0695,1.679264119781093,1.0,2627.722081738249,0.5424573606645051,1.2801533743370626,0.9824570653849048,0.2835820930308059,0.7497260422434876
0.07,1.6775491862280292,1.0,2626.9324871231843,0.5450238131467391,1.2793862035555366,0.9825827395614053,0.28351006582157723,0.7510948637207407
0.07050000000000001,1.6758342526749652,1.0,2626.6325573376503,0.5475758697819456,1.2786144964755555,0.9827056616600836,0.2834380386123485,0.7524679921992113
0.07100000000000001,1.6741193191219015,1.0,2626.791935396211,0.5501136090472865,1.2778385335956994,0.982825913170504,0.28336601140311984,0.7538448636779063
0.07150000000000001,1.6724043855688375,1.0,2627.350159224799,0.5526371161271562,1.2770588754591885,0.9829435861835438,0.2832939841938912,0.7552244245194193
0.07200000000000001,1.6706894520157738,1.0,2628.279607375772,0.5551464696244102,1.2762757791003048,0.983058755824113,0.2832219569846625,0.7566061667172181
0.0725,1.66897451846271,1.0,2629.5545677242276,0.5576417477570221,1.275489484455611,0.9831714940852191,0.28314992977543385,0.7579896172014721
0.073,1.667259584909646,1.0,2631.14937458626,0.5601230287429655,1.2747002314616713,0.983281870735711,0.28307790256620513,0.7593743075092608
0.0735,1.6655446513565824,1.0,2633.038392343129,0.5625903908002139,1.2739082600550489,0.9833899534097982,0.28300587535697647,0.7607597738316828
0.074,1.6638297178035184,1.0,2635.196000341607,0.5650439121467409,1.2731138101723072,0.9834958076924633,0.2829338481477478,0.7621455570572863
0.0745,1.6621147842504547,1.0,2637.5965790709515,0.5674836710005199,1.2723171217500095,0.9835994972009795,0.2828618209385191,0.763531202811832
