Time [s],Phi [rad],STIM [ ],Fsee [N],Gamma [ ],Lcerel [ ],q [ ],Lmtc [m],fisomrel [ ]
0.0,1.8,1.0,17.967260197244897,1.0016679720783374e-05,1.3793397347890026,0.005000026740403147,0.288653,0.5411395587060241
0.0005,1.79999375,1.0,18.27658829901811,0.005619169802863486,1.3793024051011147,0.012940560615810656,0.2886527375,0.5412298644276463
0.001,1.799975,1.0,21.618214345963086,0.011196860011907638,1.3789383191919595,0.03560866456132143,0.28865195,0.5421101729846065
0.0015,1.79994375,1.0,31.06900294358403,0.016743263789785332,1.3780462235849829,0.07060182590694458,0.2886506375,0.5442635613301441
0.002,1.7999,1.0,53.581940654755066,0.022258556627778297,1.376368160698062,0.11471797973518243,0.2886488,0.5483004069284368
0.0025,1.79984375,1.0,97.11818399051606,0.027742913033079873,1.373935203576514,0.1645748295284941,0.28864643749999996,0.55412137604015
0.003,1.7997750000000001,1.0,160.95732830136023,0.033196506536513806,1.3712143751428958,0.21728038773333402,0.28864354999999997,0.5605863765537928
0.0035,1.79969375,1.0,237.68246021022304,0.03861950969212444,1.3685847610725324,0.27061282169504225,0.2886401375,0.566789776483113
0.004,1.7996,1.0,321.46591214767517,0.0440120940879592,1.366156115152875,0.3229157364078048,0.2886362,0.5724799085974317
0.0045000000000000005,1.7994937500000001,1.0,409.2669308774806,0.04937443035125307,1.363922833413043,0.37303444548679476,0.2886317375,0.5776791177315769
0.005,1.799375,1.0,499.4127137588925,0.054706688139518414,1.361858359142943,0.4202474029344896,0.28862675,0.582457040556049
0.0055,1.79924375,1.0,590.7896619049866,0.06000903618801489,1.359938849793421,0.4641736452228744,0.2886212375,0.5868750778360621
0.006,1.7991000000000001,1.0,682.5173855184072,0.06528164225289432,1.358146427886157,0.5046799140818693,0.2886152,0.590979388368577
0.006500000000000001,1.79894375,1.0,773.8807465271328,0.07052467316667159,1.356467262346083,0.5418007154123547,0.2886086375,0.5948057744754109
0.007,1.798775,1.0,864.2848702244158,0.07573829482246457,1.354890410196203,0.5756767458597633,0.28860155,0.5983826427001622
0.0075,1.79859375,1.0,953.2420476105237,0.08092267218284906,1.3534067971531232,0.6065098876683938,0.2885939375,0.6017335322894491
0.008,1.7984,1.0,1040.3510395478907,0.08607796919281094,1.352008755516371,0.6345320894379658,0.2885858,0.6048783036983924
0.0085,1.79819375,1.0,1125.3171693167783,0.09120434928629281,1.3506891998534092,0.6599843836889923,0.2885771375,0.60783509281306
0.009000000000000001,1.797975,1.0,1207.8850434944234,0.09630197431092143,1.3494422418815242,0.68310428448561,0.28856795,0.6106190037908621
0.0095,1.79774375,1.0,1287.8697390636487,0.10137100553133334,1.3482624210986682,0.7041176161941849,0.2885582375,0.6132438968446872
0.01,1.7975,1.0,1365.1589589769735,0.10641160378983303,1.347144489261491,0.7232342632677651,0.288548,0.6157229068092429
0.0105,1.79724375,1.0,1439.6576023663126,0.11142392819817695,1.3460839701276908,0.7406466561823082,0.2885372375,0.6180672373107643
0.011,1.796975,1.0,1511.3099720390833,0.1164081372006045,1.34507670318646,0.7565291846364509,0.28852595000000003,0.6202872095598333
0.0115,1.79669375,1.0,1580.1091490370748,0.12136438883734799,1.3441186247858594,0.7710386611268262,0.2885141375,0.62239276809786
0.012,1.7964,1.0,1646.0622799903094,0.12629284018615827,1.3432061032823384,0.7843155520043226,0.28850180000000003,0.6243927636152835
0.0125,1.79609375,1.0,1709.1763900087403,0.13119364651006502,1.3423360070497141,0.7964853051570563,0.2884889375,0.6262948286902363
0.013000000000000001,1.7957750000000001,1.0,1769.4919836781587,0.1360669628607119,1.3415052372440797,0.8076595495011814,0.28847555,0.6281064187974008
0.0135,1.79544375,1.0,1827.0724677928492,0.1409129437801517,1.3407108068385667,0.8179375391883903,0.2884616375,0.6298346495644545
0.014,1.7951000000000001,1.0,1881.989209723395,0.14573174349431328,1.3399499633032157,0.8274075378305173,0.2884472,0.6314860409762191
0.0145,1.79474375,1.0,1934.2921595799512,0.15052351330678929,1.339220460877479,0.8361481408054443,0.2884322375,0.6330659404402768
0.015,1.794375,1.0,1984.0520710355104,0.15528840452117237,1.3385200538008093,0.8442292074343859,0.28841675,0.6345796338478864
0.0155,1.79399375,1.0,2031.35535086543,0.16002656814825492,1.337846531765217,0.8517128952945545,0.2884007375,0.6360322735147137
0.016,1.7936,1.0,2076.289977507645,0.16473815437353234,1.3371978472948738,0.8586546087904444,0.2883842,0.6374286089913999
0.0165,1.7931937500000001,1.0,2118.9518186534356,0.1694233136540396,1.3365720264420884,0.8651037705082248,0.2883671375,0.6387731856398793
0.017,1.792775,1.0,2159.406920111578,0.1740821928066304,1.3359675370356168,0.8711046318632611,0.28834955,0.6400695601346349
0.0175,1.7923437500000001,1.0,2197.732000915298,0.1787149386481584,1.335382846904214,0.8766967559913736,0.2883314375,0.6413212563852826
0.018000000000000002,1.7919,1.0,2234.013562936558,0.18332169799547735,1.3348164238766356,0.8819155691195293,0.2883128,0.6425317675461133
0.0185,1.79144375,1.0,2268.335833063955,0.18790261641062964,1.3342668476496913,0.8867928718130696,0.2882936375,0.6437043193952108
0.019,1.790975,1.0,2300.7943120934397,0.19245784073474936,1.3337326639049771,0.891357222879447,0.28827395,0.6448421844479834
0.0195,1.79049375,1.0,2331.4644320151206,0.19698751476028245,1.3332126869397651,0.8956343816354494,0.2882537375,0.6459480397397388
0.02,1.79,1.0,2360.41322577589,0.2014917805520558,1.332705870926489,0.899647593251323,0.288233,0.64702424569849
0.0205,1.78949375,1.0,2387.7128009315215,0.2059707801748962,1.3322111700375825,0.9034178389799518,0.2882117375,0.6480731457342489
0.021,1.788975,1.0,2413.4399157036382,0.21042465569363053,1.3317275384454799,0.9069640874548716,0.28818995000000003,0.64909706708196
0.021500000000000002,1.78844375,1.0,2437.66625365608,0.2148535475801967,1.3312540200196414,0.9103035334084202,0.2881676375,0.6500981320817187
0.022,1.7879,1.0,2460.471615060914,0.21925759823810334,1.3307896163585737,0.9134517641138048,0.2881448,0.6510785386139911
0.0225,1.78734375,1.0,2481.921128313543,0.22363694706136752,1.330333501842959,0.9164229713527393,0.28812143749999997,0.6520401070158413
0.023,1.786775,1.0,2502.070007533402,0.22799173108377135,1.3298849719803572,0.9192300876765412,0.28809755,0.6529843917778029
0.0235,1.78619375,1.0,2520.975871019167,0.23232208733909698,1.3294433222783277,0.9218848952148517,0.28807313749999996,0.6539129381575826
0.024,1.7856,1.0,2538.6985401056395,0.23662815286112657,1.3290078482444307,0.9243981439023969,0.2880482,0.6548272825050052
0.0245,1.78499375,1.0,2555.299849024349,0.24091006468364226,1.328577845386226,0.9267796561321052,0.2880227375,0.6557289525553105
0.025,1.784375,1.0,2570.833240550039,0.2451679564501904,1.3281527049797492,0.9290384343273099,0.28799675,0.6566192672655411
0.025500000000000002,1.78374375,1.0,2585.3622073496977,0.24940196775827578,1.3277317389171943,0.9311827166438901,0.2879702375,0.6574997044206377
0.026000000000000002,1.7831000000000001,1.0,2598.930748270056,0.25361223106218334,1.3273144546660318,0.9332200902226102,0.2879432,0.6583713257866015
0.0265,1.78244375,1.0,2611.581760555834,0.25779887795961304,1.3269003806387296,0.9351575279705078,0.2879156375,0.659235143935758
0.027,1.781775,1.0,2623.359174327853,0.261962040048265,1.3264890452477556,0.9370014438173525,0.28788755,0.6600921662411002
0.0275,1.7810937500000001,1.0,2634.307862457894,0.2661018489258392,1.3260799769055773,0.9387577449735801,0.2878589375,0.6609433949657466
0.028,1.7804,1.0,2644.4735553749697,0.27021843619003566,1.3256727040246628,0.9404318786676732,0.2878298,0.6617898273382157
0.0285,1.77969375,1.0,2653.8952663369223,0.27431193094753925,1.3252668241028085,0.9420288829664014,0.2878001375,0.6626323123025275
0.029,1.778975,1.0,2662.611955402024,0.27838246382832654,1.3248619411342994,0.9435534160329722,0.28776995,0.6634716811302773
0.029500000000000002,1.7782437500000001,1.0,2670.6744263843143,0.28243016884682626,1.3244575556768214,0.9450097753167016,0.2877392375,0.6643089750134641
0.03,1.7775,1.0,2678.110509203403,0.28645517141082777,1.3240533845521916,0.9464019679826363,0.287708,0.6651447830365735
0.0305,1.77674375,1.0,2684.9484411714025,0.2904575969281203,1.323649144582227,0.9477337100465998,0.2876762375,0.6659796913622218
0.031,1.775975,1.0,2691.2168310931984,0.2944375708064932,1.3232445525887446,0.9490084511918602,0.28764395,0.666814283232469
0.0315,1.7751937500000001,1.0,2696.944625144553,0.2983952184537358,1.3228393253935615,0.9502293971793301,0.2876111375,0.6676491389650194
0.032,1.7744,1.0,2702.161074527841,0.3023306652776373,1.3224331798184952,0.9513995301106534,0.2875778,0.6684848359443047
0.0325,1.77359375,1.0,2706.8957049066707,0.30624403668598715,1.3220258326853622,0.9525216267730312,0.2875439375,0.6693219486074589
0.033,1.772775,1.0,2711.1779998716424,0.310135457660362,1.3216170034403025,0.9535982754538156,0.28750955,0.6701610430423484
0.0335,1.7719437500000002,1.0,2715.0336096749766,0.31400504749516267,1.3212064484511281,0.9546318935024242,0.2874746375,0.671002606739199
0.034,1.7711000000000001,1.0,2718.4911914629242,0.3178529370939182,1.3207938983610037,0.9556247384335054,0.2874392,0.6718471772141263
0.0345,1.7702437500000001,1.0,2721.5694004711677,0.32167924550664084,1.3203791763917836,0.9565789271711178,0.2874032375,0.6726950999187578
0.035,1.7693750000000001,1.0,2724.2870189104965,0.32548409178334264,1.3199621057653217,0.9574964398949847,0.28736675,0.6735467183489193
0.035500000000000004,1.76849375,1.0,2726.6629427003595,0.32926759497403585,1.3195425097034716,0.9583791304571945,0.2873297375,0.6744023740191541
0.036000000000000004,1.7676,1.0,2728.7161688942915,0.33302987412873253,1.3191202114280878,0.959228735890837,0.2872922,0.6752624064352442
0.0365,1.76669375,1.0,2730.465783799374,0.33677104829744486,1.3186950341610237,0.9600468850991123,0.2872541375,0.6761271530647446
0.037,1.765775,1.0,2731.9309517873717,0.34049123653018504,1.3182668011241339,0.9608351068039698,0.28721555,0.6769969493055199
0.0375,1.76484375,1.0,2733.1309047999644,0.3441905578769652,1.3178353355392716,0.9615948368249292,0.2871764375,0.6778721284522917
0.038,1.7639,1.0,2734.068958861016,0.34786911138718246,1.317400605701466,0.9623274345416419,0.28713679999999997,0.6787527279985412
0.0385,1.76294375,1.0,2734.7795392071102,0.35152703986222095,1.3169622977742483,0.9630341608980179,0.28709663750000003,0.6796393551966478
0.039,1.761975,1.0,2735.2773793181846,0.35516446091180004,1.3165202771715643,0.9637162144285721,0.28705595,0.6805322517195029
0.0395,1.7609937500000001,1.0,2735.572253316586,0.3587814856325201,1.31607445462133,0.9643747270110173,0.2870147375,0.6814315661219028
0.04,1.76,1.0,2735.673960789548,0.3623782251209815,1.3156247408514612,0.9650107656080894,0.286973,0.6823374456710714
0.0405,1.7589937500000001,1.0,2735.5923232293076,0.36595479047378454,1.3151710465898736,0.9656253366749701,0.2869307375,0.6832500363247568
0.041,1.757975,1.0,2735.337180649908,0.36951129278752964,1.3147132825644832,0.9662193902228104,0.28688795,0.6841694827088258
0.0415,1.75694375,1.0,2734.9183883807445,0.3730478431588171,1.3142513595032055,0.9667938235685064,0.2868446375,0.6850959280943467
0.042,1.7559,1.0,2734.3458140364983,0.3765645526842473,1.3137851881339566,0.9673494847979525,0.28680079999999997,0.6860295143741628
0.0425,1.75484375,1.0,2733.6293346644634,0.3800615324604206,1.3133146791846522,0.9678871759673882,0.2867564375,0.6869703820389621
0.043000000000000003,1.753775,1.0,2732.778834067351,0.38353889358393733,1.3128397433832084,0.9684076560651179,0.28671155,0.6879186701528326
0.043500000000000004,1.75269375,1.0,2731.8042003046307,0.38699674715139787,1.3123602914575405,0.9689116437537781,0.28666613750000003,0.6888745163283174
0.044,1.7516,1.0,2730.7153233681693,0.39043520425940254,1.3118762341355648,0.9693998199114647,0.2866202,0.6898380567009516
0.0445,1.75049375,1.0,2729.5220930371574,0.3938543760045517,1.3113874821451967,0.9698728299883184,0.2865737375,0.6908094259032997
0.045,1.7493750000000001,1.0,2728.2283152772407,0.3972543618555679,1.3108940015069248,0.9703312887531624,0.28652675,0.6917886474075645
0.0455,1.74824375,1.0,2726.841886868673,0.4006352744428826,1.3103957210590034,0.9707757787250655,0.2864792375,0.692775817437058
0.046,1.7471,1.0,2725.3755877993553,0.40399723404368987,1.3098925251929763,0.9712068507510455,0.2864312,0.6937711187165834
0.0465,1.7459437500000001,1.0,2723.8337707650658,0.407340343136592,1.309384374892347,0.971625031343665,0.28638263750000004,0.6947745809071163
0.047,1.744775,1.0,2722.220786904171,0.41066470420019124,1.3088712311406188,0.9720308209946985,0.28633355,0.6957862326966788
0.0475,1.74359375,1.0,2720.540985217178,0.41397041971308984,1.3083530549212947,0.9724246957028918,0.28628393750000003,0.6968061017879623
0.048,1.7424,1.0,2718.7987120194234,0.41725759215389013,1.3078298072178784,0.9728071083982012,0.2862338,0.697834214885854
0.0485,1.74119375,1.0,2716.9983104285543,0.42052632400119433,1.3073014490138732,0.9731784902704296,0.2861831375,0.6988705976848657
0.049,1.739975,1.0,2715.1441198844564,0.42377671773360476,1.3067679412927822,0.9735392520094991,0.28613195,0.6999152748564673
0.0495,1.73874375,1.0,2713.240475704044,0.42700887582972363,1.306229245038109,0.9738897849639963,0.2860802375,0.7009682700363196
0.05,1.7375,1.0,2711.291708669442,0.4302229007681533,1.3056853212333566,0.9742304622240646,0.286028,0.7020296058114146
0.0505,1.73624375,1.0,2709.3021446493944,0.4334188950274959,1.3051361308620286,0.9745616396342278,0.2859752375,0.703099303707114
0.051000000000000004,1.734975,1.0,2707.2761042554744,0.4365969610863538,1.304581634907628,0.974883656741262,0.28592195,0.7041773841740957
0.051500000000000004,1.73369375,1.0,2705.2179025309633,0.4397572014233293,1.3040217943536587,0.9751968376818215,0.2858681375,0.7052638665751966
0.052000000000000005,1.7324,1.0,2703.1315804204673,0.4428997157150112,1.303456572633812,0.9755014918696553,0.2858138,0.7063587644302931
0.0525,1.73109375,1.0,2701.0193468561297,0.44602458616970814,1.3028859498698422,0.9757979141477666,0.28575893750000003,0.7074620579446539
0.053,1.729775,1.0,2698.8867226015645,0.44913194221445996,1.3023098758826774,0.9760863893889787,0.28570355000000003,0.7085737848973219
0.0535,1.72844375,1.0,2696.735448923314,0.4522218780773839,1.3017283349789188,0.976367188461111,0.2856476375,0.7096939154044941
0.054,1.7271,1.0,2694.567264574791,0.4552944879865973,1.3011413114651669,0.9766405704963471,0.2855912,0.7108224187788246
0.0545,1.7257437500000001,1.0,2692.3839057367913,0.4583498661702174,1.300548789648023,0.9769067834963815,0.2855342375,0.7119592635239427
0.055,1.724375,1.0,2690.1871059637965,0.46138810685636156,1.2999507538340878,0.9771660649014465,0.28547675,0.713104417328962
0.0555,1.72299375,1.0,2687.9785961357006,0.46440930427314714,1.299347188329962,0.9774186421256562,0.2854187375,0.7142578470629662
0.056,1.7216,1.0,2685.760104414646,0.4674135526486914,1.298738077442247,0.9776647330609253,0.2853602,0.7154195187694835
0.0565,1.72019375,1.0,2683.533356207864,0.47040094621111167,1.2981234054775435,0.9779045465515478,0.28530113749999997,0.7165893976609445
0.057,1.718775,1.0,2681.3000741356273,0.47337157918852524,1.2975031567424522,0.9781382828413728,0.28524155,0.7177674481131248
0.0575,1.71734375,1.0,2679.061978004426,0.47632554580904946,1.2968773155435742,0.9783661339953645,0.2851814375,0.7189536336595698
0.058,1.7159,1.0,2676.8207847862964,0.47926294030080163,1.2962458661875105,0.978588284297211,0.2851208,0.7201479169860066
0.0585,1.71444375,1.0,2674.5782086030813,0.482183856891899,1.2956087929808617,0.9788049106245202,0.2850596375,0.7213502599247386
0.059000000000000004,1.7129750000000001,1.0,2672.3359607160933,0.48508838981045904,1.2949660802302292,0.9790161828030375,0.28499795,0.7225606234490243
0.059500000000000004,1.71149375,1.0,2670.095749521783,0.4879766332845989,1.2943177122422134,0.9792222639412071,0.2849357375,0.7237789676674417
0.06,1.71,1.0,2667.855932214189,0.4908486333706744,1.2936637041081447,0.9794233084772237,0.284873,0.7250051941628957
0.0605,1.7084937500000001,1.0,2665.621118391696,0.4937045340696808,1.2930040134357483,0.9796194697228556,0.2848097375,0.7262393115769892
0.061,1.7069750000000001,1.0,2663.392718824923,0.4965444362233022,1.292338627196469,0.9798108931149561,0.28474595,0.7274812724773085
0.0615,1.7054437500000001,1.0,2661.171051037382,0.4993684247497813,1.2916675424040456,0.9799977177890462,0.2846816375,0.7287310099106642
0.062,1.7039,1.0,2658.9564320296845,0.5021765845673608,1.2909907560722171,0.9801800776032616,0.2846168,0.7299884562516563
0.0625,1.70234375,1.0,2656.749178282303,0.5049690005942834,1.290308265214723,0.9803581013764937,0.2845514375,0.7312535432015881
0.063,1.7007750000000001,1.0,2654.549605760309,0.5077457577487916,1.289620066845302,0.9805319131140559,0.28448555,0.7325262017873815
0.0635,1.69919375,1.0,2652.3580299169453,0.5105069409491282,1.2889261579776934,0.9807016322216159,0.28441913750000003,0.7338063623604878
0.064,1.6976,1.0,2650.1747656976963,0.5132526351135357,1.288226535625636,0.9808673737080839,0.2843522,0.7350939545958036
0.0645,1.69599375,1.0,2648.0001275452287,0.5159829251602569,1.2875211968028692,0.9810292483781058,0.2842847375,0.7363889074905795
0.065,1.694375,1.0,2645.834429403527,0.5186978960075344,1.286810138523132,0.9811873630147652,0.28421675,0.7376911493633348
0.0655,1.69274375,1.0,2643.6779847230405,0.5213976325736108,1.2860933578001637,0.981341820553055,0.2841482375,0.7390006078527664
0.066,1.6911,1.0,2641.5311064654074,0.5240822197767288,1.285370851647703,0.9814927202446567,0.2840792,0.7403172099166605
0.0665,1.6894437500000001,1.0,2639.394107109092,0.5267517425351311,1.2846426170794893,0.9816401578145093,0.2840096375,0.741640881830801
0.067,1.687775,1.0,2637.2672986541847,0.5294062857670603,1.2839086511092614,0.9817842256096434,0.28393955,0.7429715491878817
0.0675,1.68609375,1.0,2635.150992628689,0.5320459343907591,1.2831689507507589,0.981925012740707,0.2838689375,0.7443091368964104
0.068,1.6844000000000001,1.0,2633.0455000939464,0.53467077332447,1.2824235130177202,0.9820626052165926,0.2837978,0.7456535691796227
0.0685,1.68269375,1.0,2630.9511316504463,0.5372808874864359,1.281672334923885,0.9821970860725476,0.2837261375,0.7470047695743838
0.069,1.680975,1.0,2628.8681974446777,0.5398763617948992,1.280915413482992,0.9823285354921265,0.28365395,0.7483626609301007
0.0695,1.67924375,1.0,2626.79700717482,0.5424572811681028,1.2801527457087805,0.982457030923317,0.28358123749999997,0.7497271654076256
0.07,1.6775,1.0,2624.738191151465,0.5450237226708537,1.2793843256390651,0.9825826465595383,0.283508,0.7510982097806277
0.07050000000000001,1.67574375,1.0,2622.694115820178,0.5475757241254918,1.278610131204053,0.9827054509304215,0.2834342375,0.7524757486940701
0.07100000000000001,1.673975,1.0,2620.6619963205953,0.5501134351189558,1.2778301880862806,0.9828255193244811,0.28335995,0.7538596511095088
0.07150000000000001,1.67219375,1.0,2618.6417430875863,0.5526369309667302,1.2770444969964827,0.9829429188618573,0.2832851375,0.7552498299871362
0.07200000000000001,1.6704,1.0,2616.633266744803,0.555146286984299,1.2762530586453944,0.9830577144538629,0.2832098,0.75664619766921
0.0725,1.66859375,1.0,2614.6364781030625,0.5576415784871465,1.2754558737437502,0.9831699688887957,0.2831339375,0.758048665880316
0.073,1.6667750000000001,1.0,2612.6512881587796,0.5601228807907569,1.2746529430022848,0.9832797429138601,0.28305755,0.7594571457276266
0.0735,1.66494375,1.0,2610.6776080922427,0.5625902692106143,1.2738442671317332,0.9833870953134014,0.2829806375,0.7608715477011606
0.074,1.6631,1.0,2608.7153492661323,0.565043819062203,1.27302984684283,0.98349208298364,0.2829032,0.7622917816740458
0.0745,1.6612437500000001,1.0,2606.764423224045,0.5674836056610071,1.27220968284631,0.983594761004082,0.2828252375,0.7637177569027783
0.075,1.659375,1.0,2604.8247416888407,0.5699097043225109,1.271383775852908,0.9836951827057773,0.28274675,0.7651493820274826
0.0755,1.65749375,1.0,2602.8962165610296,0.5723221903621986,1.2705521265733586,0.983793399736579,0.2826677375,0.7665865650721727
