Time [s],Phi [rad],STIM [ ],Fsee [N],Gamma [ ],Lcerel [ ],q [ ],Lmtc [m],fisomrel [ ]
0.0,1.8,1.0,17.99038149698004,0.00015653611050647412,1.3793371452703609,0.005006390319476457,0.288653,0.5411458233996592
0.0005,1.79999375,1.0,18.3479085787183,0.005764867375547749,1.3792944904862612,0.01335233322735917,0.2886527375,0.5412490098430087
0.001,1.799975,1.0,21.798427839975904,0.011341740336416162,1.3789199511652617,0.036376256515094664,0.28865195,0.5421545618906751
0.0015,1.79994375,1.0,31.48326831198953,0.01688733145028005,1.3780110463383168,0.07164989549335328,0.2886506375,0.5443483700453153
0.002,1.7999,1.0,54.462466991493685,0.022401816182493157,1.376311269224134,0.11595753520711596,0.2886488,0.5484369536190096
0.0025,1.79984375,1.0,98.5878640048361,0.027885369015056477,1.3738646488517028,0.16592230638851138,0.28864643749999996,0.5542896184279114
0.003,1.7997750000000001,1.0,162.86280891859772,0.03333816345304505,1.3711432608551202,0.21866985060905175,0.28864354999999997,0.560754719138483
0.0035,1.79969375,1.0,239.83165126979273,0.0387603720252757,1.3685187091602178,0.2719943441740352,0.2886401375,0.56694502869543
0.004,1.7996,1.0,323.7501925386759,0.04415216629475305,1.36609572030822,0.32425310891214754,0.2886362,0.5726209297576708
0.0045000000000000005,1.7994937500000001,1.0,411.6308170723163,0.04951371686395931,1.363867423833036,0.37430374193055993,0.2886317375,0.5778077100545593
0.005,1.799375,1.0,501.8235950639417,0.05484519336666132,1.3618071897547106,0.42143477462975193,0.28862675,0.5825751193934912
0.0055,1.79924375,1.0,593.2207995155144,0.06014676450768145,1.359891399994428,0.4652728714822318,0.2886212375,0.5869839930167431
0.006,1.7991000000000001,1.0,684.9496390585784,0.06541859802496186,1.3581022552863597,0.5056900439530059,0.2886152,0.5910802766544095
0.006500000000000001,1.79894375,1.0,776.2976307505451,0.07066086071674176,1.3564260366955707,0.5427242796676146,0.2886086375,0.5948994909613765
0.007,1.798775,1.0,866.6719253310448,0.07587371848357062,1.354851878173263,0.5765183831917274,0.28860155,0.5984698487146292
0.0075,1.79859375,1.0,955.5816348162695,0.08105733611223159,1.3533708339150607,0.6072754145724143,0.2885939375,0.6018145846242811
0.008,1.7984,1.0,1042.6540653114162,0.0862118779926145,1.3519748667256797,0.635227548501328,0.2885858,0.6049543788056124
0.0085,1.79819375,1.0,1127.5623342721422,0.09133750686093456,1.3506574324511338,0.6606161721454243,0.2885771375,0.6079061386057989
0.009000000000000001,1.797975,1.0,1210.0621008970131,0.09643438482648779,1.3494125081854027,0.6836784831489081,0.28856795,0.610685265062455
0.0095,1.79774375,1.0,1289.9901433625037,0.10150267357357137,1.348234373774459,0.7046397863187985,0.2885582375,0.6133061891642548
0.01,1.7975,1.0,1367.2101324573803,0.10654253322191126,1.3471181359547288,0.7237097107534318,0.288548,0.6157812490156709
0.0105,1.79724375,1.0,1441.63088616264,0.11155412304798432,1.346059281407424,0.7410801872659897,0.2885372375,0.6181217275248003
0.011,1.796975,1.0,1513.2146689362444,0.11653760172839134,1.345053443722153,0.7569250343488996,0.28852595000000003,0.620338395967739
0.0115,1.79669375,1.0,1581.952781469674,0.12149312760100818,1.344096606092261,0.7714006489204537,0.2885141375,0.6224410895273832
0.012,1.7964,1.0,1647.8285608315532,0.12642085660387328,1.3431854348494798,0.7846472164930617,0.28850180000000003,0.6244380016172623
0.0125,1.79609375,1.0,1710.8666563187558,0.13132094467502511,1.3423165963255412,0.7967897130765228,0.2884889375,0.6263372062503076
0.013000000000000001,1.7957750000000001,1.0,1771.1064067977336,0.1361935467124321,1.341487015857516,0.8079394369282016,0.28847555,0.6281461033186497
0.0135,1.79544375,1.0,1828.6313139332826,0.14103881840942306,1.340693491932542,0.8181952562232707,0.2884616375,0.6298722721773309
0.014,1.7951000000000001,1.0,1883.4823254524558,0.1458569119622326,1.3399336220194908,0.8276452990156542,0.2884472,0.6315214688160393
0.0145,1.79474375,1.0,1935.717514079354,0.15064797926174556,1.3392050733355632,0.8363678838765323,0.2884322375,0.6330992290287476
0.015,1.794375,1.0,1985.4161803785073,0.15541217219884673,1.3385055130979582,0.844432626546049,0.28841675,0.6346110255175003
0.0155,1.79399375,1.0,2032.6573289729654,0.16014964147449676,1.3378328157317523,0.8519015258825113,0.2884007375,0.6360618259399105
0.016,1.7936,1.0,2077.5454033014557,0.1648605384197891,1.3371847654562432,0.8588297673433938,0.2883842,0.6374567408935532
0.0165,1.7931937500000001,1.0,2120.1482582975405,0.1695450109830564,1.336559685271928,0.8652667189147877,0.2883671375,0.6387996755410104
0.017,1.792775,1.0,2160.5410628460886,0.17420320680451817,1.335955948439268,0.8712564708213251,0.28834955,0.6400943900136221
0.0175,1.7923437500000001,1.0,2198.8100129048553,0.17883527352439382,1.3353719282187253,0.8768384446035407,0.2883314375,0.641344610213183
0.018000000000000002,1.7919,1.0,2235.0365032696377,0.1834413574758263,1.33480614738031,0.8820479813446004,0.2883128,0.6425537107026602
0.0185,1.79144375,1.0,2269.3221761537957,0.18802160628703463,1.3342570140051844,0.8869167492131685,0.2882936375,0.6437252824883226
0.019,1.790975,1.0,2301.7383490077577,0.192576163824817,1.3337233186121258,0.8914732913098093,0.28827395,0.6448620746636148
0.0195,1.79049375,1.0,2332.3563820884156,0.19710517334671857,1.3332039154775832,0.8957433040652514,0.2882537375,0.6459666795612486
0.02,1.79,1.0,2361.253453078881,0.20160877811028471,1.3326976588780062,0.8997499450846476,0.288233,0.6470416702075696
0.0205,1.78949375,1.0,2388.5079935500676,0.20608712074368984,1.3322034426531284,0.9035141266977195,0.2882117375,0.648089517504495
0.021,1.788975,1.0,2414.1980308928996,0.21054034358524976,1.3317202107024821,0.9070547672904066,0.28818995000000003,0.6491125695519797
0.021500000000000002,1.78844375,1.0,2438.402325386721,0.21496858899048926,1.331246940763712,0.9103890060928647,0.2881676375,0.6501130874830418
0.022,1.7879,1.0,2461.1787697425775,0.21937199549436964,1.3307828467833571,0.913532434641307,0.2881448,0.6510928197509506
0.0225,1.78734375,1.0,2482.5882942091707,0.22375070163185226,1.3303271427079562,0.9164992153390221,0.28812143749999997,0.6520535037959106
0.023,1.786775,1.0,2502.6946151199627,0.22810484593789837,1.3298790424840476,0.9193022322319019,0.28809755,0.6529968664853568
0.0235,1.78619375,1.0,2521.563997139766,0.23243456694746928,1.3294377600581704,0.9219532240967624,0.28807313749999996,0.6539246245148449
0.024,1.7856,1.0,2539.2516053683253,0.23673999986425473,1.3290026358827662,0.9244629233592756,0.2880482,0.6548382193309692
0.0245,1.78499375,1.0,2555.8341756965133,0.24102128570519743,1.3285728260002214,0.9268411070103487,0.2880227375,0.6557394707086359
0.025,1.784375,1.0,2571.3566053761683,0.24527855785966216,1.3281478034363217,0.9290967728015466,0.28799675,0.6566295251910625
0.025500000000000002,1.78374375,1.0,2585.8649451931824,0.24951194965028767,1.3277270437923283,0.9312381652710165,0.2879702375,0.657509517752364
0.026000000000000002,1.7831000000000001,1.0,2599.4065535567024,0.2537215943997128,1.3273100226695034,0.9332728486527728,0.2879432,0.6583805773599782
0.0265,1.78244375,1.0,2612.029984349024,0.2579076254305764,1.3268962156691086,0.9352077721979862,0.2879156375,0.6592438271084682
0.027,1.781775,1.0,2623.784880873089,0.26207017606551714,1.3264850983924055,0.9370493284275161,0.28788755,0.6601003843357822
0.0275,1.7810937500000001,1.0,2634.711586076395,0.2662093756344294,1.3260762416387362,0.9388034178537008,0.2878589375,0.660951162751137
0.028,1.7804,1.0,2644.8662594717293,0.27032536073694297,1.3256690776967448,0.9404754641889899,0.2878298,0.6617973591586468
0.0285,1.77969375,1.0,2654.285322280946,0.27441826058701957,1.3252632286264963,0.9420704995178746,0.2878001375,0.6626397707380983
0.029,1.778975,1.0,2663.001703942321,0.2784882027749412,1.3248583543765557,0.9435931797395988,0.28776995,0.6634791122186101
0.029500000000000002,1.7782437500000001,1.0,2671.0488777262376,0.28253531489099,1.324454114895489,0.9450478131989923,0.2877392375,0.6643160947939569
0.03,1.7775,1.0,2678.460812106106,0.28655972452544787,1.3240501701318608,0.9464383910800186,0.287708,0.6651514261400259
0.0305,1.77674375,1.0,2685.2719246931574,0.290561559268597,1.3236461800342367,0.9477686147802722,0.2876762375,0.665985810424893
0.031,1.775975,1.0,2691.5170387348394,0.2945409467107194,1.3232418045511822,0.9490419205991262,0.28764395,0.6668199483115285
0.0315,1.7751937500000001,1.0,2697.2274859121585,0.2984980128459655,1.322836738892315,0.950261505930687,0.2876111375,0.6676544643538751
0.032,1.7744,1.0,2702.4350306792617,0.30243288433928495,1.3224306771587355,0.9514303452757918,0.2875778,0.6684899822288242
0.0325,1.77359375,1.0,2707.166303879631,0.30634568538382473,1.3220233628562401,0.9525512136106525,0.2875439375,0.6693270209654283
0.033,1.772775,1.0,2711.4444870110683,0.31023653851265753,1.3216145730616289,0.9536267008334108,0.28750955,0.6701660280433233
0.0335,1.7719437500000002,1.0,2715.2929586128835,0.31410556625885605,1.321204084851702,0.95465922312101,0.2874746375,0.6710074485796578
0.034,1.7711000000000001,1.0,2718.7352742079274,0.317952891155493,1.3207916753032594,0.9556510366511389,0.2874392,0.6718517253065314
0.0345,1.7702437500000001,1.0,2721.7954219892913,0.32177863498967574,1.320377118993172,0.9566042496195477,0.2874032375,0.6726993036531728
0.035,1.7693750000000001,1.0,2724.50519710995,0.3255829133707649,1.3199601207511764,0.9575208250778103,0.28736675,0.6735507689059076
0.035500000000000004,1.7684999454387986,1.0,2727.165702535308,0.3293658595455033,1.319540735580564,0.9584026423250989,0.28732999770842954,0.6744059894918116
0.036000000000000004,1.7676248907579977,1.0,2730.071137793116,0.3331275900904849,1.319119136020265,0.9592514699885649,0.2872932454118359,0.6752645951073968
0.0365,1.7667498360771967,1.0,2733.202902989482,0.3368682215823035,1.3186954946092104,0.9600689661897381,0.28725649311524226,0.6761262172059654
0.037,1.765874781396396,1.0,2736.542378110817,0.34058787059755297,1.3182699838863308,0.9608566866992165,0.28721974081864865,0.6769904890210292
0.0375,1.764999726715595,1.0,2740.070921479658,0.34428665371282713,1.3178427763905567,0.9616160924030083,0.287182988522055,0.6778570455878271
0.038,1.764124672034794,1.0,2743.7698629341876,0.3479646875047198,1.317414044660819,0.9623485561455353,0.2871462362254613,0.6787255237629454
0.0385,1.763249617353993,1.0,2747.6204976668128,0.35162208854982485,1.3169839612360479,0.9630553690075557,0.2871094839288677,0.6795955622420399
0.039,1.7623745626731921,1.0,2751.604080723503,0.3552589734247361,1.3165526986551743,0.9637377460712697,0.2870727316322741,0.6804668015756581
0.0395,1.7614995079923912,1.0,2755.701822162968,0.35887545870604737,1.316120429457129,0.9643968317195436,0.2870359793356804,0.6813388841831645
0.04,1.7606244533115902,1.0,2759.916610480592,0.3624716379015641,1.3156871297760393,0.9650336826457298,0.28699922703908676,0.682211849788795
0.0405,1.7597493986307893,1.0,2764.217641474258,0.36604764728008304,1.3152530802053823,0.9656493303661866,0.28696247474249315,0.6830851257047792
0.041,1.7588743439499883,1.0,2768.583026960444,0.3696036134894707,1.3148184800403033,0.9662447393878669,0.28692572244589953,0.683958305564774
0.0415,1.7579992892691874,1.0,2773.0077452016635,0.37313964431804897,1.314383375868681,0.9668208042411249,0.28688897014930587,0.6848312913820527
0.042,1.7571242345883864,1.0,2777.4867597662396,0.3766558475541397,1.3139478142783938,0.9673783704361419,0.2868522178527122,0.6857039856818212
0.0425,1.7562491799075854,1.0,2782.015019031368,0.3801523309860647,1.3135118418573208,0.9679182376534121,0.2868154655561186,0.6865762915026475
0.043000000000000003,1.7553741252267845,1.0,2786.5874557348966,0.3836292024021459,1.3130755051933407,0.9684411626954081,0.286778713259525,0.6874481123977503
0.043500000000000004,1.7544990705459835,1.0,2791.1989865748656,0.387086569590705,1.3126388508743325,0.9689478622195354,0.2867419609629313,0.6883193524361508
0.044,1.7536240158651826,1.0,2795.8445118577297,0.39052454034006384,1.3122019254881745,0.9694390152706116,0.28670520866633764,0.6891899162036874
0.0445,1.7527489611843818,1.0,2800.5189151939103,0.39394322243854435,1.3117647756227457,0.9699152656294298,0.28666845636974403,0.6900597088038871
0.045,1.7518739065035809,1.0,2805.217063241927,0.3973427236744684,1.3113274478659251,0.9703772239924416,0.2866317040731504,0.6909286358587043
0.0455,1.75099885182278,1.0,2809.9338055006574,0.4007231518361577,1.3108899888055914,0.9708254699962424,0.28659495177655675,0.6917966035091176
0.046,1.750123797141979,1.0,2814.66397414985,0.4040846147119342,1.3104524450296229,0.9712605540993098,0.2865581994799631,0.6926635184155898
0.0465,1.749248742461178,1.0,2819.4023839381252,0.40742722009011967,1.310014863125899,0.9716829993323369,0.28652144718336947,0.693529287758387
0.047,1.748373687780377,1.0,2824.143832119928,0.4107510757590359,1.3095772896822981,0.9720933029275111,0.28648469488677586,0.694393819237763
0.0475,1.747498633099576,1.0,2828.883098439845,0.4140562895070049,1.309139771286699,0.9724919378361745,0.2864479425901822,0.6952570210740032
0.048,1.7466235784187751,1.0,2833.616160019181,0.41734296561679374,1.3087023436891896,0.97287935293963,0.2864111902935885,0.6961188233443925
0.0485,1.7457485237379742,1.0,2838.343280888034,0.42061120596510804,1.308265004308903,0.9732559726928162,0.2863744379969949,0.6969792318827551
0.049,1.7448734690571732,1.0,2843.06178015004,0.4238611195157052,1.307827776802239,0.9736222041240076,0.2863376857004013,0.6978382009853026
0.0495,1.7439984143763723,1.0,2847.7705216872014,0.4270928064783517,1.307390671000971,0.9739784331828809,0.28630093340380763,0.6986957123136888
0.05,1.7431233596955713,1.0,2852.4683658198273,0.4303063670628139,1.3069536967368725,0.9743250279135536,0.28626418110721397,0.699551747638929
0.0505,1.7422483050147703,1.0,2857.1541693341637,0.4335019014788583,1.3065168638417164,0.9746623394467868,0.28622742881062035,0.7004062888413224
0.051000000000000004,1.7413732503339694,1.0,2861.826785511873,0.4366795099362514,1.3060801821472765,0.9749907029286529,0.28619067651402674,0.7012593179103637
0.051500000000000004,1.7404981956531684,1.0,2866.4850641621883,0.43983929264475957,1.305643661485326,0.9753104383902619,0.2861539242174331,0.7021108169446539
0.052000000000000005,1.7396231409723675,1.0,2871.1278516559805,0.44298134981414933,1.3052073116876381,0.9756218515627804,0.2861171719208394,0.7029607681518013
0.0525,1.7387480862915665,1.0,2875.7539909618304,0.4461057816541871,1.3047711425859863,0.9759252346416277,0.2860804196242458,0.7038091538483178
0.053,1.7378730316107658,1.0,2880.3623216841775,0.4492126883746394,1.304335164012144,0.9762208670034417,0.2860436673276522,0.7046559564595068
0.0535,1.7369979769299648,1.0,2884.953814779088,0.4523021409085286,1.3038993669245,0.9765090117635816,0.2860069150310585,0.7055011950984952
0.054,1.7361229222491639,1.0,2889.5261547037294,0.4553742645548732,1.3034637713462496,0.9767899279478425,0.28597016273446485,0.7063448325265025
0.0545,1.735247867568363,1.0,2894.0777965424645,0.4584291738586357,1.303028390436853,0.9770638619837606,0.28593341043787124,0.7071868449912316
0.055,1.734372812887562,1.0,2898.608756929397,0.46146696075844096,1.302593223543357,0.9773310468462421,0.2858966581412776,0.7080272355409437
0.0555,1.733497758206761,1.0,2903.1190530354265,0.4644877171929141,1.3021582700128087,0.9775917057608986,0.28585990584468396,0.7088660072157735
0.056,1.73262270352596,1.0,2907.6087025651564,0.4674915351006799,1.301723529192255,0.9778460526927194,0.2858231535480903,0.7097031630477373
0.0565,1.731747648845159,1.0,2912.077723754046,0.47047850642036343,1.3012890004287434,0.9780942928063716,0.2857864012514967,0.710538706060742
0.057,1.7308725941643581,1.0,2916.526135364759,0.47344872309058955,1.3008546830693202,0.9783366228999963,0.28574964895490307,0.7113726392705961
0.0575,1.7299975394835572,1.0,2920.953956684574,0.4764022770499833,1.3004205764610328,0.9785732318142286,0.2857128966583094,0.7122049656850151
0.058,1.7291224848027562,1.0,2925.3612075222613,0.4793392602371695,1.299986679950928,0.9788043008180465,0.28567614436171573,0.7130356883036335
0.0585,1.7282474301219553,1.0,2929.747908204934,0.48225976459077313,1.2995529928860532,0.9790300039729334,0.2856393920651221,0.7138648101180107
0.059000000000000004,1.7273723754411543,1.0,2934.1140795749757,0.4851638820494192,1.2991195146134549,0.9792505084767398,0.2856026397685285,0.7146923341116427
0.059500000000000004,1.7264973207603533,1.0,2938.4597429870846,0.4880517045517326,1.2986862444801803,0.9794659749885234,0.28556588747193484,0.7155182632599679
0.06,1.7256222660795524,1.0,2942.7849203053884,0.4909233240363382,1.2982531818332763,0.9796765579355639,0.2855291351753412,0.7163426005303782
0.0605,1.7247472113987516,1.0,2947.089633900165,0.4937788324418611,1.2978203260197902,0.97988240580366,0.28549238287874756,0.7171653488822254
0.061,1.7238721567179507,1.0,2951.3739066451167,0.49661832170692616,1.2973876763867687,0.9800836614117402,0.28545563058215395,0.7179865112668322
0.0615,1.7229971020371497,1.0,2955.637761913969,0.49944188377015836,1.2969552322812588,0.9802804621717516,0.2854188782855603,0.7188060906274989
0.062,1.7221220473563488,1.0,2959.881223578038,0.5022496105701826,1.2965229930503077,0.9804729403347209,0.2853821259889666,0.7196240898995127
0.0625,1.7212469926755478,1.0,2964.104323394763,0.5050415826592033,1.2960909579764874,0.9806612223688507,0.285345373692373,0.7204405121319067
0.063,1.7203719379947469,1.0,2968.3074364614927,0.507817852830936,1.2956591233541757,0.980845427889104,0.2853086213957794,0.7212553659994909
0.0635,1.719496883313946,1.0,2972.4909231647257,0.5105785752367917,1.2952274856187314,0.9810256795522816,0.2852718690991857,0.7220686598700312
0.064,1.718621828633145,1.0,2976.655008836368,0.5133238319616238,1.2947960423933438,0.9812020903530978,0.28523511680259206,0.72288039983808
0.0645,1.717746773952344,1.0,2980.799919826169,0.5160537050902853,1.2943647913012029,0.9813747692205503,0.28519836450599845,0.7236905919712988
0.065,1.716871719271543,1.0,2984.925883491604,0.5187682767076295,1.2939337299654978,0.9815438211938995,0.28516161220940484,0.7244992423104905
0.0655,1.715996664590742,1.0,2989.0331281878775,0.5214676288985096,1.2935028560094182,0.981709347589807,0.28512485991281117,0.7253063568696261
0.066,1.7151216099099411,1.0,2993.1218832581594,0.5241518437477789,1.2930721670561536,0.9818714461611296,0.2850881076162175,0.7261119416358738
0.0665,1.7142465552291402,1.0,2997.192379023534,0.5268210033402906,1.2926416607288935,0.9820302112478502,0.2850513553196239,0.7269160025696275
0.067,1.7133715005483392,1.0,3001.244846773209,0.5294751897608978,1.2922113346508277,0.9821857339205811,0.2850146030230303,0.7277185456045344
0.0675,1.7124964458675382,1.0,3005.2795187552965,0.5321144850944539,1.2917811864451454,0.9823381021170605,0.2849778507264366,0.7285195766475233
0.068,1.7116213911867373,1.0,3009.29662816714,0.534738971425812,1.2913512137350365,0.982487400772027,0.28494109842984294,0.7293191015788301
0.0685,1.7107463365059363,1.0,3013.296409146276,0.5373487308398253,1.29092141414369,0.9826337119408396,0.28490434613324933,0.7301171262520268
0.069,1.7098712818251354,1.0,3017.279096760594,0.539943845421347,1.2904917852942959,0.9827771149171838,0.28486759383665566,0.7309136564940457
0.0695,1.7089962271443346,1.0,3021.244927000278,0.5425243972552304,1.2900623248100433,0.9829176863451865,0.28483084154006205,0.731708698105207
0.07,1.7081211724635337,1.0,3025.194136767765,0.5450904684263288,1.2896330303141224,0.9830555003262427,0.2847940892434684,0.7325022568592433
0.07050000000000001,1.7072461177827327,1.0,3029.126963870008,0.5476421410194952,1.289203899429722,0.9831906285208346,0.2847573369468748,0.7332943385033268
0.07100000000000001,1.7063710631019318,1.0,3033.04364700889,0.5501794971195829,1.288774929780032,0.9833231402456127,0.28472058465028116,0.7340849487580919
0.07150000000000001,1.7054960084211308,1.0,3036.9444257731175,0.5527026188114452,1.288346118988242,0.9834531025659882,0.2846838323536875,0.7348740933176614
