Time [s],Phi [rad],STIM [ ],Fsee [N],Gamma [ ],Lcerel [ ],q [ ],Lmtc [m],fisomrel [ ]
0.0,1.8,1.0,17.97545653219611,9.669713501798906e-05,1.3793388166326856,0.005002447795446865,0.288653,0.5411417799608218
0.0005,1.79999375,1.0,18.31356512092861,0.005705364049379708,1.3792982997538645,0.013182955836747681,0.2886527375,0.5412397952928174
0.001,1.799975,1.0,21.71967147304929,0.011282570776854392,1.3789279689292453,0.03606178078648304,0.28865195,0.5421351861070055
0.0015,1.79994375,1.0,31.308358141884934,0.01682849378514409,1.3780258703924775,0.07122115949652164,0.2886506375,0.5443126317411027
0.002,1.7999,1.0,54.09629468755192,0.02234330855018169,1.3763348716175865,0.1154508885605937,0.2886488,0.5483803074125468
0.0025,1.79984375,1.0,97.98126440922302,0.027827189564264432,1.3738937056228795,0.16537181888383984,0.28864643749999996,0.5542203344884935
0.003,1.7997750000000001,1.0,162.07924933188508,0.03328031034298163,1.3711724533865548,0.21810238756577657,0.28864354999999997,0.5606856181345848
0.0035,1.79969375,1.0,238.94948679836713,0.03870284342544805,1.3685457851041878,0.27143024931469395,0.2886401375,0.5668813912051589
0.004,1.7996,1.0,322.813525660571,0.04409496038490053,1.3661204592995133,0.3237071305499966,0.2886362,0.5725631673543158
0.0045000000000000005,1.7994937500000001,1.0,410.6621405667499,0.04945683183393784,1.3638901103556402,0.373785617714168,0.2886317375,0.5777550624533163
0.005,1.799375,1.0,500.8361423771509,0.05478862741608916,1.3618281329014885,0.4209501338505428,0.28862675,0.5825267928604043
0.0055,1.79924375,1.0,592.2253503426576,0.060090515848534545,1.3599108169255036,0.46482423668902606,0.2886212375,0.5869394255740326
0.006,1.7991000000000001,1.0,683.9542977410403,0.06536266487643734,1.35812032236566,0.5052777868059727,0.2886152,0.5910390137395275
0.006500000000000001,1.79894375,1.0,775.3092923323925,0.07060524131810962,1.3564428873674088,0.5423473570035399,0.2886086375,0.5948611863685738
0.007,1.798775,1.0,865.6987185729894,0.07581841104588298,1.3548675813349071,0.5761748738574674,0.28860155,0.5984343103237024
0.0075,1.79859375,1.0,954.635274594599,0.08100233902874097,1.3533853756935192,0.6069629025471318,0.2885939375,0.60178181200877
0.008,1.7984,1.0,1041.7223641728706,0.0861571892496247,1.351988572101097,0.6349436419356655,0.2885858,0.6049236132341547
0.0085,1.79819375,1.0,1126.6522792468327,0.09128312486322357,1.3506703052328943,0.6603582719641153,0.2885771375,0.6078773502164182
0.009000000000000001,1.797975,1.0,1209.182161473055,0.09638030800587798,1.3494245229509094,0.6834440720038871,0.28856795,0.6106584909455657
0.0095,1.79774375,1.0,1289.1349607049049,0.10144890000637301,1.3482456827968168,0.704426600738284,0.2885582375,0.6132810727467439
0.01,1.7975,1.0,1366.3710246695684,0.10648906092770374,1.3471289143510057,0.7235156769054619,0.288548,0.6157573878236358
0.0105,1.79724375,1.0,1440.8292546703374,0.11150095108602297,1.3460693089726377,0.740903223958319,0.2885372375,0.6180995962602074
0.011,1.796975,1.0,1512.4452252847525,0.1164847284039148,1.3450628381242717,0.756763426469513,0.28852595000000003,0.6203177224031334
0.0115,1.79669375,1.0,1581.1950375124588,0.12144055033510419,1.3441056543532068,0.7712529338936558,0.2885141375,0.6224212329150234
0.012,1.7964,1.0,1647.0872663882649,0.12636857378360541,1.3431941078817258,0.7845119506993704,0.28850180000000003,0.6244190188624565
0.0125,1.79609375,1.0,1710.163897850075,0.13126895560570506,1.342324665516431,0.7966655290382788,0.2884889375,0.6263195898567082
0.013000000000000001,1.7957750000000001,1.0,1770.451632324941,0.13614185017806663,1.3414944050492479,0.8078251801229958,0.28847555,0.6281300105869267
0.0135,1.79544375,1.0,1827.9932468346542,0.14098741124210767,1.3407005783795318,0.8180900732497334,0.2884616375,0.6298568746551418
0.014,1.7951000000000001,1.0,1882.85553612666,0.14580579223005485,1.3399404810752154,0.8275483211120007,0.2884472,0.6315065986171913
0.0145,1.79474375,1.0,1935.118935243669,0.15059714626587378,1.3392115346566522,0.8362782532009939,0.2884322375,0.6330852511348177
0.015,1.794375,1.0,1984.8573406519797,0.15536162517667598,1.3385114694373352,0.8443496020388188,0.28841675,0.6345981666434186
0.0155,1.79399375,1.0,2032.136516223575,0.16009937878453642,1.3378383018444115,0.8518244936347275,0.2884007375,0.6360500057617484
0.016,1.7936,1.0,2077.0383780796997,0.1648105569115299,1.337190048305028,0.8587582518189254,0.2883842,0.6374453804976175
0.0165,1.7931937500000001,1.0,2119.647959065016,0.16949530836702364,1.3365648453909822,0.865200239961853,0.2883671375,0.6387885996394906
0.017,1.792775,1.0,2160.065204790375,0.1741537831213401,1.3359608103553295,0.8711945271411088,0.28834955,0.6400839729125967
0.0175,1.7923437500000001,1.0,2198.369636311003,0.17878612833521196,1.3353763882663872,0.876780607376018,0.2883314375,0.6413350707697498
0.018000000000000002,1.7919,1.0,2234.631930645247,0.18339248938401412,1.334810211450642,0.8819938951169046,0.2883128,0.6425450328710984
0.0185,1.79144375,1.0,2268.9311467795224,0.1879730116431215,1.3342609122345805,0.8868661515333903,0.2882936375,0.6437169724238075
0.019,1.790975,1.0,2301.354021965649,0.19252784048790908,1.3337271229446899,0.8914259076054688,0.28827395,0.6448539777138389
0.0195,1.79049375,1.0,2331.9792676137404,0.19705711954014535,1.3332076238272759,0.8956988692492799,0.2882537375,0.6459587991816984
0.02,1.79,1.0,2360.900836989365,0.20156099462500304,1.3327011050298914,0.8997081834718739,0.288233,0.6470343581374018
0.0205,1.78949375,1.0,2388.1861523573293,0.20603960724967238,1.3322065700304908,0.9034748133151086,0.2882117375,0.648082891672757
0.021,1.788975,1.0,2413.8998182748746,0.21049309794142568,1.3317230930103017,0.9070177259580994,0.28818995000000003,0.6491064718229552
0.021500000000000002,1.78844375,1.0,2438.1104116278816,0.2149216072275352,1.3312497481505523,0.9103540964582423,0.2881676375,0.6501071567289403
0.022,1.7879,1.0,2460.8901482710917,0.2193252756352733,1.33078560963247,0.9134995017950879,0.2881448,0.651086991262995
0.0225,1.78734375,1.0,2482.30631211408,0.22370424192970317,1.3303298303343174,0.9164681063168908,0.28812143749999997,0.6520478418089959
0.023,1.786775,1.0,2502.4313981823225,0.2280586471259378,1.3298815411528828,0.9192727931661638,0.28809755,0.65299160971492
0.0235,1.78619375,1.0,2521.3254407649542,0.2323886291044476,1.3294400161339293,0.9219253255845943,0.28807313749999996,0.6539198844696315
0.024,1.7856,1.0,2539.0403757092804,0.23669432326497508,1.3290046265489561,0.9244364529838442,0.2880482,0.6548340424406311
0.0245,1.78499375,1.0,2555.63002823299,0.24097586500726265,1.328574743669463,0.9268159971905071,0.2880227375,0.6557354522402636
0.025,1.784375,1.0,2571.1499530868264,0.24523338973105266,1.3281497387669496,0.9290729452159092,0.28799675,0.6566254749591286
0.025500000000000002,1.78374375,1.0,2585.6572834813874,0.24946703283608757,1.3277289831129153,0.9312155316192288,0.2879702375,0.6575054643742808
0.026000000000000002,1.7831000000000001,1.0,2599.2021319817545,0.2536769289459224,1.3273119267510403,0.9332513242801426,0.2879432,0.6583766026993676
0.0265,1.78244375,1.0,2611.8365872995482,0.2578632115275914,1.3268980127026457,0.9351872740892921,0.2879156375,0.6592400806475156
0.027,1.781775,1.0,2623.604178473685,0.26202601235972306,1.3264867737004062,0.9370297883006581,0.28788755,0.6600968960417721
0.0275,1.7810937500000001,1.0,2634.5445963675957,0.26616546281319164,1.3260777865994005,0.9387847745695029,0.2878589375,0.6609479498929716
0.028,1.78040327183628,1.0,2644.857588119477,0.2702816940138048,1.3256706353707561,0.9404576814189607,0.28782993741712376,0.6617941239069133
0.0285,1.7797123159452466,1.0,2654.9842533067126,0.27437483677473756,1.3252651712678862,0.9420535774207635,0.28780091726970036,0.6626357409441093
0.029,1.7790213600542133,1.0,2664.943190532006,0.27844502051929754,1.3248614280716728,0.9435771717684812,0.28777189712227697,0.6634727441046981
0.029500000000000002,1.7783304041631798,1.0,2674.732484423135,0.2824923734390917,1.3244594137315355,0.9450328169274321,0.28774287697485357,0.6643051302327432
0.03,1.7776394482721465,1.0,2684.3502330848355,0.2865170237257273,1.3240591361968947,0.9464245439576582,0.28771385682743017,0.665132896196819
0.0305,1.776948492381113,1.0,2693.80060038769,0.2905190831497137,1.32366054804359,0.9477560775129665,0.2876848366800068,0.6659561531891678
0.031,1.7762575364900797,1.0,2703.074311105622,0.29449870496827185,1.3232637251084216,0.9490309045132841,0.2876558165325833,0.6667747577456213
0.0315,1.7755665805990462,1.0,2712.1735103060178,0.29845601232165075,1.3228686387546413,0.9502522414095269,0.2876267963851599,0.6675887822344545
0.032,1.7748756247080129,1.0,2721.1009529780385,0.3023911267752642,1.3224752551696177,0.9514230788091741,0.2875977762377365,0.6683983093217154
0.0325,1.7741846688169793,1.0,2729.8594380452387,0.30630416989452613,1.3220835405407192,0.9525462011676112,0.2875687560903131,0.6692034212779174
0.033,1.773493712925946,1.0,2738.4518071019124,0.3101952632448504,1.3216934610553142,0.9536242035060661,0.28753973594288973,0.6700041999816744
0.0335,1.7728027570349125,1.0,2746.880943174228,0.31406452839165094,1.321304982900771,0.9546595065836235,0.28751071579546633,0.670800726923263
0.034,1.7721118011438792,1.0,2755.149769507301,0.31791208690034156,1.3209180722644587,0.9556543706826778,0.28748169564804293,0.6715930832081113
0.0345,1.7714208452528457,1.0,2763.2612483772564,0.32173806033633623,1.3205326953337455,0.9566109081491767,0.28745267550061954,0.6723813495602178
0.035,1.7707298893618124,1.0,2771.2183799289705,0.3255425702650488,1.320148818296,0.9575310948132302,0.28742365535319614,0.6731656063254936
0.035500000000000004,1.770038933470779,1.0,2779.024201038595,0.32932573825189315,1.3197664073385906,0.958416780401748,0.2873946352057727,0.6739459334750336
0.036000000000000004,1.7693479775797456,1.0,2786.6817842024266,0.33308768586228316,1.319385428648886,0.9592696980425578,0.28736561505834934,0.6747224106083143
0.0365,1.768657021688712,1.0,2794.1939373050386,0.3368285317422531,1.3190058511017035,0.9600914725599042,0.2873365949109259,0.6754951114887684
0.037,1.7679660657976788,1.0,2801.562263823006,0.3405483709841738,1.3186276546639242,0.9608836247915804,0.2873075747635025,0.6762640870005328
0.0375,1.7672751099066453,1.0,2808.795406068661,0.3442473621376566,1.3182507564517159,0.961647590853321,0.2872785546160791,0.6770295153632355
0.038,1.766584154015612,1.0,2815.896550401152,0.3479256172173344,1.3178751229384031,0.9623847153166321,0.2872495344686557,0.6777914739059154
0.0385,1.7658931981245785,1.0,2822.86891291596,0.35158324823784,1.3175007205973104,0.9630962630647377,0.2872205143212323,0.6785500396051934
0.039,1.7652022422335452,1.0,2829.7157385173905,0.3552203672138061,1.3171275159017624,0.9637834248860162,0.2871914941738089,0.6793052890879383
0.0395,1.7645112863425116,1.0,2836.44030001593,0.35883708615986576,1.3167554753250839,0.9644473226167714,0.2871624740263855,0.6800572986338654
0.04,1.7638203304514783,1.0,2843.0458972503143,0.3624335170906516,1.316384565340599,0.9650890138741054,0.2871334538789621,0.680806144178062
0.0405,1.7631293745604448,1.0,2849.5358562347274,0.3660097720207965,1.3160147524216328,0.9657094964155746,0.2871044337315387,0.6815519013134379
0.041,1.7624384186694115,1.0,2855.913528330849,0.3695659629649333,1.3156460030415096,0.9663097121586922,0.28707541358411526,0.6822946452931101
0.0415,1.761747462778378,1.0,2862.1822894449615,0.3731022019376949,1.3152782836735544,0.9668905508901101,0.28704639343669186,0.6830344510327098
0.042,1.7610565068873447,1.0,2868.345539249572,0.37661860095371397,1.3149115607910913,0.9674528536914102,0.28701737328926846,0.6837713931126238
0.0425,1.7603655509963112,1.0,2874.4067004303997,0.3801152720276234,1.314545800867445,0.9679974161058649,0.28698835314184507,0.6845055457801581
0.043000000000000003,1.759674595105278,1.0,2880.3692179580066,0.38359232717405606,1.3141809703759404,0.9685249910681998,0.28695933299442167,0.6852369829516342
0.043500000000000004,1.7589836392142444,1.0,2886.236558384592,0.3870498784076447,1.313817035789902,0.9690362916173233,0.28693031284699827,0.6859657782144114
0.044,1.758292683323211,1.0,2892.0122091655053,0.3904880377430221,1.313453963582654,0.9695319934101283,0.2869012926995749,0.6866920048288399
0.0445,1.7576017274321776,1.0,2897.695886537741,0.39390688547684066,1.3130917536753737,0.9700127349741109,0.2868722725521515,0.6874156689428544
0.045,1.7569107715411443,1.0,2903.2906801181884,0.39730653054518583,1.3127303763022755,0.970479124086612,0.2868432524047281,0.6881368358987154
0.0455,1.7562198156501108,1.0,2908.805759761488,0.40068713469305794,1.3123697483172168,0.9709317410560572,0.2868142322573046,0.6888556770925978
0.046,1.7555288597590775,1.0,2914.2429691510315,0.40404879863914245,1.3120098513714153,0.9713711331687934,0.2867852121098813,0.6895722342065922
0.0465,1.754837903868044,1.0,2919.604163371576,0.4073916231021246,1.3116506671160895,0.9717978205247966,0.28675619196245783,0.6902865487439298
0.047,1.7541469479770107,1.0,2924.8912086163864,0.4107157088006899,1.3112921772024573,0.9722122976464692,0.28672717181503443,0.6909986620298276
0.0475,1.7534559920859771,1.0,2930.1059819005623,0.4140211564535238,1.3109343632817367,0.972615034977574,0.28669815166761103,0.6917086152123118
0.048,1.7527650361949438,1.0,2935.250370782324,0.4173080667793115,1.3105772070051458,0.9730064802807721,0.28666913152018764,0.6924164492630192
0.0485,1.7520740803039103,1.0,2940.326273091811,0.42057654049673854,1.3102206900239028,0.9733870599415126,0.28664011137276424,0.693122204977977
0.049,1.751383124412877,1.0,2945.3355966674058,0.4238266783244902,1.3098647939892256,0.9737571801853516,0.28661109122534084,0.6938259229783634
0.0495,1.7506921685218435,1.0,2950.280259099078,0.42705858098125205,1.3095095005523323,0.9741172282151969,0.28658207107791744,0.6945276437112431
0.05,1.7500012126308102,1.0,2955.16218747975,0.4302723491857093,1.309154791364441,0.9744675732744269,0.28655305093049405,0.6952274074502837
0.0505,1.7493102567397767,1.0,2959.983318163872,0.43346808365654743,1.3088006480767698,0.9748085676413417,0.28652403078307065,0.6959252542964509
0.051000000000000004,1.7486193008487434,1.0,2964.7455965332338,0.43664588511245184,1.3084470523405365,0.975140547559961,0.2864950106356472,0.696621224178681
0.051500000000000004,1.7479283449577099,1.0,2969.4509767709237,0.4398058542721079,1.3080939858069596,0.9754638341117725,0.2864659904882238,0.6973153568545313
0.052000000000000005,1.7472373890666766,1.0,2974.101421641723,0.442948091854201,1.307741430127257,0.9757787340326675,0.2864369703408004,0.6980076919108119
0.0525,1.746546433175643,1.0,2978.698902281061,0.4460726985774165,1.3073893669526466,0.9760855404789603,0.286407950193377,0.6986982687641938
0.053,1.7458554772846098,1.0,2983.2453979906813,0.44917977516043983,1.3070377779343465,0.9763845337460835,0.2863789300459536,0.699387126661795
0.0535,1.7451645213935763,1.0,2987.742896041982,0.45226942232195644,1.306686644723575,0.9766759819432616,0.2863499098985302,0.7000743046817466
0.054,1.744473565502543,1.0,2992.193391486985,0.4553417407806516,1.30633594897155,0.9769601416272219,0.2863208897511068,0.7007598417337368
0.0545,1.7437826096115094,1.0,2996.5988869765024,0.4583968312552108,1.3059856723294894,0.977237258397749,0.2862918696036834,0.7014437765595356
0.055,1.7430916537204761,1.0,3000.960055633782,0.4614347751489741,1.3056358080383363,0.977507566305269,0.28626284945626,0.702126125142708
0.0555,1.7424006978294426,1.0,3005.2768722350643,0.46445565362600566,1.3052863554180327,0.9777712899614749,0.28623382930883656,0.7028068915675211
0.056,1.7417097419384093,1.0,3009.553674811407,0.4674596106610569,1.3049372760302376,0.9780286482649682,0.2862048091614132,0.703486153339473
0.0565,1.7410187860473758,1.0,3013.791336017207,0.47044673598204373,1.3045885615309216,0.9782798478018758,0.28617578901398977,0.7041639291598341
0.057,1.7403278301563425,1.0,3017.9907321202727,0.4734171193168821,1.304240203576055,0.9785250867373431,0.28614676886656637,0.7048402376530634
0.0575,1.739636874265309,1.0,3022.1527429341913,0.4763708503934879,1.3038921938216084,0.9787645552267544,0.286117748719143,0.7055150973669962
0.058,1.7389459183742757,1.0,3026.278251753381,0.4793080189397773,1.303544523923552,0.9789984358036846,0.2860887285717196,0.7061885267730365
0.0585,1.7382549624832422,1.0,3030.368145289793,0.48222871468366607,1.3031971855378561,0.9792269037460702,0.2860597084242962,0.7068605442663356
0.059000000000000004,1.7375640065922089,1.0,3034.423313610223,0.4851330273530702,1.3028501703204916,0.9794501274219889,0.2860306882768728,0.7075311681659735
0.059500000000000004,1.7368730507011754,1.0,3038.444650076304,0.4880210466759057,1.3025034699274285,0.9796682686163332,0.2860016681294494,0.7082004167151319
0.06,1.736182094810142,1.0,3042.433051285146,0.49089286238008845,1.3021570760146373,0.9798814828395742,0.285972647982026,0.708868308081265
0.0605,1.7354911389191086,1.0,3046.3894170119747,0.4937485641935345,1.3018109802380886,0.9800899196197332,0.2859436278346026,0.709534860356263
0.061,1.7348001830280753,1.0,3050.314650154129,0.4965882418441598,1.3014651742537526,0.9802937227785894,0.28591460768717913,0.7102000915566153
0.0615,1.7341092271370417,1.0,3054.2096566769915,0.4994119850598802,1.3011196497175999,0.9804930306930969,0.28588558753975574,0.7108640196235649
0.062,1.7334182712460084,1.0,3058.075345560665,0.5022198835686118,1.3007743982856006,0.9806879765429063,0.28585656739233234,0.7115266624232619
0.0625,1.732727315354975,1.0,3061.912628749057,0.5050120270982704,1.3004294116137256,0.9808786885448267,0.28582754724490894,0.712188037746909
0.063,1.7320363594639416,1.0,3065.722421099814,0.5077885053767721,1.300084681357945,0.9810652901750136,0.28579852709748554,0.7128481633109076
0.0635,1.7313454035729081,1.0,3069.505640336497,0.5105494081320329,1.2997401991742292,0.9812479003796105,0.28576950695006215,0.7135070567569943
0.064,1.7306544476818748,1.0,3073.2632070016352,0.5132948250919686,1.2993959567185487,0.9814266337745261,0.28574048680263875,0.7141647356523755
0.0645,1.7299634917908413,1.0,3076.996044411539,0.5160248459844952,1.299051945646874,0.9816016008349797,0.28571146665521535,0.7148212174898567
0.065,1.729272535899808,1.0,3080.704773642037,0.5187395513522334,1.298708160224457,0.9817729075695659,0.28568244650779195,0.7154765147172197
0.0655,1.7285815800087745,1.0,3084.388577807945,0.5214389857813134,1.2983646070289017,0.9819406543786392,0.2856534263603685,0.71613061630258
0.066,1.7278906241177412,1.0,3088.0501946789245,0.524123303399171,1.2980212622482639,0.9821049440627889,0.28562440621294516,0.7167835690304577
0.0665,1.7271996682267077,1.0,3091.690028169823,0.5267925839517492,1.2976781220622782,0.9822658717650911,0.2855953860655217,0.7174353815225619
0.067,1.7265087123356744,1.0,3095.3084835314307,0.5294469071849913,1.2973351826506792,0.9824235293322431,0.2855663659180983,0.7180860623663496
0.0675,1.7258177564446409,1.0,3098.905967332543,0.5320863528448404,1.2969924401932016,0.9825780054520312,0.2855373457706749,0.7187356201150752
0.068,1.7251268005536076,1.0,3102.4828874433965,0.5347110006772396,1.29664989086958,0.98272938578414,0.2855083256232515,0.7193840632878388
0.0685,1.724435844662574,1.0,3106.039653019254,0.5373209304281321,1.296307530859549,0.9828777530846681,0.2854793054758281,0.7200314003696344
0.069,1.7237448887715408,1.0,3109.576674483996,0.5399162218434612,1.2959653563428437,0.9830231873246952,0.2854502853284047,0.7206776398113952
0.0695,1.7230539328805072,1.0,3113.094363514461,0.5424969546691698,1.2956233634991983,0.9831657658032238,0.2854212651809813,0.7213227900300412
0.07,1.722362976989474,1.0,3116.59313302461,0.5450632086512013,1.2952815485083473,0.9833055632547961,0.28539224503355787,0.7219668594085221
0.07050000000000001,1.7216720210984404,1.0,3120.0733971508675,0.5476150635354987,1.294939907550026,0.9834426519520776,0.2853632248861345,0.7226098562958612
