Time [s],Phi [rad],STIM [ ],Fsee [N],Gamma [ ],Lcerel [ ],q [ ],Lmtc [m],fisomrel [ ]
0.0,1.8,1.0,17.9670259085821,1.0269827348561295e-05,1.3793397610371791,0.0050000281035480765,0.288653,0.5411394952048973
0.0005,1.79999375,1.0,18.276460935748037,0.005619421530533449,1.3793024192487797,0.012941263894794407,0.2886527375,0.5412298302041549
0.001,1.799975,1.0,21.618288395393545,0.01119711032758432,1.3789383116288774,0.03560998523654748,0.28865195,0.5421101912622954
0.0015,1.79994375,1.0,31.069478865298002,0.016743512701389185,1.3780461830380903,0.07060363432599837,0.2886506375,0.5442636590890647
0.002,1.7999,1.0,53.5832122943337,0.02225880414318456,1.3763680782007843,0.1147201217135592,0.2886488,0.5483006049472203
0.0025,1.79984375,1.0,97.12047838230578,0.027743159160120615,1.3739350930154737,0.16457715965485198,0.28864643749999996,0.5541216397050671
0.003,1.7997750000000001,1.0,160.96039795732776,0.03319675128297641,1.371214260243,0.21728279128924805,0.28864354999999997,0.5605866485722013
0.0035,1.79969375,1.0,237.68597687554902,0.03861975306575266,1.3685846527501397,0.27061521201707733,0.2886401375,0.5667900311130705
0.004,1.7996,1.0,321.46968539540705,0.044012336096453664,1.3661560152141141,0.3229180506822614,0.2886362,0.572480141972326
0.0045000000000000005,1.7994937500000001,1.0,409.27086130918514,0.04937467100227185,1.3639227411509585,0.37303664218423277,0.2886317375,0.5776793318659837
0.005,1.799375,1.0,499.4167428865269,0.05470692744067926,1.3618582735244202,0.420249457976254,0.28862675,0.5824572381438963
0.0055,1.79924375,1.0,590.7937409331337,0.06000927414687878,1.3599387700991896,0.46417554777189257,0.2886212375,0.5868752607764117
0.006,1.7991000000000001,1.0,682.5214829713024,0.06528187887699448,1.358146353405442,0.5046816624010743,0.2886152,0.5909795584897455
0.006500000000000001,1.79894375,1.0,773.8848225628545,0.07052490846351485,1.3564671927655474,0.5418023139629738,0.2886086375,0.5948059326589608
0.007,1.798775,1.0,864.2889460283556,0.07573852879947579,1.354890344358951,0.5756782021606931,0.28860155,0.5983827917116873
0.0075,1.79859375,1.0,953.2461010447894,0.08092290484741319,1.3534067348071432,0.6065112117481731,0.2885939375,0.6017336728091631
0.008,1.7984,1.0,1040.354469371841,0.08607820054436698,1.352008705018985,0.634533297232602,0.2885858,0.6048784170626823
0.0085,1.79819375,1.0,1125.320463107954,0.09120457934649676,1.3506891532255314,0.659985481347781,0.2885771375,0.607835197098086
0.009000000000000001,1.797975,1.0,1207.8886044728924,0.09630220309112703,1.3494421932247171,0.6831052792946829,0.28856795,0.6106191122267202
0.0095,1.79774375,1.0,1287.8740037925895,0.10137123302569652,1.348262364664454,0.7041185151484919,0.2885582375,0.6132440221885295
0.01,1.7975,1.0,1365.1630672563297,0.10641182998877795,1.3471444364588787,0.7232350818457427,0.288548,0.6157230237106108
0.0105,1.79724375,1.0,1439.66144060562,0.11142415314612782,1.3460839220891807,0.7406474033987543,0.2885372375,0.6180673433398276
0.011,1.796975,1.0,1511.313268631264,0.11640836093163502,1.3450766629170199,0.7565298694456589,0.28852595000000003,0.6202872981825684
0.0115,1.79669375,1.0,1580.1096763125279,0.1213646112048396,1.344118618486718,0.7710393016361907,0.2885141375,0.6223927819221704
0.012,1.7964,1.0,1646.063673425484,0.12629306135219664,1.3432060869724527,0.7843161341570949,0.28850180000000003,0.6243927993145959
0.0125,1.79609375,1.0,1709.1791760762494,0.13119386649960005,1.3423359750471044,0.7964858324225484,0.2884889375,0.6262948985604219
0.013000000000000001,1.7957750000000001,1.0,1769.4962231782144,0.13606718177294366,1.3415051893835541,0.8076600274142712,0.28847555,0.6281065230360423
0.0135,1.79544375,1.0,1827.0673302811763,0.1409131611494694,1.3407108639157612,0.8179380184553812,0.2884616375,0.6298345255413764
0.014,1.7951000000000001,1.0,1881.9836143344687,0.14573195959136911,1.3399500245536844,0.8274079820504578,0.2884472,0.6314859081822366
0.0145,1.79474375,1.0,1934.292304600349,0.15052372834261019,1.33922045931161,0.8361485297615943,0.2884322375,0.6330659438278712
0.015,1.794375,1.0,1984.0582053430594,0.15528861848111522,1.3385199884010641,0.8442295455900092,0.28841675,0.6345797750412736
0.0155,1.79399375,1.0,2031.3648162673037,0.1600267810848068,1.337846432033573,0.8517131968710928,0.2884007375,0.6360324883998225
0.016,1.7936,1.0,2076.291540162167,0.16473836593239488,1.3371978310091797,0.8586549138572799,0.2883842,0.6374286440137268
0.0165,1.7931937500000001,1.0,2118.946830469211,0.16942352378275025,1.336572077902064,0.8651040743225021,0.2883671375,0.638773075180762
0.017,1.792775,1.0,2159.400315403356,0.17408240172718936,1.3359676045310052,0.8711049199354912,0.28834955,0.640069415515619
0.0175,1.7923437500000001,1.0,2197.7265558516137,0.17871514647427383,1.3353829020615453,0.8766970218480299,0.2883314375,0.6413211384080865
0.018000000000000002,1.7919,1.0,2234.0098024236354,0.18332190473256518,1.334816461659227,0.8819158132247561,0.2883128,0.6425316868686076
0.0185,1.79144375,1.0,2268.334650683851,0.18790282222314783,1.3342668594390688,0.8867930938256874,0.2882936375,0.6437042942625697
0.019,1.790975,1.0,2300.7931205034497,0.1924580454387142,1.3337326757020804,0.8913574309380315,0.28827395,0.6448421593390625
0.0195,1.79049375,1.0,2331.4601148948755,0.19698771812613627,1.333212729398527,0.8956345841678409,0.2882537375,0.6459479495114286
0.02,1.79,1.0,2360.40447126575,0.20149198252808573,1.3327059564972925,0.899647793698023,0.288233,0.6470240641301712
0.0205,1.78949375,1.0,2387.7001518254656,0.2059709808872342,1.3322112929672607,0.9034180364160833,0.2882117375,0.6480728852838676
0.021,1.788975,1.0,2413.425812183813,0.21042485544625336,1.331727674777315,0.9069642771380584,0.28818995000000003,0.6490967786570023
0.021500000000000002,1.78844375,1.0,2437.6475275538987,0.21485374594086498,1.3312542001340593,0.9103037221217332,0.2881676375,0.650097751573803
0.022,1.7879,1.0,2460.456007892553,0.2192577962557169,1.3307897657766024,0.913451937308526,0.2881448,0.6510782233975145
0.0225,1.78734375,1.0,2481.9070515954177,0.22363714409788402,1.330333636025317,0.9164231327254652,0.28812143749999997,0.6520398243312926
0.023,1.786775,1.0,2502.0566520769667,0.22799192677337046,1.3298850987738493,0.9192302393140956,0.28809755,0.6529841250222184
0.0235,1.78619375,1.0,2520.963221797194,0.23232228158818027,1.329443441915845,0.9218850377630509,0.28807313749999996,0.6539126867941367
0.024,1.7856,1.0,2538.6873888807954,0.23662834584831757,1.3290079533449497,0.9243982767174229,0.2880482,0.6548270619762991
0.0245,1.78499375,1.0,2555.2876196740535,0.24091025604277894,1.3285779602730832,0.9267797839769746,0.2880227375,0.6557287118073347
0.025,1.784375,1.0,2570.818211815746,0.24516814767759762,1.3281528457378715,0.929038561144248,0.28799675,0.6566189726853849
0.025500000000000002,1.78374375,1.0,2585.3484124729116,0.2494021586030074,1.3277318677555237,0.9311828360245882,0.2879702375,0.6574994351322576
0.026000000000000002,1.7831000000000001,1.0,2598.9195299367843,0.253612420760933,1.3273145591666429,0.9332202001987183,0.2879432,0.6583711076452368
0.0265,1.78244375,1.0,2611.5739938030056,0.2577990660932991,1.3269004528118318,0.9351576276205339,0.2879156375,0.6592349934675362
0.027,1.781775,1.0,2623.355260914193,0.26196222654203066,1.3264890815316934,0.9370015331480186,0.28788755,0.6600920906906609
0.0275,1.7810937500000001,1.0,2634.3077261414614,0.26610203404905236,1.3260799781668307,0.9387578248150642,0.2878589375,0.6609433923428547
0.028,1.7804,1.0,2644.4766380040273,0.2702186205562889,1.325672675557846,0.9404319505810558,0.2878298,0.6617898864636287
0.0285,1.77969375,1.0,2653.9005759943593,0.27431211426782043,1.325266775157421,0.9420289485993637,0.2878001375,0.6626324138351141
0.029,1.778975,1.0,2662.629093562935,0.27838264980992855,1.3248617834105993,0.9435534647390216,0.28776995,0.6634720079058829
0.029500000000000002,1.7782437500000001,1.0,2670.6941819364556,0.2824303544784107,1.3244573741397716,0.9450098184499749,0.2877392375,0.6643093506579218
0.03,1.7775,1.0,2678.1264298780297,0.2864553546797747,1.3240532384576627,0.9464020130578812,0.287708,0.6651450849652463
0.0305,1.77674375,1.0,2684.9568544404124,0.2904577768205283,1.3236490674769967,0.947733761063147,0.2876762375,0.6659798505142551
0.031,1.775975,1.0,2691.2168614892003,0.2944377473071794,1.3232445523104985,0.9490085089282363,0.28764395,0.6668142838060758
0.0315,1.7751937500000001,1.0,2696.9382083412183,0.2983953925462357,1.3228393840708923,0.950229459461197,0.2876111375,0.6676490181528281
0.032,1.7744,1.0,2702.152430861006,0.30233083844780745,1.3224332587826746,0.9513995925033135,0.2875778,0.6684846735675536
0.0325,1.77359375,1.0,2706.8829693807397,0.30624420265222385,1.3220259489289516,0.9525216894772255,0.2875439375,0.6693217098737507
0.033,1.772775,1.0,2711.1715525763916,0.3101356233740513,1.3216170622415013,0.9535983294197189,0.28750955,0.6701609224335021
0.0335,1.7719437500000002,1.0,2715.03765531891,0.31400522043753754,1.3212064115799285,0.954631936787461,0.2874746375,0.6710026822702347
0.034,1.7711000000000001,1.0,2718.5009144718097,0.31785311366693003,1.3207938098038383,0.9556247754191363,0.2874392,0.6718473583913865
0.0345,1.7702437500000001,1.0,2721.581113175615,0.32167942288647644,1.3203790697728366,0.956578961071267,0.2874032375,0.6726953177662369
0.035,1.7693750000000001,1.0,2724.29816590885,0.3254842679204244,1.319962004346528,0.9574964728357087,0.28736675,0.6735469253015062
0.035500000000000004,1.76849375,1.0,2726.672104325541,0.3292677685930214,1.3195424263845184,0.9583791635502726,0.2873297375,0.6744025438147152
0.036000000000000004,1.7676,1.0,2728.7230638689707,0.33303004472851516,1.3191201487464124,0.9592287693017415,0.2872922,0.6752625340053178
0.0365,1.76669375,1.0,2730.471271162238,0.33677121615115313,1.3186949842918159,0.9600469181097839,0.2872541375,0.6761272544235946
0.037,1.765775,1.0,2731.9370321750703,0.3404914026851831,1.3182667458803337,0.9608351378707827,0.28721555,0.6769970614373186
0.0375,1.76484375,1.0,2733.1344272762326,0.34419071633390974,1.3178353035425785,0.9615948675560434,0.2871764375,0.6778721933099394
0.038,1.7639,1.0,2734.080355812171,0.3478692774400491,1.3174005021941897,0.9623274590616031,0.28713679999999997,0.6787529375219266
0.0385,1.76294375,1.0,2734.7975777173515,0.35152721423293803,1.31696213396962,0.96303418060665,0.28709663750000003,0.6796396863183185
0.039,1.761975,1.0,2735.296890974727,0.3551646387385098,1.316520100005695,0.9637162328675698,0.28705595,0.680532609350717
0.0395,1.7609937500000001,1.0,2735.5891244934196,0.35878166298269754,1.3160743014392402,0.9643747468729624,0.2870147375,0.6814318749033683
0.04,1.76,1.0,2735.6851338776933,0.3623783989914345,1.3156246394070814,0.9650107887848707,0.286973,0.682337649869738
0.0405,1.7589937500000001,1.0,2735.5957974137164,0.3659549587906539,1.3151710150460438,0.9656253643029278,0.2869307375,0.6832500997284643
0.041,1.757975,1.0,2735.3320122722043,0.3695114544062888,1.3147133294929532,0.9662194227248264,0.28688795,0.6841693885186859
0.0415,1.75694375,1.0,2734.9046909280924,0.37304799786427256,1.314251483884635,0.9667938606932376,0.2868446375,0.685095678814748
0.042,1.7559,1.0,2734.324757797144,0.37656470119053825,1.3137853793579148,0.9673495256563961,0.28680079999999997,0.6860291317002853
0.0425,1.75484375,1.0,2733.6031460889308,0.3800616764110192,1.3133149170496183,0.9678872190669559,0.2867564375,0.6869699067416798
0.043000000000000003,1.753775,1.0,2732.7507948763196,0.3835390355516485,1.312839998096571,0.9684076993413775,0.28671155,0.6879181619608974
0.043500000000000004,1.75269375,1.0,2731.7786463826474,0.3869968906383593,1.3123605236355984,0.9689116846000224,0.28666613750000003,0.6888740538077002
0.044,1.7516,1.0,2730.6926912983954,0.3904353437798739,1.31187643980717,0.9693998572573447,0.2866202,0.6898376476186372
0.0445,1.75049375,1.0,2729.5018728071336,0.3938545113420994,1.3113876659390433,0.9698728642800721,0.2865737375,0.6908090609089119
0.045,1.7493750000000001,1.0,2728.215899663453,0.39725450838810106,1.3108941143865895,0.9703313185557743,0.28652675,0.6917884235962315
0.0455,1.74824375,1.0,2726.840058148576,0.4006354391296551,1.3103957376894808,0.9707758032099573,0.2864792375,0.6927757845159536
0.046,1.7471,1.0,2725.379633928266,0.40399740777853776,1.309892488387389,0.9712068719619168,0.2864312,0.6937711914574999
0.0465,1.7459437500000001,1.0,2723.839911214951,0.4073405185465253,1.3093843190199863,0.9716250508857193,0.28638263750000004,0.694774691149679
0.047,1.744775,1.0,2722.2261719793373,0.4106648756453939,1.3088711821269445,0.9720308400495392,0.28633355,0.6957863292458669
0.0475,1.74359375,1.0,2720.543695213137,0.4139705832869198,1.3083530302479358,0.9724247150428209,0.28628393750000003,0.696806150309042
0.048,1.7424,1.0,2718.797756240164,0.41725774568287927,1.3078298159226323,0.9728071283999278,0.2862338,0.6978341977966784
0.0485,1.74119375,1.0,2716.99362607898,0.4205264670450486,1.3073014916907055,0.9731785109281909,0.2861831375,0.698870514045495
0.049,1.739975,1.0,2715.1365708540384,0.4237768515852039,1.3067680100918277,0.973539272947605,0.28613195,0.6999151402560595
0.0495,1.73874375,1.0,2713.2318512575853,0.4270090035151215,1.306229323665671,0.9738898054488027,0.2860802375,0.7009681164772503
0.05,1.7375,1.0,2711.284722061801,0.4302230270465776,1.3056853849519072,0.9742304811753925,0.286028,0.702029481590575
0.0505,1.73624375,1.0,2709.2940639538965,0.4334190063102,1.3051362045858306,0.9745616571974325,0.2859752375,0.703099160239012
0.051000000000000004,1.734975,1.0,2707.2690247176097,0.43659706332968595,1.3045816995215787,0.974883672392386,0.28592195,0.7041772586624578
0.051500000000000004,1.73369375,1.0,2705.215127867965,0.43975730592704815,1.3040218196872408,0.9751968507698477,0.2858681375,0.7052638174555448
0.052000000000000005,1.7324,1.0,2703.13443558766,0.4428998301644313,1.3034565465551555,0.9755015025030357,0.2858138,0.70635881490057
0.0525,1.73109375,1.0,2701.0290073808305,0.44602473210397997,1.3028858615976608,0.9757979239593776,0.28575893750000003,0.7074622284574064
0.053,1.729775,1.0,2698.900899972999,0.4491321078078391,1.3023097462870952,0.9760863984317095,0.28570355000000003,0.7085740347571179
0.0535,1.72844375,1.0,2696.7521672193575,0.45222205333815324,1.3017281820957964,0.9763671968246784,0.2856476375,0.7096942095955545
0.054,1.7271,1.0,2694.5848600201352,0.45529466475706715,1.3011411504961032,0.9766405782994434,0.2855912,0.7108227279269238
0.0545,1.7257437500000001,1.0,2692.401026244036,0.4583500381267256,1.3005486329603533,0.9769067908795454,0.2855342375,0.7119595638573433
0.055,1.724375,1.0,2690.20271065844,0.46138826950927325,1.2999506109608854,0.9771660720205921,0.28547675,0.713104690638366
0.0555,1.72299375,1.0,2687.991954868583,0.4644094549668548,1.2993470659700372,0.977418649146198,0.2854187375,0.7142580806604917
0.056,1.7216,1.0,2685.770797262976,0.4674136905616151,1.2987379794601472,0.9776647401524444,0.2853602,0.7154197054466475
0.0565,1.72019375,1.0,2683.5412729671602,0.47040107235569867,1.2981233329035535,0.9779045538829537,0.28530113749999997,0.7165895356456538
0.057,1.718775,1.0,2681.3054138052603,0.4733716964112504,1.2975031077725945,0.9781382905765105,0.28524155,0.7177675410256634
0.0575,1.71734375,1.0,2679.065248268305,0.4763256587904149,1.2968772855396082,0.9783661422890298,0.2851814375,0.7189536904675826
0.058,1.7159,1.0,2676.8228888070757,0.47926305131013097,1.296245846875492,0.9785882928767016,0.2851208,0.7201479534726484
0.0585,1.71444375,1.0,2674.581335278522,0.4821839426595032,1.295608764270253,0.9788049163730875,0.2850596375,0.7213503140517029
0.059000000000000004,1.7129750000000001,1.0,2672.3411130009094,0.4850884672413816,1.2949660328996844,0.979016186718924,0.28499795,0.7225607124854028
0.059500000000000004,1.71149375,1.0,2670.102922638562,0.48797671250552643,1.2943176463200319,0.979222266910634,0.2849357375,0.7237790914050913
0.06,1.71,1.0,2667.867463681016,0.4908487659016979,1.2936635980875402,0.9794233135627854,0.284873,0.7250053927241061
0.0605,1.7084937500000001,1.0,2665.635434445044,0.4937047148796564,1.2930038817584544,0.9796194772054538,0.2848097375,0.7262395576354519
0.061,1.7069750000000001,1.0,2663.4075320772477,0.49654464688916217,1.2923384908890199,0.9798109025655104,0.28474595,0.7274815266094721
0.0615,1.7054437500000001,1.0,2661.184452557854,0.4993686493799755,1.2916674190354815,0.9799977288328198,0.2846816375,0.7287312393915205
0.062,1.7039,1.0,2658.966890705768,0.5021768098018567,1.2909906597540846,0.9801800899122645,0.2846168,0.7299886349996256
0.0625,1.70234375,1.0,2656.7555401834675,0.5049692156045661,1.290308206601074,0.9803581146624524,0.2845514375,0.731253651722156
0.063,1.7007750000000001,1.0,2654.551093504051,0.507745954237864,1.2896200531326951,0.9805319271219048,0.28448555,0.7325262271154811
0.0635,1.69919375,1.0,2652.3542420384997,0.5105071131515104,1.2889261929051927,0.9807016467234674,0.28441913750000003,0.7338062980016307
0.064,1.6976,1.0,2650.165676023689,0.5132527797952661,1.2882266194748122,0.9808673884976444,0.2843522,0.7350938004659496
0.0645,1.69599375,1.0,2647.986084572331,0.515983041618891,1.2875213263977987,0.9810292632654986,0.2842847375,0.7363886698547528
0.065,1.694375,1.0,2645.816155682641,0.5186979860721455,1.286810307230397,0.9811873778217288,0.28421675,0.7376908407729762
0.0655,1.69274375,1.0,2643.6565762493024,0.52139770060479,1.2860935555288524,0.9813418351084937,0.2841482375,0.7390002470818222
0.066,1.6911,1.0,2641.5080320761126,0.5240822726665846,1.2853710648494099,0.9814927343805046,0.2840792,0.7403168218964091
0.0665,1.6894437500000001,1.0,2639.371207888466,0.5267517897072898,1.2846428287483147,0.9816401713618944,0.2840096375,0.7416404975834108
0.067,1.687775,1.0,2637.24642518223,0.5294063369532936,1.2839088441308366,0.9817842384080112,0.28393955,0.7429711996948097
0.0675,1.68609375,1.0,2635.1316017657414,0.5320459954854164,1.283169130134287,0.9819250254316418,0.2838689375,0.744308812943212
0.068,1.6844000000000001,1.0,2633.0270242702845,0.534670847981492,1.2824236840045915,0.9820626182859072,0.2837978,0.7456532612030442
0.0685,1.68269375,1.0,2630.933426370754,0.5372809768675632,1.281672498844853,0.982197099645215,0.2837261375,0.7470044751100011
0.069,1.680975,1.0,2628.8515406126307,0.5398764645696729,1.2809155677581736,0.9823285493457402,0.28365395,0.7483623845379559
0.0695,1.67924375,1.0,2626.782098426732,0.542457393513864,1.2801528838476555,0.9824570445007431,0.28358123749999997,0.7497269185964353
0.07,1.6775,1.0,2624.727427626138,0.5450238457375776,1.2793844254089257,0.9825826588974147,0.283508,0.7510980320118763
0.07050000000000001,1.67574375,1.0,2622.6818758067016,0.5475759022488772,1.2786102447040788,0.9827054671878771,0.2834342375,0.7524755470214711
0.07100000000000001,1.673975,1.0,2620.6482882547807,0.550113643674347,1.277830315248653,0.9828255379105783,0.28335995,0.7538594257934761
0.07150000000000001,1.67219375,1.0,2618.629165303419,0.5526371504330545,1.2770446137188252,0.9829429374511902,0.2832851375,0.7552496237544227
0.07200000000000001,1.6704,1.0,2616.6229141809167,0.555146502300637,1.2762531547544476,0.9830577316804665,0.2832098,0.7566460283425231
0.0725,1.66859375,1.0,2614.6259971400777,0.5576417786446998,1.2754559710819573,0.9831699851076764,0.2831339375,0.7580484948829589
0.073,1.6667750000000001,1.0,2612.6407718453493,0.5601230585384187,1.2746530407058954,0.983279757685072,0.28305755,0.7594569745886665
0.0735,1.66494375,1.0,2610.668615691387,0.562590420359611,1.2738443507087354,0.9833871077803528,0.2829806375,0.7608714017375994
0.074,1.6631,1.0,2608.7075205064284,0.5650439422034214,1.273029919632093,0.9834920932563955,0.2829032,0.7622916549288673
0.0745,1.6612437500000001,1.0,2606.7626305543567,0.567483701845443,1.2722096995201966,0.9835947671865377,0.2828252375,0.7637177279563913
0.075,1.6593783366458559,1.0,2604.9779361065785,0.5699097762700371,1.2713838573320424,0.9836951903090299,0.28274689013912596,0.7651492410063191
