Time [s],Phi [rad],STIM [ ],Fsee [N],Gamma [ ],Lcerel [ ],q [ ],Lmtc [m],fisomrel [ ]
0.0,1.8,1.0,18.020279981350164,0.0002353277393789531,1.3793337991925403,0.005014395784707693,0.288653,0.5411539183359488
0.0005,1.79999375,1.0,18.402940027375895,0.00584321704570078,1.3792883939977858,0.01357789869521036,0.2886527375,0.5412637569470039
0.001,1.799975,1.0,21.91190941705929,0.011419650526877297,1.3789084236415088,0.03679241787558654,0.28865195,0.5421824186655195
0.0015,1.79994375,1.0,31.724585781838883,0.01696480462619684,1.3779906615405513,0.0722159058157102,0.2886506375,0.5443975120795166
0.002,1.7999,1.0,54.957359248352155,0.022478854795095572,1.376279495645278,0.11662552101656627,0.2886488,0.5485132052198191
0.0025,1.79984375,1.0,99.39891413297859,0.02796197550200158,1.3738259379854407,0.16664752717591416,0.28864643749999996,0.5543819135500812
0.003,1.7997750000000001,1.0,163.90477705218237,0.03341434023815329,1.3711045495440508,0.21941706182086262,0.28864354999999997,0.5608463434556988
0.0035,1.79969375,1.0,241.00160727634236,0.03883612151881539,1.3684828768360078,0.27273685553911403,0.2886401375,0.5670292394089909
0.004,1.7996,1.0,324.9906173577855,0.04422749089350937,1.366063013556643,0.3249715845421501,0.2886362,0.5726972898782814
0.0045000000000000005,1.7994937500000001,1.0,412.91243750841255,0.049588618951383195,1.363837449107904,0.37498543124684913,0.2886317375,0.5778772660288694
0.005,1.799375,1.0,503.1290101424011,0.05491967531306141,1.361779534459288,0.4220723232421737,0.28862675,0.5826389299949645
0.0055,1.79924375,1.0,594.5361700355153,0.06022082866866496,1.3598657677430852,0.46586299477190646,0.2886212375,0.5870428227253823
0.006,1.7991000000000001,1.0,686.2652829699142,0.06549224674502843,1.3580783943204258,0.5062322690130584,0.2886152,0.591134768880439
0.006500000000000001,1.79894375,1.0,777.6031448187731,0.07073409631702987,1.35640379477279,0.5432200133684851,0.2886086375,0.5949500480598053
0.007,1.798775,1.0,867.9622699909168,0.075946543304286,1.3548310714264256,0.576970106815396,0.28860155,0.5985169347907362
0.0075,1.79859375,1.0,956.8518152782535,0.08112975247599474,1.3533513276257019,0.6076862237682144,0.2885939375,0.601858543575108
0.008,1.7984,1.0,1043.8957602793544,0.08628388811294427,1.3519566108387888,0.6356008259796974,0.2885858,0.6049953574198768
0.0085,1.79819375,1.0,1128.7725796687369,0.09140911303755453,1.3506403215040155,0.6609552776535237,0.2885771375,0.6079444034934971
0.009000000000000001,1.797975,1.0,1211.2364817151226,0.09650558933239428,1.349396479896426,0.6839866750590512,0.28856795,0.6107209816198547
0.0095,1.79774375,1.0,1291.1298087985133,0.1015734787538419,1.3482193085478167,0.7049200872031273,0.2885582375,0.6133396465385219
0.01,1.7975,1.0,1368.3132802551588,0.10661294122626211,1.347103970977882,0.723964932357981,0.288548,0.6158126062863063
0.0105,1.79724375,1.0,1442.6966673882087,0.11162413609189231,1.3460459539237395,0.7413128864963285,0.2885372375,0.6181511408578099
0.011,1.796975,1.0,1514.244859000917,0.11660722216179158,1.3450408695162892,0.757137506643487,0.28852595000000003,0.6203660662099588
0.0115,1.79669375,1.0,1582.9427258028634,0.12156235742744337,1.344084788378485,0.77159499094864,0.2885141375,0.6224670229800167
0.012,1.7964,1.0,1648.7783369505826,0.12648969801119914,1.3431743254637942,0.7848252776182224,0.28850180000000003,0.6244623161430799
0.0125,1.79609375,1.0,1711.7768267416275,0.1313893997219584,1.3423061480584413,0.7969531401198251,0.2884889375,0.6263600159483178
0.013000000000000001,1.7957750000000001,1.0,1771.9923495757425,0.13626161818921972,1.3414770200836454,0.8080896305256534,0.28847555,0.6281678723048265
0.0135,1.79544375,1.0,1829.4821980067807,0.14110650817928794,1.3406840438389909,0.8183335772508602,0.2884616375,0.6298928006170681
0.014,1.7951000000000001,1.0,1884.2897605123183,0.14592422187140108,1.3399247878104956,0.8277729453028971,0.2884472,0.6315406206377218
0.0145,1.79474375,1.0,1936.4821954687052,0.1507149114447971,1.339196820484178,0.8364858848426727,0.2884322375,0.6331170821856644
0.015,1.794375,1.0,1986.1433829456846,0.15547872867847295,1.3384977635344633,0.8445418817012421,0.28841675,0.6346277553640516
0.0155,1.79399375,1.0,2033.3609890125647,0.1602158248686647,1.3378254046671247,0.8520028082758382,0.2884007375,0.636077793244558
0.016,1.7936,1.0,2078.2239077664653,0.1649263508432631,1.3371776969219153,0.8589238188301666,0.2883842,0.6374719410026564
0.0165,1.7931937500000001,1.0,2120.7976001859015,0.16961045431326496,1.3365529888249765,0.8653542088605866,0.2883671375,0.6388140488296404
0.017,1.792775,1.0,2161.1596632737765,0.17426828298966715,1.3359496289024502,0.8713379901063136,0.28834955,0.6401079299754656
0.0175,1.7923437500000001,1.0,2199.3988114439358,0.17889998458346654,1.3353659656804782,0.876914515047351,0.2883314375,0.6413573630841848
0.018000000000000002,1.7919,1.0,2235.5990479492375,0.18350570532961963,1.3348004970379281,0.882119063715426,0.2883128,0.6425657754564933
0.0185,1.79144375,1.0,2269.8594045173754,0.18808559311774742,1.3342516588441835,0.886983264750158,0.2882936375,0.6437366982140038
0.019,1.790975,1.0,2302.252105083028,0.19263979194660957,1.3337182335982793,0.8915356168208216,0.28827395,0.6448728972067739
0.0195,1.79049375,1.0,2332.847249873288,0.19716844483328233,1.3331990889854273,0.895801781916753,0.2882537375,0.6459769359033205
0.02,1.79,1.0,2361.72071363107,0.20167169479484193,1.3326930926908385,0.8998048870457761,0.288233,0.647051358660093
0.0205,1.78949375,1.0,2388.9536595884474,0.20614968484836463,1.3321991123997248,0.9035658087890311,0.2882117375,0.6480986917118464
0.021,1.788975,1.0,2414.6164342936713,0.21060255586031842,1.3317161670174307,0.9071034546953064,0.28818995000000003,0.6491211241685715
0.021500000000000002,1.78844375,1.0,2438.7976841118907,0.2150304518214008,1.3312431387960295,0.9104349199792638,0.2881676375,0.6501211192619718
0.022,1.7879,1.0,2461.5577152521746,0.21943351161371422,1.3307792195470736,0.9135757713973656,0.2881448,0.6511004716703728
0.0225,1.78734375,1.0,2482.9545810886184,0.2238118732871553,1.3303236517841457,0.9165401588933759,0.28812143749999997,0.652060858010161
0.023,1.786775,1.0,2503.0490591877997,0.2281656748916207,1.3298756780208298,0.9193409553073626,0.28809755,0.6530039446756946
0.0235,1.78619375,1.0,2521.9044226011997,0.23249505447700702,1.329434540770709,0.9219898893139041,0.28807313749999996,0.6539313882244644
0.024,1.7856,1.0,2539.580635529207,0.23680014901554283,1.3289995352084492,0.9244976719685807,0.2880482,0.654844725231583
0.0245,1.78499375,1.0,2556.137974092711,0.2410810954695704,1.3285699723968243,0.9268740935330616,0.2880227375,0.655745450379943
0.025,1.784375,1.0,2571.6433634274454,0.24533803162703685,1.3281451180316777,0.9291281052391546,0.28799675,0.6566351451274756
0.025500000000000002,1.78374375,1.0,2586.1400324232045,0.24957109024519455,1.327724474915158,0.9312679468917545,0.2879702375,0.6575148869310714
0.026000000000000002,1.7831000000000001,1.0,2599.672476185323,0.2537804040812959,1.327307545849414,0.9333011784274723,0.2879432,0.6583857475447508
0.0265,1.78244375,1.0,2612.2863501216316,0.2579661058925932,1.3268938336365943,0.9352347451855709,0.2879156375,0.6592487931453145
0.027,1.781775,1.0,2624.028369510809,0.262128328436339,1.3264828410788478,0.9370750361170723,0.28788755,0.6601050844422315
0.0275,1.7810937500000001,1.0,2634.9459540542575,0.26626720431307727,1.326074073388249,0.9388279360692322,0.2878589375,0.6609556717601874
0.028,1.7804,1.0,2645.08135065802,0.2703828623914793,1.3256670916050044,0.9404988786566718,0.2878298,0.6618014842013319
0.0285,1.77969375,1.0,2654.483434432941,0.2744754383744102,1.3252614025600045,0.9420928755453909,0.2878001375,0.6626435586884526
0.029,1.778975,1.0,2663.184831909534,0.2785450594928973,1.3248566691865906,0.9436145779778476,0.28776995,0.6634826035873534
0.029500000000000002,1.7782437500000001,1.0,2671.218709099609,0.2825918529779681,1.3244525544181047,0.9450682900605382,0.2877392375,0.6643193237613738
0.03,1.7775,1.0,2678.618723426148,0.28661594606065,1.324048721187888,0.9464579991146603,0.287708,0.6651544205883114
0.0305,1.77674375,1.0,2685.4189781718105,0.2906174659719704,1.3236448324292818,0.9477874030126239,0.2876762375,0.6659885919700961
0.031,1.775975,1.0,2691.653979446702,0.2945965399429567,1.323240551075628,0.9490599348324973,0.28764395,0.6668225323352179
0.0315,1.7751937500000001,1.0,2697.353548372272,0.29855329159462934,1.3228355862108936,0.9502787897440161,0.2876111375,0.6676568376143772
0.032,1.7744,1.0,2702.5450672667957,0.30248784525774786,1.3224296719819735,0.9514469434461026,0.2875778,0.6684920491887659
0.0325,1.77359375,1.0,2707.269506053446,0.30640033683715323,1.3220224209349434,0.9525671557332094,0.2875439375,0.6693289554056063
0.033,1.772775,1.0,2711.547159224263,0.3102908867203717,1.3216136367167666,0.9536420168986723,0.28750955,0.6701679485899736
0.0335,1.7719437500000002,1.0,2715.3985053623237,0.31415961529492936,1.3212031229744061,0.9546739435095555,0.2874746375,0.671009418977961
0.034,1.7711000000000001,1.0,2718.844189667635,0.3180066429483525,1.3207906833548246,0.9556651921262488,0.2874392,0.6718537546962521
0.0345,1.7702437500000001,1.0,2721.905007337972,0.32183209006816726,1.3203761215049854,0.956617871784335,0.2874032375,0.672701341739231
0.035,1.7693750000000001,1.0,2724.6018878045934,0.3256360770418998,1.3199592410718513,0.9575339553633956,0.28736675,0.6735525639436384
0.035500000000000004,1.76849375,1.0,2726.9558798230933,0.32941872425707625,1.319539845702385,0.9584152899536496,0.2873297375,0.6744078029607652
0.036000000000000004,1.7676,1.0,2728.988137418083,0.33318015210122287,1.31911773904355,0.9592636063191876,0.2872922,0.6752674382261885
0.0365,1.76669375,1.0,2730.7199066840667,0.3369204809618657,1.318692724742309,0.9600805275458678,0.2872541375,0.6761318469270499
0.037,1.765775,1.0,2732.1721523269794,0.34063983070545206,1.3182646097264,0.9608675771647598,0.28721555,0.6770013973077244
0.0375,1.76484375,1.0,2733.356710503013,0.3443383102602302,1.317833284456918,0.9616261920081682,0.2871764375,0.6778762860055096
0.038,1.7639,1.0,2734.298762946119,0.3480160524307875,1.3173985186591004,0.9623577160520821,0.28713679999999997,0.6787569526562778
0.0385,1.76294375,1.0,2735.0097080933333,0.35167317019668143,1.3169602076904652,0.9630634212949335,0.28709663750000003,0.6796435801684222
0.039,1.761975,1.0,2735.5009807042425,0.35530977653746965,1.316518246908531,0.9637445051273066,0.28705595,0.6805363500444841
0.0395,1.7609937500000001,1.0,2735.7840471108516,0.3589259844327096,1.3160725316708164,0.964402095509133,0.2870147375,0.6814354423571454
0.04,1.76,1.0,2735.870400709072,0.362521906861959,1.3156229573348395,0.9650372557343067,0.286973,0.6823410357245221
0.0405,1.7589937500000001,1.0,2735.77155769382,0.36609765680477524,1.3151694192581187,0.965650988819631,0.2869307375,0.6832533072847583
0.041,1.757975,1.0,2735.499053036528,0.3696533472407159,1.3147118127981725,0.9662442415513659,0.28688795,0.6841724326699236
0.0415,1.75694375,1.0,2735.064436705203,0.3731890911493386,1.3142500333125193,0.9668179082193861,0.2868446375,0.6850985859792108
0.042,1.7559,1.0,2734.4792701281563,0.3767050015102008,1.3137839761586776,0.9673728340660616,0.28680079999999997,0.6860319397514364
0.0425,1.75484375,1.0,2733.7551228994553,0.38020119130286023,1.3133135366941657,0.9679098184743623,0.2867564375,0.6869726649368421
0.043000000000000003,1.753775,1.0,2732.8943278423917,0.3836777554134079,1.312838694229491,0.9684296218704103,0.28671155,0.6879207633698567
0.043500000000000004,1.75269375,1.0,2731.9150385522903,0.38713482402152927,1.312359284414947,0.9689329583309808,0.28666613750000003,0.6888765224482853
0.044,1.7516,1.0,2730.827801286929,0.39057251223619394,1.3118752119918462,0.9694205074887938,0.2866202,0.6898400897482175
0.0445,1.75049375,1.0,2729.6381250457493,0.3939909248948449,1.3113864274735618,0.9698929156472414,0.2865737375,0.690811520361136
0.045,1.7493750000000001,1.0,2728.3515200835946,0.397390166834925,1.3108928813734673,0.9703507958588558,0.28652675,0.6917908683396148
0.0455,1.74824375,1.0,2726.9734969145316,0.4007703428938773,1.310394524204936,0.9707947299559766,0.2864792375,0.6927781866823706
0.046,1.7471,1.0,2725.5095653695753,0.4041315579091447,1.3098913064813416,0.9712252704384511,0.2864312,0.6937735273191558
0.0465,1.7459437500000001,1.0,2723.9652337084794,0.40747391671817,1.3093831787160575,0.9716429422297046,0.28638263750000004,0.6947769410954976
0.047,1.744775,1.0,2722.3460077860504,0.41079752415839627,1.308870091422457,0.9720482443115306,0.28633355,0.6957884777572804
0.0475,1.74359375,1.0,2720.657390273059,0.4141024850672664,1.3083519951139138,0.972441651247046,0.28628393750000003,0.6968081859351687
0.048,1.7424,1.0,2718.904879930554,0.4173889042822233,1.307828840303801,0.9728236146004393,0.2862338,0.6978361131288808
0.0485,1.74119375,1.0,2717.0939709395993,0.42065688664070994,1.3073005775054922,0.9731945642614057,0.2861831375,0.6988723056912978
0.049,1.739975,1.0,2715.2301522842454,0.4239065369801692,1.306767157232361,0.9735549096814854,0.28613195,0.6999168088124234
0.0495,1.73874375,1.0,2713.318907189592,0.4271379601380441,1.3062285299977807,0.9739050410289232,0.2860802375,0.7009696665031835
0.05,1.7375,1.0,2711.365447202272,0.43035125883113134,1.3056846487356701,0.9742453301840875,0.286028,0.7020309168601722
0.0505,1.73624375,1.0,2709.3723627104146,0.4335465156088764,1.3051354902358576,0.9745761311286052,0.2859752375,0.7031005503779427
0.051000000000000004,1.734975,1.0,2707.347081770761,0.43672386346051834,1.3045809871104548,0.9748977844482177,0.28592195,0.7041786425089955
0.051500000000000004,1.73369375,1.0,2705.2918549684746,0.4398833987412927,1.3040211191484612,0.9752106142103302,0.2858681375,0.705265175738894
0.052000000000000005,1.7324,1.0,2703.2089300744387,0.443025217806435,1.3034558661388764,0.9755149299325379,0.2858138,0.7063601317152561
0.0525,1.73109375,1.0,2701.100551924559,0.4461494170111807,1.3028852078707,0.9758110273598419,0.28575893750000003,0.7074634912408253
0.053,1.729775,1.0,2698.9689623075087,0.4492560927107655,1.3023091241329314,0.9760991891938446,0.28570355000000003,0.7085752342665175
0.0535,1.72844375,1.0,2696.8163998616847,0.45234534126042486,1.30172759471457,0.9763796857772793,0.2856476375,0.7096953398844397
0.054,1.7271,1.0,2694.6450999815206,0.45541725901539426,1.3011405994046155,0.9766527757369661,0.2855912,0.710823786320883
0.0545,1.7257437500000001,1.0,2692.457294732497,0.45847194233090927,1.3005481179920673,0.9769187065880531,0.2855342375,0.7119605509292934
0.055,1.724375,1.0,2690.2552127751383,0.4615094875622054,1.2999501302659249,0.9771777153021759,0.28547675,0.7131056101832102
0.0555,1.72299375,1.0,2688.0410792986945,0.4645299910645182,1.299346616015188,0.9774300288419742,0.2854187375,0.7142589396691823
0.056,1.7216,1.0,2685.817115963086,0.46753354919308315,1.298737555028856,0.9776758646642214,0.2853602,0.7154205140796595
0.0565,1.72019375,1.0,2683.585540850373,0.4705202583031359,1.2981229270959285,0.9779154311936497,0.28530113749999997,0.7165903072058537
0.057,1.718775,1.0,2681.3485684255347,0.4734902147499118,1.2975027120054046,0.9781489282694052,0.28524155,0.7177682919305781
0.0575,1.71734375,1.0,2679.1084095051015,0.47644351488864656,1.2968768895462843,0.978376547565922,0.2851814375,0.7189544402210565
0.058,1.7159,1.0,2676.864433924306,0.4793802086352706,1.296245465549979,0.9785984704147325,0.2851208,0.720148673919248
0.0585,1.71444375,1.0,2674.6208407930703,0.482300442019873,1.2956084015134277,0.9788148767143592,0.2850596375,0.721350997942207
0.059000000000000004,1.7129750000000001,1.0,2672.3790004110037,0.4852043148249992,1.2949656848551558,0.9790259366194346,0.28499795,0.7225613672127835
0.059500000000000004,1.71149375,1.0,2670.139548083275,0.48809191407853536,1.2943173097272531,0.9792318128572377,0.2849357375,0.7237797231980618
0.06,1.71,1.0,2667.9031180488723,0.49096332680836746,1.2936632702818087,0.9794326617867115,0.284873,0.7250060066562288
0.0605,1.7084937500000001,1.0,2665.6703434826754,0.49381864004238185,1.2930035606709118,0.9796286336950603,0.2848097375,0.726240157634462
0.061,1.7069750000000001,1.0,2663.4418564982207,0.49665794080846454,1.2923381750466518,0.979819873078322,0.28474595,0.727482115466815
0.0615,1.7054437500000001,1.0,2661.2182881513563,0.4994813161345017,1.2916671075611177,0.9800065189068967,0.2846816375,0.7287318187721028
0.062,1.7039,1.0,2659.000268444814,0.5022888530483794,1.2909903523663988,0.9801887048769413,0.2846168,0.7299892054517827
0.0625,1.70234375,1.0,2656.788426332993,0.5050806385779839,1.2903079036145844,0.9803665596484903,0.2845514375,0.7312542126878354
0.063,1.7007750000000001,1.0,2654.583389728109,0.5078567597512011,1.2896197554577638,0.9805402070710905,0.28448555,0.7325267769406414
0.0635,1.69919375,1.0,2652.3857855069537,0.5106173035959174,1.2889259020480262,0.9807097663976964,0.28441913750000003,0.7338068339468571
0.064,1.6976,1.0,2650.1962395177825,0.5133623571400189,1.2882263375374607,0.9808753524875167,0.2843522,0.7350943187172888
0.0645,1.69599375,1.0,2648.0153765892314,0.5160920074113915,1.2875210560781567,0.9810370759984596,0.2842847375,0.7363891655347623
0.065,1.694375,1.0,2645.8438205386306,0.5188063414379215,1.2868100518222036,0.9811950435697818,0.28421675,0.7376913079519926
0.0655,1.69274375,1.0,2643.682194181952,0.5215054462474951,1.2860933189216903,0.9813493579955087,0.2841482375,0.7390006787894515
0.066,1.6911,1.0,2641.5311193442194,0.5241894088679983,1.2853708515287063,0.9815001183891499,0.2840792,0.7403172101332305
0.0665,1.6894437500000001,1.0,2639.391216870809,0.5268583163273172,1.2846426437953409,0.9816474203402118,0.2840096375,0.741640833332904
0.067,1.687775,1.0,2637.2631066391536,0.529512255653338,1.2839086898736831,0.9817913560629674,0.28393955,0.7429714789993904
0.0675,1.68609375,1.0,2635.1474075717542,0.532151313873947,1.2831689839158222,0.9819320145379169,0.2838689375,0.7443090770028087
0.068,1.6844000000000001,1.0,2633.043238083821,0.5347755261757101,1.2824235339517496,0.9820694789089234,0.2837978,0.7456535314738679
0.0685,1.68269375,1.0,2630.951439766443,0.5373850274706485,1.2816723320712564,0.9822038352013003,0.2837261375,0.7470047746987878
0.069,1.680975,1.0,2628.8722759063176,0.5399799130716725,1.2809153757084522,0.9823351641559283,0.28365395,0.7483627286051632
0.0695,1.67924375,1.0,2626.805604725939,0.5425602602788475,1.280152666047271,0.9824635427874989,0.28358123749999997,0.7497273077379025
0.07,1.6775,1.0,2624.7512847274,0.5451261463922391,1.2793842042716472,0.9825890455094982,0.283508,0.7510984260315641
0.07050000000000001,1.67574375,1.0,2622.709174689342,0.5476776487119128,1.278609991565515,0.982711744238213,0.2834342375,0.7524759968107899
0.07100000000000001,1.673975,1.0,2620.6791336639358,0.550214844537934,1.2778300291128082,0.9828317084918937,0.28335995,0.7538599327907403
0.07150000000000001,1.67219375,1.0,2618.6610209745763,0.5527378111703685,1.277044318097461,0.9829490054853269,0.2832851375,0.755250146077528
0.07200000000000001,1.6704,1.0,2616.6546962128587,0.5552466259092813,1.276252859703408,0.9830637002200624,0.2832098,0.7566465481686517
0.0725,1.66859375,1.0,2614.6600192359133,0.5577413660547382,1.275455655114583,0.9831758555705197,0.2831339375,0.7580490499534308
0.073,1.6667750000000001,1.0,2612.676850163803,0.5602221089068049,1.2746527055149204,0.9832855323661865,0.28305755,0.7594575617134389
0.0735,1.66494375,1.0,2610.7050493769507,0.5626889317655466,1.2738440120883538,0.9833927894701134,0.2829806375,0.7608719931229385
0.074,1.6631,1.0,2608.7444775131153,0.5651419119310288,1.2730295760188182,0.9834976838538926,0.2829032,0.7622922532493125
0.0745,1.6612437500000001,1.0,2606.7949954654923,0.5675811267033171,1.2722093984902472,0.9836002706692982,0.2828252375,0.7637182505535007
0.075,1.659375,1.0,2604.8564643796576,0.570006653382477,1.271383480686575,0.9837006033167616,0.28274675,0.7651498928904319
0.0755,1.65749375,1.0,2602.9287456512784,0.5724185692685739,1.2705518237917357,0.9837987335108346,0.2826677375,0.7665870875094567
