Time [s],Phi [rad],STIM [ ],Fsee [N],Gamma [ ],Lcerel [ ],q [ ],Lmtc [m],fisomrel [ ]
0.0,1.8,1.0,17.968377737702294,1.7328904227320767e-05,1.3793396095894,0.005000079686350113,0.288653,0.5411398615961788
0.0005,1.79999375,1.0,18.28006773369346,0.005626441011575523,1.3793020186203957,0.012960871213837773,0.2886527375,0.5412307993319293
0.001,1.799975,1.0,21.62708426051252,0.011204090434887851,1.3789374133501453,0.03564677094443324,0.28865195,0.5421123621285113
0.0015,1.79994375,1.0,31.08943692765167,0.01675045365581246,1.378044482959331,0.0706539814081189,0.2886506375,0.5442677579847324
0.002,1.7999,1.0,53.625495674044366,0.022265706164335947,1.3763653356350445,0.11477974628942332,0.2886488,0.5483071879219398
0.0025,1.79984375,1.0,97.19115970114323,0.027750022466394776,1.3739316876978895,0.16464202810534806,0.28864643749999996,0.5541297606358674
0.003,1.7997750000000001,1.0,161.05218651594436,0.033203576091528325,1.3712108250233757,0.21734971691936875,0.28864354999999997,0.5605947812036505
0.0035,1.79969375,1.0,237.78957762764676,0.03862653959252072,1.3685814619383367,0.27068178105462903,0.2886401375,0.5667975316179796
0.004,1.7996,1.0,321.57982155050075,0.04401908455617019,1.3661530983910615,0.3229825109019573,0.2886362,0.5724869532481686
0.0045000000000000005,1.7994937500000001,1.0,409.3848409770001,0.04938138160847738,1.3639200658101247,0.3730978341849217,0.2886317375,0.5776855411376101
0.005,1.799375,1.0,499.5329762403989,0.054713600405743634,1.3618558037270065,0.42030670945979076,0.28862675,0.5824629378478384
0.0055,1.79924375,1.0,590.9109818546373,0.060015909681792295,1.3599364796159714,0.4642285546482733,0.2886212375,0.5868805186277468
0.006,1.7991000000000001,1.0,682.6388364928803,0.06528847719176649,1.3581442203277458,0.5047303759740809,0.2886152,0.5909844306308387
0.006500000000000001,1.79894375,1.0,774.0036686827983,0.07053146976747246,1.3564651640668601,0.5418468308976819,0.2886086375,0.5948105446644978
0.007,1.798775,1.0,864.4082811701636,0.07574505329910562,1.3548884167840534,0.5757187513507188,0.28860155,0.5983871544403956
0.0075,1.79859375,1.0,953.3645777537856,0.08092939275354832,1.3534049125722958,0.6065480802917872,0.2885939375,0.6017377798780867
0.008,1.7984,1.0,1040.4714536079432,0.08608465199606712,1.3520069827069168,0.634566787501403,0.2885858,0.6048822835636876
0.0085,1.79819375,1.0,1125.4332543548683,0.09121099450343131,1.3506875565606034,0.6600159153357523,0.2885771375,0.6078387680916889
0.009000000000000001,1.797975,1.0,1208.008096816527,0.09630858254313501,1.3494405605364392,0.6831328628939444,0.28856795,0.6106227508035049
0.0095,1.79774375,1.0,1287.992976217368,0.10137757680511068,1.3482607903663475,0.7041435810791454,0.2885582375,0.6132475187927519
0.01,1.7975,1.0,1365.268836818243,0.10641813790891141,1.3471430770584374,0.7232579666011081,0.288548,0.615726033323979
0.0105,1.79724375,1.0,1439.762809977965,0.1114304256694684,1.3460826533968795,0.7406682731673618,0.2885372375,0.6180701435515796
0.011,1.796975,1.0,1511.417685864104,0.11641459840112132,1.3450753874336252,0.7565488872586461,0.28852595000000003,0.6202901051898388
0.0115,1.79669375,1.0,1580.2049181431594,0.12137081355653964,1.344117480689279,0.7710567242716497,0.2885141375,0.6223952789670397
0.012,1.7964,1.0,1646.1478487197217,0.1262992288108899,1.3432051017299158,0.7843321337428186,0.28850180000000003,0.6243949558244839
0.0125,1.79609375,1.0,1709.2604405600587,0.13119999956074527,1.342335041601101,0.7965005138060118,0.2884889375,0.6262969365177692
0.013000000000000001,1.7957750000000001,1.0,1769.57509874114,0.1360732804883176,1.3415042989527202,0.8076735202977062,0.28847555,0.6281084623622805
0.0135,1.79544375,1.0,1827.1479976920061,0.1409192258124969,1.3407099677188845,0.8179504231234983,0.2884616375,0.6298364728858312
0.014,1.7951000000000001,1.0,1882.0553888137495,0.14573798981849576,1.33994923887428,0.8274194479414108,0.2884472,0.6314876115714214
0.0145,1.79474375,1.0,1934.36098307255,0.1505297247275541,1.3392197177570726,0.8361591258882667,0.2884322375,0.6330675481020791
0.015,1.794375,1.0,1984.126481611637,0.15529458137631186,1.3385192604935283,0.8442393452881763,0.28841675,0.6345813465399066
0.0155,1.79399375,1.0,2031.432090443043,0.16003271060140886,1.3378457232099141,0.851722276933557,0.2884007375,0.6360340156529658
0.016,1.7936,1.0,2076.3588028664826,0.16474426216897659,1.3371971300156367,0.8586633374136935,0.2883842,0.6374301514962304
0.0165,1.7931937500000001,1.0,2119.0108515303496,0.1694293868382737,1.3365714174414314,0.8651119111626663,0.2883671375,0.6387744928618169
0.017,1.792775,1.0,2159.461476642911,0.17408823194690787,1.3359669795108804,0.8711122215898609,0.28834955,0.6400707547140807
0.0175,1.7923437500000001,1.0,2197.784703645681,0.17872094408592876,1.3353823130403522,0.8767038358640846,0.2883314375,0.641322398277115
0.018000000000000002,1.7919,1.0,2234.0642271989504,0.18332766984638604,1.334815914846215,0.8819221836112756,0.2883128,0.6425328544824365
0.0185,1.79144375,1.0,2268.3815456330967,0.1879085550166605,1.334266391857224,0.8867990682542853,0.2882936375,0.6437052910546965
0.019,1.790975160203081,1.0,2300.841747126756,0.19246374578488107,1.3337322666359799,0.8913630372603193,0.2882739567285294,0.6448430299936583
0.0195,1.7905021614719343,1.0,2331.869440604256,0.19699338654616613,1.3332125025952113,0.8956398835002086,0.28825409078182124,0.645948431486723
0.02,1.7900291627407878,1.0,2361.7020047502783,0.20149761934754784,1.3327064457800597,0.8996529379606268,0.2882342248351131,0.6470230259451537
0.0205,1.7895561640096411,1.0,2390.380103775814,0.2059765862360583,1.3322134422356664,0.9034232561334358,0.2882143588884049,0.6480683316260509
0.021,1.7890831652784944,1.0,2417.9471943950653,0.21043042925872962,1.3317328380071731,0.9069698707829836,0.28819449294169674,0.6490858551903911
0.021500000000000002,1.788610166547348,1.0,2444.4453504372086,0.21485928929634732,1.3312640174719756,0.9103100212661346,0.28817462699498864,0.6500770112510414
0.022,1.7881371678162012,1.0,2469.919496080871,0.2192633081265749,1.330806360226095,0.913459340159609,0.2881547610482804,0.6510432143940147
0.0225,1.7876641690850548,1.0,2494.4072996205023,0.22364262450794348,1.3303593358056938,0.9164320415296179,0.2881348951015723,0.651985679993689
0.023,1.787191170353908,1.0,2517.944528570384,0.2279973759649922,1.3299224494867503,0.9192410607828041,0.28811502915486414,0.6529055399383377
0.0235,1.7867181716227614,1.0,2540.5686364889966,0.23232770002226022,1.329495206545243,0.921898181728671,0.288095163208156,0.6538039185704965
0.024,1.7862451728916149,1.0,2562.318654489388,0.2366337342042867,1.3290771122571499,0.9244141550116555,0.2880752972614478,0.6546819329990281
0.0245,1.7857721741604682,1.0,2583.220315750015,0.24091561003413786,1.3286678099234845,0.9267988242072566,0.28805543131473965,0.6555404040819524
0.025,1.7852991754293215,1.0,2603.332139422789,0.2451734727983106,1.3282666483752994,0.9290611516041745,0.2880355653680315,0.6563807639172434
0.025500000000000002,1.784826176698175,1.0,2622.683450719969,0.24940745552331106,1.32787326151218,0.9312093907677133,0.2880156994213233,0.6572038405145588
0.026000000000000002,1.7843531779670283,1.0,2641.3010487648717,0.25361768979769855,1.3274873158028875,0.9332511183416722,0.2879958334746152,0.658010388993048
0.0265,1.7838801792358818,1.0,2659.212621983296,0.25780430721003245,1.3271084777161823,0.9351932944565006,0.28797596752790705,0.6588011600963068
0.027,1.7834071805047351,1.0,2676.4466943105363,0.26196743934887207,1.3267364137208255,0.9370423211794849,0.2879561015811989,0.6595769003471095
0.0275,1.7829341817735884,1.0,2693.032573864252,0.26610721780277674,1.3263707902855777,0.9388040947123434,0.2879362356344907,0.6603383521950493
0.028,1.782461183042442,1.0,2709.0003040840043,0.27022377416030585,1.3260112738791998,0.9404840520726475,0.28791636968778256,0.6610862541570834
0.0285,1.7819881843112952,1.0,2724.3806173373723,0.27431724001001867,1.3256575309704526,0.9420872129019142,0.2878965037410744,0.6618213409509844
0.029,1.7815151855801485,1.0,2739.196000298473,0.27838774182101367,1.3253093086979237,0.9436182263302334,0.28787663779436623,0.662544176257905
0.029500000000000002,1.781042186849002,1.0,2753.479476188685,0.2824354140053962,1.324966263468612,0.9450813849758838,0.28785677184765807,0.6632555089516861
0.03,1.7805691881178554,1.0,2767.256634655384,0.2864603860299007,1.3246281240386624,0.9464806734855036,0.2878369059009499,0.6639559345763356
0.0305,1.7800961893867089,1.0,2780.5459831986955,0.2904627826942417,1.324294687138583,0.9478197945310474,0.2878170399542418,0.6646459052732416
0.031,1.7796231906555622,1.0,2793.3663967473603,0.29444272879813355,1.3239657494988823,0.9491021855924263,0.28779717400753363,0.66532587101922
0.0315,1.7791501919244155,1.0,2805.7370969237913,0.2984003491412906,1.3236411078500687,0.9503310412715982,0.28777730806082547,0.6659962796861614
0.032,1.778677193193269,1.0,2817.6776322247947,0.30233576852342725,1.3233205589226507,0.9515093334687572,0.2877574421141173,0.6666575770980383
0.0325,1.7782041944621223,1.0,2829.207859118447,0.3062491117442579,1.323003899447136,0.9526398296485469,0.28773757616740914,0.667310207085282
0.033,1.7777311957309756,1.0,2840.3479240570005,0.3101405036034969,1.3226909261540334,0.953725109397646,0.287717710220701,0.6679546115365185
0.0335,1.7772581969998291,1.0,2851.1171985934443,0.314010067882342,1.3223814450927258,0.9547675802361572,0.2876978442739928,0.6685912112880288
0.034,1.7767851982686824,1.0,2861.5266762119286,0.3178579212412899,1.3220753388999025,0.9557694971051173,0.28767797832728464,0.6692202680883704
0.0345,1.776312199537536,1.0,2871.604752787898,0.32168419838218754,1.3217723375347556,0.9567329555813058,0.2876581123805765,0.6698423558591177
0.035,1.7758392008063892,1.0,2881.3630596775215,0.3254890171347317,1.3214723217648288,0.9576599280522855,0.28763824643386837,0.6704577370507985
0.035500000000000004,1.7753662020752425,1.0,2890.8133805013076,0.3292724953286195,1.3211751723576652,0.9585522612720269,0.28761838048716015,0.6710666730262247
0.036000000000000004,1.774893203344096,1.0,2899.9676434101684,0.33303475079354794,1.3208807700808083,0.9594116858132288,0.28759851454045204,0.6716694240827406
0.0365,1.7744202046129494,1.0,2908.8379136645317,0.3367759013592139,1.320588995701801,0.9602398247053353,0.2875786485937439,0.6722662494735668
0.037,1.7739472058818027,1.0,2917.436386530434,0.3404960648553145,1.3202997299881871,0.9610382013367734,0.2875587826470357,0.6728574074282347
0.0375,1.7734742071506562,1.0,2925.7753804898007,0.34419535911154653,1.3200128537075095,0.9618082466916151,0.28753891670032755,0.6734431551721177
0.038,1.7730012084195095,1.0,2933.8673307663644,0.34787390195760715,1.3197282476273116,0.9625513059834827,0.2875190507536194,0.6740237489450528
0.0385,1.772528209688363,1.0,2941.724783166444,0.35153181122319327,1.3194457925151364,0.9632686447429936,0.2874991848069112,0.6745994440190575
0.039,1.7720552109572163,1.0,2949.3562589750413,0.35516919799950575,1.3191654052458985,0.9639614564177398,0.28747931886020306,0.6751704212188181
0.0395,1.7715822122260696,1.0,2956.773079901392,0.35878618038578125,1.3188869789226525,0.9646308645947588,0.28745945291349495,0.6757369090356626
0.04,1.7711092134949231,1.0,2963.9901163545896,0.3623828826753393,1.31861037646173,0.9652779270212468,0.2874395869667868,0.6762991964633758
0.0405,1.7706362147637764,1.0,2971.0141527798633,0.36595941523198006,1.3183355320970933,0.9659036452949631,0.2874197210200786,0.6768574266723868
0.041,1.7701632160326297,1.0,2977.852030417492,0.36951588841950356,1.3180623800627045,0.9665089650043168,0.28739985507337046,0.6774117423113767
0.0415,1.7696902173014832,1.0,2984.510644787254,0.37305241260170985,1.3177908545925252,0.9670947794453579,0.2873799891266623,0.6779622855145169
0.042,1.7692172185703365,1.0,2990.996943268557,0.3765690981423991,1.3175208899205182,0.9676619330550201,0.28736012317995413,0.6785091979084252
0.0425,1.76874421983919,1.0,2997.3179227769165,0.38006605540537136,1.317252420280645,0.968211224584976,0.28734025723324597,0.6790526206188552
0.043000000000000003,1.7682712211080434,1.0,3003.4806275358837,0.3835433947544267,1.3169853799068678,0.968743410038161,0.2873203912865378,0.6795926942771005
0.043500000000000004,1.7677982223768967,1.0,3009.4921469450014,0.3870012265533653,1.316719703033149,0.9692592053879358,0.28730052533982964,0.6801295590261285
0.044,1.7673252236457502,1.0,3015.3596135439007,0.39043966116598705,1.3164553238934504,0.9697592890980075,0.28728065939312153,0.6806633545264393
0.0445,1.7668522249146035,1.0,3021.09020107167,0.39385880895609227,1.3161921767217342,0.9702443044595535,0.2872607934464133,0.6811942199616443
0.045,1.7663792261834568,1.0,3026.6901487600308,0.397258777266964,1.3159302041581935,0.970714861964075,0.2872409274997052,0.6817222771063844
0.0455,1.7659062274523103,1.0,3032.1607174627143,0.40063966036585313,1.315669392070723,0.9711715425091885,0.28722106155299704,0.6822475602987889
0.046,1.7654332287211636,1.0,3037.5153220289285,0.40400159204289326,1.315409621731662,0.9716148955742302,0.2872011956062889,0.6827703141552612
0.0465,1.7649602299900171,1.0,3042.757555416333,0.40734467458132095,1.3151508594556873,0.9720454451474786,0.2871813296595807,0.6832906115572118
0.047,1.7644872312588704,1.0,3047.8910309831385,0.4106690102643728,1.3148930715574751,0.9724636894345718,0.28716146371287254,0.6838085251438101
0.0475,1.7640142325277237,1.0,3052.9193817476025,0.4139747013752853,1.314636224351702,0.9728701023698785,0.2871415977661644,0.6843241273141117
0.048,1.7635412337965772,1.0,3057.8462596729937,0.41726185019729506,1.3143802841530443,0.9732651350256033,0.2871217318194562,0.6848374902291171
0.0485,1.7630682350654305,1.0,3062.6753349776477,0.42053055901363867,1.3141252172761786,0.9736492169264435,0.2871018658727481,0.6853486858137551
0.049,1.7625952363342838,1.0,3067.410295469758,0.4237809301075527,1.3138709900357812,0.974022757276934,0.2870819999260399,0.6858577857587963
0.0495,1.7621222376031374,1.0,3072.054845908548,0.42701306576227366,1.3136175687465286,0.9743861461080388,0.2870621339793318,0.6863648615226927
0.05,1.7616492388719907,1.0,3076.6127073887533,0.4302270682610381,1.3133649197230972,0.974739755348985,0.2870422680326236,0.6868699843333446
0.0505,1.7611762401408442,1.0,3081.0876167520382,0.4334230398870827,1.3131130092801633,0.9750839398298466,0.28702240208591545,0.6873732251897972
0.051000000000000004,1.7607032414096975,1.0,3085.4833260224596,0.43660108292364397,1.3128618037324036,0.975419038219938,0.2870025361392073,0.6878746548638616
0.051500000000000004,1.7602302426785508,1.0,3089.803601867428,0.43976129965395844,1.3126112693944945,0.9757453739066577,0.2869826701924991,0.6883743439016672
0.052000000000000005,1.7597572439474043,1.0,3094.0522250840468,0.4429037923612627,1.312361372581112,0.9760632558190585,0.28696280424579096,0.6888723626251394
0.0525,1.7592842452162576,1.0,3098.227504764869,0.4460286288899413,1.3121121264057096,0.9763729785242147,0.2869429382990828,0.689368687979931
0.053,1.758811246485111,1.0,3102.3374558729533,0.44913594571431026,1.3118634612182505,0.9766748256772375,0.2869230723523747,0.6898634615974897
0.0535,1.7583382477539644,1.0,3106.3858347778237,0.4522258497717585,1.311615343858812,0.9769690677443144,0.2869032064056665,0.6903567521420737
0.054,1.7578652490228177,1.0,3110.3743269690467,0.4552984342036043,1.311367758904976,0.9772559632218121,0.28688334045895836,0.6908485928395816
0.0545,1.7573922502916712,1.0,3114.304624505135,0.45835379215116556,1.3111206909343227,0.9775357595815466,0.2868634745122502,0.6913390168129772
0.055,1.7569192515605245,1.0,3118.178425834135,0.4613920167557606,1.3108741245244333,0.9778086938331301,0.28684360856554203,0.6918280570828035
0.0555,1.7564462528293778,1.0,3121.9974356194157,0.4644132011587074,1.3106280442528888,0.9780749930531063,0.28682374261883387,0.6923157465676829
0.056,1.7559732540982314,1.0,3125.7633645708734,0.46741743850132417,1.3103824346972703,0.9783348748830959,0.2868038766721257,0.6928021180848045
0.0565,1.7555002553670846,1.0,3129.4779292815156,0.470404821924929,1.3101372804351583,0.9785885479990071,0.28678401072541754,0.6932872043503953
0.057,1.755027256635938,1.0,3133.1428520686477,0.47337544457083996,1.3098925660441343,0.9788362125532175,0.2867641447787094,0.6937710379801718
0.0575,1.7545542579047915,1.0,3136.759860821498,0.4763293995803753,1.309648276101779,0.9790780605914865,0.28674427883200126,0.6942536514897848
0.058,1.7540812591736448,1.0,3140.3306888527413,0.479266780094853,1.309404395185673,0.9793142764462368,0.28672441288529305,0.6947350772952419
0.0585,1.753608260442498,1.0,3143.857074756704,0.48218767925559125,1.309160907873398,0.9795450371077246,0.28670454693858494,0.6952153477133176
0.059000000000000004,1.7531352617113516,1.0,3147.340762271505,0.4850921902039082,1.3089177987425344,0.9797705125745015,0.2866846809918768,0.6956944949619484
0.059500000000000004,1.7526622629802049,1.0,3150.783500147528,0.4879804060811219,1.3086750523706634,0.9799908661844867,0.2866648150451686,0.6961725511606129
0.06,1.7521892642490584,1.0,3154.18704202053,0.49085242002855045,1.3084326533353658,0.9802062549278553,0.28664494909846044,0.6966495483306954
0.0605,1.7517162655179117,1.0,3157.553146290417,0.49370832518751206,1.3081905862142227,0.9804168297428841,0.2866250831517523,0.6971255183958347
0.061,1.751243266786765,1.0,3160.8835760048973,0.4965482146993248,1.3079488355848148,0.9806227357958025,0.2866052172050441,0.6976004931822599
0.0615,1.7507702680556185,1.0,3164.177901965682,0.49937215029638077,1.3077074045704578,0.9808241113199031,0.28658535125833595,0.6980744680245938
0.062,1.7502972693244718,1.0,3167.4382266528037,0.5021802405652982,1.3074662749316612,0.981021091801086,0.28656548531162784,0.6985474801646943
0.0625,1.7498242705933253,1.0,3170.6672567275737,0.5049725996417507,1.3072254233763676,0.9812138077915573,0.2865456193649197,0.6990195766301392
0.063,1.7493512718621786,1.0,3173.865727639293,0.5077493111054225,1.306984843280534,0.9814023835937956,0.2865257534182115,0.6994907716710013
0.0635,1.748878273131032,1.0,3177.0343769197266,0.5105104585359984,1.3067445280201173,0.9815869389560731,0.28650588747150335,0.6999610794952662
0.064,1.7484052743998855,1.0,3180.173944143623,0.5132561255131629,1.3065044709710747,0.9817675892728537,0.2864860215247952,0.7004305142689465
0.0645,1.7479322756687388,1.0,3183.2851708905096,0.5159863956166003,1.3062646655093633,0.981944445774954,0.286466155578087,0.7008990901161921
0.065,1.747459276937592,1.0,3186.3688007071564,0.5187013524259955,1.3060251050109395,0.9821176157100637,0.28644628963137886,0.7013668211193989
0.0655,1.7469862782064456,1.0,3189.4255790710044,0.5214010795210327,1.3057857828517607,0.9822872025141812,0.2864264236846707,0.7018337213193107
0.066,1.7465132794752989,1.0,3192.4562533549597,0.5240856604813965,1.3055466924077839,0.9824533059744791,0.28640655773796253,0.7022998047151248
0.0665,1.7460402807441522,1.0,3195.461572792557,0.5267551788867715,1.3053078270549658,0.9826160223840908,0.2863866917912544,0.7027650852645889
0.067,1.7455672820130057,1.0,3198.44228844445,0.5294097183168421,1.3050691801692638,0.9827754446892717,0.2863668258445462,0.7032295768840986
0.0675,1.745094283281859,1.0,3201.399153166337,0.5320493623512931,1.3048307451266346,0.982931662629359,0.2863469598978381,0.7036932934487907
0.068,1.7446212845507125,1.0,3204.332921576547,0.5346741945698088,1.3045925153030349,0.9830847628699364,0.28632709395112993,0.7041562487926354
0.0685,1.7441482858195658,1.0,3207.2443500260147,0.5372842985520737,1.3043544840744223,0.9832348291295714,0.28630722800442177,0.7046184567085211
0.069,1.7436752870884191,1.0,3210.134196568595,0.5398797578777725,1.3041166448167532,0.9833819423004841,0.2862873620577136,0.7050799309483444
0.0695,1.7432022883572726,1.0,3213.0032209319897,0.5424606561265897,1.303878990905985,0.9835261805634723,0.28626749611100544,0.7055406852230879
