Time [s],Phi [rad],STIM [ ],Fsee [N],Gamma [ ],Lcerel [ ],q [ ],Lmtc [m],fisomrel [ ]
0.0,1.8,1.0,17.967698168019083,1.0290983628444008e-05,1.3793396857220672,0.005000028218992669,0.288653,0.5411396774116176
0.0005,1.79999375,1.0,18.277078157620814,0.005619442568143096,1.3793023506874917,0.012941321274035213,0.2886527375,0.5412299960553031
0.001,1.799975,1.0,21.61888474978005,0.011197131247189808,1.378938250720343,0.03561009106164048,0.28865195,0.5421103384598422
0.0015,1.79994375,1.0,31.07010442171666,0.016743533503651997,1.378046129743308,0.07060377767819316,0.2886506375,0.5442637875832461
0.002,1.7999,1.0,53.58391567271514,0.02225882482876334,1.37636803256972,0.11472029108983306,0.2886488,0.5483007144757595
0.0025,1.79984375,1.0,97.12125662264903,0.027743179729669536,1.3739350555143015,0.16457734472588956,0.28864643749999996,0.554121729137488
0.003,1.7997750000000001,1.0,160.9611967201619,0.03319677173714648,1.3712142303447912,0.2172829834947985,0.28864354999999997,0.5605867193543506
0.0035,1.79969375,1.0,237.6867561416133,0.038619773405191196,1.3685846287468368,0.27061540432595965,0.2886401375,0.566790087536851
0.004,1.7996,1.0,321.4704319666436,0.04401235632180412,1.3661559954403948,0.3229182377523746,0.2886362,0.5724801881474924
0.0045000000000000005,1.7994937500000001,1.0,409.27157378642033,0.049374691114173724,1.3639227244264729,0.3730368203963439,0.2886317375,0.577679370682441
0.005,1.799375,1.0,499.41741994306875,0.0547069474397645,1.3618582591370763,0.4202496252186507,0.28862675,0.5824572713465707
0.0055,1.79924375,1.0,590.7943885905022,0.060009294033792494,1.3599387574455744,0.46417570295424165,0.2886212375,0.5868752898231377
0.006,1.7991000000000001,1.0,682.5220970961232,0.06528189865236132,1.3581463422423177,0.5046818053435346,0.2886152,0.5909795839874001
0.006500000000000001,1.79894375,1.0,773.8853175251979,0.07052492812808048,1.3564671843162361,0.5418024458771078,0.2886086375,0.5948059518675208
0.007,1.798775,1.0,864.2897709551399,0.07573854835366421,1.3548903310337674,0.5756783189452187,0.28860155,0.5983828218709917
0.0075,1.79859375,1.0,953.2471953737652,0.08092292429166319,1.3534067179752627,0.6065113152486212,0.2885939375,0.6017337107460241
0.008,1.7984,1.0,1040.3489828837812,0.08607821958914152,1.3520087857967293,0.6345334475384141,0.2885858,0.6048782357203837
0.0085,1.79819375,1.0,1125.3190724849276,0.09120459832471814,1.350689172911592,0.659985585554103,0.2885771375,0.6078351530694629
0.009000000000000001,1.797975,1.0,1207.9039853773284,0.09630222241709531,1.3494419830626037,0.6831052478399832,0.28856795,0.6106195805908005
0.0095,1.79774375,1.0,1287.8951136727003,0.10137125242236408,1.3482620853234581,0.7041184435574974,0.2885582375,0.6132446426216721
0.01,1.7975,1.0,1365.1698900243134,0.10641184889661555,1.3471443487678485,0.7232351070253757,0.288548,0.6157232178525076
0.0105,1.79724375,1.0,1439.6633646595242,0.11142417175642128,1.3460838980081937,0.7406474551884217,0.2885372375,0.6180673964906065
0.011,1.796975,1.0,1511.326124249594,0.1164083797512352,1.3450765058799523,0.7565298535040756,0.28852595000000003,0.6202876437808778
0.0115,1.79669375,1.0,1580.124030610978,0.12136463006194301,1.3441184470022673,0.7710392774657977,0.2885141375,0.6223931582676905
0.012,1.7964,1.0,1646.0586287994765,0.12629307927726455,1.3432061460188451,0.7843162079171427,0.28850180000000003,0.6243926700729948
0.0125,1.79609375,1.0,1709.1759769274065,0.13119388442842897,1.342336011794641,0.7964858920080046,0.2884889375,0.6262948183308017
0.013000000000000001,1.7957750000000001,1.0,1769.5094056798848,0.1360672003016455,1.3415050405641418,0.8076600092575305,0.28847555,0.6281068471597062
0.0135,1.79544375,1.0,1827.0948030852066,0.14091318028991817,1.3407105586968366,0.8179379401845445,0.2884616375,0.6298351887515607
0.014,1.7951000000000001,1.0,1881.9956721072956,0.1457319777862509,1.3399498925622155,0.8274079683518665,0.2884472,0.6314861943461038
0.0145,1.79474375,1.0,1934.2834218566647,0.15052374529457,1.3392205552238325,0.8361485947722629,0.2884322375,0.6330657363317436
0.015,1.794375,1.0,1984.054173878931,0.15528863577391538,1.3385200313817354,0.8442295894994858,0.28841675,0.6345796822490718
0.0155,1.79399375,1.0,2031.3751754150676,0.16002679918310508,1.3378463228852946,0.8517131892765253,0.2884007375,0.6360327235742516
0.016,1.7936,1.0,2076.316785885265,0.16473838473061586,1.3371975679038142,0.8586548579357386,0.2883842,0.6374292098206398
0.0165,1.7931937500000001,1.0,2118.963628590532,0.16942354162492457,1.3365719046065976,0.8651040458866496,0.2883671375,0.6387734471603552
0.017,1.792775,1.0,2159.400602897884,0.17408241804858166,1.335967601593015,0.871104940027779,0.28834955,0.640069421810705
0.0175,1.7923437500000001,1.0,2197.727463776692,0.17871516298339565,1.3353828928644533,0.876697039124067,0.2883314375,0.6413211580799446
0.018000000000000002,1.7919,1.0,2234.0196368999887,0.18332192224654548,1.334816362850432,0.8819158060809063,0.2883128,0.6425318978558926
0.0185,1.79144375,1.0,2268.3507358474594,0.1879028407317476,1.3342666990559968,0.8867930713252588,0.2882936375,0.6437046361677541
0.019,1.790975,1.0,2300.801879422022,0.1924580633327186,1.333732588986194,0.8913574268523354,0.28827395,0.6448423439048857
0.0195,1.79049375,1.0,2331.4554305121264,0.19698773418710416,1.3332127754693504,0.89563461063302,0.2882537375,0.6459478516071822
0.02,1.79,1.0,2360.396485645268,0.20149199764027653,1.3327060345527364,0.8996478256643479,0.288233,0.6470238985082697
0.0205,1.78949375,1.0,2387.7054280704724,0.20597099712372885,1.3322112416903087,0.9034180383705941,0.2882117375,0.6480729939240539
0.021,1.788975,1.0,2413.4443144413985,0.21042487288170766,1.3317274959251129,0.9069642514447961,0.28818995000000003,0.6490971570384383
0.021500000000000002,1.78844375,1.0,2437.6791165381246,0.21485376515845944,1.3312538963001948,0.9103036715218136,0.2881676375,0.6500983934500633
0.022,1.7879,1.0,2460.479396828652,0.21925781419823065,1.3307895418585998,0.9134519036921398,0.2881448,0.6510786957811788
0.0225,1.78734375,1.0,2481.9137839864934,0.22363715948594584,1.3303335718506444,0.9164231303044861,0.28812143749999997,0.6520399595293214
0.023,1.786775,1.0,2502.0483249069607,0.22799193991291913,1.3298851778301706,0.9192302632617246,0.28809755,0.6529839586988417
0.0235,1.78619375,1.0,2520.9582267449937,0.23232229577496266,1.3294434891595959,0.9218850554643844,0.28807313749999996,0.6539125875330078
0.024,1.7856,1.0,2538.692873066474,0.2366283622022822,1.3290079016563603,0.9243982768351404,0.2880482,0.6548271704326492
0.0245,1.78499375,1.0,2555.3034946578987,0.24091027432508352,1.328577811137904,0.9267797676081488,0.2880227375,0.655729024323418
0.025,1.784375,1.0,2570.8430162231584,0.2451681672735724,1.3281526134216677,0.929038531333908,0.28799675,0.6566194588792396
0.025500000000000002,1.78374375,1.0,2585.3659111745224,0.2494021761779546,1.3277317043250914,0.9311828174494523,0.2879702375,0.6574997767224837
0.026000000000000002,1.7831000000000001,1.0,2598.9122194792003,0.2536124349616987,1.3273146272648737,0.9332202183222026,0.2879432,0.658370965492528
0.0265,1.78244375,1.0,2611.5383672840803,0.2577990774736233,1.326900783875163,0.9351576858247028,0.2879156375,0.6592343032583036
0.027,1.781775,1.0,2623.337391923322,0.2619622389914194,1.32648924720769,0.9370015644999965,0.28788755,0.660091745719885
0.0275,1.7810937500000001,1.0,2634.3275770061355,0.2661020491902277,1.3260797944991527,0.9387578035026309,0.2878589375,0.6609437742965254
0.028,1.7804,1.0,2644.5278123387634,0.27021863774518884,1.3256722029862498,0.9404318878929865,0.2878298,0.6617908679913359
0.0285,1.7796945315684904,1.0,2653.9958471109626,0.2743121343314436,1.3252662499056795,0.9420288809202563,0.28780017032587657,0.6626335034193114
0.029,1.7789864518866083,1.0,2663.19879746568,0.2783826686241326,1.32486171249414,0.9435534619456176,0.28777043097923755,0.6634721548321898
0.029500000000000002,1.778278372204726,1.0,2672.2878191303885,0.2824303702983965,1.3244583679883295,0.9450099605023955,0.28774069163259847,0.664307294140146
0.03,1.7775702925228436,1.0,2681.27834033331,0.28645536624680057,1.3240560688148795,0.9464023960123296,0.28771095228595944,0.6651392355364991
0.0305,1.7768622128409612,1.0,2690.1438295836856,0.2904577873340224,1.3236550526387512,0.9477345472196466,0.28768121293932036,0.6659674964968343
0.031,1.776154133159079,1.0,2698.879395741877,0.29443775974976677,1.3232553578328217,0.9490098936344442,0.28765147359268134,0.666792007756296
0.0315,1.7754460534771968,1.0,2707.484173323364,0.29839540775457424,1.3228569858855541,0.9502316628212729,0.28762173424604226,0.6676127763548951
0.032,1.7747379737953144,1.0,2715.957307437383,0.3023308556089854,1.3224599382854123,0.9514028566545706,0.28759199489940324,0.6684298093143115
0.0325,1.774029894113432,1.0,2724.297953830054,0.3062442275735409,1.3220642165208594,0.9525262698687,0.28756225555276416,0.6692431136377711
0.033,1.77332181443155,1.0,2732.505278928799,0.3101356479087813,1.3216698220803589,0.9536045068710276,0.2875325162061251,0.670052696309918
0.0335,1.7726137347496675,1.0,2740.578770561374,0.3140052392643132,1.3212767536341623,0.95463999623407,0.28750277685948605,0.6708585700710898
0.034,1.7719056550677852,1.0,2748.5204407568517,0.3178531157993181,1.3208849871018409,0.9556350006007092,0.287473037512847,0.6716607941729956
0.0345,1.7711975753859028,1.0,2756.32822133897,0.3216794183416082,1.3204945355518516,0.9565916455251351,0.28744329816620795,0.6724593516626369
0.035,1.7704894957040207,1.0,2764.0043889853846,0.32548426420153576,1.3201053728360512,0.9575119086842478,0.28741355881956887,0.6732543057445557
0.035500000000000004,1.7697814160221383,1.0,2771.5512476638855,0.3292677706894532,1.3197174728062964,0.958397641561685,0.2873838194729298,0.6740457193314897
0.036000000000000004,1.769073336340256,1.0,2778.9711278923496,0.33303005511571265,1.3193308093144438,0.9592505789555272,0.28735408012629077,0.6748336550464998
0.0365,1.7683652566583736,1.0,2786.2663860142216,0.3367712347906664,1.3189453562123499,0.9600723476661928,0.2873243407796517,0.675618175225055
0.037,1.7676571769764915,1.0,2793.4394034896472,0.3404914270246668,1.3185610873518716,0.9608644744436351,0.28729460143301266,0.6763993419170703
0.0375,1.7669490972946091,1.0,2800.4925862008095,0.34419074912806613,1.3181779765848654,0.9616283932645421,0.2872648620863736,0.6771772168889059
0.038,1.7662410176127268,1.0,2807.4283637733793,0.3478693184112166,1.3177959977631881,0.9623654520028261,0.2872351227397345,0.6779518616253181
0.0385,1.7655329379308444,1.0,2814.2491889125663,0.35152725218447056,1.3174151247386963,0.9630769185500961,0.2872053833930955,0.6787233373313708
0.039,1.7648248582489623,1.0,2820.95753675433,0.35516466775818023,1.3170353313632464,0.9637639864369719,0.2871756440464564,0.6794917049343003
0.0395,1.76411677856708,1.0,2827.5555418701774,0.3587816780565048,1.316656594724812,0.9644277794600081,0.2871459046998174,0.6802570185500199
0.04,1.7634086988851976,1.0,2834.042442054969,0.3623783528369908,1.3162789179258536,0.9650693513768689,0.2871161653531783,0.6810192795779693
0.0405,1.7627006192033152,1.0,2840.427472730104,0.36595487919253883,1.3159022150384927,0.9656897099798988,0.2870864260065392,0.681778668793922
0.041,1.761992539521433,1.0,2846.712868109114,0.3695113641798856,1.3155264628949355,0.9662897973846233,0.2870566866599002,0.6825352398374073
0.0415,1.7612844598395507,1.0,2852.9008800174647,0.3730479148557679,1.3151516383273874,0.9668705035975704,0.2870269473132611,0.6832890461083024
0.042,1.7605763801576684,1.0,2858.993777410344,0.37656463827692255,1.3147777181680544,0.9674326699381056,0.2869972079666221,0.6840401407682171
0.0425,1.759868300475786,1.0,2864.9938459016776,0.38006164150008637,1.3144046792491428,0.9679770922017557,0.286967468619983,0.6847885767418482
0.043000000000000003,1.7591602207939037,1.0,2870.903387306256,0.3835390315819961,1.314032498402858,0.9685045235869949,0.28693772927334393,0.6855344067183005
0.043500000000000004,1.7584521411120215,1.0,2876.7247191924857,0.3869969155793886,1.3136611524614061,0.9690156774054001,0.2869079899267049,0.6862776831523678
0.044,1.7577440614301392,1.0,2882.4601744475776,0.39043540054900056,1.3132906182569928,0.9695112295932266,0.28687825058006583,0.6870184582657883
0.0445,1.7570359817482568,1.0,2888.1121008549035,0.3938545935475689,1.3129208726218244,0.9699918210407917,0.2868485112334268,0.6877567840484564
0.045,1.7563279020663747,1.0,2893.6828606827503,0.3972546016318304,1.3125518923881063,0.970458059754556,0.2868187718867877,0.6884927122596097
0.0455,1.7556198223844923,1.0,2899.1748302854467,0.4006355318585218,1.3121836543880447,0.9709105228654435,0.28678903254014865,0.6892262944289727
0.046,1.75491174270261,1.0,2904.590399715984,0.40399749128437995,1.3118161354538453,0.9713497584957285,0.2867592931935096,0.6899575818578736
0.0465,1.7542036630207276,1.0,2909.9319723505723,0.4073405869661416,1.3114493124177142,0.9717762874957184,0.28672955384687054,0.6906866256203222
0.047,1.7534955833388455,1.0,2915.201964525706,0.41066492596054355,1.311083162111857,0.9721906050604785,0.2866998145002315,0.6914134765640563
0.0475,1.7527875036569631,1.0,2920.4028051860096,0.41397061532432267,1.31071766136848,0.9725931822359439,0.28667007515359244,0.6921381853115518
0.048,1.7520794239750808,1.0,2925.536935545209,0.41725776211421567,1.3103527870197884,0.9729844673229636,0.28664033580695336,0.6928608022610008
0.0485,1.7513713442931984,1.0,2930.6068087581516,0.42052647338695937,1.309988515897989,0.9733648871870788,0.28661059646031434,0.6935813775872521
0.049,1.7506632646113163,1.0,2935.6148896049663,0.4237768561992906,1.3096248248352869,0.9737348484811894,0.2865808571136753,0.694299961242723
0.0495,1.749955184929434,1.0,2940.5591363047643,0.4270089662761663,1.3092617302285248,0.9740947354064136,0.28655111776703623,0.6950165249236581
0.05,1.7492471052475516,1.0,2945.4463045285365,0.4302229656372709,1.30889917146133,0.9744449216617709,0.28652137842039715,0.6957311921891065
0.0505,1.7485390255656692,1.0,2950.278125810445,0.4334189558215304,1.308537132061976,0.9747857595970952,0.2864916390737581,0.6964439991676363
0.051000000000000004,1.7478309458837868,1.0,2955.055879487008,0.4365970329543884,1.308175599579003,0.9751175851833113,0.28646189972711905,0.6971549739289605
0.051500000000000004,1.7471228662019047,1.0,2959.7808512429583,0.4397572931612888,1.3078145615609502,0.9754407192581556,0.28643216038048,0.6978641444229592
0.052000000000000005,1.7464147865200224,1.0,2964.454332973291,0.4428998325676753,1.307454005556358,0.9757554683405587,0.28640242103384095,0.6985715384800735
0.0525,1.74570670683814,1.0,2969.0776226483426,0.4460247472989916,1.3070939191137656,0.9760621253943365,0.28637268168720187,0.6992771838116965
0.053,1.7449986271562579,1.0,2973.6520241824387,0.4491321334806817,1.3067342897817134,0.9763609705447615,0.28634294234056284,0.6999811080105481
0.0535,1.7442905474743755,1.0,2978.178847305847,0.4522220872381892,1.306375105108741,0.9766522717513019,0.28631320299392377,0.7006833385510454
0.054,1.7435824677924932,1.0,2982.6594074407462,0.4552947046969579,1.3060163526433883,0.9769362854395623,0.28628346364728474,0.7013839027896601
0.0545,1.7428743881106108,1.0,2987.0950255794014,0.45835008198243155,1.3056580199341954,0.9772132570952283,0.28625372430064566,0.7020828279652647
0.055,1.7421663084287287,1.0,2991.4870281675244,0.46138831522005397,1.3053000945297015,0.9774834218225961,0.2862239849540066,0.7027801411994749
0.0555,1.7414582287468463,1.0,2995.8367469894247,0.46440950053526897,1.304942563978447,0.9777470048700835,0.28619424560736756,0.7034758694969729
0.056,1.740750149064964,1.0,3000.1455190573524,0.4674137340535202,1.3045854158289718,0.9780042221249294,0.2861645062607285,0.7041700397458301
0.0565,1.7400420693830816,1.0,3004.414686504695,0.4704011119002516,1.3042286376298153,0.9782552805791284,0.28613476691408946,0.7048626787178142
0.057,1.7393339897011995,1.0,3008.645596481367,0.4733717302009067,1.3038722169295176,0.9785003787684953,0.2861050275674504,0.7055538130686869
0.0575,1.738625910019317,1.0,3012.839601054157,0.47632568508092954,1.3035161412766185,0.9787397071866156,0.2860752882208113,0.7062434693384941
0.058,1.7379178303374347,1.0,3016.9980571093365,0.4792630726657637,1.3031603982196578,0.9789734486753094,0.2860455488741723,0.7069316739518448
0.0585,1.7372097506555524,1.0,3021.1223262589197,0.482183989080853,1.3028049753071755,0.9792017787931186,0.2860158095275332,0.7076184532181786
0.059000000000000004,1.73650167097367,1.0,3025.21122703247,0.48508847986479603,1.3024498820845831,0.979424863164003,0.28598607018089417,0.708303790902493
0.059500000000000004,1.735793591291788,1.0,3029.267940391003,0.48797668827252055,1.302095090437814,0.9796428669722743,0.2859563308342551,0.7089877434099778
0.06,1.7350855116099055,1.0,3033.2939193302786,0.49084871774648303,1.3017405872329058,0.9798559464867723,0.285926591487616,0.7096703380623125
0.0605,1.7343774319280232,1.0,3037.289787084563,0.4937046540965341,1.301386366525525,0.9800642509244176,0.285896852140977,0.710351588241524
0.061,1.733669352246141,1.0,3041.256169242113,0.49654458313252436,1.3010324223713379,0.9802679238164634,0.2858671127943379,0.7110315072743765
0.0615,1.7329612725642587,1.0,3045.193693708789,0.4993685906643045,1.3006787488260105,0.9804671032685377,0.2858373734476989,0.7117101084324773
0.062,1.7322531928823763,1.0,3049.102990671128,0.502176762501725,1.300325339945209,0.9806619222068892,0.2858076341010598,0.7123874049323808
0.0625,1.731545113200494,1.0,3052.9846925620113,0.5049691844546367,1.2999721897846,0.9808525086116637,0.2857778947544207,0.7130634099356887
0.063,1.7308370335186118,1.0,3056.839434025722,0.5077459423328899,1.2996192923998493,0.9810389857379892,0.2857481554077817,0.7137381365491505
0.0635,1.7301289538367295,1.0,3060.6678518839926,0.5105071219463356,1.2992666418466234,0.9812214723255899,0.2857184160611426,0.7144115978247603
0.064,1.7294208741548471,1.0,3064.4705851036783,0.5132528091048242,1.2989142321805882,0.9814000827976079,0.2856886767145036,0.7150838067598514
0.0645,1.7287127944729648,1.0,3068.248274764023,0.5159830896182063,1.2985620574574104,0.9815749274492608,0.2856589373678645,0.7157547762971874
0.065,1.7280047147910826,1.0,3072.001564025895,0.5186980492963325,1.2982101117327556,0.981746112626926,0.28562919802122544,0.7164245193250556
0.0655,1.7272966351092003,1.0,3075.731098100622,0.5213977739490536,1.2978583890622906,0.9819137408982042,0.2855994586745864,0.7170930486773506
0.066,1.726588555427318,1.0,3079.4375242206243,0.5240823493862201,1.2975068835016812,0.9820779112134752,0.28556971932794734,0.7177603771336643
0.0665,1.7258804757454356,1.0,3083.1214916102645,0.5267518614176826,1.297155589106594,0.9822387190594356,0.2855399799813083,0.7184265174193656
0.067,1.7251723960635532,1.0,3086.783651457557,0.5294063958532919,1.2968044999326949,0.9823962566050617,0.28551024063466923,0.7190914822056854
0.0675,1.724464316381671,1.0,3090.4246568868016,0.5320460385028983,1.29645361003565,0.9825506128404305,0.28548050128803015,0.7197552841097918
0.068,1.7237562366997887,1.0,3094.0451629320987,0.5346708751763527,1.2961029134711262,0.9827018737087903,0.28545076194139113,0.7204179356948686
0.0685,1.7230481570179064,1.0,3097.645826511026,0.5372809916835056,1.295752404294789,0.9828501222322563,0.28542102259475205,0.7210794494701903
0.069,1.7223400773360242,1.0,3101.227306400109,0.5398764738342077,1.2954020765623049,0.9829954386314808,0.285391283248113,0.7217398378911932
0.0695,1.7216319976541419,1.0,3104.7889047976428,0.5424573560415787,1.295051935906523,0.9831378978271968,0.28536154390147395,0.7223990915746592
0.07,1.7209239179722595,1.0,3108.332294965217,0.5450237769735115,1.2947019677532479,0.9832775776763115,0.28533180455483487,0.7230572391657004
0.07050000000000001,1.7202158382903772,1.0,3111.8579691648433,0.5475758210441994,1.2943521676170155,0.9834145506299125,0.28530206520819584,0.7237142902396824
