Time [s],Phi [rad],STIM [ ],Fsee [N],Gamma [ ],Lcerel [ ],q [ ],Lmtc [m],fisomrel [ ]
0.0,1.8,1.0,17.967703832792832,1.0042154344130492e-05,1.3793396850874329,0.005000026876047478,0.288653,0.541139678946962
0.0005,1.79999375,1.0,18.27699948996603,0.005619195134594191,1.3793023594258664,0.012940630442990153,0.2886527375,0.5412299749169989
0.001,1.799975,1.0,21.61862034414057,0.01119688520154749,1.3789382777252557,0.03560879438998602,0.28865195,0.5421102731971206
0.0015,1.79994375,1.0,31.069446419977,0.016743288838131073,1.37804618580231,0.0706020026337964,0.2886506375,0.5442636524245066
0.002,1.7999,1.0,53.582471849839855,0.022258581535622754,1.376368126236804,0.11471818877809851,0.2886488,0.5483004896460371
0.0025,1.79984375,1.0,97.11881094161079,0.027742937801210944,1.3739351733651688,0.1645750574856187,0.28864643749999996,0.5541214480878864
0.003,1.7997750000000001,1.0,160.95800337494802,0.03319653116571529,1.3712143498742095,0.2172806237539336,0.28864354999999997,0.5605864363758544
0.0035,1.79969375,1.0,237.68314187298898,0.03861953418317567,1.3685847400754927,0.2706130572008279,0.2886401375,0.5667898258401833
0.004,1.7996,1.0,321.46658307060164,0.04401211844163505,1.3661560973826745,0.3229159650151483,0.2886362,0.572479950094035
0.0045000000000000005,1.7994937500000001,1.0,409.2675857229212,0.04937445456832386,1.3639228180413152,0.37303466291617393,0.2886317375,0.5776791534083795
0.005,1.799375,1.0,499.4133490463769,0.054706712220747536,1.3618583456431301,0.4202476066956573,0.28862675,0.5824570717105133
0.0055,1.79924375,1.0,590.7902795407033,0.06000906013417216,1.3599388377263124,0.4641738341005967,0.2886212375,0.5868751055364521
0.006,1.7991000000000001,1.0,682.5179813188481,0.06528166606473448,1.3581464170560875,0.504680087877909,0.2886152,0.5909794131055071
0.006500000000000001,1.79894375,1.0,773.88122202589,0.0705246968450864,1.3564672542290057,0.5418008755661892,0.2886086375,0.594805792928678
0.007,1.798775,1.0,864.2857296124027,0.07573831836798145,1.354890396314329,0.5756768878437524,0.28860155,0.5983826741194467
0.0075,1.79859375,1.0,953.2432261532701,0.08092269559601192,1.353406779025912,0.6065100136134488,0.2885939375,0.6017335731458231
0.008,1.7984,1.0,1040.344499989618,0.08607799214926715,1.3520088517986855,0.6345322699652657,0.2885858,0.604878087549015
0.0085,1.79819375,1.0,1125.3145154564775,0.0912043721539013,1.3506892374222867,0.6599845172892248,0.2885771375,0.6078350087888233
0.009000000000000001,1.797975,1.0,1207.9005522071825,0.09630199755324724,1.349442029972752,0.6831042695485284,0.28856795,0.6106194760475836
0.0095,1.79774375,1.0,1287.892849323204,0.1013710288529395,1.3482621152868368,0.7041175463451051,0.2885582375,0.6132445760712308
0.01,1.7975,1.0,1365.1675221592488,0.10641162655861265,1.347144379201297,0.7232342912717752,0.288548,0.6157231504749558
0.0105,1.79724375,1.0,1439.65932357374,0.11142395064016679,1.3460839485854512,0.7406467223744629,0.2885372375,0.6180672848581084
0.011,1.796975,1.0,1511.3220937934157,0.11640815987399483,1.3450765551136865,0.756529185113739,0.28852595000000003,0.620287535430073
0.0115,1.79669375,1.0,1580.12106685764,0.12136441143746864,1.344118482408853,0.7710386611504055,0.2885141375,0.6223930805632268
0.012,1.7964,1.0,1646.0575639523731,0.12629286198553327,1.3432061584826904,0.784315634395077,0.28850180000000003,0.6243926427919464
0.0125,1.79609375,1.0,1709.1743201399736,0.1311936683055461,1.3423360308256094,0.7964853687716302,0.2884889375,0.6262947767811462
0.013000000000000001,1.7957750000000001,1.0,1769.5068760782174,0.1360669852934827,1.341505069121185,0.807659532398396,0.28847555,0.6281067849634397
0.0135,1.79544375,1.0,1827.0916215734962,0.14091296642550516,1.3407105940428594,0.8179375041772476,0.2884616375,0.6298351119482202
0.014,1.7951000000000001,1.0,1881.9925933488446,0.14573176517777547,1.339949926264075,0.827407566313636,0.2884472,0.6314861212788583
0.0145,1.79474375,1.0,1934.2800766409218,0.15052353393562626,1.3392205913441568,0.8361482248353406,0.2884322375,0.6330656581891599
0.015,1.794375,1.0,1984.0533748257335,0.15528842573436075,1.3385200399006911,0.8442292384137666,0.28841675,0.6345796638572528
0.0155,1.79399375,1.0,2031.373310357918,0.16002659022355806,1.3378463425362899,0.8517128675166789,0.2884007375,0.6360326812335839
0.016,1.7936,1.0,2076.3124198686583,0.1647381768102854,1.3371976134053634,0.8586545674751571,0.2883842,0.6374291119697931
0.0165,1.7931937500000001,1.0,2118.9576133095825,0.16942333490161,1.3365719666623224,0.8651037813926244,0.2883671375,0.6387733139574507
0.017,1.792775,1.0,2159.391200127844,0.17408221247498992,1.3359676976827632,0.8711047043189091,0.28834955,0.6400692159239267
0.0175,1.7923437500000001,1.0,2197.720173781784,0.17871495879271443,1.3353829667106354,0.8766968141537772,0.2883314375,0.6413210001287399
0.018000000000000002,1.7919,1.0,2234.013497265943,0.18332171915580303,1.3348164245364402,0.8819155932298305,0.2883128,0.6425317661372265
0.0185,1.79144375,1.0,2268.345640473063,0.18790263863761106,1.3342667498612497,0.8867928697325219,0.2882936375,0.643704527860959
0.019,1.790975,1.0,2300.798606796442,0.19245786231149406,1.3337326213861367,0.8913572337015745,0.28827395,0.6448422749449539
0.0195,1.79049375,1.0,2331.4527763323617,0.19698753413728418,1.333212801573183,0.8956344280381203,0.2882537375,0.6459477961344087
0.02,1.79,1.0,2360.397681626901,0.2014917991677012,1.3327060228626062,0.8996476458393267,0.288233,0.6470239233129687
0.0205,1.78949375,1.0,2387.706823588959,0.2059707997953244,1.3322112281280343,0.9034178688289509,0.2882117375,0.6480730226583648
0.021,1.788975,1.0,2413.444118888436,0.2104246764685393,1.3317274978154232,0.9069640950428469,0.28818995000000003,0.6490971530392806
0.021500000000000002,1.78844375,1.0,2437.6774457124725,0.2148535696357315,1.331253912370729,0.9103035270177491,0.2881676375,0.6500983594996346
0.022,1.7879,1.0,2460.478312466136,0.2192576197452865,1.3307895522399076,0.913451766240195,0.2881448,0.6510786738804893
0.0225,1.78734375,1.0,2481.914150603328,0.22363696555368964,1.3303335683559725,0.9164229973490603,0.28812143749999997,0.6520399668916137
0.023,1.786775,1.0,2502.057115331426,0.22799174801079786,1.3298850943758174,0.9192301225375672,0.28809755,0.6529841342750576
0.0235,1.78619375,1.0,2520.967957648161,0.2323221052379407,1.3294433971236912,0.9218849204333357,0.28807313749999996,0.6539127809043428
0.024,1.7856,1.0,2538.698752872013,0.2366281726013739,1.3290078462391057,0.9243981551432875,0.2880482,0.6548272867127072
0.0245,1.78499375,1.0,2555.3034708489436,0.24091008546735315,1.3285778113615732,0.9267796617158398,0.2880227375,0.6557290238547144
0.025,1.784375,1.0,2570.837815558575,0.24516797920213418,1.3281526621306061,0.9290384390767014,0.28799675,0.6566193569406769
0.025500000000000002,1.78374375,1.0,2585.3590735301964,0.24940198917197268,1.3277317681857164,0.9311827325375357,0.2879702375,0.6574996432457394
0.026000000000000002,1.7831000000000001,1.0,2598.8930092430105,0.25361224764843604,1.327314806212145,0.9332201560251612,0.2879432,0.6583705919461289
0.0265,1.78244375,1.0,2611.53578286095,0.2577988919192276,1.3269008078912863,0.9351576027451508,0.2879156375,0.6592342531888531
0.027,1.7817759285139119,1.0,2623.3725000317736,0.26196205510799536,1.3264893410250942,0.9370014965737122,0.28788758899758427,0.660091550373086
0.0275,1.7811057464852478,1.0,2634.8517437982546,0.26610186684963183,1.3260803627284192,0.9387578111404393,0.2878594413523804,0.6609425926112964
0.028,1.7804355644565837,1.0,2646.091120916959,0.27021845677902956,1.3256738301161117,0.9404320534576924,0.2878312937071765,0.6617874884486671
0.0285,1.7797653824279196,1.0,2657.0935967349483,0.2743119545310811,1.3252697003030225,0.9420293064737846,0.2878031460619726,0.6626263458698404
0.029,1.7790952003992555,1.0,2667.862214053281,0.27838248974067903,1.3248679304040019,0.9435542672366743,0.28777499841676873,0.6634592723055504
0.029500000000000002,1.7784250183705916,1.0,2678.400090862495,0.2824301920427159,1.3244684775339006,0.9450112811683531,0.28774685077156487,0.6642863746391348
0.03,1.7777548363419275,1.0,2688.7105088233466,0.28645519050657064,1.3240712979768723,0.9464043725777382,0.28771870312636094,0.6651077609298
0.0305,1.7770846543132635,1.0,2698.796125326926,0.29045761272666726,1.3236763543768935,0.9477372730991199,0.2876905554811571,0.6659235255653179
0.031,1.7764144722845994,1.0,2708.660608208315,0.29443758501409306,1.3232836007439122,0.9490134448597648,0.2876624078359532,0.6667337802616415
0.0315,1.7757442902559353,1.0,2718.308390748715,0.2983952324807402,1.3228929847453044,0.9502361035840787,0.2876342601907493,0.6675386492419281
0.032,1.7750741082272712,1.0,2727.7439779458455,0.3023306802385008,1.3225044540484454,0.9514082402954344,0.28760611254554536,0.6683382561189866
0.0325,1.774403926198607,1.0,2736.9702559603093,0.3062440392384899,1.3221179716439784,0.9525326374437553,0.2875779649003415,0.669132692423371
0.033,1.7737337441699432,1.0,2745.992181386916,0.3101354331858303,1.321733482264959,0.9536118898674368,0.2875498172551376,0.6699220867017327
0.0335,1.7730635621412791,1.0,2754.8189703548132,0.3140050178941453,1.3213508927116067,0.9546484226048928,0.28752166960993375,0.6707066446219818
0.034,1.772393380112615,1.0,2763.4552122137325,0.3178529104556132,1.3209701524015571,0.9556444939052342,0.2874935219647298,0.6714864836330395
0.0345,1.771723198083951,1.0,2771.9055545053543,0.3216792279624123,1.3205912107524453,0.9566022143252136,0.28746537431952596,0.6722617206258966
0.035,1.7710530160552869,1.0,2780.174700917007,0.32548408750672086,1.3202140171819068,0.957523558122537,0.28743722667432203,0.6730324719394947
0.035500000000000004,1.7703828340266228,1.0,2788.267409293714,0.3292676061807171,1.3198385211075763,0.9584103736443039,0.28740907902911816,0.6737988533664493
0.036000000000000004,1.769712651997959,1.0,2796.188489705151,0.33302990107657937,1.3194646719470895,0.9592643928096481,0.2873809313839143,0.674560980158605
0.0365,1.7690424699692948,1.0,2803.9428025710836,0.3367710892864858,1.3190924191180813,0.9600872397749239,0.28735278373871037,0.6753189670324323
0.037,1.7683722879406307,1.0,2811.5352568424405,0.34049128790261485,1.318721712038187,0.9608804388603064,0.2873246360935065,0.6760729281742568
0.0375,1.7677021059119666,1.0,2818.9708082392112,0.3441906140171447,1.3183525001250422,0.9616454218083024,0.2872964884483026,0.6768229772453285
0.038,1.7670319238833025,1.0,2826.254457545805,0.3478691847222536,1.3179847327962815,0.9623835344372657,0.2872683408030987,0.6775692273867266
0.0385,1.7663617418546385,1.0,2833.391248961937,0.35152711711011986,1.3176183594695405,0.963096042746444,0.28724019315789484,0.6783117912240999
0.039,1.7656915598259746,1.0,2840.3862685113754,0.35516452827292166,1.3172533295624542,0.963784138523263,0.2872120455126909,0.6790507808722475
0.0395,1.7650213777973105,1.0,2847.2446425068842,0.35878153530283735,1.316889592492658,0.9644489444983896,0.28718389786748705,0.6797863079395317
0.04,1.7643511957686464,1.0,2853.971536071725,0.3623782552920452,1.3165270976777872,0.9650915190895151,0.2871557502222831,0.680518483532132
0.0405,1.7636810137399823,1.0,2860.5721517185184,0.36595480533272345,1.3161657945354768,0.9657128607707105,0.28712760257707926,0.6812474182581336
0.041,1.7630108317113182,1.0,2867.0409533483453,0.36951124332413865,1.3158057280425866,0.9663139099690852,0.2870994549318754,0.6819730297687878
0.0415,1.7623406496826541,1.0,2873.3959157974423,0.3730477579648655,1.3154467347749255,0.966895560097725,0.28707130728667146,0.6826956553566258
0.042,1.7616704676539903,1.0,2879.640014347022,0.3765644560347427,1.3150887848442496,0.9674586526514548,0.2870431596414676,0.6834153624533615
0.0425,1.7610002856253262,1.0,2885.7760658485504,0.38006144332506103,1.3147318499576381,0.9680039835758144,0.28701501199626367,0.6841322149943966
0.043000000000000003,1.760330103596662,1.0,2891.806907754009,0.3835388256271112,1.3143759018221695,0.9685323062296309,0.2869868643510598,0.6848462766374288
0.043500000000000004,1.759659921567998,1.0,2897.735397487363,0.38699670873218406,1.3140209121449222,0.9690443340932171,0.28695871670585593,0.6855576107642571
0.044,1.758989739539334,1.0,2903.564411834682,0.39043519843157026,1.3136668526329751,0.9695407432782265,0.286930569060652,0.6862662804825366
0.0445,1.7583195575106698,1.0,2909.2968463519137,0.3938544005165607,1.313313694993407,0.970022174855523,0.28690242141544814,0.6869723486274819
0.045,1.757649375482006,1.0,2914.9356147898975,0.3972544207784461,1.3129614109332963,0.9704892370159355,0.2868742737702442,0.6876758777635218
0.0455,1.7569791934533419,1.0,2920.4836485381365,0.40063536500851726,1.3126099721597217,0.9709425070774106,0.28684612612504035,0.6883769301858993
0.046,1.7563090114246778,1.0,2925.9438960848343,0.40399733899806495,1.3122593503797622,0.9713825333508794,0.2868179784798365,0.6890755679222224
0.0465,1.7556388293960137,1.0,2931.3193224961324,0.40734044853837986,1.311909517300496,0.971809836876048,0.28678983083463255,0.6897718527339656
0.047,1.7549686473673496,1.0,2936.612908912487,0.41066479942075285,1.311560444629002,0.9722249130373429,0.2867616831894287,0.6904658461179166
0.0475,1.7542984653386855,1.0,2941.8276520622826,0.4139704974364747,1.3112121040723588,0.9726282330693456,0.28673353554422476,0.6911576093075744
0.048,1.7536282833100216,1.0,2946.9665637944236,0.4172576483768361,1.3108644673376453,0.973020245460246,0.2867053878990209,0.6918472032744964
0.0485,1.7529581012813575,1.0,2952.0326706273013,0.4205263580331279,1.3105175061319398,0.9734013772611148,0.286677240253817,0.6925346887295941
0.049,1.7522879192526934,1.0,2957.0290133165095,0.42377673219664086,1.3101711921623214,0.9737720353081283,0.28664909260861315,0.693220126124376
0.0495,1.7516177372240294,1.0,2961.9586464398562,0.4270088766586657,1.3098254971358685,0.9741326073642852,0.28662094496340923,0.6939035756521428
0.05,1.7509475551953653,1.0,2966.824638000364,0.4302228972104932,1.3094803927596599,0.974483463186604,0.2865927973182053,0.6945850972491283
0.0505,1.7502773731667012,1.0,2971.6254667030416,0.4334188599583824,1.3091358908338366,0.9748249536711483,0.28656464967300144,0.6952646715509255
0.051000000000000004,1.749607191138037,1.0,2976.366921987986,0.4365969058939159,1.308791939504789,0.975157418031983,0.28653650202779757,0.695942404645634
0.051500000000000004,1.7489370091093732,1.0,2981.051770662291,0.43975714329646426,1.3084485133925836,0.9754811781845457,0.2865083543825937,0.6966183500826058
0.052000000000000005,1.7482668270807091,1.0,2985.681405204937,0.4428996673438436,1.3081055991576713,0.9757965410024685,0.2864802067373898,0.6972925375245292
0.0525,1.747596645052045,1.0,2990.2572246302816,0.4460245732138703,1.307763183460503,0.9761037997921002,0.2864520590921859,0.6979649965122984
0.053,1.746926463023381,1.0,2994.7806343385014,0.4491319560843605,1.30742125296153,0.9764032350094571,0.286423911446982,0.6986357564654434
0.0535,1.7462562809947169,1.0,2999.2530459704985,0.4522219111331304,1.3070797943212022,0.97669511493334,0.2863957638017781,0.6993048466825514
0.054,1.745586098966053,1.0,3003.675877265715,0.4552945335379963,1.3067387941999715,0.9769796962976431,0.28636761615657425,0.6999722963416695
0.0545,1.744915916937389,1.0,3008.0505519251724,0.4583499184767743,1.306398239258288,0.9772572248856592,0.2863394685113703,0.7006381345007044
0.055,1.7442457349087248,1.0,3012.3784994775906,0.46138816112728076,1.3060581161566032,0.9775279360889623,0.28631132086616645,0.7013023900978036
0.0555,1.7435755528800607,1.0,3016.6611551495585,0.46440935666733174,1.3057184115553673,0.977792055433265,0.28628317322096253,0.7019650919517317
0.056,1.7429053708513966,1.0,3020.8999597401303,0.4674136002747436,1.3053791121150315,0.9780497990734505,0.28625502557575866,0.7026262687622289
0.0565,1.7422351888227325,1.0,3025.0963594986447,0.47040098712733247,1.3050402044960465,0.9783013742598353,0.2862268779305548,0.703285949110364
0.057,1.7415650067940684,1.0,3029.2518060069706,0.4733716124029146,1.3047016753588636,0.97854697977755,0.28619873028535087,0.7039441614588702
0.0575,1.7408948247654046,1.0,3033.367756065976,0.4763255712793062,1.3043635113639331,0.9787868063607973,0.286170582640147,0.7046009341524775
0.058,1.7402246427367405,1.0,3037.4456715849064,0.47926295893432347,1.304025699171706,0.9790210370836144,0.2861424349949431,0.7052562954182248
0.0585,1.7395544607080764,1.0,3041.4870194759833,0.48218387054578266,1.3036882254426336,0.9792498477286488,0.2861142873497392,0.7059102733657657
0.059000000000000004,1.7388842786794123,1.0,3045.49327155188,0.48508840129149994,1.3033510768371661,0.979473407135351,0.28608613970453534,0.7065628959876651
0.059500000000000004,1.7382140966507482,1.0,3049.4649452337894,0.48797662861267,1.303014248264387,0.9796918765276441,0.2860579920593314,0.7072141752192873
0.06,1.7375439146220841,1.0,3053.401991835575,0.4908486267978507,1.3026777395176825,0.9799054109065337,0.28602984441412754,0.7078641135218939
0.0605,1.7368737325934203,1.0,3057.308013368663,0.49370453864844394,1.3023415190427552,0.9801141630905533,0.2860016967689236,0.7085127737975743
0.061,1.7362035505647562,1.0,3061.1836570531977,0.49654444934059366,1.3020055807321986,0.9803182768168353,0.28597354912371975,0.7091601696639269
0.0615,1.735533368536092,1.0,3065.029572448569,0.49936844405044384,1.3016699184786076,0.9805178903898791,0.2859454014785159,0.7098063146846628
0.062,1.734863186507428,1.0,3068.8464114161407,0.5021766079541384,1.3013345261745757,0.9807131369280455,0.28591725383331196,0.7104512223697192
0.0625,1.734193004478764,1.0,3072.6348280822817,0.5049690262278215,1.3009993977126972,0.9809041445970762,0.2858891061881081,0.711094906175362
0.063,1.7335228224500998,1.0,3076.3954788017727,0.5077457840476369,1.3006645269855663,0.9810910368314081,0.28586095854290416,0.711737379504291
0.0635,1.732852640421436,1.0,3080.129022123192,0.5105069665897287,1.300329907885777,0.9812739325440127,0.2858328108977003,0.7123786557057419
0.064,1.7321824583927719,1.0,3083.8361187537653,0.5132526590302409,1.2999955343059235,0.981452946325433,0.2858046632524964,0.7130187480755851
0.0645,1.7315122763641078,1.0,3087.5174315259483,0.5159829465453174,1.2996614001385998,0.9816281886326463,0.2857765156072925,0.7136576698564222
0.065,1.7308420943354437,1.0,3091.1736253649115,0.5186979143111022,1.2993274992764001,0.9817997659683495,0.28574836796208863,0.7142954342376808
0.0655,1.7301719123067796,1.0,3094.8053672559745,0.5213976475037394,1.2989938256119185,0.9819677810512137,0.2857202203168847,0.714932054355707
0.066,1.7295017302781155,1.0,3098.4133262139517,0.5240822312993728,1.298660373037749,0.9821323329776251,0.28569207267168084,0.715567543293854
0.0665,1.7288315482494516,1.0,3101.9981732523124,0.5267517508741465,1.298327135446486,0.9822935173753994,0.285663925026477,0.7162019140825702
0.067,1.7281613662207875,1.0,3105.560581354074,0.5294062914042045,1.2979941067307235,0.9824514265499167,0.2856357773812731,0.7168351796994841
0.0675,1.7274911841921234,1.0,3109.1012254427937,0.5320459380656906,1.2976612807830552,0.9826061496231059,0.2856076297360692,0.7174673530694872
0.068,1.7268210021634594,1.0,3112.620782354937,0.534670776034749,1.2973286514960758,0.9827577726656742,0.28557948209086526,0.7180984470648122
0.0685,1.7261508201347953,1.0,3116.119930812875,0.5372808904875236,1.296996212762379,0.982906378822955,0.2855513344456614,0.7187284745051137
0.069,1.7254806381061312,1.0,3119.599351398139,0.5398763666001583,1.2966639584745594,0.983052048434724,0.2855231868004575,0.7193574481575411
0.0695,1.724810456077467,1.0,3123.0597265266993,0.5424572895487972,1.2963318825252106,0.9831948591493131,0.2854950391552536,0.7199853807368137
0.07,1.7241402740488032,1.0,3126.5006702493806,0.5450237055269349,1.2959999878958577,0.9833348840980232,0.2854668915100497,0.7206122677476152
0.07050000000000001,1.7234700920201391,1.0,3129.9233256487237,0.5475757292930339,1.2956682645844229,0.983472197525959,0.28543874386484586,0.7212381292016445
