Time [s],Phi [rad],STIM [ ],Fsee [N],Gamma [ ],Lcerel [ ],q [ ],Lmtc [m],fisomrel [ ]
0.0,1.8,1.0,18.421166121478606,0.000685743438932657,1.379289199467,0.005121185643254139,0.288653,0.5412618085704155
0.0005,1.79999375,1.0,18.93775446738319,0.0062911062693788225,1.3792296145580667,0.014922486166411557,0.2886527375,0.5414059293435591
0.001,1.799975,1.0,22.78111263923644,0.011865027446186378,1.3788211014998315,0.039216340148183086,0.28865195,0.5423934089874183
0.0015,1.79994375,1.0,33.35027540369864,0.01740768333298749,1.3778553087319543,0.07548329258495194,0.2886506375,0.5447237425480853
0.002,1.7999,1.0,58.07153138601621,0.022919249302480186,1.3760827561831697,0.12046255434114911,0.2886488,0.5489852056813476
0.0025,1.79984375,1.0,104.31326776798628,0.028399899744031187,1.3735946825864873,0.17080107504154468,0.28864643749999996,0.5549330776246869
0.003,1.7997750000000001,1.0,170.08855119756922,0.03384980807166447,1.3708772985922995,0.2236885846044542,0.28864354999999997,0.5613840222859642
0.0035,1.79969375,1.0,247.87377844368692,0.039269146722540435,1.3682741357271608,0.27697584979739687,0.2886401375,0.5675196459005508
0.004,1.7996,1.0,332.2367958143371,0.044658087168528066,1.3658731856030701,0.32906929351866093,0.2886362,0.5731403445684355
0.0045000000000000005,1.7994937500000001,1.0,420.37485518536243,0.05001679991996247,1.3636638334447944,0.3788704783739393,0.2886317375,0.5782800262890206
0.005,1.799375,1.0,510.7042472796447,0.055345454497586356,1.3616197559471752,0.4257039768188792,0.28862675,0.5830075003466373
0.0055,1.79924375,1.0,602.1656006765427,0.06064421961337037,1.3597176511394946,0.4692231106993743,0.2886212375,0.5873826896003982
0.006,1.7991000000000001,1.0,693.8804102882415,0.06591326279266496,1.3579407308447946,0.5093189127137571,0.2886152,0.5914490854664998
0.006500000000000001,1.79894375,1.0,785.1566499867764,0.07115275079682878,1.3562754713130778,0.5460414631071818,0.2886086375,0.5952416726423606
0.007,1.798775,1.0,875.4164958066085,0.076362849458799,1.3547111739513589,0.5795408565635252,0.28860155,0.5987882113330638
0.0075,1.79859375,1.0,964.1677596401855,0.08154372344765025,1.3532392270966822,0.6100241613332819,0.2885939375,0.6021111238524828
0.008,1.7984,1.0,1051.05056651686,0.08669553707902734,1.3518516289370541,0.6377250799777551,0.2885858,0.6052309668824668
0.0085,1.79819375,1.0,1135.7452677166436,0.09181845298709686,1.3505419169375508,0.6628850763487465,0.2885771375,0.6081644275183267
0.009000000000000001,1.797975,1.0,1218.0133618099128,0.09691263320494567,1.349304138485025,0.685740513012812,0.28856795,0.6109267182309772
0.0095,1.79774375,1.0,1297.6974448666185,0.1019782393904819,1.3481326202912811,0.7065153361739406,0.2885582375,0.6135321386770622
0.01,1.7975,1.0,1374.6642933087498,0.1070154315031027,1.3470225315819133,0.7254175747052346,0.288548,0.6159928653522959
0.0105,1.79724375,1.0,1448.8266856188245,0.11202436876442826,1.3459693940807869,0.7426374641770118,0.2885372375,0.6183200840541238
0.011,1.796975,1.0,1520.1480320953428,0.11700520970553052,1.3449688994018696,0.7583471627950121,0.28852595000000003,0.6205244210633379
0.0115,1.79669375,1.0,1588.6241364453156,0.12195811264525905,1.3440170364291963,0.7727014660440935,0.2885141375,0.6226156844594165
0.012,1.7964,1.0,1654.2405253890995,0.12688323345416286,1.343110497105224,0.7858390841997804,0.28850180000000003,0.6246019986486165
0.0125,1.79609375,1.0,1717.0227743556322,0.13178072796863385,1.342245981468071,0.7978836521412017,0.2884889375,0.6264913525795818
0.013000000000000001,1.7957750000000001,1.0,1777.0112542584843,0.1366507509876136,1.3414204407000032,0.8089452557754843,0.28847555,0.628291079949667
0.0135,1.79544375,1.0,1834.2902138308943,0.14149345813515596,1.3406306975622397,0.8191216788913491,0.2884616375,0.6300086985913966
0.014,1.7951000000000001,1.0,1888.9011686941142,0.14630900151459184,1.3398743702727738,0.8285000827037673,0.2884472,0.6316499120908338
0.0145,1.79474375,1.0,1940.9029762497494,0.15109753294418865,1.339149140955525,0.8371579271015663,0.2884322375,0.6332202174398261
0.015,1.794375,1.0,1990.375464110506,0.15585920424221383,1.3384526917344128,0.8451640690072476,0.28841675,0.6347250492912325
0.0155,1.79399375,1.0,2037.3979192591623,0.16059416601061127,1.3377829118050462,0.8525798373464644,0.2884007375,0.6361693383051799
0.016,1.7936,1.0,2082.0749723854783,0.16530256953400882,1.3371375990834091,0.8594598266904618,0.2883842,0.6375581609830182
0.0165,1.7931937500000001,1.0,2124.474371511906,0.16998456266171533,1.3365150908261918,0.8658528836012587,0.2883671375,0.6388953879025507
0.017,1.792775,1.0,2164.671356353673,0.17464029295008518,1.3359137710572366,0.8718026374606448,0.28834955,0.6401847525960026
0.0175,1.7923437500000001,1.0,2202.752061564787,0.17926990795547268,1.3353320238003863,0.8773481032242166,0.2883314375,0.6414299547638302
0.018000000000000002,1.7919,1.0,2238.7982423185344,0.18387355393167948,1.3347683770214989,0.8825242613113723,0.2883128,0.6426343550586466
0.0185,1.79144375,1.0,2272.910473448891,0.18845137844574625,1.3342212574114434,0.8873624647546143,0.2882936375,0.6438015022140106
0.019,1.790975,1.0,2305.160293913111,0.19300352532297607,1.3336894598489224,0.891890973811055,0.28827395,0.6449341338830816
0.0195,1.79049375,1.0,2335.6188316550965,0.19753013771506947,1.3331718467344873,0.8961352351196797,0.2882537375,0.6460348231617707
0.02,1.79,1.0,2364.3629624021273,0.202031358773727,1.3326672804686899,0.9001181846479045,0.288233,0.6471061240611162
0.0205,1.78949375,1.0,2391.4714266983333,0.20650733113576167,1.3321746564412371,0.9038605363488712,0.2882117375,0.6481505026088843
0.021,1.788975,1.0,2417.020249843222,0.21095819674678443,1.3316929419815018,0.9073810365596384,0.28818995000000003,0.6491702558662503
0.021500000000000002,1.78844375,1.0,2441.090965360526,0.21538409830411637,1.3312210915295295,0.9106966616721285,0.2881676375,0.6501676930037852
0.022,1.7879,1.0,2463.7404010891682,0.2197851741983077,1.3307583324850796,0.9138228650641199,0.2881448,0.6511445328178876
0.0225,1.78734375,1.0,2485.0283693425545,0.22416156281990862,1.3303038922479118,0.9167736856082388,0.28812143749999997,0.6521024833095659
0.023,1.786775,1.0,2505.017421092589,0.22851340255946934,1.3298569982177855,0.9195618967224203,0.28809755,0.653043242113367
0.0235,1.7861944135703403,1.0,2523.804315807315,0.23284083180753998,1.3294168777944604,0.9221991379529771,0.2880731653699543,0.653968496888232
0.024,1.7856109865616867,1.0,2541.8701752047214,0.2371439859984507,1.3289829265560151,0.9246960603720935,0.2880486614355908,0.6548795728145393
0.0245,1.785027559553033,1.0,2559.364461713188,0.24142300556440918,1.3285549450206962,0.9270624721046953,0.2880241575012274,0.6557769391021917
0.025,1.7844441325443792,1.0,2576.3026302439753,0.24567802433700114,1.3281327274812835,0.9293073419690171,0.2879996535668639,0.6566610751138193
0.025500000000000002,1.7838607055357256,1.0,2592.7006562875013,0.24990917549702737,1.3277160681871243,0.9314388868692843,0.2879751496325005,0.6575324574361356
0.026000000000000002,1.7832772785270719,1.0,2608.5750054931505,0.2541165922252887,1.3273047613875653,0.9334646453475093,0.287950645698137,0.658391559862975
0.0265,1.782693851518418,1.0,2623.942608783532,0.25830040770258594,1.3268986013319535,0.9353915427222319,0.28792614176377357,0.6592388534668767
0.027,1.7821104245097645,1.0,2638.8208384063028,0.2624607551097199,1.3264973822696362,0.9372259491825998,0.28790163782941014,0.6600748066679689
0.0275,1.7815269975011108,1.0,2653.2100006267406,0.2665977444245565,1.3261010596440292,0.9389737460844002,0.28787713389504666,0.6608995500607184
0.028,1.780943570492457,1.0,2667.14947589673,0.27071153508620927,1.3257092315581778,0.9406403248108782,0.28785262996068317,0.6617139556051701
0.0285,1.7803601434838034,1.0,2680.6612034906075,0.2748022648832463,1.3253216615911592,0.9422306778688405,0.28782812602631974,0.6625185475113754
0.029,1.7797767164751497,1.0,2693.757145474755,0.27887005836854795,1.3249382081366776,0.9437494281780402,0.2878036220919563,0.6633136508065216
0.029500000000000002,1.779193289466496,1.0,2706.4495299227347,0.28291504009499424,1.3245587295884385,0.9452008537925386,0.28777911815759283,0.6640995888008256
0.03,1.7786098624578424,1.0,2718.750838213637,0.2869373346154652,1.324183084340146,0.9465889180436515,0.28775461422322934,0.6648766831240744
0.0305,1.7780264354491886,1.0,2730.6737927746944,0.29093706648284123,1.3238111307855052,0.9479172966914404,0.2877301102888659,0.6656452537608817
0.031,1.7774430084405348,1.0,2742.2313452678936,0.2949143602500022,1.3234427273182205,0.9491894024140779,0.2877056063545025,0.6664056190846659
0.0315,1.7768595814318813,1.0,2753.4366652221615,0.2988693404698285,1.323077732331997,0.9504084069249511,0.287681102420139,0.6671580958903522
0.032,1.7762761544232275,1.0,2764.303129109918,0.30280213169520004,1.3227160042205393,0.9515772609729428,0.28765659848577557,0.6679029994257937
0.0325,1.7756927274145737,1.0,2774.84430986742,0.3067128584789971,1.322357401377552,0.9526987124513018,0.2876320945514121,0.6686406434219125
0.033,1.77510930040592,1.0,2785.0739668609604,0.31060164537409973,1.32200178219674,0.9537753228142929,0.28760759061704866,0.6693713401215664
0.0335,1.7745258733972664,1.0,2795.0060362962577,0.3144686169333881,1.3216490050718082,0.9548094819778608,0.2875830866826852,0.6700954003071299
0.034,1.7739424463886126,1.0,2804.6546220739715,0.31831389770974244,1.3212989283964607,0.9558034218604506,0.28755858274832174,0.670813133326805
0.0345,1.7733590193799589,1.0,2814.033987088273,0.32213761225604276,1.320951410564403,0.9567592287025005,0.28753407881395826,0.6715248471196431
0.035,1.7727755923713053,1.0,2823.152738283414,0.3259398762787713,1.3206063618670805,0.9576788576606268,0.28750957487959483,0.6722307421248555
0.035500000000000004,1.7721921653626516,1.0,2832.0233374152176,0.32972081564414096,1.3202636591470815,0.9585641384229793,0.28748507094523135,0.6729310861917155
0.036000000000000004,1.7716087383539978,1.0,2840.6576783485634,0.33348055343104044,1.3199231854157405,0.9594167855958108,0.2874605670108679,0.6736261333974674
0.0365,1.7710253113453442,1.0,2849.0636021045384,0.3372192054721435,1.319584860757172,0.9602384094124704,0.2874360630765045,0.6743160611441931
0.037,1.7704418843366905,1.0,2857.249034243181,0.34093688760012403,1.3192486052554908,0.9610305213531224,0.287411559142141,0.6750010460536473
0.0375,1.7698584573280367,1.0,2865.2219811265395,0.34463371564765566,1.3189143389948113,0.961794541309037,0.2873870552077775,0.6756812639780058
0.038,1.7692750303193832,1.0,2872.9905263230216,0.3483098054474122,1.318581982059248,0.9625318041508969,0.2873625512734141,0.6763568900102075
0.0385,1.7686916033107294,1.0,2880.5628271534415,0.3519652728320674,1.3182514545329154,0.9632435657567061,0.28733804733905066,0.6770280984938895
0.039,1.7681081763020756,1.0,2887.9471113788436,0.35560023363429505,1.3179226764999283,0.963931008549168,0.2873135434046872,0.6776950630329144
0.0395,1.767524749293422,1.0,2895.151674030152,0.3592148036867689,1.3175955680444016,0.9645952465873413,0.2872890394703237,0.6783579565004907
0.04,1.7669413222847683,1.0,2902.184874378887,0.36280909882216267,1.3172700492504494,0.9652373302528433,0.28726453553596026,0.6790169510478872
0.0405,1.7663578952761145,1.0,2909.0533346873212,0.36638323000713335,1.3169460560361135,0.9658582510791168,0.28724003160159683,0.6796721861069924
0.041,1.765774468267461,1.0,2915.760704469571,0.36993730194279906,1.3166235509057487,0.966458946411294,0.28721552766723335,0.6803237468489629
0.0415,1.7651910412588072,1.0,2922.321721829244,0.37347145072049454,1.3163023992584921,0.9670402989732304,0.28719102373286987,0.6809719139774281
0.042,1.7646076142501534,1.0,2928.740860844325,0.3769857840115174,1.3159825572786152,0.9676031459653919,0.28716651979850644,0.6816167841060798
0.0425,1.7640241872415,1.0,2935.0226291602257,0.3804804094871652,1.315663981150389,0.9681482793612711,0.287142015864143,0.6822584534575475
0.043000000000000003,1.7634407602328461,1.0,2941.171566739043,0.38395543481873556,1.3153466270580851,0.9686764488103129,0.2871175119297795,0.6828970178669929
0.043500000000000004,1.7628573332241924,1.0,2947.1922446511912,0.38741096767752614,1.3150304511859752,0.9691883643262941,0.2870930079954161,0.6835325727855897
0.044,1.7622739062155388,1.0,2953.089263909247,0.3908471157348343,1.3147154097183302,0.9696846987790089,0.2870685040610526,0.684165213283876
0.0445,1.761690479206885,1.0,2958.867254344846,0.39426398666195794,1.314401458839422,0.9701660902054722,0.2870440001266892,0.684795034054985
0.045,1.7611070521982313,1.0,2964.530873527795,0.3976616881301945,1.3140885547335215,0.9706331439553683,0.2870194961923257,0.685422129417754
0.0455,1.7605236251895777,1.0,2970.084805728099,0.40104032781084153,1.3137766535849003,0.9710864346841417,0.28699499225796227,0.6860465933197115
0.046,1.759940198180924,1.0,2975.5337609199337,0.40440001337519665,1.3134657115778299,0.9715265082059327,0.2869704883235988,0.6866685193399387
0.0465,1.7593567711722702,1.0,2980.8824738292774,0.4077408524945575,1.3131556848965817,0.971953883217465,0.28694598438923535,0.6872880006918138
0.047,1.7587733441636166,1.0,2986.1357030225363,0.41106295284022165,1.3128465297254273,0.9723690529030323,0.28692148045487187,0.6879051302256294
0.0475,1.7581899171549629,1.0,2991.2973626854423,0.41436641766128457,1.3125382097796612,0.9727724863972926,0.28689697652050844,0.6885199854200399
0.048,1.757606490146309,1.0,2996.3671101012087,0.4176513317429597,1.3122307258715418,0.9731646305090766,0.286872472586145,0.6891325695845987
0.0485,1.7570230631376555,1.0,3001.3552593343943,0.42091783633333923,1.3119239864757113,0.9735459113536371,0.2868479686517815,0.6897430697101412
0.049,1.7564396361290018,1.0,3006.264087502051,0.42416603019306903,1.3116179700145068,0.9739167344202079,0.28682346471741804,0.6903515330485905
0.0495,1.755856209120348,1.0,3011.095883407046,0.4273960120827951,1.3113126549102656,0.9742774862378037,0.2867989607830546,0.6909580066732203
0.05,1.7552727821116945,1.0,3015.852947197223,0.4306078807631634,1.311008019585325,0.9746285354330863,0.2867744568486912,0.6915625374796366
0.0505,1.7546893551030407,1.0,3020.537590035063,0.4338017349948199,1.3107040424620227,0.9749702337200183,0.2867499529143277,0.6921651721867271
0.051000000000000004,1.754105928094387,1.0,3025.152133777947,0.4369776735384106,1.310400701962696,0.975302916826279,0.2867254489799642,0.6927659573375816
0.051500000000000004,1.7535225010857332,1.0,3029.698910668283,0.44013579515458146,1.3100979765096818,0.9756269053610059,0.2867009450456008,0.6933649393003852
0.052000000000000005,1.7529390740770796,1.0,3034.1802630337625,0.4432761986039784,1.3097958445253182,0.9759425056280663,0.28667644111123736,0.6939621642692759
0.0525,1.7523556470684258,1.0,3038.5985429987213,0.44639898264724737,1.309494284431942,0.9762500103887243,0.28665193717687387,0.6945576782651793
0.053,1.751772220059772,1.0,3042.956112205211,0.4495042460450344,1.3091932746518908,0.9765496995772638,0.28662743324251044,0.6951515271366084
0.0535,1.7511887930511185,1.0,3047.255341544492,0.45259208755798547,1.3088927936075019,0.9768418409728543,0.28660292930814696,0.6957437565604376
0.054,1.7506053660424648,1.0,3051.4986108990574,0.4556626059467465,1.3085928197211125,0.9771266908306796,0.28657842537378353,0.6963344120426433
0.0545,1.750021939033811,1.0,3055.688308894706,0.4587158999719635,1.3082933314150604,0.9774044944751338,0.28655392143942005,0.6969235389190169
0.055,1.7494385120251574,1.0,3059.8268326632815,0.4617520683942824,1.3079943071116826,0.9776754868576585,0.2865294175050566,0.69751118235585
0.0555,1.7488550850165037,1.0,3063.916587615111,0.4647712099743492,1.3076957252333166,0.9779398930816109,0.28650491357069313,0.6980973873505847
0.056,1.74827165800785,1.0,3067.9557108199524,0.4677733805057448,1.3073976008664225,0.9781979270809851,0.2864804096363297,0.6986821268544885
0.0565,1.7476882309991963,1.0,3071.950287078652,0.4707587263167382,1.307099880973083,0.9784497983260277,0.2864559057019662,0.6992655073543312
0.057,1.7471048039905426,1.0,3075.9020209259247,0.4737273437740233,1.3068025501695208,0.9786957053269488,0.2864314017676028,0.699847561254715
0.0575,1.7465213769818888,1.0,3079.811973929407,0.47667932222288445,1.30650559862224,0.9789358382593553,0.28640689783323936,0.7004283099911426
0.058,1.7459379499732353,1.0,3083.6812115485386,0.479614751008606,1.3062090164977451,0.9791703796813247,0.2863823938988759,0.7010077749218229
0.0585,1.7453545229645815,1.0,3087.510803053854,0.4825337194764723,1.3059127939625403,0.9793995048990383,0.2863578899645124,0.7015859773279093
0.059000000000000004,1.7447710959559277,1.0,3091.301821446817,0.48543631697176753,1.3056169211831297,0.9796233823120714,0.28633338603014896,0.7021629384137268
0.059500000000000004,1.7441876689472742,1.0,3095.0553433827004,0.48832263283977617,1.3053213883260175,0.9798421737396232,0.28630888209578553,0.7027386793069936
0.06,1.7436042419386204,1.0,3098.7724490952974,0.4911927564257825,1.3050261855577079,0.9800560347288788,0.28628437816142205,0.7033132210590394
0.0605,1.7430208149299666,1.0,3102.454222324166,0.49404677707507083,1.3047313030447054,0.9802651148466138,0.28625987422705856,0.7038865846450125
0.061,1.742437387921313,1.0,3106.101750243555,0.4968847841329256,1.304436730953514,0.9804695579550734,0.28623537029269513,0.7044587909640869
0.0615,1.7418539609126593,1.0,3109.716123393551,0.49970686694463096,1.3041424594506383,0.9806695024730886,0.2862108663583317,0.7050298608396582
0.062,1.7412705339040055,1.0,3113.2984356135025,0.5025131148554713,1.3038484787025821,0.9808650816233259,0.2861863624239682,0.7055998150195361
0.0625,1.740687106895352,1.0,3116.8497839779466,0.505303617210731,1.3035547788758497,0.9810564236665043,0.2861618584896048,0.7061686741761288
0.063,1.7401036798866982,1.0,3120.371268733584,0.5080784633556944,1.3032613501369454,0.9812436521233611,0.2861373545552413,0.7067364589066231
0.0635,1.7395202528780445,1.0,3123.8639932398087,0.5108377426356457,1.3029681826523736,0.9814268859850928,0.2861128506208779,0.707303189733157
0.064,1.738936825869391,1.0,3127.329063910077,0.5135815443958693,1.3026752665886383,0.9816062399129503,0.2860883466865144,0.707868887102987
0.0645,1.7383533988607371,1.0,3130.7675901565485,0.5163099579816497,1.302382592112244,0.9817818244276231,0.28606384275215097,0.7084335713886487
0.065,1.7377699718520834,1.0,3134.180684335954,0.5190230727382709,1.3020901493896946,0.9819537460890061,0.2860393388177875,0.7089972628881123
0.0655,1.7371865448434298,1.0,3137.5662535686106,0.5217209033115673,1.301797955785855,0.9821221039383545,0.28601483488342405,0.7095599294753798
0.066,1.736603117834776,1.0,3140.928569827195,0.5244036288712973,1.301505974699417,0.9822870019845639,0.28599033094906057,0.7101216429226864
0.0665,1.7360196908261223,1.0,3144.2681222117913,0.5270713296426659,1.3012142016470818,0.982448535501515,0.28596582701469714,0.7106824130296912
0.067,1.7354362638174687,1.0,3147.585365633971,0.5297240849577185,1.3009226324469274,0.9826067964187345,0.2859413230803337,0.7112422489834549
0.0675,1.734852836808815,1.0,3150.8807563273895,0.5323619741485005,1.3006312629170316,0.9827618735052652,0.2859168191459702,0.7118011599391283
0.068,1.7342694098001612,1.0,3154.154751828798,0.5349850765470572,1.3003400888754728,0.9829138525004445,0.28589231521160674,0.7123591550200035
0.0685,1.7336859827915077,1.0,3157.4078109598686,0.5375934714854339,1.300049106140329,0.9830628162383959,0.2858678112772433,0.7129162433175689
0.069,1.7331025557828539,1.0,3160.640393809116,0.5401872382956762,1.2997583105296782,0.9832088447665774,0.2858433073428799,0.7134724338915595
0.0695,1.7325191287742001,1.0,3163.8529617142876,0.5427664563098292,1.2994676978615984,0.9833520154587094,0.2858188034085164,0.7140277357700077
0.07,1.7319357017655466,1.0,3167.045977245698,0.5453312048599386,1.299177263954168,0.9834924031223834,0.28579429947415297,0.7145821579492921
