Time [s],Phi [rad],STIM [ ],Fsee [N],Gamma [ ],Lcerel [ ],q [ ],Lmtc [m],fisomrel [ ]
0.0,1.8,1.0,17.968057459780574,1.4006867130633093e-05,1.3793396454701803,0.005000052149864842,0.288653,0.54113977479132
0.0005,1.79999375,1.0,18.278656465529757,0.0056231376084787,1.3793021753735917,0.012951640349047628,0.2886527375,0.541230420143052
0.001,1.799975,1.0,21.623213228957436,0.011200805561270576,1.378937808657176,0.03562945486636047,0.28865195,0.5421114067924028
0.0015,1.79994375,1.0,31.08030950412,0.016747187207737525,1.37804526038886,0.07063028242779952,0.2886506375,0.5442658836017826
0.002,1.7999,1.0,53.60586520163836,0.02226245803845476,1.3763666087634847,0.11475168109508205,0.2886488,0.5483041320404147
0.0025,1.79984375,1.0,97.15816034897678,0.02774679255992954,1.3739332774019324,0.16461149566749192,0.28864643749999996,0.5541259695518159
0.003,1.7997750000000001,1.0,161.00923537066163,0.03320036430228491,1.3712124323634496,0.21731821724966113,0.28864354999999997,0.5605909759528425
0.0035,1.79969375,1.0,237.74104279412242,0.03862334581887749,1.3685829566818488,0.2706504500755465,0.2886401375,0.5667940179963851
0.004,1.7996,1.0,321.52818698911364,0.044015908697072996,1.3661544658078562,0.3229521730800361,0.2886362,0.5724837601051133
0.0045000000000000005,1.7994937500000001,1.0,409.33137638701754,0.049378223563432744,1.3639213206893228,0.37306903498836613,0.2886317375,0.5776826286598822
0.005,1.799375,1.0,499.4784312961085,0.054710460074807066,1.361856962695567,0.4202797651643649,0.28862675,0.5824602632293976
0.0055,1.79924375,1.0,590.8559477576453,0.0600127869656766,1.3599375547641035,0.46420360822534296,0.2886212375,0.5868780506072641
0.006,1.7991000000000001,1.0,682.5837337800342,0.06528537199163811,1.3581452218800327,0.504707450291289,0.2886152,0.5909821429990503
0.006500000000000001,1.79894375,1.0,773.9489836597967,0.07052838198622076,1.3564660975187488,0.5418258680472215,0.2886086375,0.5948084225757457
0.007,1.798775,1.0,864.3527281492537,0.07574198283462996,1.354889314094196,0.5756996630793328,0.28860155,0.5983851235387472
0.0075,1.79859375,1.0,953.3080004708547,0.08092633951217057,1.3534057827468968,0.6065307380684942,0.2885939375,0.6017358186258073
0.008,1.7984,1.0,1040.4231567088837,0.08608161604217093,1.352007693751088,0.6345509684042405,0.2885858,0.6048806873088016
0.0085,1.79819375,1.0,1125.3790100813487,0.09120797540579062,1.3506883244287224,0.6600016024922853,0.2885771375,0.6078370507314258
0.009000000000000001,1.797975,1.0,1207.9459052591772,0.09630558010770963,1.349441410283121,0.683119926886314,0.28856795,0.6106208570769884
0.0095,1.79774375,1.0,1287.944842932056,0.10137459153945504,1.348261427279465,0.7041317297552775,0.2885582375,0.6132461041749677
0.01,1.7975,1.0,1365.2271221651595,0.1064151694955337,1.347143613188602,0.7232471439068789,0.288548,0.6157248463723285
0.0105,1.79724375,1.0,1439.7133253491106,0.11142747355294508,1.3460832727180865,0.7406584623347034,0.2885372375,0.6180687766094981
0.011,1.796975,1.0,1511.3713974091945,0.11641166290357753,1.345075952853588,0.756539920610013,0.28852595000000003,0.6202888608488146
0.0115,1.79669375,1.0,1580.1758316080852,0.12136789512311856,1.3441178281651571,0.771048440248491,0.2885141375,0.6223945163867838
0.012,1.7964,1.0,1646.1162837873978,0.12629632645316632,1.3432054711835162,0.7843245632013622,0.28850180000000003,0.6243941471610353
0.0125,1.79609375,1.0,1709.219910292824,0.13119711284290755,1.3423355071499952,0.79649361479491,0.2884889375,0.6262959201031748
0.013000000000000001,1.7957750000000001,1.0,1769.5407287209232,0.13607041000229508,1.341504686955445,0.807667157172485,0.28847555,0.6281076173069627
0.0135,1.79544375,1.0,1827.1317313089885,0.1409163724213913,1.340710148433166,0.8179444933859236,0.2884616375,0.6298360802125318
0.014,1.7951000000000001,1.0,1882.0382579640552,0.14573515247988764,1.3399494263957807,0.8274139852848996,0.2884472,0.6314872050165168
0.0145,1.79474375,1.0,1934.3296886944197,0.15052690255747544,1.3392200556559108,0.8361541350204593,0.2884322375,0.6330668170943902
0.015,1.794375,1.0,1984.0856527130513,0.15529177418605378,1.338519695777424,0.8442347637391332,0.28841675,0.6345804067945164
0.0155,1.79399375,1.0,2031.3997373923878,0.1600299196031822,1.3378460640912246,0.8517180054767775,0.2884007375,0.6360332811800642
0.016,1.7936,1.0,2076.346279235312,0.1647414883637437,1.3371972605326419,0.8586593115300352,0.2883842,0.6374298708204134
0.0165,1.7931937500000001,1.0,2118.995846514575,0.16942662851667928,1.336571572236818,0.8651081767456561,0.2883671375,0.6387741605932281
0.017,1.792775,1.0,2159.431451930657,0.17408548811092991,1.335967286338896,0.8711087890632554,0.28834955,0.6400700972897904
0.0175,1.7923437500000001,1.0,2197.744965663878,0.17871821491713616,1.3353827155743572,0.8767006637492764,0.2883314375,0.6413215372894447
0.018000000000000002,1.7919,1.0,2234.022412156409,0.18332495555511683,1.334816334966959,0.8819192287810937,0.2883128,0.6425319573957049
0.0185,1.79144375,1.0,2268.3599035096986,0.1879058576276401,1.334266607646685,0.8867962561196054,0.2882936375,0.643704831034366
0.019,1.790975,1.0,2300.823231549692,0.19246106451424844,1.3337323775945014,0.8913603795933781,0.28827395,0.6448427938301058
0.0195,1.79049375,1.0,2331.484579391717,0.19699071959448416,1.3332124887913754,0.8956373607134429,0.2882537375,0.6459484608209742
0.02,1.79,1.0,2360.4219943605003,0.2014949662478897,1.3327057852182738,0.8996504148484539,0.288233,0.6470244275583288
0.0205,1.78949375,1.0,2387.7152047919853,0.2059739471874984,1.332211146675827,0.9034205047963911,0.2882117375,0.6480731952306509
0.021,1.788975,1.0,2413.441245536581,0.21042780463120772,1.3317275255906553,0.9069665987436286,0.28818995000000003,0.6490970942777459
0.021500000000000002,1.78844375,1.0,2437.6788067953867,0.2148566813448994,1.3312538992793987,0.9103058787598381,0.2881676375,0.6500983871562307
0.022,1.7879,1.0,2460.486545859664,0.21926071575152445,1.3307894734163344,0.9134539726143451,0.2881448,0.6510788401688272
0.0225,1.78734375,1.0,2481.92618141961,0.223640046274034,1.3303334536757387,0.9164250751324641,0.28812143749999997,0.6520402084906205
0.023,1.786775,1.0,2502.062239106987,0.227994811335379,1.3298850457318885,0.9192320994192245,0.28809755,0.6529842366150187
0.0235,1.78619375,1.0,2520.9618110268757,0.2323251493585105,1.3294434552590606,0.9218868103387824,0.28807313749999996,0.653912658759475
0.024,1.7856,1.0,2538.681949928255,0.23663119586046089,1.329008004607271,0.9243999622326665,0.2880482,0.6548269544143557
0.0245,1.78499375,1.0,2555.291285906092,0.24091309129892874,1.3285779258311694,0.926781368125655,0.2880227375,0.6557287839811433
0.025,1.784375,1.0,2570.839911020076,0.24517097040400931,1.3281526425047037,0.9290400373601408,0.28799675,0.6566193980139674
0.025500000000000002,1.78374375,1.0,2585.37332427116,0.24940496617505573,1.327731635090088,0.9311842332854433,0.2879702375,0.6574999214323258
0.026000000000000002,1.7831000000000001,1.0,2598.938329094691,0.25361521161142103,1.3273143840495367,0.9332215371334497,0.2879432,0.6583714731960216
0.0265,1.78244375,1.0,2611.582922072332,0.25780183971245835,1.3269003698452642,0.9351589135359619,0.2879156375,0.6592351664382319
0.027,1.781775,1.0,2623.356187628858,0.26196498347752084,1.3264890729394847,0.9370027689500972,0.28788755,0.6600921085813642
0.0275,1.7810937500000001,1.0,2634.3040987698996,0.2661047745713233,1.3260800117287135,0.9387590090085095,0.2878589375,0.6609433225478383
0.028,1.7804,1.0,2644.466885383836,0.2702213435988592,1.3256727656193557,0.9404330880933972,0.2878298,0.6617896994063783
0.0285,1.77969375,1.0,2653.899117728529,0.27431482588683576,1.3252667885999756,0.9420300255930396,0.2878001375,0.6626323859498049
0.029,1.778975,1.0,2662.6321230639155,0.27838534850356167,1.3248617555299416,0.9435544890563741,0.28776995,0.6634720656696571
0.029500000000000002,1.7782437500000001,1.0,2670.6977591077507,0.28243303851734564,1.3244573412686222,0.9450107974544769,0.2877392375,0.6643094186763291
0.03,1.7775,1.0,2678.128367707655,0.28645802299649625,1.3240532206753863,0.9464029516748727,0.287708,0.6651451217152722
0.0305,1.77674375,1.0,2684.9567308570845,0.2904604290093223,1.323649068609602,0.9477346619859597,0.2876762375,0.6659798481764576
0.031,1.775975,1.0,2691.216029055067,0.29444038362413233,1.3232445599306384,0.9490093728055219,0.28764395,0.6668142680970917
0.0315,1.7751937500000001,1.0,2696.9398020097947,0.29839801390923504,1.3228393694978633,0.950230285067191,0.2876111375,0.6676490481575961
0.032,1.7744,1.0,2702.1550505445525,0.30233344295298487,1.3224332348505539,0.9514003828881582,0.2875778,0.6684847227799986
0.0325,1.77359375,1.0,2706.895942712972,0.3062468001160912,1.3220258305147865,0.9525224392511064,0.2875439375,0.6693219530652488
0.033,1.772775,1.0,2711.1875869387736,0.3101382089907259,1.3216169160036049,0.9535990470210649,0.28750955,0.670161222386257
0.0335,1.7719437500000002,1.0,2715.0514697263197,0.3140077907064281,1.3212062856783553,0.9546326284149229,0.2874746375,0.6710029401808508
0.034,1.7711000000000001,1.0,2718.509248198295,0.31785566639273666,1.320793733900383,0.9556254451916365,0.2874392,0.671847513680645
0.0345,1.7702437500000001,1.0,2721.582732649373,0.32168195717919046,1.3203790550310341,0.9565796111753543,0.2874032375,0.6726953478871862
0.035,1.7693750000000001,1.0,2724.2938700372647,0.32548678419532845,1.3199620434316546,0.9574971036612212,0.28736675,0.6735468455454081
0.035500000000000004,1.76849375,1.0,2726.664728411761,0.3292702685706897,1.3195424934635902,0.9583797738152308,0.2873297375,0.6744024071143859
0.036000000000000004,1.7676,1.0,2728.7149789624987,0.33303252863595595,1.3191202222456728,0.95922935786926,0.2872922,0.675262384419236
0.0365,1.76669375,1.0,2730.460984934046,0.33677367973989686,1.3186950777732003,0.9600474864544067,0.2872541375,0.6761270644232584
0.037,1.765775,1.0,2731.9319209830605,0.34049385411305305,1.3182667923184326,0.9608356821080581,0.28721555,0.6769969671790041
0.0375,1.76484375,1.0,2733.140500810614,0.3441931660350896,1.3178352483731945,0.9615953856570304,0.2871764375,0.6778723051388704
0.038,1.7639,1.0,2734.0994887217953,0.3478717297856717,1.3174003284293112,0.9623279513848234,0.28713679999999997,0.6787532892632825
0.0385,1.76294375,1.0,2734.8216935613023,0.3515296596444644,1.3169619149786074,0.9630346531770263,0.28709663750000003,0.6796401289958357
0.039,1.761975,1.0,2735.319962953738,0.3551670698911329,1.3165198905129083,0.963716690165977,0.28705595,0.6805330322375528
0.0395,1.7609937500000001,1.0,2735.6071778518585,0.3587840748053423,1.3160741375240388,0.9643751919204535,0.2870147375,0.6814322053202647
0.04,1.76,1.0,2735.6962473891967,0.3623807886667577,1.315624538503824,0.9650112232215386,0.286973,0.6823378529791073
0.0405,1.7589937500000001,1.0,2735.600104040409,0.3659573257550443,1.315170975944089,0.965625788461721,0.2869307375,0.6832501783241405
0.041,1.757975,1.0,2735.331699086262,0.36951380034986714,1.3147133323366587,0.9662198357006021,0.28688795,0.6841693828110837
0.0415,1.75694375,1.0,2734.9039983860125,0.37305032673089145,1.3142514901733582,0.9667942604073382,0.2868446375,0.6850956662111727
0.042,1.7559,1.0,2734.326369016746,0.376567018134981,1.3137853647254663,0.9673499114938716,0.28680079999999997,0.6860291609824813
0.0425,1.75484375,1.0,2733.6066594955564,0.38006398440464945,1.3133148851380665,0.9678875923718654,0.2867564375,0.6869699705067609
0.043000000000000003,1.753775,1.0,2732.7562148738302,0.3835413354419863,1.3128399488601774,0.9684080607417404,0.28671155,0.6879182601950306
0.043500000000000004,1.75269375,1.0,2731.7850231105517,0.38699918102741615,1.3123604656977639,0.968912035035247,0.28666613750000003,0.6888741692253701
0.044,1.7516,1.0,2730.6922384090863,0.3904376304880627,1.3118764439228638,0.9694002036239441,0.2866202,0.6898376394324897
0.0445,1.75049375,1.0,2729.5070744824575,0.39385679350313163,1.311387618657819,0.9698731978320697,0.2865737375,0.6908091548042496
0.045,1.7493761643257564,1.0,2728.2853207720864,0.39725677808109505,1.310894009055012,0.9703316380943809,0.28652679890168176,0.691788632441652
0.0455,1.7482565595221295,1.0,2727.45797246245,0.40063769112923425,1.3103959036069106,0.9707761333779399,0.2864797754999294,0.6927754560715863
0.046,1.7471369547185027,1.0,2727.0934002297076,0.40399963955483054,1.3098935908059817,0.9712072617835191,0.2864327520981771,0.6937690126829554
0.0465,1.7460173499148761,1.0,2727.16068654648,0.407342729888811,1.3093873509569263,0.9716255717613707,0.2863857286964248,0.6947687087622951
0.047,1.7448977451112493,1.0,2727.6219472353623,0.4106670685660535,1.3088775286752563,0.9720315891870677,0.2863387052946725,0.6957738274217673
0.0475,1.7437781403076227,1.0,2728.443884790843,0.4139727607830833,1.3083644275889814,0.9724258109901865,0.28629168189292015,0.6967837365998719
0.048,1.7426585355039959,1.0,2729.5993485094887,0.4172599104234954,1.30784829596402,0.972808705863178,0.2862446584911678,0.6977979166838301
0.0485,1.7415389307003692,1.0,2731.0612291222915,0.4205286213708848,1.3073293820662912,0.9731807199581134,0.28619763508941554,0.6988158511439784
0.049,1.7404193258967424,1.0,2732.806374912755,0.42377899568787053,1.3068078984418756,0.9735422755083202,0.2861506116876632,0.6998370964721932
0.0495,1.7392997210931158,1.0,2734.810341405403,0.42701113643347677,1.306284069526484,0.973893775784242,0.28610358828591087,0.7008611886297704
0.05,1.738180116289489,1.0,2737.0397975335773,0.43022515163367414,1.305758200445631,0.9742356112288562,0.28605656488415854,0.7018875091206931
0.0505,1.7370605114858622,1.0,2739.48020258497,0.43342114071389515,1.3052304256198646,0.9745681419265394,0.2860095414824062,0.7029157757522841
0.051000000000000004,1.7359409066822356,1.0,2742.117014778652,0.4365992030995725,1.3047008794697326,0.9748917115173139,0.28596251808065387,0.7039457080687868
0.051500000000000004,1.7348213018786087,1.0,2744.9356857858747,0.4397594382161387,1.3041696964157823,0.9752066480968329,0.28591549467890154,0.7049770273671265
0.052000000000000005,1.7337016970749821,1.0,2747.921655651026,0.4429019454890264,1.3036370108785618,0.9755132650595493,0.28586847127714926,0.7060094567115184
0.0525,1.7325820922713553,1.0,2751.060348113393,0.4460268243436681,1.3031029572786186,0.9758118618891081,0.28582144787539693,0.7070427209469259
0.053,1.7314624874677287,1.0,2754.337166330041,0.44913417420549645,1.3025676700365,0.9761027248996973,0.2857744244736446,0.7080765467113636
0.0535,1.7303428826641019,1.0,2757.7374889984767,0.452224094499944,1.302031283572754,0.9763861279317932,0.28572740107189226,0.7091106624470491
0.054,1.7292232778604752,1.0,2761.251717259452,0.45529668044946275,1.3014938866665722,0.9766623297994895,0.28568037767014,0.7101448861692734
0.0545,1.7281036730568484,1.0,2764.8657177942737,0.4583520339085947,1.300955608888381,0.976931581374935,0.28563335426838765,0.7111789587966324
0.055,1.7269840682532216,1.0,2768.5695623586416,0.46139025235597625,1.3004165415695816,0.9771941201851115,0.2855863308666353,0.7122126962735071
0.0555,1.725864463449595,1.0,2772.3567019775123,0.46441142998261925,1.2998767453597877,0.9774501716628397,0.285539307464883,0.7132459744656283
0.056,1.7247448586459682,1.0,2776.2205730355695,0.4674156609795356,1.2993362809086122,0.9776999518718887,0.28549228406313065,0.7142786700631392
0.0565,1.7236252538423416,1.0,2780.154596337732,0.4704030395377371,1.2987952088656685,0.977943667974873,0.2854452606613783,0.7153106605832957
0.057,1.7225056490387147,1.0,2784.1521762514863,0.4733736598482356,1.2982535898805698,0.9781815186741172,0.285398237259626,0.7163418243729365
0.0575,1.7213860442350881,1.0,2788.20669993054,0.476327616102043,1.2977114846029296,0.9784136946272578,0.2853512138578737,0.717372040610713
0.058,1.7202664394314613,1.0,2792.311536620027,0.47926500249017107,1.297168953682361,0.9786403788392197,0.2853041904561214,0.7184011893090907
0.0585,1.7191468346278347,1.0,2796.46016923466,0.4821859129055637,1.296626056581384,0.9788617469406014,0.28525716705436904,0.7194291535617906
0.059000000000000004,1.7180272298242079,1.0,2800.6535856647256,0.4850904258901976,1.2960827852498016,0.9790779626233627,0.2852101436526167,0.7204559447663261
0.059500000000000004,1.716907625020581,1.0,2804.8774296022802,0.48797865689453357,1.2955392692556842,0.9792891937646221,0.28516312025086443,0.7214813148208425
0.06,1.7157880202169544,1.0,2809.1293225764575,0.4908506939432002,1.2949955304622491,0.9794955936351093,0.2851160968491121,0.7225052200487763
0.0605,1.7146684154133276,1.0,2813.406879079783,0.49370662506082597,1.294451590732714,0.9796973096178897,0.28506907344735977,0.7235276170758107
0.061,1.713548810609701,1.0,2817.7077064653718,0.4965465382720394,1.2939074719302965,0.9798944834805021,0.28502205004560743,0.724548462830172
0.0615,1.7124292058060742,1.0,2822.029404854829,0.4993705216014689,1.293363195918214,0.9800872516325144,0.2849750266438551,0.7255677145428943
0.062,1.7113096010024476,1.0,2826.3695670567085,0.5021786630737429,1.2928187845596835,0.9802757453693859,0.28492800324210277,0.7265853297480538
0.0625,1.7101899961988207,1.0,2830.7257784956405,0.5049710507134901,1.292274259717923,0.9804600911034581,0.28488097984035043,0.7276012662829721
0.063,1.7090703913951941,1.0,2835.0956171521225,0.507747772545339,1.2917296432561498,0.9806404105828496,0.28483395643859816,0.7286154822883915
0.0635,1.7079507865915673,1.0,2839.476653512509,0.5105089165939177,1.2911849570375813,0.9808168210989701,0.2847869330368458,0.7296279362086159
0.064,1.7068311817879405,1.0,2843.8664505302977,0.5132545708838552,1.290640222925435,0.9809894356833276,0.2847399096350935,0.7306385867916245
0.0645,1.7057115769843139,1.0,2848.262563597348,0.5159848234397796,1.2900954627829284,0.9811583632942547,0.2846928862333412,0.7316473930891537
0.065,1.704591972180687,1.0,2852.6625405259642,0.5186997622863195,1.289550698473279,0.98132370899414,0.2846458628315889,0.7326543144567483
0.0655,1.7034723673770604,1.0,2857.065672101498,0.5213994627479268,1.2890059363070576,0.9814855724727437,0.28459883942983655,0.733659339219646
0.066,1.7023527625734336,1.0,2861.471150538321,0.524084008547414,1.2884611834504622,0.9816440505409519,0.2845518160280842,0.7346624542167053
0.0665,1.701233157769807,1.0,2865.874501448105,0.5267535110160805,1.287916479573024,0.981799240065065,0.2845047926263319,0.7356635867036877
0.067,1.7001135529661802,1.0,2870.2751652408137,0.5294080506237496,1.2873718295220626,0.981951230799674,0.28445776922457955,0.7366627283072149
0.0675,1.6989939481625536,1.0,2874.6725806669237,0.5320477078402446,1.2868272381448975,0.9821001094170442,0.2844107458228272,0.7376598707212061
0.068,1.6978743433589267,1.0,2879.066184823741,0.5346725631353887,1.2862827102888479,0.982245959634846,0.28436372242107494,0.7386550057068609
0.0685,1.6967547385553,1.0,2883.45541316166,0.5372826969790052,1.2857382508012336,0.9823888623377367,0.2843166990193226,0.7396481250926381
0.069,1.6956351337516733,1.0,2887.839699491527,0.5398781898409174,1.2851938645293741,0.982528895693131,0.28426967561757027,0.7406392207742379
0.0695,1.6945155289480465,1.0,2892.21847599214,0.5424591221909486,1.2846495563205886,0.9826661352614765,0.28422265221581794,0.7416282847145792
0.07,1.6933959241444199,1.0,2896.5911732184513,0.5450255744989221,1.2841053310221968,0.9828006541013293,0.28417562881406566,0.7426153089437755
0.07050000000000001,1.692276319340793,1.0,2900.95722010991,0.5475776272346612,1.2835611934815183,0.9829325228695084,0.28412860541231333,0.7436002855591102
0.07100000000000001,1.6911567145371664,1.0,2905.316044000074,0.550115360867989,1.2830171485458726,0.9830618099165943,0.284081582010561,0.7445832067250112
0.07150000000000001,1.6900371097335396,1.0,2909.667070626097,0.552638855868729,1.282473201062579,0.9831885813780137,0.28403455860880866,0.7455640646730224
0.07200000000000001,1.688917504929913,1.0,2914.0097241388776,0.5551481927067042,1.281929355878957,0.9833129012609447,0.28398753520705633,0.7465428517017743
