Time [s],Phi [rad],STIM [ ],Fsee [N],Gamma [ ],Lcerel [ ],q [ ],Lmtc [m],fisomrel [ ]
0.0,1.8,1.0,17.966742013441593,1.0255996266260232e-05,1.379339792843172,0.005000028028201433,0.288653,0.5411394182579697
0.0005,1.79999375,1.0,18.27619863319049,0.005619407777032679,1.3793024483858185,0.012941226068547189,0.2886527375,0.5412297597210571
0.001,1.799975,1.0,21.618031255503773,0.01119709665122973,1.378938337892067,0.035609915029645126,0.28865195,0.5421101277920845
0.0015,1.79994375,1.0,31.06920164672628,0.016743499101748223,1.378046206656121,0.07060353885794797,0.2886506375,0.5442636021457827
0.002,1.7999,1.0,53.58288674540808,0.022258790619826753,1.3763680993205907,0.11472000881548665,0.2886488,0.548300554253208
0.0025,1.79984375,1.0,97.1201015062665,0.027743145712618194,1.3739351111761042,0.16457703648962757,0.28864643749999996,0.5541215963957735
0.003,1.7997750000000001,1.0,160.95999770779386,0.03319673791090382,1.3712142752246266,0.2172826636842236,0.28864354999999997,0.5605866131041302
0.0035,1.79969375,1.0,237.68557658418496,0.03861973976868676,1.3685846650801092,0.27061508461652006,0.2886401375,0.5667900021294123
0.004,1.7996,1.0,321.4692943024845,0.044012322873973754,1.366156025572628,0.32291792695776567,0.2886362,0.5724801177833452
0.0045000000000000005,1.7994937500000001,1.0,409.2704818840079,0.049374657853959725,1.3639227500574818,0.37303652446848584,0.2886317375,0.5776793111945143
0.005,1.799375,1.0,499.4163767952723,0.05470691436612074,1.361858281303805,0.4202493476274747,0.28862675,0.5824572201908687
0.0055,1.79924375,1.0,590.7933865120395,0.0600092611456551,1.3599387770236997,0.4641754454613434,0.2886212375,0.5868752448810057
0.006,1.7991000000000001,1.0,682.5211425783815,0.06528186594869616,1.3581463595928647,0.504681568238602,0.2886152,0.5909795443570742
0.006500000000000001,1.79894375,1.0,773.884089571512,0.07052489560838464,1.3564672052781648,0.541802232190511,0.2886086375,0.5948059042129297
0.007,1.798775,1.0,864.2889141402078,0.07573851601556346,1.354890344874046,0.5756781206527553,0.28860155,0.598382790545857
0.0075,1.79859375,1.0,953.2462554022022,0.08092289213340965,1.3534067324329704,0.6065111358342955,0.2885939375,0.6017336781602388
0.008,1.7984,1.0,1040.3621760238962,0.08607818799899027,1.3520085915540532,0.6345331621257577,0.2885858,0.6048786717861345
0.0085,1.79819375,1.0,1125.3224435643326,0.0912045667416771,1.3506891251896405,0.6599854034535845,0.2885771375,0.6078352598014181
0.009000000000000001,1.797975,1.0,1207.8840695088838,0.09630219043500028,1.3494422551899647,0.6831052574841445,0.28856795,0.6106189741318608
0.0095,1.79774375,1.0,1287.8804707372162,0.10137122076778704,1.348262279088985,0.704118418860749,0.2885582375,0.6132442122568427
0.01,1.7975,1.0,1365.1674482289936,0.10641181767188017,1.3471443801515004,0.7232350065402918,0.288548,0.6157231483712711
0.0105,1.79724375,1.0,1439.6586242727772,0.11142414058585366,1.346083957337741,0.7406473779200125,0.2885372375,0.6180672655403339
0.011,1.796975,1.0,1511.317911131837,0.11640834872200799,1.3450766062067439,0.7565298038770606,0.28852595000000003,0.6202874229873592
0.0115,1.79669375,1.0,1580.1169238684322,0.12136459942090885,1.344118531903278,0.7710392277883733,0.2885141375,0.6223929719411118
0.012,1.7964,1.0,1646.0551117150694,0.1262930491745723,1.343206187185706,0.7843161458278929,0.28850180000000003,0.624392579966359
0.0125,1.79609375,1.0,1709.157336750342,0.13119385384520674,1.3423362259087104,0.7964859072179544,0.2884889375,0.6262943508628203
0.013000000000000001,1.7957750000000001,1.0,1769.4859931106591,0.1360671696825796,1.3415053048728374,0.807660046703371,0.28847555,0.6281062715041786
0.0135,1.79544375,1.0,1827.079755141616,0.14091315019279763,1.340710725877054,0.8179379418123355,0.2884616375,0.6298348254857491
0.014,1.7951000000000001,1.0,1881.9870488275003,0.14573194810888213,1.3399499869576617,0.827407945651087,0.2884472,0.6314859896922376
0.0145,1.79474375,1.0,1934.2805575988482,0.15052371616385432,1.3392205861509603,0.8361485530663239,0.2884322375,0.6330656694241037
0.015,1.794375,1.0,1984.039442811235,0.15528860593305324,1.338520188434522,0.8442295931497911,0.28841675,0.6345793431832136
0.0155,1.79399375,1.0,2031.3594888674531,0.16002676944772856,1.3378464881653762,0.8517131971172188,0.2884007375,0.636032367456385
0.016,1.7936,1.0,2076.3051928165487,0.16473835549558105,1.3371976887240242,0.8586548534031274,0.2883842,0.6374289499973727
0.0165,1.7931937500000001,1.0,2118.9534194534594,0.16942351274847284,1.336572009927649,0.8651040384440645,0.2883671375,0.6387732210882097
0.017,1.792775,1.0,2159.3922279238527,0.17408238971592438,1.335967687179395,0.871104928798276,0.28834955,0.6400692384289801
0.0175,1.7923437500000001,1.0,2197.708132246574,0.17871513365371314,1.3353830886892328,0.8766970592273481,0.2883314375,0.6413207392259892
0.018000000000000002,1.7919,1.0,2234.0024625260085,0.183321893122525,1.3348165354046722,0.8819158202092653,0.2883128,0.6425315293992727
0.0185,1.79144375,1.0,2268.341697726787,0.18790281235185524,1.334266789173851,0.8867930648436588,0.2882936375,0.6437044440542226
0.019,1.790975,1.0,2300.7995705283956,0.19245803557119914,1.3337326118449084,0.8913574048442535,0.28827395,0.6448422952524735
0.0195,1.79049375,1.0,2331.4564679683194,0.19698770701005197,1.3332127652659824,0.8956345824572514,0.2882537375,0.64594787329017
0.02,1.79,1.0,2360.379585944965,0.20149196996359592,1.3327061997392848,0.899647840093002,0.288233,0.6470235480071528
0.0205,1.78949375,1.0,2387.671794941409,0.20597096812858284,1.3322115685533433,0.9034180887517025,0.2882117375,0.648072301400916
0.021,1.788975,1.0,2413.430283818655,0.21042484423497487,1.3317276315521627,0.9069642586127682,0.28818995000000003,0.6490968701045683
0.021500000000000002,1.7884464001882387,1.0,2437.8044811493323,0.21485373762283116,1.3312538873782658,0.9103036487731219,0.288167748807906,0.6500984122984286
0.022,1.787917039887617,1.0,2461.2526859832956,0.21925778763221082,1.3307898346741758,0.9134519454243614,0.2881455156752799,0.6510780780492075
0.0225,1.7873876795869952,1.0,2483.8485410921376,0.22363713360317308,1.3303349720824151,0.9164233944434792,0.2881232825426538,0.6520370096279018
0.023,1.7868583192863734,1.0,2505.6317018715804,0.22799191487577702,1.3298887982455068,0.9192309535230626,0.2881010494100277,0.6529763418116561
0.0235,1.7863289589857516,1.0,2526.6346395886026,0.23232226951782278,1.3294508933095617,0.9218864410930312,0.28807881627740156,0.653897030923252
0.024,1.78579959868513,1.0,2546.8815958252667,0.2366283349456686,1.3290209262556958,0.9244006546441751,0.28805658314477545,0.6547998408349618
0.0245,1.7852702383845083,1.0,2566.398974716804,0.24091024656446908,1.32859855508687,0.926783455127074,0.28803435001214933,0.6556855535549149
0.025,1.7847408780838865,1.0,2585.214026419687,0.24516813970111548,1.3281834387914035,0.9290438640838509,0.2880121168795232,0.6565549442061515
0.025500000000000002,1.7842115177832647,1.0,2603.344926294978,0.24940214315745304,1.3277753291372467,0.931190158753177,0.2879898837468971,0.6574085893143162
0.026000000000000002,1.783682157482643,1.0,2620.8312107454913,0.25361239908966376,1.32737378629762,0.9332299074739356,0.287967650614271,0.6582474618786996
0.0265,1.7831527971820211,1.0,2637.7050320431813,0.2577990451344767,1.3269784473571817,0.9351700727466501,0.28794541748164487,0.6590723691450471
0.027,1.7826234368813993,1.0,2653.9860572530233,0.2619622105198895,1.326589071580425,0.9370170737905619,0.28792318434901876,0.6598838594522834
0.0275,1.7820940765807776,1.0,2669.6945173646654,0.26610202447389975,1.326205418231843,0.9387768222426917,0.28790095121639264,0.6606824780490701
0.028,1.7815647162801558,1.0,2684.8511761071663,0.2702186162245049,1.3258272465759289,0.9404547690128592,0.2878787180837665,0.6614687671835104
0.0285,1.781035355979534,1.0,2699.47730004775,0.2743121149997026,1.3254543158771763,0.942055946247438,0.2878564849511404,0.6622432661891554
0.029,1.7805059956789122,1.0,2713.594629976221,0.27838265002749035,1.3250863854000783,0.9435850049655901,0.2878342518185143,0.6630065115673207
0.029500000000000002,1.7799766353782904,1.0,2727.2253535738473,0.28243035053586574,1.3247232144091279,0.9450462488614056,0.2878120186858882,0.6637590370657002
0.03,1.7794472750776689,1.0,2740.3920793671896,0.2864553457528264,1.324364562168819,0.9464436647043373,0.28778978555326207,0.6645013737532857
0.0305,1.778917914777047,1.0,2753.1178119671786,0.29045776490636976,1.3240101879436441,0.9477809497173592,0.287767552420636,0.6652340500915958
0.031,1.7783885544764253,1.0,2765.4149507971733,0.29443772795732137,1.3236599501319357,0.9490615458866131,0.28774531928800984,0.6659573873743396
0.0315,1.7778591941758035,1.0,2777.3126278138225,0.2983953718564271,1.323313558661607,0.9502886387633503,0.2877230861553838,0.6666720114335704
0.032,1.7773298338751817,1.0,2788.8277456783844,0.30233082167550285,1.3229708368452355,0.9514652019428835,0.2877008530227576,0.6673783116947968
0.0325,1.77680047357456,1.0,2799.9737003334726,0.3062441990503559,1.3226316417544182,0.9525940073960778,0.28767861989013155,0.6680766063101046
0.033,1.7762711132739382,1.0,2810.764099652257,0.31013562561679353,1.3222958304607508,0.9536776388216832,0.2876563867575054,0.6687672119503028
0.0335,1.7757417529733164,1.0,2821.2127524900147,0.3140052230106231,1.3219632600358306,0.9547185067081801,0.2876341536248793,0.6694504438364162
0.034,1.7752123926726946,1.0,2831.333658186556,0.31785311286765194,1.3216337875512534,0.9557188620198713,0.28761192049225315,0.6701266157698826
0.0345,1.7746830323720728,1.0,2841.1409965235725,0.3216794168236873,1.3213072700786161,0.9566808086474791,0.2875896873596271,0.6707960401614388
0.035,1.774153672071451,1.0,2850.649118133024,0.3254842565145365,1.320983564689515,0.957606314747799,0.2875674542270009,0.6714590280587116
0.035500000000000004,1.7736243117708295,1.0,2859.872535360018,0.3292677535760068,1.3206625284555467,0.9584972230831965,0.28754522109437486,0.6721158891724992
0.036000000000000004,1.7730949514702077,1.0,2868.8258101178385,0.33303002949266747,1.3203440193655964,0.9593552605189588,0.2875229879617487,0.6727669300277245
0.0365,1.772565591169586,1.0,2877.5130616287024,0.3367711917180123,1.3200279891314075,0.9601820528948307,0.28750075482912263,0.6734122645807006
0.037,1.7720362308689641,1.0,2885.9583626819945,0.34049137841510274,1.3197142137363014,0.9609791155593236,0.28747852169649646,0.6740523645885798
0.0375,1.7715068705683423,1.0,2894.169758471522,0.3441907036228512,1.3194026122724523,0.9617478806312104,0.2874562885638704,0.6746874083977472
0.038,1.7709775102677205,1.0,2902.1553784665466,0.34786928138017026,1.3190931038320346,0.9624896943850323,0.28743405543124423,0.6753175736187449
0.0385,1.7704481499670988,1.0,2909.923432586036,0.3515272257259722,1.3187856075072226,0.9632058233432704,0.28741182229861817,0.67594303713728
0.039,1.769918789666477,1.0,2917.4822075153443,0.35516465069916964,1.3184800423901908,0.9638974598723363,0.287389589165992,0.676563975124816
0.0395,1.7693894293658552,1.0,2924.8400631706013,0.35878167033867503,1.3181763275731135,0.9645657273277244,0.28736735603336594,0.6771805630487461
0.04,1.7688600690652334,1.0,2932.0054293058024,0.3623783986834007,1.3178743821481653,0.9652116847891051,0.28734512290073977,0.6777929756821497
0.0405,1.7683307087646116,1.0,2938.9868022673722,0.36595494977225934,1.3175741252075202,0.965836331422065,0.2873228897681137,0.6784013871131325
0.041,1.76780134846399,1.0,2945.7927418915547,0.3695114376441632,1.3172754758433527,0.9664406104995694,0.2873006566354876,0.679005970753744
0.0415,1.7672719881633683,1.0,2952.431868549151,0.37304797633802494,1.3169783531478372,0.9670254131129901,0.2872784235028615,0.6796068993484854
0.042,1.7667426278627465,1.0,2958.912183440448,0.3765646781460032,1.3166826821225215,0.9675915818013848,0.28725619037023536,0.6802043330474682
0.0425,1.7662132675621247,1.0,2965.23507676077,0.38006164028712647,1.3163884458772661,0.9681399158338418,0.28723395723760925,0.6807983141433938
0.043000000000000003,1.765683907261503,1.0,2971.4164333957324,0.3835389992133532,1.3160955014398226,0.968671167794465,0.28721172410498313,0.6813891389333774
0.043500000000000004,1.7651545469608811,1.0,2977.46069863896,0.3869968609160655,1.3158038060942223,0.9691860535548377,0.287189490972357,0.68197690069006
0.044,1.7646251866602594,1.0,2983.372348340303,0.3904353313866453,1.3155133171244962,0.9696852514998654,0.2871672578397309,0.6825616923376822
0.0445,1.7640958263596376,1.0,2989.155887743012,0.3938545166164748,1.315223991814675,0.9701694048622581,0.2871450247071048,0.6831436064554262
0.045,1.7635664660590158,1.0,2994.815850361231,0.39725452259693594,1.3149357874487901,0.9706391238894684,0.2871227915744787,0.6837227352806456
0.0455,1.763037105758394,1.0,3000.356796898314,0.4006354553194107,1.3146486613108723,0.971094987856633,0.28710055844185256,0.684299170711977
0.046,1.7625077454577722,1.0,3005.783314205542,0.40399742077528117,1.3143625706849524,0.97153754693786,0.28707832530922645,0.6848730043123351
0.0465,1.7619783851571504,1.0,3011.100014280837,0.4073405249559294,1.3140774728550615,0.9719673239470988,0.28705609217660033,0.6854443273117925
0.047,1.7614490248565289,1.0,3016.3115333086594,0.4106648738527374,1.3137933251052307,0.9723848159588449,0.2870338590439742,0.6860132306103413
0.0475,1.760919664555907,1.0,3021.422530739672,0.4139705734570872,1.313510084719491,0.9727904958180406,0.2870116259113481,0.6865798047805409
0.048,1.7603903042552853,1.0,3026.437688411441,0.41725772976036085,1.3132277089818731,0.9731848135477162,0.286989392778722,0.6871441400700479
0.0485,1.7598609439546635,1.0,3031.361709709048,0.42052644875394035,1.3129461551764081,0.9735681976621965,0.28696715964609587,0.6877063264040291
0.049,1.7593315836540417,1.0,3036.196924207417,0.4237768245604803,1.3126654012241912,0.9739410563700391,0.28694492651346976,0.6882664122363379
0.0495,1.75880222335342,1.0,3040.946268237617,0.4270089585686418,1.3123854199288099,0.974303779294522,0.28692269338084364,0.6888244560456032
0.05,1.7582728630527982,1.0,3045.617655291276,0.43022297764051776,1.3121061413853894,0.9746567380854908,0.2869004602482175,0.6893806011145515
0.0505,1.7577435027521764,1.0,3050.213316126385,0.43341897910578664,1.3118275447965426,0.9750002870982494,0.2868782271155914,0.6899348925579089
0.051000000000000004,1.7572141424515546,1.0,3054.7354919492705,0.43659706029412687,1.3115496093648822,0.9753347645681003,0.2868559939829653,0.6904873753335119
0.051500000000000004,1.7566847821509328,1.0,3059.18643410497,0.439757318535217,1.3112723142930207,0.975660493485954,0.2868337608503392,0.6910380942431982
0.052000000000000005,1.756155421850311,1.0,3063.5684037772257,0.4428998511587353,1.3109956387835708,0.9759777824189414,0.28681152771771307,0.6915870939336695
0.0525,1.7556260615496893,1.0,3067.8836716979063,0.44602475549436027,1.3107195620391452,0.9762869262799381,0.28678929458508695,0.6921344188973272
0.053,1.7550967012490677,1.0,3072.1345178660763,0.4491321288717704,1.3104440632623566,0.9765882070495898,0.28676706145246084,0.6926801134730801
0.0535,1.754567340948446,1.0,3076.3232312769023,0.45222206862064407,1.3101691216558178,0.9768818944541643,0.2867448283198347,0.6932242218471254
0.054,1.7540379806478241,1.0,3080.4521096596686,0.4552946720706597,1.3098947164221413,0.9771682466022811,0.2867225951872086,0.6937667880537011
0.0545,1.7535086203472023,1.0,3084.5234592258594,0.45835003655149575,1.3096208267639395,0.9774475105833457,0.2867003620545825,0.6943078559758118
0.055,1.7529792600465806,1.0,3088.53959442656,0.4613882593928307,1.3093474318838256,0.9777199230302931,0.2866781289219564,0.6948474693459243
0.0555,1.7524498997459588,1.0,3092.502837719514,0.4644094379243429,1.3090745109844122,0.9779857106490529,0.28665589578933026,0.6953856717466406
0.056,1.751920539445337,1.0,3096.4155193457727,0.4674136694757109,1.3088020432683114,0.9782450907169623,0.28663366265670415,0.695922506611339
0.0565,1.7513911791447152,1.0,3100.279977115896,0.470401051376613,1.3085300079381366,0.9784982715521884,0.28661142952407803,0.6964580172247876
0.057,1.7508618188440934,1.0,3104.097314507309,0.47337166711513223,1.3082583947801592,0.9787454523316518,0.2865891963914519,0.6969922259169629
0.0575,1.7503324585434716,1.0,3107.866970928258,0.47632558716189727,1.3079872077911718,0.9789868238503459,0.2865669632588258,0.6975251270312421
0.058,1.7498030982428499,1.0,3111.595329967446,0.4792629615392029,1.307716391850858,0.9792225728106585,0.2865447301261997,0.6980568309511772
0.0585,1.7492737379422283,1.0,3115.283381040831,0.48218387791378087,1.3074459378743526,0.9794528756401408,0.28652249699357357,0.6985873574124992
0.059000000000000004,1.7487443776416065,1.0,3118.932116979286,0.485088423952363,1.3071758367767907,0.979677901811825,0.28650026386094746,0.6991167260857093
0.059500000000000004,1.7482150173409847,1.0,3122.5425339570593,0.48797668732168104,1.306906079473307,0.9798978141728248,0.28647803072832134,0.699644956576289
0.06,1.747685657040363,1.0,3126.1156314212953,0.4908487556884667,1.3066366568790362,0.980112769254934,0.2864557975956952,0.7001720684248988
0.0605,1.7471562967397412,1.0,3129.652412023808,0.4937047167194519,1.3063675599091136,0.9803229175683428,0.2864335644630691,0.7006980811075756
0.061,1.7466269364391194,1.0,3133.153881554681,0.49654465808136816,1.306098779478674,0.9805284038795119,0.286411331330443,0.701223014035925
0.0615,1.7460975761384976,1.0,3136.621048877276,0.4993686674409475,1.3058303065028523,0.9807293674741709,0.2863890981978169,0.7017468865573069
0.062,1.7455682158378758,1.0,3140.0549258658475,0.5021768324649215,1.3055621318967834,0.9809259424063501,0.28636686506519077,0.7022697179550152
0.0625,1.745038855537254,1.0,3143.456527344108,0.504969240820022,1.3052942465756023,0.9811182577342797,0.28634463193256465,0.7027915274484544
0.063,1.7445094952366322,1.0,3146.8268710262855,0.5077459801729809,1.3050266414544438,0.9813064377439491,0.28632239879993854,0.7033123341933105
0.0635,1.7439801349360105,1.0,3150.166977459704,0.5105071381905297,1.304759307448443,0.9814906021610544,0.2863001656673124,0.7038321572817138
0.064,1.743450774635389,1.0,3153.4778699693256,0.5132528025394003,1.3044922354727346,0.9816708663520198,0.28627793253468636,0.7043510157424002
0.0645,1.742921414334767,1.0,3156.760574603636,0.5159830608863245,1.3042254164424536,0.9818473415147332,0.2862556994020602,0.7048689285408664
0.065,1.7423920540341453,1.0,3160.0161200837642,0.518698000898034,1.303958841272735,0.9820201348595927,0.28623346626943413,0.7053859145795163
0.0655,1.7418626937335235,1.0,3163.2455377521105,0.5213977102412606,1.3036925008787135,0.9821893497814211,0.28621123313680796,0.7059019926978081
0.066,1.7413333334329018,1.0,3166.449861525482,0.524082276582736,1.3034263861755242,0.9823550860227767,0.2861890000041819,0.7064171816723905
0.0665,1.74080397313228,1.0,3169.630127847515,0.526751787589192,1.3031604880783019,0.9825174398291416,0.28616676687155573,0.7069315002172378
0.067,1.7402746128316582,1.0,3172.7873756451927,0.5294063309273606,1.3028947975021818,0.9826765040964547,0.2861445337389297,0.7074449669837763
0.0675,1.7397452525310364,1.0,3175.9201709553454,0.5320459352612188,1.3026293262209199,0.9828323657263232,0.2861223006063035,0.7079575603031635
0.068,1.7392158922304146,1.0,3179.0315630803684,0.5346707536868585,1.3023640482274272,0.9829851147767856,0.28610006747367744,0.7084693314398025
0.0685,1.7386865319297928,1.0,3182.1221558028146,0.5372808688991805,1.3020989581551314,0.9831348347456346,0.2860778343410513,0.7089802917142352
0.069,1.738157171629171,1.0,3185.1923749352923,0.5398763588323294,1.3018340521473986,0.983281606092407,0.2860556012084252,0.7094904495034486
0.0695,1.7376278113285493,1.0,3188.2426474021822,0.5424573014204499,1.301569326347595,0.9834255065880826,0.28603336807579904,0.7099998131577098
0.07,1.7370984510279275,1.0,3191.273401225053,0.5450237745976867,1.3013047768990869,0.9835666114232988,0.286011134943173,0.7105083910006107
