Time [s],Phi [rad],STIM [ ],Fsee [N],Gamma [ ],Lcerel [ ],q [ ],Lmtc [m],fisomrel [ ]
0.0,1.8,1.0,17.968188528978803,1.000301787075015e-05,1.379339630786441,0.005000026667790049,0.288653,0.5411398103150723
0.0005,1.79999375,1.0,18.277426182490146,0.005619156217645284,1.3793023120292405,0.012940520813120724,0.2886527375,0.5412300895703849
0.001,1.799975,1.0,21.618991457290868,0.011196846502892044,1.3789382398218817,0.03560858726784114,0.28865195,0.5421103647981317
0.0015,1.79994375,1.0,31.06975255822607,0.016743250356544295,1.3780461597205351,0.070601718009438,0.2886506375,0.5442637153078943
0.002,1.7999,1.0,53.58266231104099,0.022258543269887444,1.3763681138806831,0.11471785138448044,0.2886488,0.548300519304519
0.0025,1.79984375,1.0,97.11883641094988,0.02774289975011604,1.3739351721378612,0.16457469098505603,0.28864643749999996,0.5541214510147581
0.003,1.7997750000000001,1.0,160.95788029192653,0.033196493328056985,1.3712143544813276,0.2172802465477922,0.28864354999999997,0.560586425468786
0.0035,1.79969375,1.0,237.68291282527855,0.03861949655775688,1.3685847471307724,0.2706126828244309,0.2886401375,0.5667898092555631
0.004,1.7996,1.0,321.4662792607334,0.0440120810272652,1.366156105429442,0.32291560311947004,0.2886362,0.5724799313033908
0.0045000000000000005,1.7994937500000001,1.0,409.2672269976598,0.04937441736381867,1.3639228264619678,0.37303431982539287,0.2886317375,0.5776791338645806
0.005,1.799375,1.0,499.4129467538165,0.054706675224926275,1.3618583541918168,0.4202472860679598,0.28862675,0.58245705198211
0.0055,1.79924375,1.0,590.7898477672156,0.060009023345874504,1.3599388461621218,0.46417353749176854,0.2886212375,0.5868750861718126
0.006,1.7991000000000001,1.0,682.5175239449212,0.06528162948279256,1.3581464253699302,0.5046798155341632,0.2886152,0.5909793941158832
0.006500000000000001,1.79894375,1.0,773.8807438157407,0.0705246604683404,1.3564672623923681,0.5418006267746911,0.2886086375,0.5948057743701868
0.007,1.798775,1.0,864.2852527651369,0.07573828219527466,1.354890404016942,0.5756766611420987,0.28860155,0.598382656685879
0.0075,1.79859375,1.0,953.2427536521346,0.08092265962619528,1.3534067862934689,0.6065098074511392,0.2885939375,0.6017335567656965
0.008,1.7984,1.0,1040.3428621810867,0.08607795632865543,1.3520088759122875,0.6345320927213807,0.2885858,0.604878033415076
0.0085,1.79819375,1.0,1125.3124591489222,0.09120433651815323,1.350689266532051,0.6599843599674231,0.2885771375,0.6078349436837123
0.009000000000000001,1.797975,1.0,1207.9002311869017,0.09630196218929518,1.3494420343591123,0.6831041140174524,0.28856795,0.61061946627221
0.0095,1.79774375,1.0,1287.8941838849244,0.10137099375574458,1.3482620976270254,0.7041173934195732,0.2885582375,0.6132446152947201
0.01,1.7975,1.0,1365.1678825467297,0.10641159163116479,1.3471443745693448,0.7232341582354533,0.288548,0.6157231607297783
0.0105,1.79724375,1.0,1439.6560101678922,0.11142391585538478,1.3460839900552946,0.7406466238073905,0.2885372375,0.61806719332719
0.011,1.796975,1.0,1511.3169551535284,0.11640812526855578,1.3450766178844507,0.7565291062555185,0.28852595000000003,0.6202873972877195
0.0115,1.79669375,1.0,1580.1170933345118,0.12136437706253161,1.3441185298787417,0.7710385834836098,0.2885141375,0.622392976384227
0.012,1.7964,1.0,1646.056185829361,0.12629282793449426,1.3432061746133805,0.7843155507620472,0.28850180000000003,0.6243926074848525
0.0125,1.79609375,1.0,1709.17177411068,0.13119363436462822,1.3423360600710221,0.7964852976844419,0.2884889375,0.6262947129306426
0.013000000000000001,1.7957750000000001,1.0,1769.5022693528392,0.13606695142877728,1.3415051211272335,0.8076594765238481,0.28847555,0.6281066716960254
0.0135,1.79544375,1.0,1827.0859869115,0.14091293269857907,1.3407106566430158,0.817937457561807,0.2884616375,0.6298349759243782
0.014,1.7951000000000001,1.0,1881.9860768466815,0.1457317315095454,1.3399499975975437,0.8274075272375827,0.2884472,0.6314859666244579
0.0145,1.79474375,1.0,1934.2823049454216,0.15052350071646078,1.3392205672837976,0.8361481560565796,0.2884322375,0.6330657102412582
0.015,1.794375,1.0,1984.0581076088417,0.15528839282290458,1.3385199894430382,0.8442291656113464,0.28841675,0.6345797727917262
0.0155,1.79399375,1.0,2031.374656800001,0.16002655741428945,1.3378463283496318,0.851712811295589,0.2884007375,0.6360327118006148
0.016,1.7936,1.0,2076.3090737381067,0.16473814407602785,1.3371976482779437,0.8586545305384964,0.2883842,0.6374290369764801
0.0165,1.7931937500000001,1.0,2118.951216465707,0.16942330220981494,1.3365720326544792,0.8651037567134655,0.2883671375,0.6387731723049496
0.017,1.792775,1.0,2159.3876464361097,0.17408217993344316,1.3359677339990677,0.8711046732084406,0.28834955,0.6400691381107517
0.0175,1.7923437500000001,1.0,2197.720379727313,0.17871492662728186,1.335382964624447,0.8766967748324072,0.2883314375,0.641321004590934
0.018000000000000002,1.7919,1.0,2234.0156493216236,0.18332168732141446,1.33481640291434,0.8819155513306134,0.2883128,0.6425318123070868
0.0185,1.79144375,1.0,2268.3479079584044,0.18790260704592426,1.334266727252469,0.8867928301831156,0.2882936375,0.6437045760584295
0.019,1.790975,1.0,2300.799148556098,0.19245783083089468,1.3337326160225573,0.8913572008041022,0.28827395,0.644842286360779
0.0195,1.79049375,1.0,2331.452241108163,0.19698750289747652,1.3332128068371099,0.8956343998151003,0.2882537375,0.6459477849481343
0.02,1.79,1.0,2360.3924961217986,0.20149176754617115,1.3327060735483813,0.8996476296330868,0.288233,0.6470238157653669
0.0205,1.78949375,1.0,2387.701704576706,0.20597076836974557,1.3322112778769108,0.9034178537133234,0.2882117375,0.6480729172557077
0.021,1.788975,1.0,2413.441146961904,0.21042464552990398,1.3317275265435267,0.9069640767037381,0.28818995000000003,0.6490970922618425
0.021500000000000002,1.78844375,1.0,2437.676000727808,0.21485353918835068,1.3312539262690575,0.9103035069583607,0.2881676375,0.650098330138182
0.022,1.7879,1.0,2460.4750185908197,0.2192575895067898,1.330789583774332,0.9134517510787713,0.2881448,0.6510786073546053
0.0225,1.78734375,1.0,2481.9096324674965,0.22363693654023503,1.330333611423851,0.916422986230531,0.28812143749999997,0.6520398761596816
0.023,1.786775,1.0,2502.038930473486,0.2279917175958855,1.3298852670190147,0.9192301365052804,0.28809755,0.6529837710580146
0.0235,1.78619375,1.0,2520.947464736589,0.23232207446371936,1.329443590948009,0.9218849381358687,0.28807313749999996,0.6539123736711767
0.024,1.7856,1.0,2538.683299262054,0.23662814214918165,1.3290079918897468,0.9243981640042118,0.2880482,0.6548269810990953
0.0245,1.78499375,1.0,2555.2963216993844,0.24091005565771734,1.3285778785231408,0.9267796569849613,0.2880227375,0.6557288831161738
0.025,1.784375,1.0,2570.838093534977,0.24516794999477143,1.3281526595271036,0.9290384229852076,0.28799675,0.656619362389314
0.025500000000000002,1.78374375,1.0,2585.3617080380736,0.24940196016578892,1.3277317435805482,0.9311827135457121,0.2879702375,0.6574996946736409
0.026000000000000002,1.7831000000000001,1.0,2598.920093194955,0.2536122207129091,1.3273145539197957,0.9332201014450479,0.2879432,0.6583711185978481
0.0265,1.78244375,1.0,2611.559223036179,0.2577988637704243,1.3269005900705273,0.9351575547722092,0.2879156375,0.65923470730721
0.027,1.781775,1.0,2623.340302944818,0.2619620262002016,1.3264892202175214,0.9370014648138921,0.28788755,0.6600918019188611
0.0275,1.7810937500000001,1.0,2634.300095578382,0.2661018375685758,1.3260800487678592,0.9387577509747205,0.2878589375,0.6609432455215261
0.028,1.7804,1.0,2644.4761430414383,0.2702184274418818,1.3256726801286218,0.9404318715271948,0.2878298,0.6617898769701542
0.0285,1.77969375,1.0,2653.9066998256963,0.27431192538645444,1.3252667187068907,0.9420288655850892,0.2878001375,0.6626325309363916
0.029,1.778975,1.0,2662.6306692194726,0.2783824609686287,1.324861768909747,0.9435533907502507,0.28776995,0.6634720379490756
0.029500000000000002,1.7782437500000001,1.0,2670.687543186598,0.28243016375473934,1.3244574351442717,0.9450097569258763,0.2877392375,0.6643092244247473
0.03,1.7775,1.0,2678.1049354531465,0.2864551591698721,1.3240534356992735,0.9464019705123781,0.287708,0.6651446773325792
0.0305,1.77674375,1.0,2684.9272845610067,0.29045757938685773,1.3236493384771095,0.9477337294417378,0.2876762375,0.6659792911458208
0.031,1.775975,1.0,2691.1933559750933,0.2944375531887877,1.323244767481496,0.949008472882815,0.28764395,0.6668138402290612
0.0315,1.7751937500000001,1.0,2696.9276498302097,0.2983952040062986,1.3228394806214936,0.9502294120083,0.2876111375,0.6676488193623861
0.032,1.7744,1.0,2702.154945940568,0.30233065527002695,1.3224332358061635,0.951399533901614,0.2875778,0.6684847208149458
0.0325,1.77359375,1.0,2706.9002779918815,0.3062440304106095,1.3220257909445663,0.9525216199389737,0.2875439375,0.6693220343320361
0.033,1.772775,1.0,2711.188909031887,0.3101354528586828,1.321616903945763,0.9535982624521441,0.28750955,0.670161247118437
0.0335,1.7719437500000002,1.0,2715.0463082611273,0.31400504604488344,1.3212063327188146,0.9546318798510571,0.2874746375,0.6710028438180171
0.034,1.7711000000000001,1.0,2718.498129122685,0.3178529333998481,1.3207938351727821,0.9556247303650204,0.2874392,0.6718473064895978
0.0345,1.7702437500000001,1.0,2721.56838959039,0.3216792367759412,1.3203791855936864,0.9565789259370304,0.2874032375,0.6726950811171117
0.035,1.7693750000000001,1.0,2724.2781474103717,0.32548407595364115,1.319962186481086,0.9574964446456942,0.28736675,0.6735465536423557
0.035500000000000004,1.76849375,1.0,2726.6545306751827,0.32926757772021453,1.3195425862054293,0.9583791343717885,0.2873297375,0.6744022181158986
0.036000000000000004,1.7676,1.0,2728.7134030173916,0.3330298591928227,1.3191202365724808,0.9592287350012172,0.2872922,0.6752623552612369
0.0365,1.76669375,1.0,2730.470710402328,0.3367710374886269,1.3186949893880051,0.9600468780986998,0.2872541375,0.6761272440656227
0.037,1.765775,1.0,2731.942471856599,0.3404912297247886,1.3182666964577672,0.9608350948711426,0.28721555,0.6769971617533785
0.0375,1.76484375,1.0,2733.144770683915,0.3441905530184691,1.3178352095875314,0.9615948234600661,0.2871764375,0.6778723837578124
0.038,1.7639,1.0,2734.093746167552,0.3478691244868298,1.317400380583063,0.9623274156264139,0.28713679999999997,0.6787531836917309
0.0385,1.76294375,1.0,2734.80558576002,0.3515270612470319,1.3169620612501265,0.9630341428844889,0.28709663750000003,0.6796398333165532
0.039,1.761975,1.0,2735.2965177592278,0.3551644804162369,1.3165201033944864,0.963716202135918,0.28705595,0.6805326025100242
0.0395,1.7609937500000001,1.0,2735.5695890307375,0.35878148470527876,1.3160744788117946,0.9643747290392112,0.2870147375,0.6814315173592232
0.04,1.76,1.0,2735.654853320027,0.36237820851314634,1.315624914335348,0.9650107780721681,0.286973,0.6823370964630238
0.0405,1.7589937500000001,1.0,2735.563659326596,0.3659547648674269,1.3151713068443145,0.9656253549827715,0.2869307375,0.6832495132080579
0.041,1.757975,1.0,2735.304589455018,0.369511263643528,1.3147135784907538,0.9662194107454838,0.28688795,0.684168888754924
0.0415,1.75694375,1.0,2734.886240480028,0.373047814716857,1.3142516514267255,0.9667938435887246,0.2868446375,0.6850953430343616
0.042,1.7559,1.0,2734.3172209827876,0.37656452796282136,1.313785447804289,0.9673495024614741,0.28680079999999997,0.6860289947266003
0.0425,1.75484375,1.0,2733.6061489215836,0.3800615132568285,1.3133148897755038,0.9678871902377624,0.2867564375,0.6869699612403186
0.043000000000000003,1.753775,1.0,2732.761649336334,0.38353888047428586,1.3128398994924295,0.9684076666813326,0.28671155,0.6879183586912201
0.043500000000000004,1.75269375,1.0,2731.792352188708,0.38699673949060087,1.3123603991071255,0.9689116511906737,0.28666613750000003,0.6888743018802208
0.044,1.7516,1.0,2730.7068903347727,0.3904352001811809,1.3118763107716516,0.969399825342734,0.2866202,0.6898379042712508
0.0445,1.75049375,1.0,2729.513897634208,0.3938543724214334,1.311387556638067,0.9698728352519381,0.2865737375,0.690809277968669
0.045,1.7493750000000001,1.0,2728.222007191914,0.3972543660867659,1.3108940588584315,0.970331293759609,0.28652675,0.6917885336942926
0.0455,1.74824375,1.0,2726.838389917573,0.4006352881033163,1.3103957528604662,0.9707757830546082,0.2864792375,0.6927757544840064
0.046,1.7471,1.0,2725.36597841601,0.403997237475757,1.3098926126047834,0.9712068577363648,0.2864312,0.693770945959763
0.0465,1.7459437500000001,1.0,2723.819962891532,0.40734033883486476,1.3093845005313351,0.9716250399949226,0.28638263750000004,0.6947743330069397
0.047,1.744775,1.0,2722.2044576391027,0.4106646943695831,1.3088713797660045,0.9720308304704649,0.28633355,0.6957859399280759
0.0475,1.74359375,1.0,2720.5235749479702,0.4139704062688555,1.3083532134346734,0.9724247053037133,0.28628393750000003,0.6968057900654043
0.048,1.7424,1.0,2718.781424595311,0.41725757672162556,1.3078299646632245,0.9728071175605267,0.2862338,0.697833905789024
0.0485,1.74119375,1.0,2716.982113372017,0.4205263079168368,1.3073015965775405,0.9731784985608792,0.2861831375,0.6988703084849953
0.049,1.739975,1.0,2715.1297446370277,0.42377670204343276,1.3067680723035036,0.9735392591194576,0.28613195,0.6999150185433431
0.0495,1.73874375,1.0,2713.2284179029516,0.4270088612903569,1.3062293549669963,0.9738897907045119,0.2860802375,0.7009680553459737
0.05,1.7375,1.0,2711.282228451279,0.4302228878465529,1.305685407693901,0.9742304665210411,0.286028,0.7020294372545073
0.0505,1.73624375,1.0,2709.2952669775136,0.4334188839009641,1.3051361936101005,0.9745616425238905,0.2859752375,0.7030991815980208
0.051000000000000004,1.734975,1.0,2707.2716192672992,0.4365969516425342,1.304581675841477,0.974883658365887,0.28592195,0.704177304660706
0.051500000000000004,1.73369375,1.0,2705.2153659018445,0.4397571932602067,1.304021817513913,0.9751968382857119,0.2858681375,0.7052638216694418
0.052000000000000005,1.7324,1.0,2703.129898618411,0.44289970700582915,1.303456587995139,0.9755014919157905,0.2858138,0.7063587347013663
0.0525,1.73109375,1.0,2701.016601727314,0.4460245783179976,1.30288597495324,0.9757979149051467,0.28575893750000003,0.7074620094917898
0.053,1.729775,1.0,2698.8834254823205,0.4491319349648044,1.3023099060217467,0.9760863905220931,0.28570355000000003,0.7085737267892944
0.0535,1.72844375,1.0,2696.73203317176,0.4522218712086593,1.3017283662148613,0.9763671896935279,0.2856476375,0.7096938552975464
0.054,1.7271,1.0,2694.5640856840614,0.4552944813119718,1.3011413405467867,0.9766405716079202,0.2855912,0.7108223629262891
0.0545,1.7257437500000001,1.0,2692.381241451972,0.4583498595371516,1.3005488140317252,0.9769067843206364,0.2855342375,0.7119592167861081
0.055,1.724375,1.0,2690.1851564023173,0.4613881001466083,1.2999507716838794,0.977166065323136,0.28547675,0.71310438318318
0.0555,1.72299375,1.0,2687.977483910671,0.46440929740275155,1.2993471985174518,0.9774186420784705,0.2854187375,0.7142578276140092
0.056,1.7216,1.0,2685.759874760578,0.4674135455679909,1.2987380795466454,0.9776647325253502,0.2853602,0.7154195147601472
0.0565,1.72019375,1.0,2683.5339771082527,0.47040093890473605,1.2981233997856625,0.9779045455528602,0.28530113749999997,0.716589408482902
0.057,1.718775,1.0,2681.301436452281,0.4733715716753967,1.2975031442487057,0.9781382814477643,0.28524155,0.7177674718180287
0.0575,1.71734375,1.0,2679.063895607493,0.47632553814238227,1.2968772979499774,0.9783661323161852,0.2851814375,0.7189536669704093
0.058,1.7159,1.0,2676.8229946847864,0.4792629325681025,1.2962458459036805,0.9785882824813279,0.2851208,0.7201479553087142
0.0585,1.71444375,1.0,2674.5803710755777,0.48218384921496704,1.2956087731240173,0.9788049088587794,0.2850596375,0.721350297360055
0.059000000000000004,1.7129750000000001,1.0,2672.337659441031,0.48508838234538554,1.2949660646251906,0.9790161813108265,0.28499795,0.722560652804617
0.059500000000000004,1.71149375,1.0,2670.0964917065626,0.4879766262217675,1.2943177054214028,0.9792222629811123,0.2849357375,0.7237789804702819
0.06,1.71,1.0,2667.8536685079407,0.4908486322410844,1.2936637249207454,0.9794233095142525,0.284873,0.7250051551839054
0.0605,1.7084937500000001,1.0,2665.6161827171863,0.4937045428081229,1.2930040588335558,0.979619472868347,0.2848097375,0.7262392267444584
0.061,1.7069750000000001,1.0,2663.3852848796114,0.4965444512611038,1.2923386956017198,0.9798108979549945,0.28474595,0.7274811449422355
0.0615,1.7054437500000001,1.0,2661.161316330128,0.49936844294718635,1.2916676320177183,0.9799977239480285,0.2846816375,0.7287308432180386
0.062,1.7039,1.0,2658.944617841213,0.50217660321353,1.2909908648740331,0.9801800847414793,0.2846168,0.7299882543362952
0.0625,1.70234375,1.0,2656.735529626368,0.5049690174072939,1.2903083909631454,0.9803581091878731,0.2845514375,0.7312533103838952
0.063,1.7007750000000001,1.0,2654.5343913446072,0.5077457708756377,1.2896202070775369,0.9805319213240468,0.28448555,0.7325259427690199
0.0635,1.69919375,1.0,2652.3415421053796,0.5105069489657205,1.2889263100096886,0.980701640585215,0.28441913750000003,0.7338060822199788
0.064,1.6976,1.0,2650.157320472283,0.5132526370247016,1.288226696552082,0.9808673820079895,0.2843522,0.7350936587840369
0.0645,1.69599375,1.0,2647.9820644692195,0.5159829203997405,1.287521363497199,0.98102925642299,0.2842847375,0.7363886018262488
0.065,1.694375,1.0,2645.8161115846297,0.5186978844379964,1.2868103076375206,0.9811873706376563,0.28421675,0.7376908400282871
0.0655,1.69274375,1.0,2643.6597987773894,0.5213976144866288,1.286093525765528,0.9813418276098264,0.2841482375,0.7390003013872743
0.066,1.6911,1.0,2641.513462482252,0.5240821958927968,1.285371014673703,0.9814927266126087,0.2840792,0.7403169132146085
0.0665,1.6894437500000001,1.0,2639.3774386159685,0.5267517140036599,1.284642771154527,0.9816401633910438,0.2840096375,0.7416406021347947
0.067,1.687775,1.0,2637.252062582799,0.5294062541663775,1.2839087920004812,0.9817842303110217,0.28393955,0.7429712940842713
0.0675,1.68609375,1.0,2635.1376692816725,0.532045901728109,1.2831690740040471,0.9819250165008866,0.2838689375,0.7443089143102375
0.068,1.6844000000000001,1.0,2633.0345931119923,0.5346707420360133,1.282423613957706,0.9820626079861361,0.2837978,0.745653387369479
0.0685,1.68269375,1.0,2630.943167980735,0.5372808604372502,1.2816724086539397,0.9821970878176025,0.2837261375,0.7470046371271939
0.069,1.680975,1.0,2628.863727309519,0.5398763422789787,1.2809154548852293,0.9823285361934659,0.28365395,0.7483625867558186
0.0695,1.67924375,1.0,2626.7807537748313,0.5424572708427334,1.2801528963067157,0.9824570373203632,0.28358123749999997,0.7497268963359649
0.07,1.6775,1.0,2624.7290054938962,0.5450237238792052,1.2793844107832544,0.982582650595229,0.283508,0.7510980580717277
0.07050000000000001,1.675744824158875,1.0,2622.7473135818814,0.5475757815896329,1.278610123015331,0.9827054541047193,0.28343428261467274,0.7524757632442032
0.07100000000000001,1.673987506240684,1.0,2621.2472829825806,0.5501135240569058,1.2778304069857906,0.9828255348120926,0.2833604752621087,0.7538592632465241
0.07150000000000001,1.6722301883224928,1.0,2620.2924651852677,0.5526370313639131,1.2770456366774785,0.9829429769372539,0.2832866679095447,0.7552478163200593
0.07200000000000001,1.6704728704043017,1.0,2619.8422532869763,0.5551463835935436,1.276256186073239,0.9830578620721889,0.2832128605569807,0.7566406876794257
0.0725,1.6687155524861108,1.0,2619.8590262331813,0.5576416600429809,1.2754624030088026,0.9831702680656783,0.2831390532044167,0.7580371955631888
0.073,1.6669582345679197,1.0,2620.296133159977,0.5601229407431177,1.2746647203085268,0.9832802742348121,0.2830652458518526,0.7594365160007612
0.0735,1.6652009166497286,1.0,2621.120483358079,0.5625903037685966,1.2738634458846134,0.9833879518423203,0.2829914384992886,0.7608380516843285
0.074,1.6634435987315377,1.0,2622.3027154624474,0.5650438265880512,1.2730588537145078,0.9834933684678568,0.2829176311467246,0.7622412704340531
0.0745,1.6616862808133466,1.0,2623.8135188785714,0.5674835866701152,1.2722512177756553,0.9835965896679189,0.28284382379416056,0.7636456454708951
0.075,1.6599289628951555,1.0,2625.623614461012,0.5699096614834226,1.271440812045501,0.98369767905659,0.2827700164415965,0.7650506554721908
