Time [s],Phi [rad],STIM [ ],Fsee [N],Gamma [ ],Lcerel [ ],q [ ],Lmtc [m],fisomrel [ ]
0.0,1.8,1.0,17.966650391694863,1.5017411203873237e-05,1.3793398031080037,0.0050000599132314595,0.288653,0.5411393934246842
0.0005,1.79999375,1.0,18.277720189562082,0.005624142484199729,1.3793022793715184,0.012954450816926307,0.2886527375,0.5412301685700593
0.001,1.799975,1.0,21.62310701627816,0.011201804800432884,1.378937819504039,0.035634731751388156,0.28865195,0.5421113805788407
0.0015,1.79994375,1.0,31.081811476063216,0.016748180841959153,1.3780451324503513,0.07063750810580377,0.2886506375,0.5442661920618506
0.002,1.7999,1.0,53.61053718835838,0.0222634460991727,1.376366305742043,0.1147602390998855,0.2886488,0.5483048593816551
0.0025,1.79984375,1.0,97.16692225053653,0.027747775078408993,1.3739328552815577,0.164620804359625,0.28864643749999996,0.5541269762148648
0.003,1.7997750000000001,1.0,161.02112117209617,0.0332013413096123,1.3712119875453603,0.21732781807770793,0.28864354999999997,0.5605920290262221
0.0035,1.79969375,1.0,237.75475100223505,0.038624317345965234,1.368582534490116,0.27065999701926924,0.2886401375,0.566795010423605
0.004,1.7996,1.0,321.5429559550349,0.04401687477466137,1.366154074676212,0.32296141552517904,0.2886362,0.5724846734630326
0.0045000000000000005,1.7994937500000001,1.0,409.34680478924935,0.04937918422209236,1.363920958557475,0.3730778073141179,0.2886317375,0.5776834691409714
0.005,1.799375,1.0,499.49428339341074,0.0547114153449508,1.3618566258643827,0.4202879713643437,0.28862675,0.5824610405549877
0.0055,1.79924375,1.0,590.8720214832489,0.06001373687747813,1.3599372407420358,0.46421120520432824,0.2886212375,0.586878771450924
0.006,1.7991000000000001,1.0,682.5999045454411,0.0652863165751727,1.3581449279544315,0.5047144311612145,0.2886152,0.5909828143511322
0.006500000000000001,1.79894375,1.0,773.9650695018701,0.07052932127058974,1.356465822936312,0.5418322509156414,0.2886086375,0.5948090468059243
0.007,1.798775,1.0,864.3697950738957,0.07574291685273057,1.354889038420708,0.5757054680226955,0.28860155,0.5983857474771215
0.0075,1.79859375,1.0,953.3258578958169,0.08092726829139812,1.3534055080918652,0.6065360074490599,0.2885939375,0.601736437660493
0.008,1.7984,1.0,1040.4373250641017,0.08608253960313986,1.3520074851577994,0.6345557854084121,0.2885858,0.6048811555895459
0.0085,1.79819375,1.0,1125.3973461294097,0.09120889393794235,1.350688064866226,0.6600059420648801,0.2885771375,0.6078376312512169
0.009000000000000001,1.797975,1.0,1207.96190633783,0.09630649345494181,1.3494411916522642,0.683123884463977,0.28856795,0.6106213443132831
0.0095,1.79774375,1.0,1287.9510235448383,0.10137549951447984,1.348261345495199,0.7041353948673437,0.2885582375,0.6132462858223011
0.01,1.7975,1.0,1365.2246851143157,0.10641607203004878,1.3471436445106184,0.7232505354746518,0.288548,0.6157247770276958
0.0105,1.79724375,1.0,1439.7244193064,0.111428371484927,1.3460831338715602,0.7406614712082402,0.2885372375,0.6180690830664533
0.011,1.796975,1.0,1511.3927781227237,0.11641255619280094,1.3450756916841005,0.7565426066112501,0.28852595000000003,0.6202894356146035
0.0115,1.79669375,1.0,1580.1897617956708,0.1213687831301466,1.3441176617508435,0.7710509330542605,0.2885141375,0.6223948816043753
0.012,1.7964,1.0,1646.1234014255954,0.12629720927343985,1.3432053878743933,0.7843268787959636,0.28850180000000003,0.6243943295088881
0.0125,1.79609375,1.0,1709.2257826495095,0.13119799070525096,1.3423354396971208,0.7964957441364087,0.2884889375,0.6262960673704687
0.013000000000000001,1.7957750000000001,1.0,1769.55109723538,0.1360712834290726,1.3415045699050192,0.8076690937743268,0.28847555,0.6281078722384816
0.0135,1.79544375,1.0,1827.1340469840898,0.14091724069842482,1.3407101227067115,0.8179463091766093,0.2884616375,0.629836136113449
0.014,1.7951000000000001,1.0,1882.032574236675,0.14573601553866425,1.339949488612445,0.8274156913689478,0.2884472,0.6314870701279883
0.0145,1.79474375,1.0,1934.3223161037795,0.15052776042052868,1.3392201352613355,0.8361557173371105,0.2884322375,0.6330666448765345
0.015,1.794375,1.0,1984.0890169046595,0.15529262799496654,1.3385196599110307,0.8442361903953415,0.28841675,0.6345804842274239
0.0155,1.79399375,1.0,2031.4078849875232,0.16003076913663208,1.3378459782454968,0.8517193115679779,0.2884007375,0.6360334661458652
0.016,1.7936,1.0,2076.346878362634,0.16474233269558644,1.3371972542887325,0.8586605476303176,0.2883842,0.6374298842478952
0.0165,1.7931937500000001,1.0,2118.988108454659,0.1694274675218908,1.3365716520647373,0.8651093514070799,0.2883671375,0.6387739892423898
0.017,1.792775,1.0,2159.4229541136015,0.17408632208992614,1.335967373180027,0.8711098852982422,0.28834955,0.6400699112197464
0.0175,1.7923437500000001,1.0,2197.7395456769286,0.17871904406959022,1.3353827704775043,0.8767016776328297,0.2883314375,0.6413214198559747
0.018000000000000002,1.7919,1.0,2234.034018907784,0.1833257816988778,1.3348162183521426,0.8819201312189905,0.2883128,0.6425322064042422
0.0185,1.79144375,1.0,2268.372742051021,0.18790667918854564,1.3342664796359278,0.8867970962568955,0.2882936375,0.643705103927946
0.019,1.790975,1.0,2300.8293358149663,0.1924618807493505,1.3337323171608464,0.8913611818872283,0.28827395,0.6448429224567993
0.0195,1.79049375,1.0,2331.4840743031154,0.19699153059204916,1.3332124937588847,0.8956381280696668,0.2882537375,0.6459484502646212
0.02,1.79,1.0,2360.418880346249,0.20149577223871093,1.332705815656076,0.8996511410459423,0.288233,0.6470243629739323
0.0205,1.78949375,1.0,2387.7142987649554,0.2059747488450928,1.3322111554809881,0.903421182940404,0.2882117375,0.6480731765752128
0.021,1.788975,1.0,2413.451460390919,0.21042860367068017,1.3317274268489254,0.9069672148174617,0.28818995000000003,0.649097303176629
0.021500000000000002,1.78844375,1.0,2437.6902843169664,0.21485747599592775,1.3312537888850748,0.9103064563693217,0.2881676375,0.6500986203739869
0.022,1.7879,1.0,2460.4941398158803,0.21926150510129014,1.330789400714623,0.913454524209116,0.2881448,0.6510789935422849
0.0225,1.78734375,1.0,2481.929560808171,0.22364083026722206,1.3303334214627567,0.916425603272913,0.28812143749999997,0.652040276354301
0.023,1.786775,1.0,2502.0659760071308,0.22799559077417808,1.3298850102546627,0.9192325979021594,0.28809755,0.6529843112540852
0.0235,1.78619375,1.0,2520.9619187686344,0.23232592287996076,1.3294434542400273,0.9218872875698734,0.28807313749999996,0.6539126609005073
0.024,1.7856,1.0,2538.6922913754324,0.23663196796027072,1.3290079071388106,0.9244003983815972,0.2880482,0.6548271589290173
0.0245,1.78499375,1.0,2555.3063115961886,0.24091386069894796,1.3285777846746438,0.9267817744754077,0.2880227375,0.6557290797777532
0.025,1.784375,1.0,2570.8521334349557,0.24517173509777032,1.3281525280308333,0.9290404269604398,0.28799675,0.6566196375860114
0.025500000000000002,1.78374375,1.0,2585.379395169941,0.2494057251585156,1.3277315783906853,0.9311846120513804,0.2879702375,0.6575000399411673
0.026000000000000002,1.7831000000000001,1.0,2598.93909258627,0.2536159648829616,1.3273143769375064,0.9332219045640725,0.2879432,0.6583714880421301
0.0265,1.78244375,1.0,2611.58345913215,0.2578025882728861,1.326900364854603,0.9351592633588094,0.2879156375,0.659235176842881
0.027,1.781775,1.0,2623.3548679610494,0.2619657257802774,1.3264890851750328,0.9370031039453286,0.28788755,0.6600920831044967
0.0275,1.7810937500000001,1.0,2634.309501866186,0.2661055139372808,1.3260799617371284,0.9387593195407737,0.2878589375,0.6609434265099263
0.028,1.7804,1.0,2644.488436614729,0.2702220836705374,1.3256725666026623,0.9404333642398018,0.2878298,0.6617901127628651
0.0285,1.77969375,1.0,2653.9258629292335,0.2743155631990309,1.325266542058529,0.9420302824053762,0.2878001375,0.6626328973765536
0.029,1.778975,1.0,2662.6565865655284,0.278386080741745,1.3248615303916236,0.9435547364174923,0.28776995,0.6634725321161105
0.029500000000000002,1.7782437500000001,1.0,2670.7159740890943,0.28243376451766344,1.3244571738888404,0.9450110405308555,0.2877392375,0.6643097650257231
0.03,1.7775,1.0,2678.139901488291,0.28645874274577,1.3240531148370747,0.9464031913270394,0.287708,0.6651453404476713
0.0305,1.77674375,1.0,2684.9647056249714,0.29046114364504844,1.3236489955232207,0.9477348951407161,0.2876762375,0.665979999033196
0.031,1.775975,1.0,2691.2240497078606,0.2944410932198901,1.323244486509267,0.9490095956814252,0.28764395,0.6668144194558684
0.0315,1.7751951785076152,1.0,2697.018192750953,0.298398719203926,1.3228392978049666,0.9502304987332433,0.28761119749731984,0.6676491957678448
0.032,1.7744136545171851,1.0,2702.809532354043,0.302334149072279,1.322433422751182,0.9514006209149991,0.28757837348972176,0.6684843363933595
0.0325,1.773632130526755,1.0,2708.6700410893613,0.30624750521629124,1.322026973234438,0.952522783183705,0.28754554948212374,0.6693196062164111
0.033,1.7728506065363248,1.0,2714.587647790208,0.31013891002730465,1.3216200611412598,0.9535996140762781,0.28751272547452567,0.6701547712738912
0.0335,1.7720690825458947,1.0,2720.5502294216153,0.31400848589666136,1.321212798358173,0.9546335651500334,0.2874799014669276,0.6709895987592849
0.034,1.7712875585554646,1.0,2726.54561007126,0.3178563552157034,1.3208052967717023,0.9556269250106946,0.2874470774593295,0.671823857025574
0.0345,1.7705060345650345,1.0,2732.561560218546,0.3216826403757728,1.3203976682683731,0.9565818320719641,0.28741425345173144,0.6726573155873391
0.035,1.7697245105746044,1.0,2738.5870699741276,0.32548746233013254,1.3199900131765416,0.9575002845718655,0.28738142944413336,0.6734897687094283
0.035500000000000004,1.7689429865841744,1.0,2744.617107264247,0.329270937333475,1.3195823771973998,0.95838414600956,0.2873486054365353,0.6743211230384532
0.036000000000000004,1.768161462593744,1.0,2750.6350425038386,0.3330331967924255,1.3191749108425714,0.9592351766781901,0.28731578142893727,0.6751510723489687
0.0365,1.767379938603314,1.0,2756.637397498525,0.3367743566350655,1.3187676450151535,0.9600550111240171,0.2872829574213392,0.6759795551386896
0.037,1.766598414612884,1.0,2762.6206794089258,0.34049453278947683,1.318360610618243,0.9608451832676298,0.2872501334137411,0.6768065102256997
0.0375,1.7658168906224538,1.0,2768.581380898445,0.3441938411837412,1.317953838554937,0.961607133728286,0.28721730940614304,0.6776318767480264
0.038,1.7650353666320238,1.0,2774.515980302786,0.3478723977459401,1.317547359728332,0.9623422165374403,0.287184485398545,0.6784555941631547
0.0385,1.7642538426415937,1.0,2780.420941819625,0.35153031840415533,1.3171412050415254,0.9630517052985386,0.28715166139094694,0.6792776022474781
0.039,1.7634723186511634,1.0,2786.2927157207696,0.3551677190864685,1.3167354053976141,0.9637367988442719,0.28711883738334887,0.6800978410956922
0.0395,1.7626907946607333,1.0,2792.127738584512,0.35878471572096127,1.3163299916996951,0.9643986264372865,0.2870860133757508,0.6809162511201239
0.04,1.7619092706703032,1.0,2797.9224335495737,0.36238142423571534,1.3159249948508651,0.9650382525556792,0.2870531893681527,0.6817327730500027
0.0405,1.7611277466798732,1.0,2803.676358016939,0.36595794829028533,1.3155204175262796,0.9656566766013711,0.28702036536055464,0.6825474047322775
0.041,1.760346222689443,1.0,2809.3861206720107,0.36951441197763335,1.3151162888194456,0.9662548479376082,0.2869875413529566,0.6833600909459813
0.0415,1.759564698699013,1.0,2815.0487081663837,0.3730509368274211,1.3147126343341855,0.9668336624662619,0.28695471734535855,0.684170783770527
0.042,1.7587831747085827,1.0,2820.6641108969898,0.37656763094307893,1.3143094527261963,0.9673939624075278,0.28692189333776047,0.684979489563007
0.0425,1.7580016507181526,1.0,2826.232321349878,0.3800646024280374,1.3139067426511748,0.9679365443741079,0.2868890693301624,0.6857862146624015
0.043000000000000003,1.7572201267277225,1.0,2831.753334086072,0.38354195938572694,1.3135045027648184,0.9684621623057308,0.2868562453225644,0.6865909653896172
0.043500000000000004,1.7564386027372925,1.0,2837.2271457274373,0.3869998099195779,1.3131027317228243,0.9689715301863333,0.2868234213149663,0.6873937480475291
0.044,1.7556570787468624,1.0,2842.653754942954,0.39043826213302063,1.3127014281808895,0.9694653245620257,0.2867905973073682,0.6881945689210204
0.0445,1.754875554756432,1.0,2848.0331624346622,0.39385742412948577,1.3123005907947112,0.9699441868762833,0.28675777329977015,0.6889934342770229
0.045,1.754094030766002,1.0,2853.3653709236482,0.3972574040124036,1.3119002182199861,0.9704087256373156,0.28672494929217207,0.6897903503645568
0.0455,1.753312506775572,1.0,2858.6503851361704,0.40063830988520466,1.311500309112412,0.9708595184312,0.286692125284574,0.6905853234147696
0.046,1.7525309827851419,1.0,2863.8882117901608,0.40400024985131927,1.3111008621276854,0.9712971137931516,0.286659301276976,0.6913783596409786
0.0465,1.7517494587947118,1.0,2869.078859580693,0.4073433320141779,1.310701875921504,0.9717220329482023,0.2866264772693779,0.6921694652387067
0.047,1.7509679348042817,1.0,2874.2223391671682,0.410667664477211,1.3103033491495641,0.9721347714315661,0.2865936532617798,0.692958646385726
0.0475,1.7501864108138514,1.0,2879.3195125792254,0.41397331755558014,1.3099052729502074,0.9725357952068184,0.28656082925418175,0.693745924099673
0.048,1.7494048868234213,1.0,2884.3708966625663,0.4172604426559171,1.30950764155743,0.9729255583260644,0.2865280052465837,0.6945313131937417
0.0485,1.7486233628329912,1.0,2889.377151533556,0.42052914570012795,1.30911044797141,0.9733044872277533,0.28649518123898565,0.6953148308511297
0.049,1.7478418388425612,1.0,2894.33901856128,0.4237795254419121,1.3087136845107272,0.9736729872496176,0.2864623572313876,0.6960964955223571
0.0495,1.747060314852131,1.0,2899.257243345217,0.427011680634969,1.3083173434939623,0.9740314447538725,0.2864295332237895,0.6968763255766137
0.05,1.7462787908617008,1.0,2904.132575642642,0.4302257100329981,1.3079214172396951,0.9743802281875267,0.2863967092161914,0.6976543393019694
0.0505,1.7454972668712707,1.0,2908.965769297131,0.43342171238969873,1.3075258980665063,0.9747196890742277,0.28636388520859335,0.6984305549055765
0.051000000000000004,1.7447157428808406,1.0,2913.7575821688492,0.43659978645877034,1.307130778292976,0.9750501629426377,0.2863310612009953,0.699204990513874
0.051500000000000004,1.7439342188904106,1.0,2918.508776065704,0.43976003099391237,1.3067360502376841,0.9753719701959269,0.28629823719339725,0.6999776641727835
0.052000000000000005,1.7431526948999805,1.0,2923.2201166758764,0.4429025447488241,1.3063417062192113,0.9756854169266111,0.2862654131857992,0.7007485938479032
0.0525,1.7423711709095504,1.0,2927.8923735020367,0.4460274264772051,1.3059477385561375,0.9759907956806175,0.2862325891782011,0.701517797424698
0.053,1.7415896469191203,1.0,2932.5263197965564,0.4491347749327547,1.3055541395670431,0.9762883861741553,0.2861997651706031,0.702285292708686
0.0535,1.74080812292869,1.0,2937.12273249766,0.4522246888691724,1.3051609015705083,0.9765784559666907,0.286166941163005,0.7030510974256203
0.054,1.74002659893826,1.0,2941.6823921677983,0.4552972670401575,1.3047680168851135,0.9768612610930679,0.28613411715540693,0.7038152292216684
0.0545,1.7392450749478299,1.0,2946.20608293269,0.45835260819940943,1.3043754778294385,0.9771370466575817,0.28610129314780886,0.7045777056635874
0.055,1.7384635509573998,1.0,2950.6945924214947,0.46139081110062763,1.303983276722064,0.9774060473925961,0.2860684691402108,0.7053385442388936
0.0555,1.7376820269669697,1.0,2955.1487117091137,0.46441197449751154,1.3035914058815703,0.9776684881841002,0.2860356451326127,0.706097762356032
0.056,1.7369005029765394,1.0,2959.568860517608,0.467416183103991,1.3031998608977187,0.977924583463777,0.28600282112501463,0.7068553710191456
0.0565,1.7361189789861093,1.0,2963.954534728628,0.4704034813025259,1.3028086454380514,0.9781745356746117,0.2859699971174166,0.707611365586647
0.057,1.7353374549956793,1.0,2968.3089793688514,0.4733740546662219,1.3024177304867761,0.9784185498158328,0.28593717310981853,0.7083658044873331
0.0575,1.7345559310052492,1.0,2972.6327275503363,0.4763279910319189,1.3020271107394819,0.9786568151544981,0.28590434910222046,0.7091187001860995
0.058,1.733774407014819,1.0,2976.926314743985,0.47926537823645704,1.3016367808917577,0.9788895133782467,0.2858715250946224,0.7098700650932964
0.0585,1.732992883024389,1.0,2981.1902787452705,0.48218630411667607,1.3012467356391924,0.9791168189591628,0.28583870108702436,0.7106199115648296
0.059000000000000004,1.7322113590339587,1.0,2985.4251596402155,0.4850908565094161,1.3008569696773749,0.9793388994973967,0.2858058770794263,0.7113682519022549
0.059500000000000004,1.7314298350435287,1.0,2989.6314997725785,0.487979123251517,1.3004674777018939,0.979555916045807,0.2857730530718282,0.7121150983528761
0.06,1.7306483110530986,1.0,2993.809843711079,0.4908511921798187,1.300078254408339,0.9797680234168237,0.28574022906423013,0.712860463109835
0.0605,1.7298667870626685,1.0,2997.9607382175172,0.49370715113116126,1.2996892944922982,0.9799753704726283,0.28570740505663206,0.7136043583122085
0.061,1.7290852630722384,1.0,3002.0847322155955,0.49654708794238456,1.299300592649361,0.9801781003996848,0.285674581049034,0.7143467960450933
0.0615,1.7283037390818081,1.0,3006.1823767601827,0.49937109045032857,1.2989121435751163,0.980376350968576,0.2856417570414359,0.7150877883396973
0.062,1.727522215091378,1.0,3010.2542250072775,0.5021792464918333,1.2985239419651529,0.9805702547800395,0.2856089330338379,0.7158273471734249
0.0625,1.726740691100948,1.0,3014.300832184454,0.5049716439037386,1.2981359825150596,0.9807599394980311,0.2855761090262398,0.716565484469962
0.063,1.7259591671105179,1.0,3018.3227555624135,0.5077483705228846,1.2977482599204253,0.9809455280705994,0.28554328501864173,0.7173022120993586
0.0635,1.7251776431200878,1.0,3022.320554426475,0.510509514186111,1.2973607688768394,0.9811271389392853,0.2855104610110437,0.7180375418781089
0.064,1.7243961191296577,1.0,3026.2947900491677,0.5132551627302581,1.2969735040798902,0.9813048862377329,0.28547763700344564,0.7187714855692329
0.0645,1.7236145951392274,1.0,3030.2460256633776,0.5159854039921655,1.2965864602251669,0.9814788799801345,0.28544481299584756,0.7195040548823517
0.065,1.7228330711487974,1.0,3034.1748264359862,0.5187003258086733,1.2961996320082585,0.9816492262401062,0.2854119889882495,0.7202352614737636
0.0655,1.7220515471583673,1.0,3038.0817594421287,0.5214000160166216,1.2958130141247537,0.981816027320544,0.2853791649806514,0.7209651169465188
0.066,1.7212700231679372,1.0,3041.9673936403137,0.5240845624528501,1.2954266012702416,0.9819793819149768,0.28534634097305334,0.7216936328504902
0.0665,1.7204884991775071,1.0,3045.832299847866,0.526754052954199,1.2950403881403107,0.9821393852608983,0.2853135169654553,0.7224208206824452
0.067,1.719706975187077,1.0,3049.6770507169836,0.529408575357508,1.2946543694305506,0.9822961292855351,0.28528069295785724,0.7231466918861118
0.0675,1.7189254511966467,1.0,3053.501907398414,0.5320482014990772,1.2942685425291225,0.9824497018365463,0.28524786895025916,0.7238712527990626
0.068,1.7181439272062167,1.0,3057.3064629938026,0.534672975675916,1.2938829105703964,0.9826001862830265,0.2852150449426611,0.7245944989626033
0.0685,1.7173624032157866,1.0,3061.0924827665685,0.5372830544353769,1.2934974580389915,0.9827476694155276,0.285182220935063,0.7253164608566659
0.069,1.7165808792253565,1.0,3064.8602431975246,0.5398785149734222,1.293112182230501,0.9828922306707254,0.285149396927465,0.7260371448599285
0.0695,1.7157993552349264,1.0,3068.610021752475,0.5424594344860141,1.2927270804405175,0.9830339468358419,0.2851165729198669,0.7267565573238864
0.07,1.7150178312444964,1.0,3072.342096872252,0.5450258901691147,1.2923421499646346,0.9831728921551688,0.28508374891226884,0.7274747045728798
0.07050000000000001,1.714236307254066,1.0,3076.05674796195,0.5475779592186865,1.2919573880984454,0.9833091384316108,0.28505092490467077,0.7281915929041254
0.07100000000000001,1.713454783263636,1.0,3079.7542553809385,0.5501157188306913,1.2915727921375426,0.9834427551235179,0.2850181008970727,0.7289072285877467
