Time [s],Phi [rad],STIM [ ],Fsee [N],Gamma [ ],Lcerel [ ],q [ ],Lmtc [m],fisomrel [ ]
0.0,1.8,1.0,18.10381931520874,0.0003758816738425542,1.3793244646044087,0.005036590345143676,0.288653,0.5411765004865392
0.0005,1.79999375,1.0,18.52998679769635,0.005982982583751418,1.3792743542345256,0.013987429489774408,0.2886527375,0.541297717538213
0.001,1.799975,1.0,22.143153224461955,0.011558632090781054,1.3788850257850989,0.037540634528883975,0.28865195,0.5422389580224011
0.0015,1.79994375,1.0,32.187402950142214,0.017103006613444296,1.3779517817857152,0.07322972895087375,0.2886506375,0.5444912329241172
0.002,1.7999,1.0,55.877395507296484,0.02261628157839185,1.3762208044333113,0.11781953057835139,0.2886488,0.5486540379832658
0.0025,1.79984375,1.0,100.8815864109476,0.028098631429769004,1.373755577118078,0.1679422570907634,0.28864643749999996,0.5545496446847334
0.003,1.7997750000000001,1.0,165.79330714116693,0.0335502296341899,1.3710346989902138,0.22075000669075476,0.28864354999999997,0.5610116458713057
0.0035,1.79969375,1.0,243.11310007673057,0.038971248682747504,1.3684184274365079,0.27406067593519146,0.2886401375,0.5671806834349827
0.004,1.7996,1.0,327.22409691907546,0.0443618601008762,1.3660042795404201,0.3262520220524764,0.2886362,0.5728343984633226
0.0045000000000000005,1.7994937500000001,1.0,415.2167145594052,0.04972223445389846,1.3637836731129662,0.37619993995275547,0.2886317375,0.5780020381901739
0.005,1.799375,1.0,505.47299089541895,0.05505254133812575,1.3617299669841265,0.42320794795676536,0.28862675,0.5827532875818328
0.0055,1.79924375,1.0,596.8968843581098,0.06035294942038069,1.3598198361824798,0.4669139705526367,0.2886212375,0.5871482317908592
0.006,1.7991000000000001,1.0,688.6239119855362,0.06562362640373565,1.358035674607747,0.5071978496053627,0.2886152,0.5912323204980086
0.006500000000000001,1.79894375,1.0,779.9442961803618,0.07086473904066315,1.3563639555048403,0.5441027213126309,0.2886086375,0.5950405969928068
0.007,1.798775,1.0,870.2727044376651,0.07607645322389339,1.3547938543820104,0.5777744416338416,0.28860155,0.5986011508059847
0.0075,1.79859375,1.0,959.1215705298423,0.08125893370625484,1.3533165029768792,0.6084177270119866,0.2885939375,0.6019370176153983
0.008,1.7984,1.0,1046.1163059317619,0.0864123447379567,1.3519239905541147,0.6362654758187503,0.2885858,0.6050685742106741
0.0085,1.79819375,1.0,1130.9373867631916,0.09153684911831121,1.3506097374341082,0.6615590779595681,0.2885771375,0.6080127934195974
0.009000000000000001,1.797975,1.0,1213.3402616491733,0.09663260892063037,1.3493677863150626,0.684535413752853,0.28856795,0.6107849167261249
0.0095,1.79774375,1.0,1293.1694187807755,0.10169978586727779,1.3481923635508124,0.7054191882842017,0.2885582375,0.6133994833064378
0.01,1.7975,1.0,1370.2863583157941,0.1067385398429799,1.347078649887796,0.7244193961500497,0.288548,0.6158686568624513
0.0105,1.79724375,1.0,1444.6021749283152,0.11174903017310575,1.3460221380125141,0.7417272616270183,0.2885372375,0.6182036989963285
0.011,1.796975,1.0,1516.0830212720957,0.11673141574609189,1.3450184440525346,0.75751589568751,0.28852595000000003,0.6204154121925003
0.0115,1.79669375,1.0,1584.7106932885126,0.12168585436122682,1.3440636920034503,0.7719410945932937,0.2885141375,0.6225133158321265
0.012,1.7964,1.0,1650.47667524446,0.12661250219732884,1.3431544682345395,0.7851423867289204,0.28850180000000003,0.6245057746513725
0.0125,1.79609375,1.0,1713.4068782424624,0.13151151498527705,1.3422874428832743,0.7972441859527195,0.2884889375,0.6264008496314708
0.013000000000000001,1.7957750000000001,1.0,1773.5588009643006,0.13638304866158069,1.3414593524888203,0.8083572089676511,0.28847555,0.6282063475698838
0.0135,1.79544375,1.0,1830.984083262939,0.1412272575201923,1.3406673724826812,0.8185800220864965,0.2884616375,0.6299290220846497
0.014,1.7951000000000001,1.0,1885.727998205753,0.14604429382737885,1.3399090566286114,0.8280003243614743,0.2884472,0.6315747232839524
0.0145,1.79474375,1.0,1937.8596200083675,0.1508343098494072,1.3391819586903657,0.836696030599705,0.2884322375,0.6331492311829306
0.015,1.794375,1.0,1987.461965713246,0.15559745725327848,1.33848371544023,0.8447364287453428,0.28841675,0.6346580815745453
0.0155,1.79399375,1.0,2034.625726391746,0.16033388776850077,1.3378120874655817,0.8521832033540497,0.2884007375,0.6361064845731703
0.016,1.7936,1.0,2079.4313958289254,0.165043751494055,1.3371651203874293,0.859091379450629,0.2883842,0.6374989846751604
0.0165,1.7931937500000001,1.0,2121.9468902415647,0.1697271962906273,1.3365411390912976,0.8655101035186581,0.2883671375,0.6388394824589665
0.017,1.792775,1.0,2162.2523413755534,0.17438437001890378,1.3359384684627111,0.8714832560937377,0.28834955,0.6401318412210716
0.0175,1.7923437500000001,1.0,2200.439064264602,0.17901542053957062,1.3353554333871953,0.8770500740876137,0.2883314375,0.6413798893421123
0.018000000000000002,1.7919,1.0,2236.587202345241,0.1836204937838926,1.334790573483762,0.8822457529124893,0.2883128,0.6425869639872889
0.0185,1.79144375,1.0,2270.8027403758574,0.188199737993553,1.3342422570849088,0.8871018182159774,0.2882936375,0.6437567397282707
0.019,1.790975,1.0,2303.151388000993,0.19275329650595066,1.3337093341132065,0.8916467110215527,0.28827395,0.644891837773343
0.0195,1.79049375,1.0,2333.7038262734313,0.19728131252229988,1.3331906678535081,0.8959060251608785,0.2882537375,0.6459948305335881
0.02,1.79,1.0,2362.5365116706657,0.20178392924381494,1.3326851215906668,0.8999028271754561,0.288233,0.6470682712761584
0.0205,1.78949375,1.0,2389.7302724131664,0.20626128971309174,1.3321915675119895,0.9036579418287554,0.2882117375,0.6481146762561458
0.021,1.788975,1.0,2415.356892198468,0.2107135349961144,1.3317090116756205,0.9071902268195667,0.28818995000000003,0.6491362613940788
0.021500000000000002,1.78844375,1.0,2439.502265785718,0.215140808804786,1.331236363949369,0.9105167412958107,0.2881676375,0.6501354311147998
0.022,1.7879,1.0,2462.2240639184192,0.21954324944674067,1.3307728419876887,0.9136530191139718,0.2881448,0.651113925393455
0.0225,1.78734375,1.0,2483.5829734121694,0.22392099522961253,1.330317663445033,0.9166131711299117,0.28812143749999997,0.6520734732659881
0.023,1.786775,1.0,2503.6424477267005,0.2282741844610357,1.3298700459758561,0.9194100352487381,0.28809755,0.6530157932649445
0.0235,1.78619375,1.0,2522.468471108004,0.23260295544864423,1.3294292072346114,0.9220553088801868,0.28807313749999996,0.6539425938162482
0.024,1.7856,1.0,2540.1186760611618,0.23690744384806595,1.3289944653204269,0.924559682898016,0.2880482,0.6548553628460665
0.0245,1.78499375,1.0,2556.6599935417753,0.24118778970925048,1.3285650694210829,0.9269329167757612,0.2880227375,0.655755724350507
0.025,1.784375,1.0,2572.14303695984,0.24544412789010805,1.3281404390940164,0.92918396816791,0.28799675,0.6566449369616905
0.025500000000000002,1.78374375,1.0,2586.613609754923,0.24967659136992001,1.3277200527762039,0.9313210540451304,0.2879702375,0.6575241294909508
0.026000000000000002,1.7831000000000001,1.0,2600.1188151857773,0.25388531312796764,1.3273033889046224,0.9333517137470222,0.2879432,0.6583944247817267
0.0265,1.78244375,1.0,2612.7069449889805,0.25807042614353226,1.3268899259162488,0.9352828740110811,0.2879156375,0.659256939842058
0.027,1.781775,1.0,2624.427374069346,0.2622320633958953,1.32647914224806,0.9371209069680673,0.28788755,0.6601127859597291
0.0275,1.7810937500000001,1.0,2635.3236531260445,0.2663703559426371,1.3260705793160286,0.9388716906407465,0.2878589375,0.6609629378332574
0.028,1.7804,1.0,2645.4378039048624,0.27048543559161553,1.3256638003934007,0.9405406492734367,0.2878298,0.6618083198766813
0.0285,1.77969375,1.0,2654.823779169473,0.2745774367430299,1.3252582656469118,0.9421327772159237,0.2878001375,0.6626500657792185
0.029,1.778975,1.0,2663.5128277897193,0.2786464864389685,1.324853651030189,0.9436527188138055,0.28776995,0.6634888565445034
0.029500000000000002,1.7782437500000001,1.0,2671.536724958179,0.28269271172151966,1.3244496324968587,0.9451047718761751,0.2877392375,0.664325369810757
0.03,1.7775,1.0,2678.92772618536,0.2867162396327716,1.3240458860005475,0.9464929179659205,0.287708,0.6651602798664547
0.0305,1.77674375,1.0,2685.718523623042,0.29071719721481276,1.3236420874948822,0.9478208496827638,0.2876762375,0.6659942576592953
0.031,1.775975,1.0,2691.9422047156636,0.2946957115097314,1.3232379129334895,0.9490919952702771,0.28764395,0.6668279707984754
0.0315,1.7751937500000001,1.0,2697.63221317975,0.29865190955961574,1.322833038269996,0.950309540838359,0.2876111375,0.6676620835502657
0.032,1.7744,1.0,2702.8153098834064,0.3025859143456414,1.3224272034208429,0.9514764570257529,0.2875778,0.6684971253004286
0.0325,1.77359375,1.0,2707.5254025648273,0.3064978552301997,1.322020085457187,0.9525955044934138,0.2875439375,0.6693337517925573
0.033,1.772775,1.0,2711.787716784239,0.31038785589761464,1.3216114429615067,0.9536692643828251,0.28750955,0.6701724482022243
0.0335,1.7719437500000002,1.0,2715.6236084932502,0.3142560373865,1.3212010716085343,0.9547001483198067,0.2874746375,0.6710136211655907
0.034,1.7711000000000001,1.0,2719.0546026656357,0.3181025207354696,1.3207887670730019,0.9556904083040947,0.2874392,0.6718576751268602
0.0345,1.7702437500000001,1.0,2722.102376018478,0.3219274269831371,1.320374325029642,0.9566421491577818,0.2874032375,0.6727050123144174
0.035,1.7693750000000001,1.0,2724.788740659016,0.3257308771681163,1.3199575411531868,0.957557339863926,0.28736675,0.6735560327143074
0.035500000000000004,1.76849375,1.0,2727.135628657189,0.3295129923290209,1.3195382111183684,0.9584378239058877,0.2873297375,0.6744111340410491
0.036000000000000004,1.7676,1.0,2729.16407340115,0.3332738923702685,1.319116139727754,0.9592853293850704,0.2872922,0.6752706931290071
0.0365,1.76669375,1.0,2730.8873534085506,0.33701368844169177,1.3186912030781945,0.9601014821789682,0.2872541375,0.6761349396701944
0.037,1.765775,1.0,2732.337653819406,0.34073251581926095,1.3182631061389727,0.9608877965405036,0.28721555,0.6770044492052711
0.0375,1.76484375,1.0,2733.527463327204,0.3444304886631961,1.3178317334978544,0.9616457077694063,0.2871764375,0.6778794297887399
0.038,1.7639,1.0,2734.469320273368,0.34810772113371724,1.3173969697426064,0.9623765650178482,0.28713679999999997,0.6787600880044993
0.0385,1.76294375,1.0,2735.1758067324545,0.3517643273910443,1.3169586994609945,0.9630816374033527,0.28709663750000003,0.6796466289413104
0.039,1.761975,1.0,2735.6595428913593,0.35540042159539736,1.3165168072407851,0.963762119623962,0.28705595,0.6805392561674097
0.0395,1.7609937500000001,1.0,2735.9331817250304,0.3590161179069965,1.3160711776697442,0.9644191371211268,0.2870147375,0.6814381717042761
0.04,1.76,1.0,2736.0094039668156,0.36261153048606165,1.315621695335638,0.9650537508311987,0.286973,0.682343575999546
0.0405,1.7589937500000001,1.0,2735.9009133741342,0.3661867734928128,1.3151682448262332,0.9656669615623342,0.2869307375,0.6832556678990802
0.041,1.757975,1.0,2735.6204322898657,0.3697419610874701,1.3147107107292957,0.9662597140299743,0.28688795,0.6841746446181811
0.0415,1.75694375,1.0,2735.1806974986725,0.37327720743025344,1.3142489776325914,0.9668329005808322,0.2868446375,0.6851007017119614
0.042,1.7559,1.0,2734.591270766192,0.37679262025412746,1.313782959052926,0.9673873659857518,0.28680079999999997,0.6860339751530287
0.0425,1.75484375,1.0,2733.862542730486,0.3802883148419967,1.3133125610582672,0.96792390983449,0.2867564375,0.6869746144231811
0.043000000000000003,1.753775,1.0,2733.0057640723094,0.3837644080906222,1.3128376819558178,0.9684432884079043,0.28671155,0.687922782999077
0.043500000000000004,1.75269375,1.0,2732.0279585142366,0.3872210069399717,1.3123582584795384,0.9689462193340873,0.28666613750000003,0.6888785661977994
0.044,1.7516,1.0,2730.9361531717864,0.39065821833001296,1.3118742273633899,0.9694333825509547,0.2866202,0.6898420481712009
0.0445,1.75049375,1.0,2729.7373770545983,0.39407614920071393,1.3113855253413331,0.9699054226548486,0.2865737375,0.6908133118874427
0.045,1.7493750000000001,1.0,2728.4386596548147,0.3974749064920423,1.3108920891473292,0.9703629510804909,0.28652675,0.6917924391122738
0.0455,1.74824375,1.0,2727.047029625028,0.400854597143966,1.3103938555153392,0.9708065481259356,0.2864792375,0.6927795103900598
0.046,1.7471,1.0,2725.5695135450605,0.4042153280964527,1.3098907611793238,0.9712367648349288,0.2864312,0.6937746050245515
0.0465,1.7459437500000001,1.0,2724.0131347769743,0.40755720628947034,1.3093827428732439,0.971654124748001,0.28638263750000004,0.6947778010594015
0.047,1.744775,1.0,2722.3849124088847,0.4108803386629866,1.3088697373310607,0.972059125532608,0.28633355,0.6957891752584233
0.0475,1.74359375,1.0,2720.691860288532,0.41418483215696944,1.3083516812867348,0.9724522405017443,0.28628393750000003,0.6968088030855992
0.048,1.7424,1.0,2718.9332906585455,0.4174707651460191,1.30782858155902,0.9728339213689616,0.2862338,0.6978366210949035
0.0485,1.74119375,1.0,2717.122120917951,0.42073827786826895,1.307300321050009,0.9732045972894359,0.2861831375,0.6988728082989842
0.049,1.739975,1.0,2715.262982478081,0.4239874757389479,1.3067668580360816,0.9735646778478582,0.28613195,0.6999173941666791
0.0495,1.73874375,1.0,2713.3588345747107,0.4272184573377697,1.3062281659937198,0.9739145535626692,0.2860802375,0.7009703773983507
0.05,1.7375,1.0,2711.4126335632864,0.4304313212444481,1.3056842183994053,0.9742545967583721,0.286028,0.7020317558084972
0.0505,1.73624375,1.0,2709.427332681946,0.4336261660386968,1.30513498872962,0.9745851625735305,0.2859752375,0.7031015263168836
0.051000000000000004,1.734975,1.0,2707.4058818302983,0.4368030903002296,1.3045804504608451,0.9749065899042294,0.28592195,0.7041796849396322
0.051500000000000004,1.73369375,1.0,2705.3512273636043,0.4399621926087602,1.3040205770695625,0.9752192022876619,0.2858681375,0.7052662267802621
0.052000000000000005,1.7324,1.0,2703.266311902625,0.4431035715440023,1.3034553420322539,0.97552330873014,0.2858138,0.7063611460206882
0.0525,1.73109375,1.0,2701.154074159193,0.44622732568566964,1.3028847188254011,0.9758192044834726,0.28575893750000003,0.7074644359121738
0.053,1.729775,1.0,2699.0174487773184,0.44933355361347604,1.3023086809254856,0.9761071717733594,0.28570355000000003,0.7085760887662402
0.0535,1.72844375,1.0,2696.859366189729,0.4524223539071352,1.301727201808989,0.9763874804831437,0.2856476375,0.7096960959455283
0.054,1.7271,1.0,2694.6827524902033,0.45549382514636083,1.3011402549523932,0.9766603887960256,0.2855912,0.7108244478546163
0.0545,1.7257437500000001,1.0,2692.4905293215356,0.4585480659108666,1.3005478138321795,0.9769261437985839,0.2855342375,0.7119611339307959
0.055,1.724375,1.0,2690.285613778703,0.4615851747803664,1.2999498519248303,0.9771849820482493,0.28547675,0.7131061426347973
0.0555,1.72299375,1.0,2688.0709183283857,0.4646052503345739,1.2993463427068264,0.9774371301071583,0.2854187375,0.7142594614414772
0.056,1.7216,1.0,2685.8469237326813,0.46760837161605495,1.2987372818938052,0.977682804531053,0.2853602,0.715421034460144
0.0565,1.72019375,1.0,2683.6150460033805,0.47059463868772367,1.298122656621424,0.9779222143489095,0.28530113749999997,0.7165908214572212
0.057,1.718775,1.0,2681.379611404874,0.47356417250619554,1.2975024273149673,0.9781555603169694,0.28524155,0.7177688320845108
0.0575,1.71734375,1.0,2679.141536700673,0.47651706246308884,1.2968765856148892,0.9783830339178246,0.2851814375,0.718955015668512
0.058,1.7159,1.0,2676.9017371411383,0.4794533979500217,1.2962451231616434,0.9786048188928376,0.2851208,0.7201493208002
0.0585,1.71444375,1.0,2674.6611264577223,0.4823732683586124,1.2956080315956837,0.9788210916146763,0.2850596375,0.721351695332032
0.059000000000000004,1.7129750000000001,1.0,2672.42061685929,0.4852767630804792,1.2949653025574643,0.9790320214390666,0.28499795,0.7225620863749475
0.059500000000000004,1.71149375,1.0,2670.1811190301746,0.4881639715072403,1.2943169276874391,0.9792377710370721,0.2849357375,0.7237804402953658
0.06,1.71,1.0,2667.943542129108,0.4910349830305139,1.2936628986260617,0.9794384967091249,0.284873,0.7250067027121794
0.0605,1.7084937500000001,1.0,2665.708793790508,0.4938898870419184,1.2930032070137862,0.9796343486819459,0.2848097375,0.7262408184937383
0.061,1.7069750000000001,1.0,2663.4777801267314,0.4967287729330718,1.2923378444910665,0.9798254713894022,0.28474595,0.7274827317548375
0.0615,1.7054437500000001,1.0,2661.251405731911,0.49955173009559256,1.2916668026983564,0.980012003738297,0.2846816375,0.7287323858536927
0.062,1.7039,1.0,2659.030573688118,0.5023588479210988,1.2909900732761102,0.9801940793599994,0.2846168,0.729989723388916
0.0625,1.70234375,1.0,2656.816185571615,0.5051502158012088,1.2903076478647812,0.9803718268487751,0.2845514375,0.7312546861964866
0.063,1.7007750000000001,1.0,2654.609141462022,0.5079259231275407,1.289619518104824,0.9805453699876113,0.28448555,0.7325272153467141
0.0635,1.69919375,1.0,2652.410339952803,0.5106860592917128,1.2889256756366918,0.9807148279622822,0.28441913750000003,0.7338072511412026
0.064,1.6976,1.0,2650.220678161909,0.5134307136853434,1.2882261121008391,0.9808803155643475,0.2843522,0.7350947331098039
0.0645,1.69599375,1.0,2648.0410517464297,0.5161599757000507,1.2875208191377197,0.9810419433837348,0.2842847375,0.7363896000075725
0.065,1.694375,1.0,2645.871051669861,0.5188739119136488,1.2868098004195594,0.9811998169762317,0.28421675,0.7376917678038664
0.0655,1.69274375,1.0,2643.7097132478098,0.5215726050954979,1.2860930647569435,0.9813540395051661,0.2841482375,0.7390011425318218
0.066,1.6911,1.0,2641.559204730038,0.5242561824656272,1.2853705920278755,0.9815047120933841,0.2840792,0.7403176824160072
0.0665,1.6894437500000001,1.0,2639.4196399723296,0.5269247240705371,1.2846423810676848,0.9816519299330965,0.2840096375,0.7416413102682364
0.067,1.687775,1.0,2637.2911326830827,0.5295783099567277,1.2839084307117006,0.9817957848656897,0.28393955,0.7429719482487867
0.0675,1.68609375,1.0,2635.173796426435,0.532217020170699,1.2831687397952523,0.9819363655216791,0.2838689375,0.7443095178659718
0.068,1.6844000000000001,1.0,2633.067744624002,0.5348409347589513,1.2824233071536693,0.9820737574538556,0.2837978,0.7456539399757149
0.0685,1.68269375,1.0,2630.9730905576816,0.5374501337679846,1.281672131622281,0.9822080432640118,0.2837261375,0.7470051347811237
0.069,1.680975,1.0,2628.8899473722568,0.540044697244299,1.2809152120364167,0.9823393027235908,0.28365395,0.7483630218320634
0.0695,1.67924375,1.0,2626.8184280776427,0.5426247052343948,1.2801525472314057,0.9824676128885934,0.28358123749999997,0.749727520024729
0.07,1.6775,1.0,2624.7586455517812,0.5451902377847719,1.2793841360425773,0.9825930482090516,0.283508,0.7510985476012203
0.07050000000000001,1.67574375,1.0,2622.71071254298,0.5477413749419308,1.2786099773052613,0.9827156806333612,0.2834342375,0.7524760221491129
0.07100000000000001,1.673975,1.0,2620.6747416725734,0.5502781967523711,1.2778300698547864,0.9828355797077476,0.28335995,0.7538598606010347
0.07150000000000001,1.67219375,1.0,2618.650845437743,0.5528007832625933,1.2770444125264824,0.9829528126711203,0.2832851375,0.7552499792342355
0.07200000000000001,1.6704,1.0,2616.6391362141753,0.5553092145190974,1.2762530041556785,0.9830674445455632,0.2832098,0.7566462936701616
0.0725,1.66859375,1.0,2614.6397262585197,0.5578035705683835,1.2754558435777041,0.9831795382226846,0.2831339375,0.7580487188740287
0.073,1.6667750000000001,1.0,2612.65272771156,0.5602839314569519,1.2746529296278886,0.983289154546044,0.28305755,0.7594571691543944
0.0735,1.66494375,1.0,2610.678252600607,0.5627503772313025,1.2738442611415612,0.9833963523898589,0.2829806375,0.760871558162731
0.074,1.6631,1.0,2608.716412842466,0.5652029879379356,1.2730298369540516,0.9835011887341784,0.2829032,0.7622917988929975
0.0745,1.6612437500000001,1.0,2606.7673202463757,0.5676418436233511,1.2722096559006886,0.9836037187367104,0.2828252375,0.763717803681214
0.075,1.659375,1.0,2604.8310865167145,0.5700670243340494,1.271383716816802,0.9837039958014646,0.28274675,0.7651494842050313
0.0755,1.65749375,1.0,2602.9054610904586,0.5724785654878537,1.2705520405248447,0.9838020701274549,0.2826677375,0.7665867135454171
