Time [s],Phi [rad],STIM [ ],Fsee [N],Gamma [ ],Lcerel [ ],q [ ],Lmtc [m],fisomrel [ ]
0.0,1.8,1.0,18.008479476216507,0.00020706222476281845,1.3793351195098758,0.005011156610043993,0.288653,0.5411507241914167
0.0005,1.79999375,1.0,18.38215622504732,0.005815110078266095,1.3792906953942847,0.01349664736538183,0.2886527375,0.5412581900105865
0.001,1.799975,1.0,21.870145685398327,0.01139170121730341,1.3789126625461854,0.036642851639692005,0.28865195,0.5421721752619919
0.0015,1.79994375,1.0,31.636799016083376,0.016937012090143096,1.3779980681458055,0.07201266049858455,0.2886506375,0.544379657136604
0.002,1.7999,1.0,54.77838399601348,0.02245121815321284,1.3762909698197408,0.11638577245109191,0.2886488,0.5484856697452773
0.0025,1.79984375,1.0,99.10657457705618,0.027934493879811756,1.3738398728841668,0.16638731039278612,0.28864643749999996,0.5543486908225448
0.003,1.7997750000000001,1.0,163.52985577269718,0.03338701276614083,1.3711184644485834,0.21914900382724062,0.28864354999999997,0.560813409902186
0.0035,1.79969375,1.0,240.58099172224686,0.038808947332325594,1.3684957490233771,0.27247051857199656,0.2886401375,0.5669989890041462
0.004,1.7996,1.0,324.54487006325667,0.04420046913272573,1.3660747595479603,0.32471389416030144,0.2886362,0.5726698674167827
0.0045000000000000005,1.7994937500000001,1.0,412.45201727715664,0.04956174876127426,1.3638482121220392,0.37474095220625336,0.2886317375,0.5778522912487104
0.005,1.799375,1.0,502.6601598233534,0.0548929558433483,1.3617894629475362,0.421843686220634,0.28862675,0.5826160220029761
0.0055,1.79924375,1.0,594.063799995435,0.06019425907417786,1.3598749694176984,0.46565137335214585,0.2886212375,0.5870217040389372
0.006,1.7991000000000001,1.0,685.7928003413912,0.06546582618480325,1.3580869607920305,0.5060378299285904,0.2886152,0.5911152057102258
0.006500000000000001,1.79894375,1.0,777.1339615194056,0.07070782395760798,1.3564117860545575,0.5430422529965055,0.2886086375,0.5949318838054858
0.007,1.798775,1.0,867.4981142994012,0.07592041830797175,1.3548385541328716,0.5768081339717503,0.28860155,0.5985000015972359
0.0075,1.79859375,1.0,956.3957921196868,0.08110377402769857,1.353358329328751,0.6075389143830346,0.2885939375,0.6018427649680931
0.008,1.7984,1.0,1043.449108531522,0.08625805538044531,1.3519631764371476,0.6354669826757042,0.2885858,0.6049806200008716
0.0085,1.79819375,1.0,1128.3364707434425,0.09138342519464947,1.3506464863336842,0.6608336933347444,0.2885771375,0.6079306174165862
0.009000000000000001,1.797975,1.0,1210.813150527487,0.09648004559988617,1.349402256746857,0.6838761754916853,0.28856795,0.6107081089929953
0.0095,1.79774375,1.0,1290.7206172640829,0.10154807830923145,1.3482247168814905,0.7048195758078886,0.2885582375,0.6133276356913451
0.01,1.7975,1.0,1367.9171138553957,0.10658768321574162,1.3471090572979356,0.7238734138863568,0.288548,0.6158013467529926
0.0105,1.79724375,1.0,1442.3145766374416,0.11159901967946795,1.3460507313626973,0.7412294392619824,0.2885372375,0.6181405973320866
0.011,1.796975,1.0,1513.8794187541582,0.1165822467848815,1.345045329485952,0.7570612902908249,0.28852595000000003,0.620356251913045
0.0115,1.79669375,1.0,1582.5884600612717,0.12153752211428338,1.344089017091723,0.7715252947490029,0.2885141375,0.6224577433573086
0.012,1.7964,1.0,1648.4351386757296,0.12646500195030985,1.343178339432105,0.7847614365406731,0.28850180000000003,0.6244535310734148
0.0125,1.79609375,1.0,1711.4461084091977,0.13136484210551688,1.3423099442057276,0.7968945536860146,0.2884889375,0.6263517286284174
0.013000000000000001,1.7957750000000001,1.0,1771.6795270483317,0.13623719861365222,1.3414805492623167,0.8080357471770633,0.28847555,0.6281601864652631
0.0135,1.79544375,1.0,1829.1833386581516,0.14108222550310195,1.3406873620795472,0.8182839463490631,0.2884616375,0.6298855909415801
0.014,1.7951000000000001,1.0,1884.0039696159952,0.1459000752102738,1.3399279144541902,0.8277271533819469,0.2884472,0.6315338423942116
0.0145,1.79474375,1.0,1936.211834073162,0.15069090017157535,1.3391997381830176,0.8364435518502175,0.2884322375,0.6331107704610086
0.015,1.794375,1.0,1985.8857907243678,0.15545485196599287,1.3385005084494952,0.8445026877463888,0.28841675,0.634621829653805
0.0155,1.79399375,1.0,2033.1215602468224,0.16019208274387098,1.3378279262267752,0.8519664413480421,0.2884007375,0.6360723605271574
0.016,1.7936,1.0,2077.9921861146013,0.16490274180303902,1.3371801108255683,0.8588900513674435,0.2883842,0.6374667502029894
0.0165,1.7931937500000001,1.0,2120.5693979826283,0.1695869773110789,1.3365553420815623,0.865322817449217,0.2883671375,0.6388089978200336
0.017,1.792775,1.0,2160.9373587789682,0.1742449374355726,1.3359518998304452,0.8713087554906899,0.28834955,0.6401030644142683
0.0175,1.7923437500000001,1.0,2199.1845027889076,0.17887676959754714,1.3353681358101026,0.8768872415634518,0.2883314375,0.6413527215665069
0.018000000000000002,1.7919,1.0,2235.404459541083,0.18348262153348496,1.334802451453148,0.8820935514467794,0.2883128,0.6425616023627629
0.0185,1.79144375,1.0,2269.6799925534956,0.18806263927492853,1.3342534471750864,0.8869593755092082,0.2882936375,0.6437328860062874
0.019,1.790975,1.0,2302.0801284091026,0.19261696647362087,1.3337199357120861,0.8915132337279034,0.28827395,0.6448692745801056
0.0195,1.79049375,1.0,2332.6803686039525,0.19714574678130484,1.3332007298003155,0.895780786881797,0.2882537375,0.6459734491726313
0.02,1.79,1.0,2361.562148749681,0.2016491238497234,1.3326946421759425,0.8997851611095246,0.288233,0.6470480710058086
0.0205,1.78949375,1.0,2388.799424022357,0.20612723954974255,1.3322006109629025,0.9035472596041693,0.2882117375,0.6480955168235787
0.021,1.788975,1.0,2414.4822307427626,0.21058023826155964,1.331717463997623,0.9070859592449841,0.28818995000000003,0.6491183803539085
0.021500000000000002,1.78844375,1.0,2438.6761232238105,0.21500826018981034,1.331244307753652,0.9104184118514341,0.2881676375,0.6501186498112369
0.022,1.7879,1.0,2461.4404470558725,0.21941144408840926,1.3307803419990898,0.913560191918744,0.2881448,0.6510981037849656
0.0225,1.78734375,1.0,2482.8376158350566,0.2237899287112712,1.3303247665020372,0.9165254466442568,0.28812143749999997,0.6520585096791282
0.023,1.786775,1.0,2502.932855042826,0.22814385281231075,1.329876781030595,0.9193270464890804,0.28809755,0.6530016241610106
0.0235,1.78619375,1.0,2521.7898275619536,0.23247335440267225,1.3294356244326426,0.9219767250123334,0.28807313749999996,0.6539291114626111
0.024,1.7856,1.0,2539.4681344506325,0.2367785705501594,1.3290005953597985,0.924485199063124,0.2880482,0.6548425008064354
0.0245,1.78499375,1.0,2556.0412315962767,0.24105964035240957,1.328570881088671,0.9268622425500277,0.2880227375,0.6557435462392043
0.025,1.784375,1.0,2571.5538936997723,0.24531669730663822,1.328145955873241,0.9291168463384986,0.28799675,0.6566333917220568
0.025500000000000002,1.78374375,1.0,2586.052322928488,0.24954987491006098,1.3277252939674897,0.9312572483461569,0.2879702375,0.6575131750443955
0.026000000000000002,1.7831000000000001,1.0,2599.584030353042,0.2537593066598934,1.3273083696253984,0.9332910068207783,0.2879432,0.6583840279756491
0.0265,1.78244375,1.0,2612.1977235126224,0.25794512605335096,1.326894657100948,0.9352250655933819,0.2879156375,0.659247076399406
0.027,1.781775,1.0,2623.942531779102,0.262107466314587,1.3264836368439683,0.9370658131108891,0.28788755,0.6601034275291321
0.0275,1.7810937500000001,1.0,2634.8611957668363,0.2662464575526512,1.3260748575166565,0.9388191424749223,0.2878589375,0.6609540411208294
0.028,1.7804,1.0,2645.007731004858,0.2703622355707029,1.3256677713791616,0.9404904762412276,0.2878298,0.6618000723371498
0.0285,1.77969375,1.0,2654.4160090597265,0.2744549284109772,1.3252620240347501,0.9420848457998097,0.2878001375,0.6626422695179134
0.029,1.778975,1.0,2663.1205099797285,0.27852466411570936,1.3248572610866884,0.9436069017182641,0.28776995,0.6634813772935433
0.029500000000000002,1.7782437500000001,1.0,2671.1562688109516,0.28257157072713446,1.324453128138243,0.9450609474813308,0.2877392375,0.6643181366113166
0.03,1.7775,1.0,2678.5588248974127,0.28659577628748767,1.3240492707926803,0.946450969838281,0.287708,0.6651532847536101
0.0305,1.77674375,1.0,2685.3641739666796,0.29059740883900426,1.323645334653267,0.9477806661360891,0.2876762375,0.6659875553481338
0.031,1.775975,1.0,2691.599178449414,0.2945765919194886,1.323241052688227,0.9490534786517181,0.28764395,0.6668214982685168
0.0315,1.7751937500000001,1.0,2697.299864051209,0.29853345558650507,1.3228360770826753,0.9502725983555668,0.2876111375,0.6676558269574904
0.032,1.7744,1.0,2702.5039168741546,0.302468129710102,1.322430047885623,0.9514409921997325,0.2875778,0.6684912762132489
0.0325,1.77359375,1.0,2707.2334638874086,0.3063807359224215,1.322022749888026,0.9525614378965186,0.2875439375,0.6693282798295724
0.033,1.772775,1.0,2711.5108461545215,0.31027139585560526,1.321613967880839,0.9536365244297381,0.28750955,0.6701672693365519
0.0335,1.7719437500000002,1.0,2715.3585984651518,0.31414023114179535,1.3212034866550175,0.9546686671457166,0.2874746375,0.6710086739816964
0.034,1.7711000000000001,1.0,2718.7994299933703,0.31798736341313355,1.320791091001517,0.9556601214665699,0.2874392,0.6718529207080881
0.0345,1.7702437500000001,1.0,2721.8562059832198,0.3218129143017619,1.3203765657112927,0.9566129953660991,0.2874032375,0.6727004341295848
0.035,1.7693750000000001,1.0,2724.551930460627,0.3256170054398222,1.3199596955753,0.9575292607329731,0.28736675,0.6735516365030658
0.035500000000000004,1.76849375,1.0,2726.909729972876,0.32939975845945635,1.3195402653844939,0.9584107637320781,0.2873297375,0.6744069476977272
0.036000000000000004,1.7676,1.0,2728.949056460469,0.33316129194391125,1.3191180943092715,0.9592592371079919,0.2872922,0.6752667151926623
0.0365,1.76669375,1.0,2730.6873696247403,0.33690172493567816,1.318693020426696,0.9600763078227169,0.2872541375,0.6761312459544309
0.037,1.765775,1.0,2732.149535485361,0.3406211826961243,1.318264815204813,0.960863497528858,0.28721555,0.6770009802380299
0.0375,1.76484375,1.0,2733.348547677073,0.34431978006951974,1.3178333586016129,0.9616222438191121,0.2871764375,0.6778761357143449
0.038,1.7639,1.0,2734.297450850396,0.34799763190013483,1.317398530575086,0.962353897967468,0.28713679999999997,0.6787569285356385
0.0385,1.76294375,1.0,2735.009334460658,0.35165485303223987,1.3169602110832226,0.9630597310566579,0.28709663750000003,0.6796435733102009
0.039,1.761975,1.0,2735.4973268757626,0.355291558310105,1.3165182800840132,0.9637409396064681,0.28705595,0.6805362830760784
0.0395,1.7609937500000001,1.0,2735.774589804346,0.35890786257800067,1.316072617535448,0.9643986507485242,0.2870147375,0.6814352692738852
0.04,1.76,1.0,2735.8543130425287,0.362503880680197,1.3156231033955172,0.9650339269885596,0.286973,0.6823407417186946
0.0405,1.7589937500000001,1.0,2735.749709540729,0.3660797274609643,1.3151696176222114,0.9656477705930916,0.2869307375,0.6832529085710111
0.041,1.757975,1.0,2735.4735516640367,0.3696355169762911,1.314712044342241,0.9662411278563332,0.28688795,0.684171967939819
0.0415,1.75694375,1.0,2735.031109393582,0.37317134987494543,1.314250335937798,0.966814896122058,0.2868446375,0.6850979794737919
0.042,1.7559,1.0,2734.445540738396,0.37668735967383027,1.3137842824677664,0.9673699154439376,0.28680079999999997,0.6860313267735619
0.0425,1.75484375,1.0,2733.7240232120575,0.38018365390934356,1.313313819159289,0.9679069879674771,0.2867564375,0.6869721005223863
0.043000000000000003,1.753775,1.0,2732.8737410778976,0.38366034011788347,1.312838881239509,0.9684268727930492,0.28671155,0.6879203902576925
0.043500000000000004,1.75269375,1.0,2731.9018836223695,0.3871175258358479,1.3123594039355693,0.9689302887152066,0.28666613750000003,0.6888762843527292
0.044,1.7516,1.0,2730.8156435193678,0.39055531859963494,1.3118753224746127,0.9694179167612521,0.2866202,0.6898398699979476
0.0445,1.75049375,1.0,2729.6222152899018,0.3939738259456426,1.3113865720837823,0.9698904025456218,0.2865737375,0.6908112331821157
0.045,1.7493750000000001,1.0,2728.328793852788,0.39737315541026896,1.310893087990221,0.9703483584551329,0.28652675,0.6917904586731656
0.0455,1.74824375,1.0,2726.9425731693764,0.400753414529912,1.3103948054210717,0.9707923656787836,0.2864792375,0.6927776299987725
0.046,1.7471,1.0,2725.4707449814355,0.4041147108409697,1.3098916596034773,0.9712229760945621,0.2864312,0.6937728294266663
0.0465,1.7459437500000001,1.0,2723.9204976412025,0.4074571518798402,1.309383585764581,0.9716407140246208,0.28638263750000004,0.6947761379446752
0.047,1.744775,1.0,2722.299015035306,0.41078084518292146,1.3088705191315255,0.9720460778691687,0.28633355,0.6957876352405037
0.0475,1.74359375,1.0,2720.613524233923,0.4140858975112256,1.3083523944886817,0.972439541496925,0.28628393750000003,0.6968074005519658
0.048,1.7424,1.0,2718.8668362654453,0.4173724123284582,1.3078291867806653,0.972821558222386,0.2862338,0.6978354329271501
0.0485,1.74119375,1.0,2717.0620483335233,0.4206404929560246,1.3073008683324518,0.9731925594002542,0.2861831375,0.6988717357210494
0.049,1.739975,1.0,2715.2038192451673,0.4238902419991097,1.3067673972184624,0.9735529548119314,0.28613195,0.699916339297864
0.0495,1.73874375,1.0,2713.2968032205445,0.42712176206289815,1.3062287315131176,0.9739031349472179,0.2860802375,0.7009692729460044
0.05,1.7375,1.0,2711.345649454762,0.43033515575257475,1.305684829290838,0.9742434720839467,0.286028,0.7020305648642576
0.0505,1.73624375,1.0,2709.359447562735,0.4335305250897142,1.305135608065056,0.9745743185452995,0.2859752375,0.7031003210802568
0.051000000000000004,1.734975,1.0,2707.335812842953,0.4367079709729236,1.3045810899590726,0.9748960172503547,0.28592195,0.7041784427274979
0.051500000000000004,1.73369375,1.0,2705.2782882944675,0.4398675938148166,1.3040212430150702,0.9752088920077392,0.2858681375,0.7052649355726137
0.052000000000000005,1.7324,1.0,2703.195156978554,0.44300949376079973,1.3034559919386022,0.9755132492753853,0.2858138,0.7063598882543336
0.0525,1.7310947904448042,1.0,2701.1342415301688,0.44613377009517263,1.3028853699185499,0.9758093886285361,0.28575898119868176,0.7074631782184414
0.053,1.729787390554617,1.0,2699.5336552032772,0.44924052166529677,1.3023095583421889,0.9760976056286899,0.28570407040329393,0.708574397114001
0.0535,1.7284799906644297,1.0,2698.461973486612,0.4523298469104715,1.3017289157533556,0.9763781938037079,0.28564915960790604,0.709692797826226
0.054,1.7271725907742426,1.0,2697.8773531805923,0.45540184341120116,1.3011438218340554,0.976651435157538,0.28559424881251816,0.710817597484626
0.0545,1.7258651908840554,1.0,2697.7510819221666,0.4584566054293697,1.3005545376525185,0.9769175920903398,0.28553933801713033,0.7119482458433701
0.055,1.724557790993868,1.0,2698.024946778933,0.4614942356202999,1.2999615951227341,0.9771769328583358,0.28548442722174244,0.713083678097656
0.0555,1.723250391103681,1.0,2698.6707420255807,0.4645148289308435,1.2993652526406376,0.9774296974936622,0.2854295164263546,0.714223359411375
0.056,1.7219429912134938,1.0,2699.663644867559,0.4675184794164435,1.2987657382991808,0.9776761141643248,0.2853746056309667,0.7153668163856677
0.0565,1.7206355913233067,1.0,2700.9788843935407,0.47050528113254264,1.2981632801913152,0.977916401615937,0.2853196948355789,0.7165135789080206
0.057,1.7193281914331193,1.0,2702.591726110746,0.47347532813458393,1.2975581064099928,0.9781507696438031,0.285264784040191,0.7176631801967456
0.0575,1.7180207915429322,1.0,2704.477457635365,0.47642871447801033,1.296950445048165,0.9783794195377427,0.2852098732448032,0.7188151568421453
0.058,1.716713391652745,1.0,2706.6113755349156,0.47936553421826456,1.2963405241987835,0.9786025445014306,0.2851549624494153,0.7199690488443564
0.0585,1.7154059917625577,1.0,2708.970538475086,0.4822858805523031,1.2957285558495746,0.9788203290765836,0.2851000516540274,0.7211244300227202
0.059000000000000004,1.7140985918723706,1.0,2711.5378561380585,0.4851898450461485,1.2951146985324709,0.9790329474366299,0.2850451408586396,0.72228097802962
0.059500000000000004,1.7127911919821834,1.0,2714.288962496367,0.48807752362033696,1.2944991770266858,0.9792405709298154,0.2849902300632517,0.723438248503204
0.06,1.7114837920919963,1.0,2717.2116714076487,0.4909490058420654,1.293882104879128,0.9794433577138143,0.28493531926786386,0.7245960090300165
0.0605,1.710176392201809,1.0,2720.293786712109,0.4938043812785308,1.2932635956367053,0.9796414598686863,0.284880408472476,0.7257540289356856
0.061,1.7088689923116218,1.0,2723.5230984717596,0.4966437394969301,1.292643762846326,0.9798350236801145,0.2848254976770881,0.7269120792957375
0.0615,1.7075615924214347,1.0,2726.887379495783,0.49946717006446006,1.2920227200548988,0.980024189907393,0.28477058688170026,0.7280699329455937
0.062,1.7062541925312473,1.0,2730.374382150763,0.5022747625483177,1.2914005808093316,0.9802090940370884,0.2847156760863124,0.7292273644897456
0.0625,1.7049467926410602,1.0,2733.971835458244,0.5050666065156999,1.2907774586565328,0.980389866523246,0.28466076529092454,0.7303841503101032
0.063,1.703639392750873,1.0,2737.671791389553,0.5078427872287654,1.29015342767246,0.9805666306632751,0.28460585449553666,0.7315401416132734
0.0635,1.7023319928606857,1.0,2741.4618761045776,0.5106033963829103,1.28952860192664,0.9807395077646812,0.2845509437001488,0.7326951169209349
0.064,1.7010245929704986,1.0,2745.330435795925,0.5133485252536882,1.2889030886893633,0.9809086143632065,0.28449603290476094,0.7338488690871998
0.0645,1.6997171930803114,1.0,2749.272111676989,0.5160782584778622,1.2882769379471093,0.9810740594549422,0.28444112210937306,0.7350012979841789
0.065,1.6984097931901243,1.0,2753.281531979776,0.5187926806921949,1.2876501996863587,0.9812359481478313,0.2843862113139852,0.7361523042742282
0.0655,1.697102393299937,1.0,2757.3533112758428,0.5214918765334491,1.2870229238935915,0.9813943818298292,0.28433130051859734,0.7373017894119056
0.066,1.6957949934097498,1.0,2761.482049853194,0.5241759306383877,1.2863951605552881,0.981549458328642,0.28427638972320945,0.7384496556457614
0.0665,1.6944875935195627,1.0,2765.662333148082,0.5268449276437737,1.2857669596579289,0.9817012720635174,0.2842214789278216,0.7395958060199734
0.067,1.6931801936293756,1.0,2769.888731232306,0.5294989521863697,1.2851383711879938,0.9818499141895398,0.2841665681324338,0.7407401443758224
0.0675,1.6918727937391882,1.0,2774.155798355908,0.5321380889029386,1.284509445131963,0.9819954727348486,0.2841116573370459,0.7418825753530056
0.068,1.690565393849001,1.0,2778.458072545735,0.5347624224302432,1.283880231476317,0.982138032731174,0.284056746541658,0.7430230043907932
0.0685,1.689257993958814,1.0,2782.7937601379012,0.537372027862449,1.283250747035641,0.9822776741568254,0.2840018357462702,0.7441613976522684
0.069,1.6879505940686266,1.0,2787.1572681565935,0.5399669943053924,1.2826210427519498,0.9824144768035284,0.2839469249508823,0.745297660056762
0.0695,1.6866431941784394,1.0,2791.541949212709,0.5425474137797334,1.2819911788883167,0.9825485184212047,0.2838920141554945,0.746431680577734
0.07,1.6853357942882523,1.0,2795.9459824555606,0.5451133649203178,1.2813611721735636,0.9826798713444788,0.2838371033601066,0.7475634272739742
0.07050000000000001,1.684028394398065,1.0,2800.3675413112105,0.547664926361992,1.2807310393365132,0.98280860553585,0.2837821925647187,0.7486928684727074
0.07100000000000001,1.6827209945078778,1.0,2804.8047934324536,0.550202176739602,1.2801007971059872,0.982934788680028,0.2837272817693309,0.7498199727697403
0.07150000000000001,1.6814135946176907,1.0,2809.2559006549086,0.552725194687994,1.279470462210808,0.9830584862739155,0.283672370973943,0.7509447090295834
0.07200000000000001,1.6801061947275033,1.0,2813.7190189599482,0.5552340588420139,1.2788400513797977,0.9831797617124639,0.28361746017855516,0.7520670463855605
0.0725,1.6787987948373162,1.0,2818.1922984430594,0.557728847836508,1.2782095813417786,0.9832986763706181,0.2835625493831673,0.7531869542398988
0.073,1.677491394947129,1.0,2822.673883289088,0.5602096403063225,1.2775790688255726,0.9834152896815535,0.2835076385877794,0.7543044022638011
