Time [s],Phi [rad],STIM [ ],Fsee [N],Gamma [ ],Lcerel [ ],q [ ],Lmtc [m],fisomrel [ ]
0.0,1.8,1.0,18.108488918648856,0.00038139953919240116,1.3793239434645717,0.005037668084866088,0.288653,0.5411777612069084
0.0005,1.79999375,1.0,18.53627729970708,0.005988469498240268,1.3792736603323084,0.014003692033669156,0.2886527375,0.5412993959761887
0.001,1.799975,1.0,22.153502910252005,0.011564088228018342,1.3788839814399054,0.03757015587247833,0.28865195,0.5422414815313947
0.0015,1.79994375,1.0,32.20693358445374,0.017108432146065986,1.3779501472481999,0.07326963008967982,0.2886506375,0.5444951728158931
0.002,1.7999,1.0,55.91501231455202,0.02262167667806354,1.376218415092183,0.11786645897841169,0.2886488,0.5486597708722127
0.0025,1.79984375,1.0,100.94124416675287,0.028103996267198606,1.373752756890557,0.16799310368586406,0.28864643749999996,0.55455636708134
0.003,1.7997750000000001,1.0,165.868696201138,0.03355556437912284,1.3710319188746631,0.2208023280887903,0.28864354999999997,0.5610182244138565
0.0035,1.79969375,1.0,243.1970496971454,0.03897655350397934,1.3684158708267193,0.27411262095269034,0.2886401375,0.5671866904432081
0.004,1.7996,1.0,327.3126922336921,0.044367135166255345,1.3660019538810764,0.32630225174020877,0.2886362,0.5728398270256201
0.0045000000000000005,1.7994937500000001,1.0,415.3079824483377,0.04972747993033625,1.363781546227488,0.3762475742244731,0.2886317375,0.578006972654139
0.005,1.799375,1.0,505.5656983544068,0.055057757391533214,1.3617280088917951,0.4232524825951893,0.28862675,0.5827578047932953
0.0055,1.79924375,1.0,596.9902208493693,0.060358136215894406,1.3598180220365608,0.46695518105126443,0.2886212375,0.5871523948268402
0.006,1.7991000000000001,1.0,688.71701070258,0.0656287841053708,1.3580339898969984,0.5072357102144769,0.2886152,0.5912361673419516
0.006500000000000001,1.79894375,1.0,780.0366489696747,0.07086986781250443,1.356362385168265,0.5441373311094587,0.2886086375,0.5950441659349018
0.007,1.798775,1.0,870.3634715215181,0.07608155322596552,1.3547923932927244,0.5778059811561982,0.28860155,0.598604456829148
0.0075,1.79859375,1.0,959.2107424603645,0.08126400510404591,1.3533151356617357,0.608446410083992,0.2885939375,0.6019400985724788
0.008,1.7984,1.0,1046.2033917604865,0.08641738768802779,1.3519227119507493,0.6362915386101523,0.2885858,0.6050714439197383
0.0085,1.79819375,1.0,1131.0220911862973,0.09154186377751357,1.3506085413380622,0.6615827562581633,0.2885771375,0.6080154679234577
0.009000000000000001,1.797975,1.0,1213.4230416404978,0.09663759545889698,1.3493666577826344,0.6845569294264996,0.28856795,0.6107874312174477
0.0095,1.79774375,1.0,1293.2503689596106,0.10170474443785822,1.3481912945681012,0.7054387530048307,0.2885582375,0.6134018571013706
0.01,1.7975,1.0,1370.3645863581125,0.10674347058562215,1.3470776463402003,0.7244372119004276,0.288548,0.6158708782236826
0.0105,1.79724375,1.0,1444.6778022725791,0.11175393323107546,1.3460211931112893,0.7417435055937367,0.2885372375,0.6182057841767852
0.011,1.796975,1.0,1516.1567466308118,0.11673629134864147,1.3450175448914539,0.7575307249540904,0.28852595000000003,0.6204173906794439
0.0115,1.79669375,1.0,1584.7810009062384,0.12169070261136047,1.3440628532970644,0.7719546622568605,0.2885141375,0.6225151561896771
0.012,1.7964,1.0,1650.5434951583995,0.1266173232385545,1.3431536871748961,0.7851548217662633,0.28850180000000003,0.6245074839868416
0.0125,1.79609375,1.0,1713.4707319591973,0.13151630898109654,1.3422867103299219,0.7972556005677501,0.2884889375,0.626402448761225
0.013000000000000001,1.7957750000000001,1.0,1773.6210170841678,0.13638781583496093,1.3414586509306345,0.8083676996867921,0.28847555,0.6282078753336451
0.0135,1.79544375,1.0,1831.0440277980126,0.14123199791943603,1.3406667072231042,0.8185896831784539,0.2884616375,0.6299304674418615
0.014,1.7951000000000001,1.0,1885.7858167878017,0.1460490075756351,1.3399084243449477,0.8280092365150317,0.2884472,0.6315760939392059
0.0145,1.79474375,1.0,1937.9162831309154,0.15083899714467136,1.339181347433781,0.8367042625881098,0.2884322375,0.6331505534215712
0.015,1.794375,1.0,1987.5172069604903,0.15560211822586795,1.33848312700533,0.8447440463439939,0.28841675,0.6346593518261917
0.0155,1.79399375,1.0,2034.6801724773152,0.16033852280283387,1.337811514262036,0.8521902624240211,0.2884007375,0.6361077194897651
0.016,1.7936,1.0,2079.4807639983796,0.1650483604977814,1.3371646062733158,0.859097945343668,0.2883842,0.6375000901676019
0.0165,1.7931937500000001,1.0,2121.989953503537,0.16973177931571418,1.3365406951507193,0.8655162247147942,0.2883671375,0.6388404352916794
0.017,1.792775,1.0,2162.2910641911967,0.1743889272616358,1.3359380730057961,0.8714889664572292,0.28834955,0.6401326884730625
0.0175,1.7923437500000001,1.0,2200.4748779140673,0.17901995192263576,1.3353550708275055,0.8770554053177949,0.2883314375,0.6413806647649196
0.018000000000000002,1.7919,1.0,2236.6293102051595,0.18362500017579786,1.3347901506636999,0.8822507134073432,0.2883128,0.642587866768422
0.0185,1.79144375,1.0,2270.8478183150196,0.1882042192815382,1.3342418078644043,0.8871064478517753,0.2882936375,0.6437576973071897
0.019,1.790975,1.0,2303.196461707008,0.19275775259333772,1.333708888100452,0.8916510446116889,0.28827395,0.6448927869985971
0.0195,1.79049375,1.0,2333.747651497416,0.19728574346467723,1.3331902370426763,0.8959100899004577,0.2882537375,0.6459957459803738
0.02,1.79,1.0,2362.5796260242887,0.2017883352490376,1.3326847003619102,0.8999066435686868,0.288233,0.6470691650035268
0.0205,1.78949375,1.0,2389.771928808546,0.20626567058152626,1.3321911628497043,0.9036615309370718,0.2882117375,0.6481155335604631
0.021,1.788975,1.0,2415.4019925726952,0.21071789174333433,1.3317085758880483,0.9071935965999923,0.28818995000000003,0.6491371832982237
0.021500000000000002,1.78844375,1.0,2439.547796771923,0.21514514131291274,1.331235926183603,0.9105199145231955,0.2881676375,0.6501363558842177
0.022,1.7879,1.0,2462.267871567393,0.21954755767760725,1.3307724227391022,0.9136560147367807,0.2881448,0.6511148098064561
0.0225,1.78734375,1.0,2483.623784484913,0.22392527922476377,1.3303172745572793,0.9166160046944718,0.28812143749999997,0.6520742925033514
0.023,1.786775,1.0,2503.6798879448697,0.22827844434172806,1.3298696906408682,0.9194127192748348,0.28809755,0.6530165408051591
0.0235,1.78619375,1.0,2522.5030806645723,0.23260719141584593,1.3294288799926024,0.9220578531936667,0.28807313749999996,0.6539432813355216
0.024,1.7856,1.0,2540.150489509725,0.2369116558840171,1.3289941655631305,0.9245620972269224,0.2880482,0.6548559917902406
0.0245,1.78499375,1.0,2556.6903416650207,0.2411919782288861,1.3285647843970765,0.9269352080961375,0.2880227375,0.6557563216010927
0.025,1.784375,1.0,2572.1721483243355,0.24544829300291343,1.3281401665095187,0.9291861445047356,0.28799675,0.6566455074078614
0.025500000000000002,1.78374375,1.0,2586.6415783651664,0.2496807331809577,1.327719791625433,0.9313231229712396,0.2879702375,0.6575246753092562
0.026000000000000002,1.7831000000000001,1.0,2600.145598691923,0.2538894317378775,1.3273031394697956,0.9333536824245504,0.2879432,0.6583949454503046
0.0265,1.78244375,1.0,2612.732363173368,0.25807452164853123,1.3268896897675821,0.9352847492284001,0.2879156375,0.6592574321545086
0.027,1.781775,1.0,2624.4511075828636,0.2622361358877777,1.3264789222437683,0.9371226951727752,0.28788755,0.6601132440387356
0.0275,1.7810937500000001,1.0,2635.3466873237962,0.2663744057876181,1.3260703662361013,0.9388733960671061,0.2878589375,0.660963380939588
0.028,1.7804,1.0,2645.459918723009,0.2704894624798181,1.3256635962097023,0.9405422771930678,0.2878298,0.661808743953329
0.0285,1.77969375,1.0,2654.845180751797,0.2745814409277382,1.325258068398036,0.9421343321651453,0.2878001375,0.6626504749425337
0.029,1.778975,1.0,2663.5336595599624,0.27865046814046734,1.3248534593464334,0.9436542050558768,0.28776995,0.663489253669181
0.029500000000000002,1.7782437500000001,1.0,2671.5570670447783,0.2826966711270948,1.3244494456002263,0.9451061934257293,0.2877392375,0.6643257565360517
0.03,1.7775,1.0,2678.947594937508,0.2867201768967096,1.324045703704746,0.9464942786108682,0.287708,0.6651606566023469
0.0305,1.77674375,1.0,2685.7378712101463,0.29072111245840077,1.3236419102053234,0.9478221530039678,0.2876762375,0.665994623592632
0.031,1.775975,1.0,2691.9609188014297,0.29469960482125745,1.3232377416472902,0.9490932446592519,0.28764395,0.6668283238991061
0.0315,1.7751937500000001,1.0,2697.650116662453,0.2986557809943688,1.3228328745759779,0.9503107395132256,0.2876111375,0.6676624205772033
0.032,1.7744,1.0,2702.8322802494763,0.30258976416587563,1.3224270484072718,0.951477607985203,0.2875778,0.6684974440541289
0.0325,1.77359375,1.0,2707.5407803980493,0.3065016832747651,1.3220199451126093,0.9525966109908753,0.2875439375,0.6693340400180869
0.033,1.772775,1.0,2711.8016295532243,0.31039166239695815,1.3216113160875302,0.9536703287293189,0.28750955,0.670172708432547
0.0335,1.7719437500000002,1.0,2715.636148541956,0.31425982253919876,1.3212009573335128,0.9547011726991266,0.2874746375,0.6710138552552132
0.034,1.7711000000000001,1.0,2719.065827036878,0.31810628470823127,1.3207886648520342,0.9556913947832406,0.2874392,0.6718578842552593
0.0345,1.7702437500000001,1.0,2722.112306308707,0.32193116991079984,1.3203742346445724,0.9566430996964121,0.2874032375,0.6727051969894914
0.035,1.7693750000000001,1.0,2724.797362900641,0.32573459915364866,1.3199574627126052,0.9575582563229383,0.28736675,0.673556192775867
0.035500000000000004,1.76849375,1.0,2727.142893225855,0.329516693443522,1.3195381450576102,0.9584387080552164,0.2873297375,0.6744112686643547
0.036000000000000004,1.7676,1.0,2729.170587639787,0.33327757341620573,1.3191160805121775,0.9592861824377535,0.2872922,0.6752708136433209
0.0365,1.76669375,1.0,2730.893139969508,0.3370173487505159,1.3186911504939316,0.960102305472333,0.2872541375,0.6761350465460914
0.037,1.765775,1.0,2732.3427283848146,0.3407361554521526,1.3182630600370702,0.9608885915021245,0.28721555,0.6770045427801029
0.0375,1.76484375,1.0,2733.531858373855,0.344434107699599,1.317831693577998,0.9616464757301096,0.2871764375,0.6778795107058089
0.038,1.7639,1.0,2734.473085073036,0.34811131967133835,1.3173969355531203,0.9623773072184477,0.28713679999999997,0.6787601572113788
0.0385,1.76294375,1.0,2735.1790073452894,0.3517679055458539,1.3169586703988425,0.9630823550008418,0.28709663750000003,0.6796466876881311
0.039,1.761975,1.0,2735.6622621532915,0.35540397950162894,1.3165167825515696,0.963762813697216,0.28705595,0.6805393060051098
0.0395,1.7609937500000001,1.0,2735.935519230002,0.3590196557171467,1.3160711564477066,0.9644198086761534,0.2870147375,0.6814382144828106
0.04,1.76,1.0,2736.0114760443057,0.3626150483708905,1.3156216765236586,0.9650544008059787,0.286973,0.6823436138660557
0.0405,1.7589937500000001,1.0,2735.9028530633254,0.36619027164134343,1.3151682272158312,0.9656675908312882,0.2869307375,0.6832557032960148
0.041,1.757975,1.0,2735.6223893107235,0.36974543970698887,1.3147106929606291,0.9662603234080861,0.28688795,0.6841746802813795
0.0415,1.75694375,1.0,2735.182838220683,0.37328066674631,1.3142489581944579,0.9668334908274597,0.2868446375,0.6851007406686795
0.042,1.7559,1.0,2734.5892125016794,0.37679605426466456,1.3137829777443522,0.9673879402423426,0.28680079999999997,0.6860339377483655
0.0425,1.75484375,1.0,2733.8567211541026,0.38029172402826444,1.3133126139319877,0.9679244685625357,0.2867564375,0.6869745087726569
0.043000000000000003,1.753775,1.0,2732.9998304822334,0.3837677962839616,1.3128377358553356,0.9684438301977936,0.28671155,0.6879226754620769
0.043500000000000004,1.75269375,1.0,2732.024817020691,0.38722437719458436,1.3123582870213215,0.9689467432399576,0.28666613750000003,0.6888785093402606
0.044,1.7516,1.0,2730.9379608203517,0.39066157292296055,1.3118742109368713,0.9694338880681515,0.2866202,0.6898420808434436
0.0445,1.75049375,1.0,2729.7455441384286,0.3940794896319186,1.311385451108911,0.9699059096987672,0.2865737375,0.6908134593038905
0.045,1.7493750000000001,1.0,2728.453850198581,0.3974782334842864,1.3108919510443662,0.9703634199667245,0.28652675,0.6917927129331232
0.0455,1.74824375,1.0,2727.0691620221883,0.4008579106428922,1.3103936542501629,0.9708069995516476,0.2864792375,0.6927799088049438
0.046,1.7471,1.0,2725.5977613303685,0.4042186272705641,1.3098905042332267,0.9712371998613886,0.2864312,0.6937751128382541
0.0465,1.7459437500000001,1.0,2724.045927516477,0.40756048953013024,1.3093824445004838,0.9716545447842084,0.28638263750000004,0.6947783897796718
0.047,1.744775,1.0,2722.419936689583,0.4108836035844187,1.3088694185588596,0.9720595323199503,0.28633355,0.6957898031859437
0.0475,1.74359375,1.0,2720.72606078894,0.41418807559625764,1.3083513699152802,0.9724526360996218,0.28628393750000003,0.6968094154061544
0.048,1.7424,1.0,2718.9705667685594,0.41747401172847515,1.3078282420766711,0.9728343068020022,0.2862338,0.697837287563732
0.0485,1.74119375,1.0,2717.1597158533637,0.42074151814389943,1.3072999785499586,0.973204973475144,0.2861831375,0.6988734795382493
0.049,1.739975,1.0,2715.2948837877366,0.4239906856719986,1.3067665673068734,0.9735650459711,0.28613195,0.6999179629552218
0.0495,1.73874375,1.0,2713.383733741074,0.42722163062951307,1.30622793899805,0.9739149140247353,0.2860802375,0.7009708207174954
0.05,1.7375,1.0,2711.43244440399,0.4304344630254472,1.3056840377270595,0.9742549493176795,0.286028,0.7020321080321481
0.0505,1.73624375,1.0,2709.4436717529743,0.4336292808192813,1.3051348396647413,0.9745855070876008,0.2859752375,0.7031018163991474
0.051000000000000004,1.734975,1.0,2707.4200687760967,0.43680618197049575,1.304580320981935,0.9749069263276091,0.28592195,0.7041799364494304
0.051500000000000004,1.73369375,1.0,2705.3642852952144,0.4399652644385709,1.3040204578494807,0.9752195306698728,0.2858681375,0.7052664579368371
0.052000000000000005,1.7324,1.0,2703.278967800903,0.4431066261829872,1.3034552264382173,0.9755236292136626,0.2858138,0.7063613697300072
0.0525,1.73109375,1.0,2701.1667592998433,0.44623036516322484,1.3028846029189851,0.9758195173017769,0.28575893750000003,0.707464659804237
0.053,1.729775,1.0,2699.0302991748945,0.44933657933876425,1.3023085634626232,0.9761074772489793,0.28570355000000003,0.7085763152333071
0.0535,1.72844375,1.0,2696.8722230575017,0.45242536666908584,1.3017270842399715,0.9763877790258088,0.2856476375,0.7096963221812664
0.054,1.7271,1.0,2694.6951627131753,0.45549682511366996,1.3011401414218695,0.9766606809008469,0.2855912,0.710824665894185
0.0545,1.7257437500000001,1.0,2692.5017459389787,0.4585510526319968,1.300547711179157,0.9769264300443027,0.2855342375,0.7119613306918687
0.055,1.724375,1.0,2690.2945964740575,0.46158814718354696,1.2999497696826736,0.977185263095545,0.28547675,0.7131062999595379
0.0555,1.72299375,1.0,2688.076333922599,0.4646082067278006,1.2993462931032587,0.9774374066970224,0.2854187375,0.7142595561394706
0.056,1.7216,1.0,2685.849631770462,0.4676113266632891,1.2987372570795437,0.9776830777276385,0.2853602,0.7154210817365773
0.0565,1.72019375,1.0,2683.6181722356278,0.470597574359207,1.298122627963259,0.9779224809626906,0.28530113749999997,0.7165908759447714
0.057,1.718775,1.0,2681.3827117380038,0.47356708893651656,1.2975023988823744,0.9781558207942865,0.28524155,0.7177688860307162
0.0575,1.71734375,1.0,2679.1442248212466,0.47651995982442596,1.2968765609523276,0.9783832886630356,0.2851814375,0.7189550623632619
0.058,1.7159,1.0,2676.90368442155,0.4794562764521435,1.296245105288556,0.978605068270014,0.2851208,0.7201493545681518
0.0585,1.71444375,1.0,2674.662061861428,0.48237612824887743,1.2956080230064968,0.9788213359492037,0.2850596375,0.721351711524842
0.059000000000000004,1.7129750000000001,1.0,2672.4203268450287,0.4852796046438359,1.2949653052215881,0.9790322610191525,0.28499795,0.7225620813633142
0.059500000000000004,1.71149375,1.0,2670.1794474554176,0.4881667950662272,1.294316943049267,0.9792380061151681,0.2849357375,0.7237804114608883
0.06,1.71,1.0,2667.9403901534897,0.4910377889452595,1.2936629276049711,0.9794387275032709,0.284873,0.7250066484390225
0.0605,1.7084937500000001,1.0,2665.704119778948,0.4938926757101411,1.293003250004138,0.9796345753770328,0.2848097375,0.7262407381601168
0.061,1.7069750000000001,1.0,2663.4715995523884,0.4967315447900802,1.2923379013622052,0.9798256941383672,0.28474595,0.7274826257243037
0.0615,1.7054437500000001,1.0,2661.243791079782,0.49955448561428506,1.29166687279461,0.9800122226632476,0.2846816375,0.72873225546624
0.062,1.7039,1.0,2659.0216543584156,0.5023615876119638,1.2909901554167902,0.9801942945532747,0.2846168,0.7299895709518887
0.0625,1.70234375,1.0,2656.806147784582,0.5051529402123248,1.290307740344183,0.9803720383739449,0.2845514375,0.7312545149753013
0.063,1.7007750000000001,1.0,2654.598228162861,0.5079286328445762,1.2896196186922262,0.9805455778804194,0.28448555,0.7325270295553874
0.0635,1.69919375,1.0,2652.398850717985,0.5106887549379263,1.2889257815763573,0.9807150322315338,0.28441913750000003,0.7338070559326884
0.064,1.6976,1.0,2650.2089691068163,0.5134333959215833,1.2882262201120136,0.980880516192745,0.2843522,0.7350945345661387
0.0645,1.69599375,1.0,2648.029535434002,0.5161626452247554,1.287520925414633,0.981042140328666,0.2842847375,0.736389405129825
0.065,1.694375,1.0,2645.8587595898953,0.5188765402142864,1.2868099139020666,0.9812000087614032,0.28421675,0.7376915602279629
0.0655,1.69274375,1.0,2643.698758384424,0.5215752191895799,1.2860931659353678,0.98135422719247,0.2841482375,0.7390009579243562
0.066,1.6911,1.0,2641.550474009147,0.5242587834647019,1.28537067269706,0.9815048954563218,0.2840792,0.7403175356008529
0.0665,1.6894437500000001,1.0,2639.413891206716,0.5269273129315432,1.284642434206026,0.9816521087948645,0.2840096375,0.7416412138050641
0.067,1.687775,1.0,2637.2889947893786,0.5295808874819948,1.2839084504811484,0.9817959590979205,0.28393955,0.7429719124534224
0.0675,1.68609375,1.0,2635.175769639614,0.5322195870079478,1.2831687215413101,0.9819365350432459,0.2838689375,0.7443095508311861
0.068,1.6844000000000001,1.0,2633.0742007095755,0.5348434914012932,1.2824232474053938,0.9820739222297435,0.2837978,0.745654047592448
0.0685,1.68269375,1.0,2630.9842730213722,0.5374526805539218,1.281672028092282,0.982208203304248,0.2837261375,0.7470053207601426
0.069,1.680975,1.0,2628.905971666766,0.5400472343577248,1.2809150636208577,0.9823394580822341,0.28365395,0.7483632877260507
0.0695,1.67924375,1.0,2626.83928180739,0.5426272327045932,1.2801523540100035,0.9824677636627792,0.28358123749999997,0.749727865250809
0.07,1.6775,1.0,2624.784188674449,0.5451927554864179,1.2793838992786022,0.9825931945380922,0.283508,0.7510989694639154
0.07050000000000001,1.67574375,1.0,2622.740677568935,0.5477438825950898,1.2786096994455365,0.9827158226978957,0.2834342375,0.7524765158637368
0.07100000000000001,1.673975,1.0,2620.708733861327,0.5502806939225001,1.2778297545296893,0.9828357177289423,0.28335995,0.7538604193175147
0.07150000000000001,1.67219375,1.0,2618.6883429918057,0.5528032693605397,1.2770440645499428,0.9829529469099173,0.2832851375,0.7552505940613748
0.07200000000000001,1.6704,1.0,2616.6794904699577,0.5553116888010996,1.2762526295251804,0.9830675753019734,0.2832098,0.7566469537003299
0.0725,1.66859375,1.0,2614.682161874925,0.5578060321360707,1.2754554494742845,0.9831796658351253,0.2831339375,0.7580494112082906
0.073,1.6667750000000001,1.0,2612.696342855425,0.5602863792573441,1.2746525244161377,0.9832892793907191,0.28305755,0.7594578789280704
0.0735,1.66494375,1.0,2610.7220191293586,0.5627528100568109,1.2738438543696229,0.9833964748801788,0.2829806375,0.7608722685713928
0.074,1.6631,1.0,2608.7591764840563,0.565205404426362,1.273029439353623,0.98350130932022,0.2829032,0.7622924912188976
0.0745,1.6612437500000001,1.0,2606.807800776237,0.5676442422578883,1.2722092793870203,0.9836038379047141,0.2828252375,0.7637184573201503
0.075,1.659375,1.0,2604.8678779319,0.5700694034432809,1.2713833744886982,0.9837041140733678,0.28274675,0.7651500766936448
0.0755,1.65749375,1.0,2602.9393939462525,0.5724809678744307,1.2705517246775386,0.9838021895773821,0.2826677375,0.7665872585268154
