Time [s],Phi [rad],STIM [ ],Fsee [N],Gamma [ ],Lcerel [ ],q [ ],Lmtc [m],fisomrel [ ]
0.0,1.8,1.0,18.98452594922845,0.0010293399048532047,1.3792273363613776,0.005272094196061347,0.288653,0.541411439273771
0.0005,1.79999375,1.0,19.593280126782677,0.0066327754308079774,1.3791586890506986,0.016010762777896675,0.2886527375,0.5415774506293229
0.001,1.799975,1.0,23.692729249189995,0.012204780114930727,1.3787312901531175,0.041116065714816276,0.28865195,0.5426103630706478
0.0015,1.79994375,1.0,34.87516072073797,0.01774553025668349,1.3777313167727057,0.07801129841237534,0.2886506375,0.5450224882945086
0.002,1.7999,1.0,60.77097400045119,0.023255201172129435,1.3759164460962539,0.12341010162437928,0.2886488,0.5493840100585532
0.0025,1.79984375,1.0,108.35601967455578,0.028733967190063173,1.3734084967250595,0.17397835813833082,0.28864643749999996,0.5553765770839645
0.003,1.7997750000000001,1.0,175.05262488171147,0.03418200166276838,1.3706978444701683,0.2269469501803935,0.28864354999999997,0.5618083804374072
0.0035,1.79969375,1.0,253.3220547322629,0.039599476970237316,1.3681106935313228,0.28020290114855945,0.2886401375,0.5679034352930121
0.004,1.7996,1.0,337.94143353242356,0.04498656452443276,1.3657251932686942,0.3321841632471168,0.2886362,0.5734855963283683
0.0045000000000000005,1.7994937500000001,1.0,426.21309425610116,0.05034343475894052,1.3635290766131274,0.3818206181100938,0.2886317375,0.5785925078342058
0.005,1.799375,1.0,516.6242456650646,0.05567025723520713,1.361495713278784,0.42845936488817105,0.28862675,0.5832935244931864
0.0055,1.79924375,1.0,608.0850988842434,0.060967200384214215,1.359603376227146,0.4717713958472458,0.2886212375,0.5876448080549672
0.006,1.7991000000000001,1.0,699.7777413789967,0.06623443194321241,1.357834639310773,0.5116588976605447,0.2886152,0.5916912337669931
0.006500000000000001,1.79894375,1.0,790.9883780293505,0.07147211840999568,1.356176820130942,0.548179961684834,0.2886086375,0.5954657933718448
0.007,1.798775,1.0,881.1613635116997,0.07668042569802519,1.3546191185477656,0.5814890753011451,0.28860155,0.5989964309961918
0.0075,1.79859375,1.0,969.8099877833322,0.08185951843878597,1.353153062721234,0.611795723138949,0.2885939375,0.6023052113858807
0.008,1.7984,1.0,1056.5544555689357,0.0870095604895545,1.3517711137503206,0.6393347760127055,0.2885858,0.605411618401974
0.0085,1.79819375,1.0,1141.1080600179014,0.09213071510196075,1.350466437939422,0.664347435199496,0.2885771375,0.6083331501213434
0.009000000000000001,1.797975,1.0,1223.2241052457334,0.09722314390525177,1.349233311737304,0.6870695973919179,0.28856795,0.6110844833322544
0.0095,1.79774375,1.0,1302.7315186505361,0.10228700799509569,1.3480663224086111,0.7077244299684539,0.2885582375,0.6136793214443392
0.01,1.7975,1.0,1379.531695935575,0.10732246832288331,1.3469602438672592,0.7265186809681433,0.288548,0.6161307052792475
0.0105,1.79724375,1.0,1453.5296828324501,0.11232968359148085,1.3459107665137997,0.7436415673330903,0.2885372375,0.6184494311538123
0.011,1.796975,1.0,1524.6768157905535,0.11730881204487287,1.344913780200454,0.7592642517323298,0.28852595000000003,0.6206456767469161
0.0115,1.79669375,1.0,1592.96259954394,0.12226001134680395,1.3439653809373644,0.7735405348358145,0.2885141375,0.6227290073871614
0.012,1.7964,1.0,1658.408988668775,0.12718343898223342,1.3430618574265187,0.7866079856764077,0.28850180000000003,0.6247084246781471
0.0125,1.79609375,1.0,1721.0280947292943,0.13207924997203596,1.3422001056776314,0.7985894579544488,0.2884889375,0.6265914785529909
0.013000000000000001,1.7957750000000001,1.0,1780.8590068794363,0.1369475989614077,1.3413771180984544,0.8095942689897635,0.28847555,0.62838540573595
0.0135,1.79544375,1.0,1837.959746460232,0.14178863997904462,1.3405900301005254,0.8197196169462893,0.2884616375,0.6300970388906991
0.014,1.7951000000000001,1.0,1892.4094410869864,0.1466025273616061,1.3398360547679518,0.82905187839952,0.2884472,0.631732958800235
0.0145,1.79474375,1.0,1944.2695459860588,0.15138941293212607,1.3391128678384674,0.8376679618934216,0.2884322375,0.6332986698544967
0.015,1.794375,1.0,1993.6029062468303,0.15614944740057707,1.3384183515684083,0.8456363061430199,0.28841675,0.6347991687554886
0.0155,1.79399375,1.0,2040.4904480346772,0.16088278147693164,1.3377503882141097,0.8530178028405891,0.2884007375,0.6362393981543947
0.016,1.7936,1.0,2085.014389583414,0.1655895648501271,1.337107018397176,0.8598667374058102,0.2883842,0.6376239099086927
0.0165,1.7931937500000001,1.0,2127.277352421748,0.1702699480143584,1.336486221370801,0.8662315049799835,0.2883671375,0.638957343200256
0.017,1.792775,1.0,2167.3534309502943,0.17492407821259134,1.3358864040200091,0.8721554470539893,0.28834955,0.6402433788090153
0.0175,1.7923437500000001,1.0,2205.316831219044,0.17955210189950305,1.335306080419358,0.8776773537542724,0.2883314375,0.6414854350567827
0.018000000000000002,1.7919,1.0,2241.2512143138165,0.18415416552977065,1.3347437646434064,0.882831968588509,0.2883128,0.6426869006133921
0.0185,1.79144375,1.0,2275.2415259029412,0.18873041468083937,1.3341980441078558,0.8876504786373047,0.2882936375,0.6438509799568994
0.019,1.790975,1.0,2307.3789730047456,0.1932809955379999,1.3336675203431048,0.8921609113431248,0.28827395,0.6449808222834303
0.0195,1.79049375,1.0,2337.7417716162204,0.19780605218761407,1.333150991001759,0.8963885378270381,0.2882537375,0.6460791364622
0.02,1.79,1.0,2366.3968229538914,0.2023057265592226,1.332647421435086,0.9003561761625561,0.288233,0.6471482557799371
0.0205,1.78949375,1.0,2393.415992947443,0.20678016058236615,1.3321557769943537,0.9040844281030967,0.2882117375,0.6481904968408073
0.021,1.788975,1.0,2418.8756973150685,0.21122949618658537,1.3316750230308299,0.9075919245639688,0.28818995000000003,0.6492081603874315
0.021500000000000002,1.78844375,1.0,2442.8451712125857,0.2156538734158489,1.3312042338439172,0.9108955630564476,0.2881676375,0.6502033019255862
0.022,1.7879,1.0,2465.4074215628384,0.2200534351036821,1.3307423862781877,0.9140106547402902,0.2881448,0.6511781693845984
0.0225,1.78734375,1.0,2486.6246198861227,0.22442831998944787,1.33028868841684,0.9169511554019201,0.28812143749999997,0.6521345098975881
0.023,1.786775,1.0,2506.551644188208,0.2287786650189082,1.3298424434916782,0.9197297814428663,0.28809755,0.6530738599216807
0.0235,1.78619375,1.0,2525.2457254538886,0.23310460713782521,1.3294029547345085,0.9223581211572555,0.28807313749999996,0.6539977468500489
0.024,1.7856,1.0,2542.766250684953,0.237406283291961,1.3289695253771354,0.9248467503848602,0.2880482,0.654907689327622
0.0245,1.78499375,1.0,2559.17457670071,0.24168383042707758,1.3285414586513644,0.9272053349129884,0.2880227375,0.6558051975358221
0.025,1.784375,1.0,2574.5237118628243,0.24593738200461213,1.3281181527178263,0.9294427358104873,0.28799675,0.6566915747992386
0.025500000000000002,1.78374375,1.0,2588.8775378152786,0.2501670775532696,1.32769891841023,0.9315670624728707,0.2879702375,0.6575682999769308
0.026000000000000002,1.7831000000000001,1.0,2602.2792245285823,0.254373049188243,1.327283273135457,0.9335857872425123,0.2879432,0.6584364130285139
0.0265,1.78244375,1.0,2614.7714666817133,0.2585554284227087,1.3268707491351468,0.9355057782936621,0.2879156375,0.6592969176014922
0.027,1.781775,1.0,2626.397970633862,0.2627143467698432,1.3264608786509384,0.9373333546631895,0.28788755,0.6601508122144684
0.0275,1.7810937500000001,1.0,2637.2033659338395,0.2668499357428229,1.3260531939244713,0.9390743374637599,0.2878589375,0.6609990903432752
0.028,1.7804,1.0,2647.2331216807306,0.2709623268548244,1.3256472271973845,0.9407340956987676,0.2878298,0.6618427404931603
0.0285,1.77969375,1.0,2656.5228976790945,0.27505164852237524,1.3252426080997741,0.9423176000460853,0.2878001375,0.6626825442489055
0.029,1.778975,1.0,2665.11507420438,0.2791180326963498,1.3248389101304616,0.9438294392573541,0.28776995,0.6635193956162433
0.029500000000000002,1.7782437500000001,1.0,2673.058954863742,0.2831616120146917,1.3244356486969229,0.9452738527343414,0.2877392375,0.6643543043833127
0.03,1.7775,1.0,2680.3822503514316,0.2871825118205279,1.3240325425275028,0.9466547932725916,0.287708,0.6651878551758995
0.0305,1.77674375,1.0,2687.113070236396,0.2911808574569854,1.3236293103505472,0.947975927176034,0.2876762375,0.6660206297258584
0.031,1.775975,1.0,2693.279887666833,0.2951567742671912,1.3232256708944012,0.9492406586196929,0.28764395,0.6668532068713783
0.0315,1.7751937500000001,1.0,2698.91150582816,0.29911038759427244,1.3228213428874105,0.9504521516551117,0.2876111375,0.6676861625521969
0.032,1.7744,1.0,2704.0370261558373,0.30304182278135594,1.3224160450579199,0.9516133501120305,0.2875778,0.6685200697997749
0.0325,1.77359375,1.0,2708.685818301682,0.3069512051715687,1.3220094961342754,0.9527269956200902,0.2875439375,0.6693554987224173
0.033,1.772775,1.0,2712.886034563526,0.31083865891230766,1.321601428131545,0.9537956451584807,0.28750955,0.6701929892338991
0.0335,1.7719437500000002,1.0,2716.6616903479944,0.31470430496472107,1.3211916126637053,0.9548216882403379,0.2874746375,0.6710329973038529
0.034,1.7711000000000001,1.0,2720.0442425857505,0.31854827261281926,1.3207797551783222,0.9558073513012295,0.2874392,0.6718761118231367
0.0345,1.7702437500000001,1.0,2723.051897527923,0.3223706808506448,1.320365683271841,0.9567547262402021,0.2874032375,0.6727226689469596
0.035,1.7693750000000001,1.0,2725.7029842625216,0.3261716486722402,1.3199492245407072,0.9576657701265872,0.28736675,0.6735730029202811
0.035500000000000004,1.76849375,1.0,2728.0159419304796,0.32995129507164794,1.3195302065813668,0.9585423154490241,0.2873297375,0.6744274460525161
0.036000000000000004,1.7676,1.0,2730.0093076000057,0.3337097390429106,1.319108456990265,0.9593860794728677,0.2872922,0.6752863286903452
0.0365,1.76669375,1.0,2731.701704800404,0.3374470995800707,1.3186838033638477,0.9601986727927507,0.2872541375,0.6761499791886239
0.037,1.765775,1.0,2733.1118327147633,0.3411634956771708,1.3182560732985609,0.960981607157775,0.28721555,0.6770187238794039
0.0375,1.76484375,1.0,2734.2584560317805,0.34485904632825337,1.3178250943908496,0.9617363026386154,0.2871764375,0.6778928870390547
0.038,1.7639,1.0,2735.1460626901185,0.34853385630257494,1.317390824381881,0.9624641037254679,0.28713679999999997,0.6787725274176976
0.0385,1.76294375,1.0,2735.808254020987,0.35218806208234377,1.3169529570537768,0.9631662568115352,0.28709663750000003,0.6796582366545496
0.039,1.761975,1.0,2736.2573471881606,0.35582177748987787,1.3165113798428814,0.9638439487435371,0.28705595,0.6805502118302146
0.0395,1.7609937500000001,1.0,2736.503722383042,0.3594351142880788,1.316065998041461,0.9644982988906368,0.2870147375,0.6814486125065533
0.04,1.76,1.0,2736.55778500147,0.363028184239848,1.3156167169417827,0.9651303625532064,0.286973,0.6823535968969726
0.0405,1.7589937500000001,1.0,2736.4299618786276,0.3666010991080871,1.3151634418361131,0.9657411353043178,0.2869307375,0.6832653218431599
0.041,1.757975,1.0,2736.1306977221902,0.37015397065569755,1.3147060780167188,0.9663315569930909,0.28688795,0.6841839427912465
0.0415,1.75694375,1.0,2735.670451744746,0.3736869106455809,1.3142445307758666,0.9669025154394977,0.2868446375,0.6851096137673962
0.042,1.7559,1.0,2735.0596944951735,0.37720003084063863,1.3137787054058228,0.9674548498473498,0.28680079999999997,0.686042487352825
0.0425,1.75484375,1.0,2734.308904888436,0.3806934430037723,1.3133085071988544,0.9679893539596367,0.2867564375,0.6869827146582443
0.043000000000000003,1.753775,1.0,2733.4285674344665,0.3841672588978834,1.3128338414472283,0.968506778978097,0.28671155,0.6879304452977375
0.043500000000000004,1.75269375,1.0,2732.4291696664222,0.3876215902858734,1.3123546134432107,0.9690078362668435,0.28666613750000003,0.6888858273620613
0.044,1.7516,1.0,2731.316474465513,0.3910565410092598,1.311870771415967,0.9694932020434746,0.2866202,0.6898489219911024
0.0445,1.75049375,1.0,2730.099581811083,0.3944722245926209,1.31138223328932,0.9699635165066083,0.2865737375,0.6908198494635063
0.045,1.7493750000000001,1.0,2728.7896366148284,0.3978687567310171,1.3108888983815694,0.9704193858162837,0.28652675,0.6917987655073158
0.0455,1.74824375,1.0,2727.391649331475,0.40124624163720174,1.3103907217429307,0.9708613878528437,0.2864792375,0.6927857138262199
0.046,1.7471,1.0,2725.9106298070956,0.40460478352392815,1.3098876584236183,0.9712900714063939,0.2864312,0.6937807371069096
0.0465,1.7459437500000001,1.0,2724.3515865007084,0.40794448660394955,1.3093796634738473,0.9717059579159125,0.28638263750000004,0.6947838770051309
0.047,1.744775,1.0,2722.719525750506,0.41126545509001944,1.3088666919438319,0.9721095430884245,0.28633355,0.6957951741316137
0.0475,1.74359375,1.0,2721.01945108577,0.41456779319489095,1.308348698883787,0.9725012984075698,0.28628393750000003,0.6968146680378691
0.048,1.7424,1.0,2719.256362582107,0.4178516051313176,1.3078256393439276,0.9728816725400877,0.2862338,0.6978423972018566
0.0485,1.74119375,1.0,2717.4352562632166,0.42111699511205253,1.3072974683744683,0.9732510926480081,0.2861831375,0.698878399013529
0.049,1.739975,1.0,2715.561123545853,0.4243640673498491,1.3067641410256237,0.973609965613688,0.28613195,0.6999227097602401
0.0495,1.73874375,1.0,2713.6389507307,0.42759292605746074,1.3062256123476086,0.9739586791842233,0.2860802375,0.7009753646120286
0.05,1.7375,1.0,2711.6735911207256,0.4308036745527905,1.3056818385526097,0.9742976030153591,0.286028,0.7020363953415061
0.0505,1.73624375,1.0,2709.668094175972,0.43399639568281956,1.3051327922559262,0.9746270884631166,0.2859752375,0.7031058006699675
0.051000000000000004,1.734975,1.0,2707.631269784797,0.43717122113128637,1.3045783934700046,0.9749474728883094,0.28592195,0.7041836805842827
0.051500000000000004,1.73369375,1.0,2705.565322494941,0.44032824733391623,1.3040186223982047,0.9752590783029537,0.2858681375,0.7052700166935518
0.052000000000000005,1.7324,1.0,2703.4724540632797,0.44346757072643433,1.3034534592438862,0.9755622122793322,0.2858138,0.7063647897733389
0.0525,1.73109375,1.0,2701.3548633406886,0.446589287744566,1.3028828842104085,0.975857168720405,0.28575893750000003,0.7074679797588783
0.053,1.729775,1.0,2699.2147461648515,0.4496934948240366,1.302306877501132,0.9761442285826767,0.28570355000000003,0.7085795657382513
0.0535,1.72844375,1.0,2697.0542952626693,0.4527802884005713,1.3017254193194157,0.9764236605548379,0.2856476375,0.7096995259455446
0.054,1.7271,1.0,2694.875700160736,0.45584976490989537,1.3011384898686196,0.9766957216952397,0.2855912,0.7108278377539774
0.0545,1.7257437500000001,1.0,2692.6811471045744,0.45890202078773407,1.3005460693521034,0.9769606580310245,0.2855342375,0.7119644776690073
0.055,1.724375,1.0,2690.4728189865546,0.46193715246981276,1.299948137973227,0.9772187051215248,0.28547675,0.7131094213214095
0.0555,1.72299375,1.0,2688.252895283029,0.4649552563918566,1.29934467593535,0.9774700885883364,0.2854187375,0.7142626434603326
0.056,1.7216,1.0,2686.0235519992734,0.46795642898959094,1.298735663441832,0.9777150246143029,0.2853602,0.7154241179463283
0.0565,1.72019375,1.0,2683.786961623898,0.470940766698741,1.2981210806960328,0.9779537204134667,0.28530113749999997,0.7165938177443543
0.057,1.718775,1.0,2681.5452930914653,0.47390836595503216,1.2975009079013125,0.9781863746739063,0.28524155,0.7177717149167564
0.0575,1.71734375,1.0,2679.298353810133,0.4768593040986278,1.2968751468937039,0.9784131775182403,0.2851814375,0.7189577396582965
0.058,1.7159,1.0,2677.046798883788,0.4797936687034018,1.2962437917321588,0.9786343118667391,0.2851208,0.7201518362887542
0.0585,1.71444375,1.0,2674.7970438470234,0.4827115951585181,1.2956067835729341,0.9788499544524172,0.2850596375,0.721354048168573
0.059000000000000004,1.7129750000000001,1.0,2672.5496770763853,0.4856131707735223,1.2949641170013377,0.9790602737887834,0.28499795,0.7225643165868021
0.059500000000000004,1.71149375,1.0,2670.3052859582895,0.48849848285796,1.294315786602677,0.979265431749249,0.2849357375,0.7237825821315289
0.06,1.71,1.0,2668.064456890841,0.4913676187213768,1.2936617869622598,0.9794655838785524,0.284873,0.7250087846879221
0.0605,1.7084937500000001,1.0,2665.8277752863323,0.4942206656733184,1.2930021126653937,0.9796608796872404,0.2848097375,0.7262428634362754
0.061,1.7069750000000001,1.0,2663.5958255746555,0.49705771102333024,1.2923367582973864,0.9798514629302525,0.28474595,0.7274847568500495
0.0615,1.7054437500000001,1.0,2661.3691912067798,0.49987884208095806,1.2916657184435454,0.9800374718705827,0.2846816375,0.7287344026939111
0.062,1.7039,1.0,2659.1484546598494,0.5026841461557473,1.2909889876891782,0.9802190395289211,0.2846168,0.7299917380217706
0.0625,1.70234375,1.0,2656.934197441832,0.5054737105572438,1.290306560619593,0.9803962939201221,0.2845514375,0.7312566991748171
0.063,1.7007750000000001,1.0,2654.727000097465,0.5082476225949929,1.289618431820097,0.9805693582772884,0.28448555,0.7325292217795532
0.0635,1.69919375,1.0,2652.5274422151097,0.5110059695785403,1.2889245958759978,0.980738351264205,0.28441913750000003,0.733809240745827
0.064,1.6976,1.0,2650.3361024330884,0.5137488388174316,1.2882250473726033,0.9809033871768085,0.2843522,0.7350966902648615
0.0645,1.69599375,1.0,2648.1535584482967,0.5164763176212124,1.2875197808952212,0.9810645761343374,0.2842847375,0.7363915038072831
0.065,1.694375,1.0,2645.9803870240335,0.5191884932994284,1.2868087910291588,0.9812220242607592,0.28421675,0.737693614121149
0.0655,1.69274375,1.0,2643.8171639992306,0.5218854531616249,1.286092072359724,0.9813758338570374,0.2841482375,0.7390029532299696
0.066,1.6911,1.0,2641.664464298331,0.5245672845173479,1.2853696194722244,0.9815261035647617,0.2840792,0.7403194524307329
0.0665,1.6894437500000001,1.0,2639.5228619415248,0.5272340746761427,1.2846414269519677,0.9816729285216341,0.2840096375,0.7416430422919249
0.067,1.687775,1.0,2637.392930055573,0.529885910947555,1.2839074893842612,0.9818164005092714,0.28393955,0.7429736526515485
0.0675,1.68609375,1.0,2635.267023318532,0.5325228782842687,1.2831678773726862,0.9819566115890236,0.2838689375,0.7443110753324214
0.068,1.684401409968175,1.0,2633.2254175211187,0.5351450554901207,1.2824224847400785,0.9820936418114317,0.28379785921866335,0.7456554212794648
0.0685,1.682707347072214,1.0,2631.6933701374855,0.5377525245186379,1.2816716041593033,0.9822275875325559,0.28372670857703297,0.7470060823033315
0.069,1.6810132841762533,1.0,2630.710537219171,0.5403453674299441,1.2809156424194583,0.9823585472840284,0.28365555793540265,0.7483622507782622
0.0695,1.6793192212802923,1.0,2630.232679264018,0.5429236662841634,1.2801550063096416,0.9824866163903346,0.28358440729377227,0.7497231264019282
0.07,1.6776251583843316,1.0,2630.217889259176,0.5454875027423992,1.279390082596062,0.9826118861520964,0.28351325665214194,0.7510879519992527
0.07050000000000001,1.6759310954883708,1.0,2630.624411154751,0.5480369585710128,1.2786212578548322,0.982734444954646,0.28344210601051156,0.7524559779062218
0.07100000000000001,1.6742370325924099,1.0,2631.4184182737054,0.5505721142204765,1.2778488461386304,0.982854374988656,0.28337095536888124,0.7538265902405348
0.07150000000000001,1.6725429696964491,1.0,2632.57011915636,0.5530930494137459,1.2770731248032208,0.9829717541432532,0.28329980472725086,0.7551992458921519
0.07200000000000001,1.6708489068004884,1.0,2634.0497732186536,0.5555998438737773,1.2762943712043677,0.9830866578716793,0.2832286540856205,0.7565734070178032
0.0725,1.6691548439045274,1.0,2635.828811773842,0.5580925770328139,1.2755128521483279,0.9831991587990137,0.28315750344399016,0.7579485596335894
0.073,1.6674607810085667,1.0,2637.880086984794,0.5605713282639926,1.2747288214459689,0.9833093267362855,0.2830863528023598,0.7593242176878474
0.0735,1.665766718112606,1.0,2640.180598924309,0.5630361760046106,1.2739424945933555,0.9834172276109366,0.28301520216072945,0.7606999670152086
0.074,1.664072655216645,1.0,2642.7109464706036,0.5654871977070212,1.2731540538116788,0.983522923823905,0.28294405151909907,0.7620754556321636
0.0745,1.6623785923206842,1.0,2645.451722223945,0.5679244708235769,1.2723636813221302,0.9836264758919712,0.28287290087746875,0.7634503351296464
