Time [s],Phi [rad],STIM [ ],Fsee [N],Gamma [ ],Lcerel [ ],q [ ],Lmtc [m],fisomrel [ ]
0.0,1.8,1.0,17.967767043337087,1.023154243659094e-05,1.3793396780058516,0.005000027895220331,0.288653,0.5411396960791355
0.0005,1.79999375,1.0,18.27712064292469,0.005619383460369273,1.3793023459682472,0.012941156106937711,0.2886527375,0.5412300074712504
0.001,1.799975,1.0,21.618879185244396,0.011197072470963885,1.3789382512886719,0.03560978086210395,0.28865195,0.5421103370863629
0.0015,1.79994375,1.0,31.0700044041139,0.016743475057114175,1.378046138264352,0.07060335288820355,0.2886506375,0.5442637670389362
0.002,1.7999,1.0,53.583629038731296,0.022258766710064458,1.3763680511648158,0.11471978794094102,0.2886488,0.5483006698418325
0.0025,1.79984375,1.0,97.12072962602636,0.027743121936970552,1.3739350809087423,0.16457679739830613,0.28864643749999996,0.5541216685770802
0.003,1.7997750000000001,1.0,160.96048679989113,0.03319671426861886,1.3712142569175618,0.21728241894581782,0.28864354999999997,0.5605866564449695
0.0035,1.79969375,1.0,237.68594012174452,0.038619716259016626,1.368584653882248,0.27061484290900684,0.2886401375,0.5667900284518607
0.004,1.7996,1.0,321.46955461495054,0.04401229949617444,1.3661560186779735,0.32291769421466815,0.2886362,0.5724801338835954
0.0045000000000000005,1.7994937500000001,1.0,409.2706585808255,0.049374634607290746,1.3639227459097483,0.37303630448626984,0.2886317375,0.5776793208211377
0.005,1.799375,1.0,499.41648068798463,0.054706891249839414,1.3618582790961,0.4202491425880182,0.28862675,0.582457225285743
0.0055,1.79924375,1.0,590.7934369451795,0.06000923815905018,1.359938776038361,0.46417525614393895,0.2886212375,0.5868752471428782
0.006,1.7991000000000001,1.0,682.5211404198354,0.06528184309103281,1.3581463596321013,0.5046813947607226,0.2886152,0.590979544267454
0.006500000000000001,1.79894375,1.0,773.8843623397589,0.07052487287840713,1.3564672006218406,0.541802070503954,0.2886086375,0.5948059147985603
0.007,1.798775,1.0,864.2888277583438,0.07573849341389635,1.3548903462693873,0.5756779768535152,0.28860155,0.5983827873877372
0.0075,1.79859375,1.0,953.2462684614312,0.08092286966006121,1.3534067322321062,0.6065110041086004,0.2885939375,0.6017336786129606
0.008,1.7984,1.0,1040.3478221136893,0.0860781652525462,1.3520088028868127,0.6345331670022394,0.2885858,0.604878197353932
0.0085,1.79819375,1.0,1125.3178659107796,0.09120454429021127,1.3506891899922135,0.6599853313034614,0.2885771375,0.6078351148680012
0.009000000000000001,1.797975,1.0,1207.9032465866128,0.09630216870200972,1.3494419931572863,0.6831050135250003,0.28856795,0.6106195580939512
0.0095,1.79774375,1.0,1287.8948695957176,0.10137119902238724,1.348262088553246,0.7041182271364822,0.2885582375,0.6132446354481221
0.01,1.7975,1.0,1365.1696112143009,0.10641179578578959,1.3471443523513071,0.7232349102488835,0.288548,0.615723209918978
0.0105,1.79724375,1.0,1439.6623681342755,0.11142411893303941,1.3460839104804574,0.7406472803180516,0.2885372375,0.6180673689622282
0.011,1.796975,1.0,1511.3251820191833,0.11640832722421088,1.3450765173896913,0.7565296937103257,0.28852595000000003,0.6202876184508996
0.0115,1.79669375,1.0,1580.1235450254196,0.1213645778377914,1.3441184528033303,0.7710391290232669,0.2885141375,0.6223931455364864
0.012,1.7964,1.0,1646.0590049121136,0.12629302739685835,1.3432061416165146,0.7843160677353151,0.28850180000000003,0.6243926797088805
0.0125,1.79609375,1.0,1709.1760595449266,0.13119383281724042,1.3423360108456412,0.7964857647376177,0.2884889375,0.6262948204027201
0.013000000000000001,1.7957750000000001,1.0,1769.50903246093,0.13606714893294203,1.341505044777464,0.8076598942724513,0.28847555,0.6281068379832346
0.0135,1.79544375,1.0,1827.0941351606775,0.1409131291773898,1.3407105661173555,0.8179378355823093,0.2884616375,0.6298351726275228
0.014,1.7951000000000001,1.0,1881.9952145691889,0.14573192698401055,1.3399498975706892,0.827407871151638,0.2884472,0.6314861834874935
0.0145,1.79474375,1.0,1934.280633138336,0.15052369480095024,1.3392205853353145,0.836148514077864,0.2884322375,0.6330656711886691
0.015,1.794375,1.0,1984.051377555511,0.15528858563603504,1.3385200611942198,0.8442295152347385,0.28841675,0.6345796178860384
0.0155,1.79399375,1.0,2031.371814813025,0.16002674928273597,1.3378463582939615,0.8517131225768806,0.2884007375,0.636032647281595
0.016,1.7936,1.0,2076.3128321017402,0.164738335044405,1.3371976091091697,0.8586547981499993,0.2883842,0.637429121208736
0.0165,1.7931937500000001,1.0,2118.959605084193,0.16942349222439407,1.336571946114475,0.8651039908244672,0.2883671375,0.6387733580635044
0.017,1.792775,1.0,2159.39399340977,0.17408236899799692,1.3359676691373497,0.8711048968966031,0.28834955,0.6400692770867868
0.0175,1.7923437500000001,1.0,2197.7210009591277,0.17871511431531917,1.3353829583314891,0.8766969990496946,0.2883314375,0.6413210180510798
0.018000000000000002,1.7919,1.0,2234.0134980743815,0.18332187375320746,1.334816424528318,0.8819157680625154,0.2883128,0.6425317661545699
0.0185,1.79144375,1.0,2268.3456288743855,0.18790279236958937,1.3342667499768985,0.8867930332793057,0.2882936375,0.6437045276144184
0.019,1.790975,1.0,2300.799057272495,0.19245801522239242,1.3337326169262915,0.891357385749477,0.28827395,0.6448422844372741
0.0195,1.79049375,1.0,2331.4539206545924,0.19698768627427973,1.3332127903187831,0.8956345690079995,0.2882537375,0.6459478200509268
0.02,1.79,1.0,2360.39917154538,0.20149195059228106,1.3327060082993922,0.8996477774758318,0.288233,0.6470239542139182
0.0205,1.78949375,1.0,2387.706349631087,0.20597095028540888,1.3322112327341689,0.9034179968143324,0.2882117375,0.6480730128993747
0.021,1.788975,1.0,2413.4406921351074,0.21042482594245407,1.331727530940108,0.9069642217229876,0.28818995000000003,0.6490970829603945
0.021500000000000002,1.78844375,1.0,2437.6714297517146,0.21485371815220755,1.3312539702342052,0.9103036518041812,0.2881676375,0.6500982372578963
0.022,1.7879,1.0,2460.4714505594525,0.21925776750346015,1.3307896179334555,0.9134518859651182,0.2881448,0.6510785352915769
0.0225,1.78734375,1.0,2481.904286204997,0.22363711221113078,1.3303336623856687,0.9164231162852089,0.28812143749999997,0.6520397687974204
0.023,1.786775,1.0,2502.0501044981174,0.22799189446939883,1.3298851609351123,0.9192302304970252,0.28809755,0.6529839942436704
0.0235,1.78619375,1.0,2520.964233189751,0.2323222510191192,1.329443432349989,0.9218850170837206,0.28807313749999996,0.6539127068924049
0.024,1.7856,1.0,2538.6983684288502,0.23662831741449605,1.3290078498624862,0.9243982409754216,0.2880482,0.6548272791098971
0.0245,1.78499375,1.0,2555.3060954926746,0.24091022920973343,1.328577786704792,0.926779737940716,0.2880227375,0.6557290755235337
0.025,1.784375,1.0,2570.8427292858482,0.24516812195903545,1.3281526161090944,0.9290385075353652,0.28799675,0.656619453254966
0.025500000000000002,1.78374375,1.0,2585.365163549418,0.2494021312166062,1.3277317113075808,0.9311827956222364,0.2879702375,0.6574997621282032
0.026000000000000002,1.7831000000000001,1.0,2598.920303820306,0.2536123889436576,1.3273145519577842,0.9332201834461559,0.2879432,0.6583711226934787
0.0265,1.78244375,1.0,2611.571249095824,0.25779903346127686,1.3269004783172438,0.9351576164088663,0.2879156375,0.6592349402932309
0.027,1.781775,1.0,2623.358678381032,0.2619621959645428,1.3264890498460165,0.9370015144989186,0.28788755,0.6600921566665988
0.0275,1.7810937500000001,1.0,2634.32045889369,0.26610200643280985,1.3260798603585306,0.9387577950841857,0.2878589375,0.6609436373359732
0.028,1.7804,1.0,2644.4952516053677,0.2702185948454326,1.3256725036692143,0.940431914583346,0.2878298,0.6617902434752092
0.0285,1.77969375,1.0,2653.922442067801,0.27431209118176547,1.3252665735924958,0.9420289104220907,0.2878001375,0.6626328319623647
0.029,1.778975,1.0,2662.642074897348,0.27838262542116304,1.3248616639428037,0.943553438664345,0.28776995,0.6634722554219161
0.029500000000000002,1.7782437500000001,1.0,2670.694791917416,0.2824303275429798,1.3244573685345662,0.9450098078114391,0.2877392375,0.6643093622564563
0.03,1.7775,1.0,2678.1122272999064,0.2864553199684066,1.3240533687862246,0.9464020182625792,0.287708,0.6651448156195763
0.0305,1.77674375,1.0,2684.943137947398,0.2904577413188265,1.3236491931848366,0.947733765442383,0.2876762375,0.6659795910421056
0.031,1.775975,1.0,2691.2129576159086,0.294437715320894,1.3232445880467423,0.9490085030246779,0.28764395,0.666814210135497
0.0315,1.7751937500000001,1.0,2696.9473217211985,0.2983953656174034,1.3228393007352108,0.9502294405517284,0.2876111375,0.6676491897346942
0.032,1.7744,1.0,2702.1721527631253,0.3023308158511488,1.322433078613511,0.9513995636117729,0.2875778,0.6684850440555276
0.0325,1.77359375,1.0,2706.9136332338585,0.3062441896649246,1.322025669044912,0.9525216522088212,0.2875439375,0.6693222846816864
0.033,1.772775,1.0,2711.198179940872,0.310135610701525,1.3216168193926827,0.9535982974142905,0.28750955,0.6701614205476227
0.0335,1.7719437500000002,1.0,2715.052419745691,0.31400520260374426,1.3212062770200925,0.954631916479539,0.2874746375,0.671002957917384
0.034,1.7711000000000001,1.0,2718.5031667171584,0.3178530890143766,1.32079378929041,0.9556247665679289,0.2874392,0.6718474003593751
0.0345,1.7702437500000001,1.0,2721.5708590848085,0.32167938826610026,1.3203791631142354,0.9565789624248741,0.2874032375,0.6726951270479022
0.035,1.7693750000000001,1.0,2724.2791128743784,0.3254842243113535,1.3199621776969772,0.9574964806449399,0.28736675,0.6735465715669897
0.035500000000000004,1.76849375,1.0,2726.656144757464,0.32926772514692265,1.31954257152638,0.9583791683926838,0.2873297375,0.67440224803032
0.036000000000000004,1.7676,1.0,2728.7171528244,0.33303000728264065,1.3191202024832513,0.9592287661080591,0.2872922,0.6752624246398236
0.0365,1.76669375,1.0,2730.4774159043336,0.3367711872283403,1.3186949284483982,0.9600469058756623,0.2872541375,0.6761273679249693
0.037,1.765775,1.0,2731.9522847067888,0.3404913814938547,1.318266607302628,0.9608351193904835,0.28721555,0.6769973427170755
0.0375,1.76484375,1.0,2733.157173411406,0.3441907065890167,1.3178350969267474,0.9615948452525619,0.2871764375,0.6778726121223377
0.038,1.7639,1.0,2734.1075517052727,0.3478692790236591,1.3174002552015645,0.9623274356538759,0.28713679999999997,0.6787534374935643
0.0385,1.76294375,1.0,2734.8189372684947,0.35152721530761494,1.3169619400078856,0.9630341625142248,0.28709663750000003,0.67964007840063
0.039,1.761975,1.0,2735.3068887067966,0.355164631950717,1.3165200092265186,0.963716223117013,0.28705595,0.6805327925996321
0.0395,1.7609937500000001,1.0,2735.5869989329935,0.3587816454627983,1.3160743207382704,0.9643747452906626,0.2870147375,0.6814318360007685
0.04,1.76,1.0,2735.673898094515,0.36237836994836325,1.3156247414206919,0.965010792536598,0.286973,0.6823374445252597
0.0405,1.7589937500000001,1.0,2735.578635162077,0.3659549154605488,1.3151711708707658,0.965625370206403,0.2869307375,0.6832497865176994
0.041,1.757975,1.0,2735.3158128567115,0.36951140657561266,1.31471347658268,0.9662194270590952,0.28688795,0.6841690932947797
0.0415,1.75694375,1.0,2734.8940055233616,0.3730479526828516,1.3142515809150035,0.9667938612236551,0.2868446375,0.6850954843508323
0.042,1.7559,1.0,2734.321799245044,0.37656466317156245,1.3137854062263064,0.9673495215599379,0.28680079999999997,0.6860290779317344
0.0425,1.75484375,1.0,2733.6077894244736,0.38006164743104204,1.3133148748751582,0.9678872108621333,0.2867564375,0.6869699910139158
0.043000000000000003,1.753775,1.0,2732.760578498852,0.3835390148505871,1.3128399092201284,0.9684076888225063,0.28671155,0.6879183392829777
0.043500000000000004,1.75269375,1.0,2731.7887737890287,0.3869968748194945,1.3123604316197868,0.9689116747756007,0.28666613750000003,0.6888742371119276
0.044,1.7516,1.0,2730.7009854815337,0.39043533672706093,1.3118763644327032,0.9693998502412072,0.2866202,0.6898377975390297
0.0445,1.75049375,1.0,2729.5058247450133,0.3938545099625833,1.3113876300174467,0.9698728612827084,0.2865737375,0.6908091322452733
0.045,1.7493750000000001,1.0,2728.2119019797356,0.39725450391535844,1.3108941507325877,0.9703313206958988,0.28652675,0.6917883515314509
0.0455,1.74824375,1.0,2726.8278252010377,0.400635427974683,1.3103958489366954,0.9707758100420034,0.2864792375,0.6927755642948603
0.046,1.7471,1.0,2725.357643506728,0.4039973634708777,1.3098926884234554,0.9712068807557946,0.2864312,0.6937707961150612
0.0465,1.7459437500000001,1.0,2723.8137455849405,0.4073404557734198,1.309384557103228,0.9716250599160889,0.28638263750000004,0.6947742213840542
0.047,1.744775,1.0,2722.2003812452026,0.41066480743791284,1.3088714168685163,0.9720308480690834,0.28633355,0.6957858668419492
0.0475,1.74359375,1.0,2720.52157692849,0.4139705196636244,1.3083532316258557,0.9724247212347963,0.28628393750000003,0.6968057542917455
0.048,1.7424,1.0,2718.78135667807,0.4172576936498222,1.307829965281782,0.9728071323697032,0.2862338,0.6978339045746713
0.0485,1.74119375,1.0,2716.9837416746227,0.42052643059577366,1.3073015817428308,0.973178512694712,0.2861831375,0.6988703375585277
0.049,1.739975,1.0,2715.132749798476,0.4237768317007465,1.306768044915538,0.9735392729348543,0.28613195,0.6999150721259515
0.0495,1.73874375,1.0,2713.232395222036,0.4270089981640083,1.3062293187064393,0.9738898044773103,0.2860802375,0.7009681261625957
0.05,1.7375,1.0,2711.286688030543,0.43022303118482663,1.30568536702207,0.974230480453843,0.286028,0.7020295165452243
0.0505,1.73624375,1.0,2709.2996338716157,0.4334190319624691,1.3051361537689663,0.9745616567532139,0.2859752375,0.703099259129725
0.051000000000000004,1.734975,1.0,2707.2752336340022,0.4365971016962034,1.3045816428536636,0.9748836729686936,0.28592195,0.7041773687390411
0.051500000000000004,1.73369375,1.0,2705.21748315502,0.43975734158529706,1.3040217981826976,0.9751968532853716,0.2858681375,0.7052638591510176
0.052000000000000005,1.7324,1.0,2703.1303729567203,0.44289985282901767,1.303456583662604,0.9755015073115818,0.2858138,0.706358743086164
0.0525,1.73109375,1.0,2701.0178880114518,0.44602473662663283,1.3028859631999186,0.9757979308584265,0.28575893750000003,0.7074620321953367
0.053,1.729775,1.0,2698.884007535724,0.44913209417741023,1.302309900701177,0.9760864066710577,0.28570355000000003,0.708573737047336
0.0535,1.72844375,1.0,2696.7303476447446,0.4522220069855283,1.3017283816284682,0.9763672044456344,0.2856476375,0.7096938256373262
0.054,1.7271,1.0,2694.557754059201,0.4552945696420686,1.3011413984707874,0.9766405839648513,0.2855912,0.7108222516806711
0.0545,1.7257437500000001,1.0,2692.372123794367,0.4583499185634384,1.3005488974771915,0.9769067951537598,0.2855342375,0.7119590568407036
0.055,1.724375,1.0,2690.174800993383,0.4613881453397687,1.2999508664960224,0.9771660753493624,0.28547675,0.7131042018121344
0.0555,1.72299375,1.0,2687.967127726617,0.46440934156119074,1.299347293375622,0.9774186518753386,0.2854187375,0.7142576465200551
0.056,1.7216,1.0,2685.75044396204,0.4674135988178356,1.298738165964332,0.9776647425448998,0.2853602,0.7154193501156481
0.0565,1.72019375,1.0,2683.526087539206,0.4704010086998344,1.298123472110494,0.9779045561343965,0.28530113749999997,0.7165892709718863
0.057,1.718775,1.0,2681.295394146635,0.4733716627973183,1.2975031996624498,0.9781382928296032,0.28524155,0.7177673666792237
0.0575,1.71734375,1.0,2679.0596973016845,0.47632565270041843,1.2968773364685409,0.978366144646466,0.2851814375,0.718953594041278
0.058,1.7159,1.0,2676.8203283347134,0.4792630699992658,1.2962458703771096,0.978588295827964,0.2851208,0.7201479090705
0.0585,1.71444375,1.0,2674.5786163760527,0.4821840062839917,1.2956087892364971,0.9788049232186261,0.2850596375,0.72135026698384
0.059000000000000004,1.7129750000000001,1.0,2672.335888345902,0.48508855314472715,1.2949660808950454,0.9790161966181203,0.28499795,0.7225606221983978
0.059500000000000004,1.71149375,1.0,2670.0934689482724,0.4879768021716033,1.294317733201096,0.979222279115246,0.2849357375,0.7237789283270679
0.06,1.71,1.0,2667.8526806674654,0.4908488449547512,1.293663734002991,0.979423327403559,0.284873,0.7250051381741727
0.0605,1.7084937500000001,1.0,2665.6148437683323,0.4937047730843021,1.293004071149072,0.9796194920797695,0.2848097375,0.7262392037310892
0.061,1.7069750000000001,1.0,2663.3812762995935,0.49654467815038705,1.2923387324876805,0.9798109179259831,0.28474595,0.7274810761718635
0.0615,1.7054437500000001,1.0,2661.1532941002292,0.49936865174313727,1.2916677058671586,0.9799977441767729,0.2846816375,0.7287307058488158
0.062,1.7039,1.0,2658.9322108098913,0.5021767854526837,1.2909909791358478,0.9801801047720119,0.2846168,0.7299880422881396
0.0625,1.70234375,1.0,2656.7193378814877,0.5049691708691577,1.2903085401420897,0.9803581285963181,0.2845514375,0.7312530341854868
0.063,1.7007750000000001,1.0,2654.514860380903,0.5077458889147662,1.289620387096258,0.9805319394410452,0.28448555,0.7325256102621611
0.0635,1.69919375,1.0,2652.3148831851013,0.5105069955891332,1.2889265558291718,0.9807016565940052,0.28441913750000003,0.7338056292624122
0.064,1.6976,1.0,2650.1253772280816,0.513252637826075,1.2882269912193396,0.9808673970091606,0.2843522,0.7350931171321644
0.0645,1.69599375,1.0,2647.946453620769,0.5159828974356622,1.2875216921320667,0.9810292713077411,0.2842847375,0.7363879992140085
0.065,1.694375,1.0,2645.7782233243265,0.518697856227965,1.2868106574326585,0.981187386101417,0.28421675,0.7376902002010401
0.0655,1.69274375,1.0,2643.6207971524495,0.5213975960130544,1.2860938859864204,0.9813418441649842,0.2841482375,0.7389996441364448
0.066,1.6911,1.0,2641.474285773657,0.5240821986010004,1.2853713766586579,0.9814927446004009,0.2840792,0.7403162544130817
0.0665,1.6894437500000001,1.0,2639.338799713833,0.5267517458018738,1.2846431283146762,0.9816401829926732,0.2840096375,0.7416399537730701
0.067,1.687775,1.0,2637.2144493579945,0.529406319425745,1.2839091398197808,0.9817842515580474,0.28393955,0.7429706643073729
0.0675,1.68609375,1.0,2635.1013449534094,0.5320460012826846,1.2831694100392774,0.9819250392849376,0.2838689375,0.7443083074553813
0.068,1.6844000000000001,1.0,2632.99959661158,0.534670873182763,1.2824239378384712,0.9820626320679966,0.2837978,0.7456528040045005
0.0685,1.68269375,1.0,2630.909314310611,0.5372810169360507,1.2816727220826676,0.9821971128357063,0.2837261375,0.7470040740897332
0.069,1.680975,1.0,2628.8306078978662,0.5398765143526183,1.2809157616371722,0.982328561671843,0.28365395,0.7483620371932636
0.0695,1.67924375,1.0,2626.7635870924228,0.5424574472425362,1.2801530553672902,0.9824570559311531,0.28358123749999997,0.7497266121440436
0.07,1.6775,1.0,2624.708361487592,0.5450238974158749,1.279384602138327,0.9825826703495513,0.283508,0.7510977171173747
0.07050000000000001,1.67574375,1.0,2622.665040553368,0.5475759466827049,1.278610400815588,0.9827054771491347,0.2834342375,0.7524752696344942
0.07100000000000001,1.673975,1.0,2620.6337336390025,0.5501136768530969,1.2778304502643791,0.9828255461382929,0.28335995,0.7538591865621568
0.07150000000000001,1.67219375,1.0,2618.6145499757395,0.5526371697371211,1.2770447493500052,0.9829429448071705,0.2832851375,0.7552493841122219
0.07200000000000001,1.6704,1.0,2616.607598679479,0.5551465071448481,1.2762532969377718,0.9830577384187293,0.2832098,0.756645777841235
0.0725,1.66859375,1.0,2614.6129887531465,0.5576417708863485,1.2754560918929845,0.9831699900956409,0.2831339375,0.7580482826500118
0.073,1.6667750000000001,1.0,2612.630829089836,0.5601230427716928,1.2746531330809485,0.9832797609032239,0.28305755,0.7594568127832232
0.0735,1.66494375,1.0,2610.6579697806746,0.5625903745216343,1.2738444496539434,0.983387109537675,0.2829806375,0.7608712289340844
0.074,1.6631,1.0,2608.694570185837,0.5650438542243058,1.2730300400402037,0.9834920935554973,0.2829032,0.7622914452667244
0.0745,1.6612437500000001,1.0,2606.7441142490497,0.567483592775547,1.27220987174343,0.9835947685963063,0.2828252375,0.763717428971382
0.075,1.659375,1.0,2604.806261741741,0.5699096628061847,1.2713839478018938,0.9836951879121815,0.28274675,0.7651490844242952
0.0755,1.65749375,1.0,2602.8806730036054,0.5723221369470456,1.270552271253866,0.9837934030772952,0.2826677375,0.7665863154316791
