Time [s],Phi [rad],STIM [ ],Fsee [N],Gamma [ ],Lcerel [ ],q [ ],Lmtc [m],fisomrel [ ]
0.0,1.8,1.0,17.9678929182441,1.1245978395805306e-05,1.379339663903916,0.0050000336758111415,0.288653,0.5411397301953575
0.0005,1.79999375,1.0,18.277576607103835,0.005620392206145332,1.37930229532034,0.012943972483720707,0.2886527375,0.5412301299895459
0.001,1.799975,1.0,21.620084306342847,0.011198075558473701,1.3789381282064215,0.035615066429345,0.28865195,0.5421106345389467
0.0015,1.79994375,1.0,31.072813338519644,0.016744472518096597,1.3780458989611537,0.07061058794721935,0.2886506375,0.5442643440008074
0.002,1.7999,1.0,53.5896442433602,0.022259758576078603,1.376367660944807,0.1147283567537841,0.2886488,0.5483016064889503
0.0025,1.79984375,1.0,97.13082693944946,0.027744108239401214,1.3739345943604426,0.1645861200753503,0.28864643749999996,0.5541228288918726
0.003,1.7997750000000001,1.0,160.97362253513447,0.03319769503867263,1.3712137652480647,0.2172920373703775,0.28864354999999997,0.5605878204411822
0.0035,1.79969375,1.0,237.7007795420555,0.03862069152772525,1.3685841967984902,0.27062441013142646,0.2886401375,0.566791102903099
0.004,1.7996,1.0,321.48533886057106,0.0440132692943964,1.3661556006205369,0.32292695838912944,0.2886362,0.5724811101218557
0.0045000000000000005,1.7994937500000001,1.0,409.28699999068664,0.04937559896571326,1.3639223623197627,0.3730450989718421,0.2886317375,0.5776802111084292
0.005,1.799375,1.0,499.4331503741673,0.05470785019898188,1.3618579248706644,0.4202573707479837,0.28862675,0.582458042756048
0.0055,1.79924375,1.0,590.8102549175883,0.06001019172923195,1.3599384474591427,0.46418287427145677,0.2886212375,0.5868760014052996
0.006,1.7991000000000001,1.0,682.5379782324619,0.06528279131243417,1.3581460535680532,0.5046883958447111,0.2886152,0.5909802433470319
0.006500000000000001,1.79894375,1.0,773.9007758776094,0.07052581578170034,1.356466920434028,0.5418084754373539,0.2886086375,0.594806551773853
0.007,1.798775,1.0,864.3052437125225,0.075739431027073,1.3548900811008473,0.5756838117714133,0.28860155,0.5983833875517667
0.0075,1.79859375,1.0,953.2620910627089,0.0809238020120482,1.3534064888655462,0.6065163139995031,0.2885939375,0.6017342271292303
0.008,1.7984,1.0,1040.378343568457,0.08607909277358322,1.3520083535208833,0.6345378612582786,0.2885858,0.6048792061591736
0.0085,1.79819375,1.0,1125.3370973899855,0.0912054664463351,1.3506889177467793,0.6599896815005524,0.2885771375,0.6078357237550785
0.009000000000000001,1.797975,1.0,1207.8896992181578,0.09630308475240174,1.3494421782662562,0.6831092097132913,0.28856795,0.6106191455629273
0.0095,1.79774375,1.0,1287.8839115827059,0.10137210995504035,1.3482622335572207,0.7041220270104304,0.2885582375,0.6132443133856372
0.01,1.7975,1.0,1365.1877039157184,0.10641270249519179,1.3471441198121743,0.7232381806115913,0.288548,0.6157237247443583
0.0105,1.79724375,1.0,1439.687600653807,0.11142502088271596,1.3460835946778096,0.7406502148821881,0.2885372375,0.6180680659913445
0.011,1.796975,1.0,1511.333498475621,0.11640922362747275,1.345076415800819,0.7565324660521525,0.28852595000000003,0.6202878420218758
0.0115,1.79669375,1.0,1580.1231450826424,0.12136546889210645,1.34411845758126,0.7710417093842867,0.2885141375,0.6223931350506844
0.012,1.7964,1.0,1646.069047674913,0.1262939140574032,1.3432060240679797,0.7843183786160409,0.28850180000000003,0.624392937000795
0.0125,1.79609375,1.0,1709.1841613934696,0.13119471458478418,1.3423359177825267,0.7964878929822715,0.2884889375,0.6262950235841682
0.013000000000000001,1.7957750000000001,1.0,1769.5020814642814,0.136068025166948,1.3415051232483384,0.807661916507394,0.28847555,0.6281066670763304
0.0135,1.79544375,1.0,1827.0770811745447,0.1409139999160293,1.3407107555844675,0.8179397402051508,0.2884616375,0.6298347609345065
0.014,1.7951000000000001,1.0,1881.988401089652,0.14573279332141215,1.339949972154998,0.827409588322129,0.2884472,0.6314860217851281
0.0145,1.79474375,1.0,1934.2973178836583,0.1505245574102047,1.3392204051803305,0.8361500121632417,0.2884322375,0.6330660609352436
0.015,1.794375,1.0,1984.0657010298783,0.15528944303845132,1.338519908487372,0.8442309078833289,0.28841675,0.6345799475692006
0.0155,1.79399375,1.0,2031.373939914259,0.1600276010621963,1.337846335903029,0.8517144532012154,0.2884007375,0.6360326955258218
0.016,1.7936,1.0,2076.3040406173072,0.16473918132285803,1.3371977007319897,0.8586560682159292,0.2883842,0.6374289241742969
0.0165,1.7931937500000001,1.0,2118.9585732111595,0.16942433446383906,1.3365719567596388,0.8651051488541395,0.2883671375,0.6387733352136091
0.017,1.792775,1.0,2159.4115512590524,0.17408320788487705,1.3359674897086673,0.8711059212432102,0.28834955,0.6400696615397211
0.0175,1.7923437500000001,1.0,2197.7371488611793,0.17871594818954492,1.3353827947566854,0.8766979568317802,0.2883314375,0.641321367924729
0.018000000000000002,1.7919,1.0,2234.0192157993083,0.1833227019814155,1.3348163670813034,0.881916689034419,0.2883128,0.6425318888216771
0.0185,1.79144375,1.0,2268.3430440478937,0.1879036149917476,1.3342667757498579,0.8867939150313366,0.2882936375,0.6437044726715377
0.019,1.790975,1.0,2300.800181452929,0.1924588335485517,1.3337326057965777,0.8913582026851743,0.28827395,0.6448423081257209
0.0195,1.79049375,1.0,2331.4690396883116,0.1969885018706736,1.3332126416234658,0.8956353030763149,0.2882537375,0.645948136040535
0.02,1.79,1.0,2360.416847155479,0.2014927620416577,1.332705835529425,0.8996484604478704,0.288233,0.6470243208056989
0.0205,1.78949375,1.0,2387.7159109213308,0.20597175614504845,1.332211139813359,0.9034186552375051,0.2882117375,0.6480732097701176
0.021,1.788975,1.0,2413.4431921045025,0.21042562626439032,1.3317275067741707,0.9069648553616582,0.28818995000000003,0.6490971340860731
0.021500000000000002,1.78844375,1.0,2437.667993953532,0.2148545125692113,1.3312540032808668,0.9103042600112029,0.2881676375,0.6500981674438758
0.022,1.7879,1.0,2460.4746599162922,0.21925855808759073,1.3307895872081592,0.9134524471824107,0.2881448,0.6510786001105091
0.0225,1.78734375,1.0,2481.925243516872,0.22363790160278288,1.3303334626160122,0.916423614405531,0.28812143749999997,0.6520401896559812
0.023,1.786775,1.0,2502.0748775271095,0.22799268022455546,1.3298849257458918,0.9192306941204494,0.28809755,0.652984489048557
0.0235,1.78619375,1.0,2520.9810981987785,0.2323230310626762,1.3294432728392647,0.9218854683488436,0.28807313749999996,0.6539130420311028
0.024,1.7856,1.0,2538.7036442761846,0.23662909122691284,1.3290078001375976,0.9243986869212683,0.2880482,0.6548273834458503
0.0245,1.78499375,1.0,2555.304266989996,0.2409109978270331,1.3285778038823568,0.9267801721304894,0.2880227375,0.6557290395275749
0.025,1.784375,1.0,2570.8357345403974,0.24516888444435045,1.3281526816212414,0.9290389271904255,0.28799675,0.6566193161504724
0.025500000000000002,1.78374375,1.0,2585.364508538103,0.24940289076269573,1.327731717425099,0.931183185283744,0.2879702375,0.6574997493418209
0.026000000000000002,1.7831000000000001,1.0,2598.9333903897923,0.2536131488548966,1.3273144300542865,0.9332205353005484,0.2879432,0.6583713771627475
0.0265,1.78244375,1.0,2611.5852410541843,0.25779979042963974,1.3269003482959865,0.9351579502120215,0.2879156375,0.6592352113646771
0.027,1.781775,1.0,2623.3639534388763,0.26196294719561164,1.3264890009373806,0.9370018440014974,0.28788755,0.6600922585041806
0.0275,1.7810937500000001,1.0,2634.3143623933574,0.26610275086149887,1.3260799167656512,0.9387581239238802,0.2878589375,0.6609435200322258
0.028,1.7804,1.0,2644.482159624922,0.270219333135988,1.3256726245679804,0.9404322372442937,0.2878298,0.6617899923692707
0.0285,1.77969375,1.0,2653.90224678771,0.27431282218076075,1.3252667597557541,0.9420292270461025,0.2878001375,0.6626324457844149
0.029,1.778975,1.0,2662.621839217752,0.2783833515326815,1.3248618501727862,0.943553741484561,0.28776995,0.6634718695864611
0.029500000000000002,1.7782437500000001,1.0,2670.6844132211872,0.2824310521335422,1.324457463906035,0.9450100864006938,0.2877392375,0.6643091649096431
0.03,1.7775,1.0,2678.1187188427975,0.2864560496412021,1.3240533092171765,0.9464022676143492,0.287708,0.6651449387289445
0.0305,1.77674375,1.0,2684.9539202630963,0.29045846971352063,1.323649094367888,0.9477339999118131,0.2876762375,0.665979795009075
0.031,1.775975,1.0,2691.219558729497,0.2944384380083572,1.3232445276198463,0.9490087318517468,0.28764395,0.6668143347060663
0.0315,1.7751937500000001,1.0,2696.9455173743613,0.29839608018357106,1.322839317234728,0.9502296681656779,0.2876111375,0.6676491557634399
0.032,1.7744,1.0,2702.1619879203226,0.3023315218970218,1.3224331714742095,0.9513997900122925,0.2875778,0.6684848531029434
0.0325,1.77359375,1.0,2706.8994392724903,0.30624488880656864,1.322025798599968,0.9525218733142922,0.2875439375,0.6693220186098625
0.033,1.772775,1.0,2711.1804582931386,0.31013630298354045,1.3216169810188054,0.9535985130330498,0.28750955,0.6701610890317262
0.0335,1.7719437500000002,1.0,2715.0353523534113,0.3140058911018986,1.3212064325686979,0.9546321234219024,0.2874746375,0.6710026392745234
0.034,1.7711000000000001,1.0,2718.4923317644934,0.31785377736871734,1.3207938879751289,0.9556249605402856,0.2874392,0.671847198462374
0.0345,1.7702437500000001,1.0,2721.5702127045606,0.3216800812489714,1.3203791689981406,0.9565791412817799,0.2874032375,0.6726951150257043
0.035,1.7693750000000001,1.0,2724.2879385916476,0.3254849222076354,1.319962097397774,0.9574966457923243,0.28736675,0.673546735423525
0.035500000000000004,1.76849375,1.0,2726.6645667200455,0.32926841970968407,1.3195424949340706,0.9583793278876386,0.2873297375,0.674402404117696
0.036000000000000004,1.7676,1.0,2728.719255600616,0.333030693220092,1.319120183367072,0.9592289245624742,0.2872922,0.6752624635451732
0.0365,1.76669375,1.0,2730.4712530060083,0.3367718622038338,1.3186949844568199,0.9600470646802344,0.2872541375,0.676127254088225
0.037,1.765775,1.0,2731.939884719628,0.34049204612588435,1.3182667199633555,0.9608352769220403,0.28721555,0.6769971140426245
0.0375,1.76484375,1.0,2733.1417504873134,0.3441913636600864,1.3178352370216742,0.9615949993802156,0.2871764375,0.677872328148521
0.038,1.7639,1.0,2734.0938653305675,0.3478699317548703,1.3174003795008264,0.9623275830847141,0.28713679999999997,0.6787531858824342
0.0385,1.76294375,1.0,2734.8113498011785,0.3515278661865603,1.3169620089080447,0.9630343003020481,0.28709663750000003,0.6796399391230121
0.039,1.761975,1.0,2735.3065385136483,0.35516528214686516,1.3165200124062615,0.9637163509107204,0.28705595,0.6805327861809314
0.0395,1.7609937500000001,1.0,2735.5917987414905,0.3587822948274936,1.31607427715841,0.9643748651675302,0.2870147375,0.6814319238481781
0.04,1.7600019048769264,1.0,2735.777630624063,0.3623790173304451,1.3156246598716865,0.9650109053715968,0.2869730800048309,0.6823376086762825
0.0405,1.7590088057408693,1.0,2736.304337872104,0.36595556703679927,1.315171381643989,0.9656255064912032,0.2869313698411165,0.683249362859117
0.041,1.758015706604812,1.0,2737.204006162203,0.36951205635148704,1.314714718460367,0.9662196490190684,0.2868896596774021,0.6841666007155995
0.0415,1.757022607468755,1.0,2738.4493218049956,0.3730485964651017,1.314254919853915,0.966794256314699,0.2868479495136877,0.68508879256253
0.042,1.7560295083326978,1.0,2740.013015096176,0.3765652985682366,1.313792235357728,0.9673502008528384,0.2868062393499733,0.6860154114451538
0.0425,1.7550364091966408,1.0,2741.867843660097,0.3800622738514851,1.3133269145049005,0.9678883075553631,0.28676452918625894,0.6869459331850727
0.043000000000000003,1.7540433100605837,1.0,2743.98657717336,0.38353963350544057,1.3128592068285274,0.9684093568727358,0.2867228190225445,0.6878798364241859
0.043500000000000004,1.7530502109245265,1.0,2746.3453613472584,0.38699748723600413,1.312389331252378,0.9689140849539117,0.28668110885883014,0.6888166636469772
0.044,1.7520571117884693,1.0,2748.91995863655,0.3904359461145479,1.3119175100987452,0.9694031896138385,0.2866393986951157,0.6897559531052269
0.0445,1.7510640126524122,1.0,2751.6899424551775,0.3938551196191943,1.311443931019642,0.9698773293286284,0.28659768853140133,0.690697314512221
0.045,1.7500709135163552,1.0,2754.640527314312,0.3972551144719489,1.3109687304483617,0.9703371242857587,0.2865559783676869,0.6916404613626728
0.0455,1.749077814380298,1.0,2757.756913924673,0.4006360373948174,1.3104920448181976,0.9707831630553055,0.2865142682039725,0.6925851087519592
0.046,1.748084715244241,1.0,2761.0242844973877,0.4039979951098054,1.3100140105624432,0.9712160045110549,0.2864725580402581,0.6935309733896345
0.0465,1.7470916161081838,1.0,2764.4277984584655,0.4073410943389186,1.309534764114391,0.9716361796172148,0.2864308478765437,0.6944777736117611
0.047,1.7460985169721266,1.0,2767.954583424036,0.41066543992258103,1.309054423901307,0.9720441915390547,0.2863891377128293,0.6954252648821148
0.0475,1.7451054178360694,1.0,2771.595775040093,0.41397113390171697,1.3085730719722444,0.9724405158750523,0.2863474275491149,0.696373275681161
0.048,1.7441123187000125,1.0,2775.3293965754965,0.4172582920538616,1.3080909084238146,0.972825615280332,0.2863057173854005,0.697321403528663
0.0485,1.7431192195639553,1.0,2779.148880769354,0.42052701552099775,1.3076079940515086,0.9731999186537691,0.2862640072216861,0.6982695216696653
0.049,1.7421261204278982,1.0,2783.047645763995,0.4237774054451081,1.307124389650816,0.9735638345717349,0.28622229705797175,0.6992175040867785
0.0495,1.741133021291841,1.0,2787.019094133256,0.4270095629681755,1.3066401560172276,0.9739177524383092,0.2861805868942573,0.7001652255029666
0.05,1.7401399221557838,1.0,2791.056611994608,0.4302235892321826,1.3061553539462334,0.9742620435603537,0.28613887673054295,0.7011125613841089
0.0505,1.7391468230197267,1.0,2795.1535682005106,0.43341958537911235,1.3056700442333236,0.9745970621529896,0.2860971665668285,0.7020593879413202
0.051000000000000004,1.7381537238836697,1.0,2799.3033136143663,0.4365976525509474,1.3051842876739888,0.9749231462805661,0.28605545640311414,0.703005582133036
0.051500000000000004,1.7371606247476126,1.0,2803.4991804663678,0.43975789188967057,1.304698145063719,0.9752406187377995,0.28601374623939974,0.7039510216668652
0.052000000000000005,1.7361675256115554,1.0,2807.734481792755,0.44290040453726454,1.3042116771980046,0.9755497878753758,0.28597203607568533,0.7048955850012024
0.0525,1.7351744264754982,1.0,2812.0032568254637,0.44602528980853423,1.3037249381928615,0.9758509477606215,0.28593032591197093,0.7058391642848931
0.053,1.734181327339441,1.0,2816.3054761846147,0.4491326355236601,1.3032379289283638,0.97614437504648,0.2858886157482565,0.706781755290933
0.0535,1.733188228203384,1.0,2820.6289721266194,0.452222561786051,1.3027507588223164,0.9764303443522029,0.2858469055845421,0.7077231442363253
0.054,1.732195129067327,1.0,2824.971613167697,0.4552951628366383,1.3022634472885664,0.9767091103317527,0.2858051954208277,0.7086632921978064
0.0545,1.7312020299312698,1.0,2829.331261287237,0.45835053291635336,1.3017760137409613,0.9769809167790194,0.2857634852571133,0.7096021604930329
0.055,1.7302089307952127,1.0,2833.7057718709,0.4613887662661275,1.3012884775933484,0.9772459971827088,0.2857217750933989,0.7105397106807474
0.0555,1.7292158316591555,1.0,2838.0929936626153,0.46440995712689226,1.300800858259575,0.9775045752484155,0.2856800649296845,0.7114759045609156
0.056,1.7282227325230983,1.0,2842.49076872419,0.4674141997395788,1.3003131751534882,0.977756865390079,0.2856383547659701,0.7124107041748415
0.0565,1.7272296333870414,1.0,2846.896932404018,0.4704015883451187,1.299825447688936,0.9780030731928543,0.28559664460225576,0.7133440718052588
0.057,1.7262365342509842,1.0,2851.3093133135426,0.47337221718444317,1.299337695279765,0.9782433958492822,0.28555493443854135,0.7142759699763983
0.0575,1.725243435114927,1.0,2855.7257333126054,0.4763261804984837,1.298849937339823,0.9784780225705043,0.28551322427482695,0.7152063614540303
0.058,1.72425033597887,1.0,2860.144007502722,0.4792635725281716,1.2983621932829572,0.9787071349741356,0.28547151411111255,0.7161352092454825
0.0585,1.7232572368428127,1.0,2864.5619442288466,0.48218448751443826,1.2978744825230148,0.9789309074503039,0.28542980394739814,0.717062476599637
0.059000000000000004,1.7222641377067556,1.0,2868.977345089659,0.4850890196982151,1.2973868244738436,0.979149507507241,0.28538809378368374,0.7179881270068984
0.059500000000000004,1.7212710385706984,1.0,2873.3901208541415,0.4879772469554616,1.2968992198043132,0.9793630937296347,0.28534638361996933,0.7189121596925705
0.06,1.7202779394346415,1.0,2877.798323948963,0.490849271328902,1.2964116856320482,0.9795718214262064,0.28530467345625493,0.7198345427958157
0.0605,1.7192848402985843,1.0,2882.1992804607294,0.49370519886470415,1.2959242454473874,0.9797758405705514,0.28526296329254053,0.7207552326415638
0.061,1.7182917411625271,1.0,2886.5925553407,0.49654511605633245,1.295436902880462,0.9799752928004113,0.2852212531288261,0.7216742232665831
0.0615,1.71729864202647,1.0,2890.977712351319,0.4993691093972512,1.2949496615614042,0.9801703144025761,0.2851795429651117,0.7225915087525929
0.062,1.7163055428904128,1.0,2895.3543140742554,0.5021772653809249,1.2944625251203452,0.980361036555899,0.2851378328013973,0.7235070832262438
0.0625,1.7153124437543559,1.0,2899.7219219186927,0.5049696705008176,1.2939754971874171,0.9805475855615061,0.2850961226376829,0.7244209408590909
0.063,1.7143193446182987,1.0,2904.080096129988,0.507746411250394,1.2934885813927517,0.9807300830609672,0.28505441247396857,0.7253330758675707
0.0635,1.7133262454822415,1.0,2908.4283957982775,0.5105075741231183,1.2930017813664803,0.9809086462431426,0.28501270231025416,0.7262434825129762
0.064,1.7123331463461844,1.0,2912.7663788680597,0.5132532456124548,1.292515100738735,0.9810833880403725,0.28497099214653976,0.7271521551014277
0.0645,1.7113400472101272,1.0,2917.093602147381,0.515983512211868,1.2920285431396472,0.9812544173146345,0.28492928198282536,0.7280590879838496
0.065,1.7103469480740703,1.0,2921.409621317697,0.5186984604148221,1.2915421121993491,0.9814218390342474,0.28488757181911095,0.728964275555938
0.0655,1.7093538489380131,1.0,2925.713990943823,0.5213981767147816,1.291055811547972,0.9815857544416711,0.28484586165539655,0.7298677122581358
0.066,1.708360749801956,1.0,2930.006264484366,0.5240827476052108,1.2905696448156476,0.9817462612129101,0.28480415149168214,0.7307693925756007
0.0665,1.7073676506658988,1.0,2934.285994302402,0.5267522595795742,1.290083615632508,0.9819034536089983,0.28476244132796774,0.7316693110381741
0.067,1.7063745515298416,1.0,2938.5527316761204,0.5294067991313358,1.2895977276286847,0.9820574226200094,0.28472073116425334,0.7325674622203512
0.0675,1.7053814523937845,1.0,2942.806214731039,0.5320464435696317,1.289111982789253,0.9822082554234925,0.28467902100053893,0.7334638437744474
0.068,1.7043883532577273,1.0,2947.047308642058,0.5346712317698061,1.2886263732356429,0.9823560332833877,0.28463731083682453,0.7343584715332888
0.0685,1.7033952541216704,1.0,2951.2745577256806,0.5372813230848755,1.2881409114006805,0.9825008433809724,0.2845956006731102,0.7352513239068406
0.069,1.7024021549856132,1.0,2955.488004632144,0.5398767948577893,1.2876555965945422,0.9826427641135623,0.2845538905093957,0.7361424035326467
0.0695,1.701409055849556,1.0,2959.6876923815466,0.5424577244314973,1.2871704281274048,0.9827818712661514,0.2845121803456814,0.7370317130392954
0.07,1.7004159567134989,1.0,2963.873664360748,0.5450241891489491,1.2866854053094448,0.9829182381164314,0.2844704701819669,0.7379192550464266
0.07050000000000001,1.6994228575774417,1.0,2968.0459643221657,0.5475762663530943,1.2862005274508383,0.9830519355349043,0.28442876001825257,0.7388050321647384
0.07100000000000001,1.6984297584413848,1.0,2972.204636380489,0.5501140333868826,1.285715793861762,0.9831830320803484,0.28438704985453817,0.739689046995992
0.07150000000000001,1.6974366593053276,1.0,2976.3497250112914,0.5526375675932637,1.2852312038523925,0.983311594090883,0.28434533969082376,0.7405713021330195
