Time [s],Phi [rad],STIM [ ],Fsee [N],Gamma [ ],Lcerel [ ],q [ ],Lmtc [m],fisomrel [ ]
0.0,1.8,1.0,17.965657969146267,1.122169582998065e-05,1.379339914295625,0.00500003353113433,0.288653,0.5411391244329969
0.0005,1.79999375,1.0,18.27554010811183,0.005620368059786303,1.379302521536887,0.012943909571427738,0.2886527375,0.5412295827670898
0.001,1.799975,1.0,21.61815147355659,0.011198051547556005,1.3789383256134797,0.03561495458097169,0.28865195,0.5421101574657283
0.0015,1.79994375,1.0,31.070856225725507,0.01674444864186194,1.3780460656934705,0.07061043987091269,0.2886506375,0.5442639420079343
0.002,1.7999,1.0,53.58757386143277,0.02225973483377001,1.376367795252721,0.11472818272695497,0.2886488,0.5483012841090751
0.0025,1.79984375,1.0,97.12869311421622,0.02774408463026861,1.3739346971786592,0.16458592809696498,0.28864643749999996,0.5541225836922974
0.003,1.7997750000000001,1.0,160.971558806633,0.033197671561968393,1.3712138424919256,0.21729183509355893,0.28864354999999997,0.5605876375713644
0.0035,1.79969375,1.0,237.69885844982298,0.03862066818270615,1.3685842559711605,0.27062420517897157,0.2886401375,0.5667909638079912
0.004,1.7996,1.0,321.48356980612795,0.04401324608032407,1.3661556474747436,0.3229267570880883,0.2886362,0.5724810007090284
0.0045000000000000005,1.7994937500000001,1.0,409.2853699734067,0.049375575881854775,1.3639224005816197,0.3730449057900624,0.2886317375,0.5776801223052013
0.005,1.799375,1.0,499.4316533861662,0.05470782724462187,1.3618579566809332,0.42025718831925024,0.28862675,0.582457969345344
0.0055,1.79924375,1.0,590.8088626089975,0.06001016890360209,1.3599384746610355,0.46418270423861063,0.2886212375,0.5868759389626503
0.006,1.7991000000000001,1.0,682.5366984877598,0.06528276861482782,1.358146076830078,0.5046882384877571,0.2886152,0.590980190214362
0.006500000000000001,1.79894375,1.0,773.9022488131304,0.07052579321245225,1.3564668952903813,0.5418083017943977,0.2886086375,0.5948066089350648
0.007,1.798775,1.0,864.3064411924491,0.07573940858075272,1.3548900617579334,0.5756836559187173,0.28860155,0.5983834313311551
0.0075,1.79859375,1.0,953.2630170364715,0.08092377969784094,1.3534064746232572,0.6065161745625414,0.2885939375,0.6017342592294677
0.008,1.7984,1.0,1040.3791616745393,0.0860790705884192,1.3520083414760369,0.6345377353240097,0.2885858,0.6048792331992661
0.0085,1.79819375,1.0,1125.335120122186,0.09120544421311017,1.3506889457373494,0.6599895890537189,0.2885771375,0.6078356611531455
0.009000000000000001,1.797975,1.0,1207.9037249296207,0.09630306322377732,1.3494419866213065,0.6831090061210153,0.28856795,0.6106195726599318
0.0095,1.79774375,1.0,1287.8944971456751,0.10137208865597407,1.3482620934817513,0.7041218643586185,0.2885582375,0.6132446245016197
0.01,1.7975,1.0,1365.1725027856173,0.10641268059072213,1.3471443151868538,0.7232382001434724,0.288548,0.6157232921985022
0.0105,1.79724375,1.0,1439.6599683539218,0.11142499863044092,1.346083940515533,0.7406503110889432,0.2885372375,0.6180673026697738
0.011,1.796975,1.0,1511.3220033598604,0.11640920208224972,1.3450765562183715,0.7565324654616229,0.28852595000000003,0.6202875329989448
0.0115,1.79669375,1.0,1580.1218844027885,0.12136544795992629,1.344118472642017,0.7710416557344081,0.2885141375,0.6223931019978488
0.012,1.7964,1.0,1646.060566480268,0.12629389291075857,1.3432061233386476,0.7843183659729388,0.28850180000000003,0.6243927197157431
0.0125,1.79609375,1.0,1709.1628857888415,0.13119469292586983,1.3423361621684633,0.7964879429091625,0.2884889375,0.6262944900247691
0.013000000000000001,1.7957750000000001,1.0,1769.489806125096,0.13606800409198258,1.3415052618269143,0.8076619247343528,0.28847555,0.6281063652567944
0.0135,1.79544375,1.0,1827.0786635419738,0.1409139798030369,1.3407107380045762,0.8179396910839583,0.2884616375,0.6298347991338553
0.014,1.7951000000000001,1.0,1881.9828020776033,0.1457327729777046,1.3399500334451404,0.8274095714878398,0.2884472,0.6314858889051274
0.0145,1.79474375,1.0,1934.2765870614753,0.15052453622640924,1.3392206290232973,0.8361500538504366,0.2884322375,0.6330655766742299
0.015,1.794375,1.0,1984.0447387633421,0.15528942180914473,1.3385201319725573,0.8442309488665661,0.28841675,0.63457946508062
0.0155,1.79399375,1.0,2031.3650845140776,0.16002758078459378,1.3378464292072103,0.8517144521432367,0.2884007375,0.6360324944895965
0.016,1.7936,1.0,2076.306772911615,0.16473916210414852,1.3371976722566286,0.858656030997928,0.2883842,0.6374289854104316
0.0165,1.7931937500000001,1.0,2118.953155548921,0.16942431471920116,1.3365720126501845,0.8651051388434474,0.2883671375,0.6387732152442731
0.017,1.792775,1.0,2159.3901970151287,0.17408318660310726,1.3359677079338876,0.8711059580394775,0.28834955,0.640069193959343
0.0175,1.7923437500000001,1.0,2197.716243649347,0.1787159267878064,1.3353830065221373,0.8766979909924122,0.2883314375,0.6413209149750384
0.018000000000000002,1.7919,1.0,2234.014505968673,0.18332268205405114,1.3348164144018169,0.8819166794055078,0.2883128,0.642531787777777
0.0185,1.79144375,1.0,2268.353641091435,0.18790359681123447,1.3342666700882482,0.8867938679009996,0.2882936375,0.6437046979212827
0.019,1.790975,1.0,2300.809645813962,0.19245881546874954,1.3337325120967531,0.8913581607900191,0.28827395,0.6448425075560922
0.0195,1.79049375,1.0,2331.4652451455227,0.19698848243598935,1.3332126789426535,0.8956352938628537,0.2882537375,0.6459480567342479
0.02,1.79,1.0,2360.4002948502407,0.20149274089661362,1.3327059973196478,0.8996484798990262,0.288233,0.6470239775112836
0.0205,1.78949375,1.0,2387.701540312714,0.20597173508509775,1.3322112794733036,0.9034186694504002,0.2882117375,0.6480729138734393
0.021,1.788975,1.0,2413.44247597828,0.21042560693552803,1.3317275136965987,0.9069648414624724,0.28818995000000003,0.6490971194409214
0.021500000000000002,1.78844375,1.0,2437.6836269235378,0.21485449592109115,1.3312538529178959,0.910304215176446,0.2881676375,0.6500984850990084
0.022,1.7879,1.0,2460.4889849312904,0.21925854151497387,1.330789450065558,0.9134524068056823,0.2881448,0.6510788894302479
0.0225,1.78734375,1.0,2481.9257206434395,0.22363788319036293,1.3303334580679476,0.9164236009340262,0.28812143749999997,0.652040199237473
0.023,1.786775,1.0,2502.06085846734,0.22799265989997805,1.329885058839354,0.9192307069133234,0.28809755,0.6529842090387625
0.0235,1.78619375,1.0,2520.9542402218467,0.23232300908823694,1.3294435268646019,0.9218855028807826,0.28807313749999996,0.6539125083131772
0.024,1.7856,1.0,2538.6847077833727,0.23662907098857178,1.3290079786143818,0.9243987078223435,0.2880482,0.654827008954332
0.0245,1.78499375,1.0,2555.298809188562,0.24091097988086335,1.328577855154802,0.9267801712174791,0.2880227375,0.6557289320850446
0.025,1.784375,1.0,2570.844710635552,0.24516887004499252,1.3281525975519703,0.9290389048952766,0.28799675,0.6566194920915006
0.025500000000000002,1.78374375,1.0,2585.3720627638263,0.24940287576084003,1.3277316468719946,0.931183165707023,0.2879702375,0.6574998968066652
0.026000000000000002,1.7831000000000001,1.0,2598.9318738607226,0.25361313130828667,1.3273144441809828,0.9332205290323323,0.2879432,0.6583713476737703
0.0265,1.78244375,1.0,2611.574798438923,0.25779977050537783,1.3269004453346902,0.9351579563772282,0.2879156375,0.6592350090560626
0.027,1.781775,1.0,2623.3446141263444,0.2619629248338588,1.3264891802454926,0.9370018618521864,0.28788755,0.6600918851486808
0.0275,1.7810937500000001,1.0,2634.3002986153374,0.26610273017569364,1.3260800468892784,0.9387581347383552,0.2878589375,0.6609432494282079
0.028,1.7804,1.0,2644.4770126357034,0.27021931540535415,1.3256726720982772,0.9404322369428814,0.2878298,0.6617898936491327
0.0285,1.77969375,1.0,2653.9106053947744,0.2743128093973122,1.325266682704718,0.9420292108829761,0.2878001375,0.6626326056194782
0.029,1.778975,1.0,2662.6375548648643,0.27838334102603957,1.3248617055408298,0.9435537171644158,0.28776995,0.6634721692382117
0.029500000000000002,1.7782437500000001,1.0,2670.6949111584245,0.2824310391660082,1.3244573674388427,0.9450100684234795,0.2877392375,0.664309364523775
0.03,1.7775,1.0,2678.1202429905093,0.28645603269168984,1.3240532952309851,0.9464022597647601,0.287708,0.6651449676337372
0.0305,1.77674375,1.0,2684.940005334781,0.29045844591367026,1.3236492218944043,0.9477340085032354,0.2876762375,0.6659795317829933
0.031,1.775975,1.0,2691.19860395118,0.29443841132699916,1.3232447194411017,0.9490087476280222,0.28764395,0.666813939264807
0.0315,1.7751937500000001,1.0,2696.9294921866162,0.2983960559953476,1.3228394637743488,0.9502296788346731,0.2876111375,0.6676488540493972
0.032,1.7744,1.0,2702.1563964191982,0.3023315027257181,1.3224332225553197,0.9513997904126874,0.2875778,0.6684847480631113
0.0325,1.77359375,1.0,2706.9032908018576,0.3062448743251134,1.3220257634451886,0.952521864853903,0.2875439375,0.6693220908084931
0.033,1.772775,1.0,2711.1943738572254,0.3101362936005359,1.3216168541051292,0.9535984955226201,0.28750955,0.6701613493479593
0.0335,1.7719437500000002,1.0,2715.054046270407,0.3140058833589882,1.3212062621963157,0.9546321017849997,0.2874746375,0.6710029882840298
0.034,1.7711000000000001,1.0,2718.5068898774875,0.3178537664074729,1.3207937553799218,0.9556249427565128,0.2874392,0.6718474697361189
0.0345,1.7702437500000001,1.0,2721.5776478518383,0.32168006555299256,1.3203791013171218,0.9565791298082964,0.2874032375,0.6726952533138821
0.035,1.7693750000000001,1.0,2724.2820996696596,0.32548490305814953,1.3199621505221424,0.9574966467448417,0.28736675,0.673546627019279
0.035500000000000004,1.76849375,1.0,2726.6565751592584,0.32926839930837487,1.3195425676121508,0.9583793306390639,0.2873297375,0.6744022560071238
0.036000000000000004,1.7676,1.0,2728.730245564605,0.3330306738443788,1.319120083458263,0.9592289096849761,0.2872922,0.6752626668800741
0.0365,1.7666956494565715,1.0,2730.584026075368,0.33677184475904226,1.3186948174042414,0.9600470437522289,0.287254217277176,0.6761275936214197
0.037,1.7657900404952662,1.0,2732.668963772596,0.3404920301452467,1.3182668887938493,0.9608352902360019,0.2872161817008012,0.6769967713567715
0.0375,1.7648844315339607,1.0,2735.03476650194,0.3441913480958731,1.3178364169708492,0.9615951115322199,0.2871781461244263,0.6778699363747848
0.038,1.7639788225726554,1.0,2737.6627430410413,0.34786991548631463,1.3174035748765605,0.9623278867866754,0.28714011054805155,0.678746717651721
0.0385,1.7630732136113498,1.0,2740.518895851687,0.3515278500894285,1.3169686743248978,0.9630349262346161,0.2871020749716767,0.6796264652318778
0.039,1.7621676046500445,1.0,2743.583636949625,0.35516526661355213,1.3165318961223436,0.9637174500224618,0.2870640393953019,0.680508796993603
0.0395,1.761261995688739,1.0,2746.8377696949988,0.3587822796325351,1.3160934173524124,0.9643766069038087,0.28702600381892707,0.6813933402629899
0.04,1.7603563867274334,1.0,2750.26207176814,0.36237900372022713,1.315653415098619,0.9650134795299605,0.2869879682425522,0.6822797242875605
0.0405,1.7594507777661281,1.0,2753.8431999565455,0.36595554951801174,1.315212012952649,0.965629083536481,0.2869499326661774,0.683167687788071
0.041,1.7585451688048226,1.0,2757.5576007497166,0.36951203545110883,1.3147694266442855,0.9662243868617436,0.2869118970898025,0.6840567858738129
0.0415,1.7576395598435173,1.0,2761.3883938055983,0.3730485761028764,1.3143258111124394,0.9668002976966678,0.28687386151342775,0.6849466979225354
0.042,1.7567339508822117,1.0,2765.326078777935,0.3765652810727771,1.3138812542913183,0.967357667835274,0.2868358259370529,0.6858372391725407
0.0425,1.7558283419209064,1.0,2769.3611338571177,0.3800622599602737,1.3134358441151308,0.967897302828405,0.2867977903606781,0.6867282258413119
0.043000000000000003,1.7549227329596009,1.0,2773.4840140205683,0.383539622364829,1.3129896685180846,0.9684199649670281,0.28675975478430327,0.6876194751305469
0.043500000000000004,1.7540171239982953,1.0,2777.685149454662,0.3869974778859057,1.3125428154343883,0.9689263760441938,0.2867217192079284,0.6885108052306947
0.044,1.75311151503699,1.0,2781.95494414849,0.3904359361229665,1.3120953727982496,0.9694172199141348,0.2866836836315536,0.6894020353250051
0.0445,1.7522059060756845,1.0,2786.283774657964,0.39385510667547424,1.3116474285438766,0.9698931448652658,0.2866456480551787,0.6902929855930782
0.045,1.7513002971143792,1.0,2790.6619890431534,0.39725509914289164,1.311199070605478,0.9703547658223218,0.28660761247880395,0.6911834772139247
0.0455,1.7503946881530736,1.0,2795.0889390459824,0.40063601017800304,1.3107503057790681,0.9708026584434516,0.2865695769024291,0.6920734931703305
0.046,1.7494890791917683,1.0,2799.547884466646,0.40399796534257004,1.3103012852770928,0.9712373842075558,0.2865315413260543,0.6929627307250774
0.0465,1.7485834702304628,1.0,2804.0350909485933,0.40734106828181965,1.3098520431998446,0.9716594649177217,0.28649350574967947,0.6938511202961787
0.047,1.7476778612691573,1.0,2808.547233767725,0.4106654219543815,1.3094026098711382,0.9720693962962482,0.2864554701733046,0.694738600143266
0.0475,1.746772252307852,1.0,2813.0809775933767,0.4139711293188853,1.3089530156147875,0.972467649882238,0.2864174345969298,0.69562510887286
0.048,1.7458666433465464,1.0,2817.6329763692925,0.41725829333396086,1.308503290754607,0.9728546744386933,0.2863793990205549,0.6965105854387066
0.0485,1.744961034385241,1.0,2822.1998732165243,0.42052701695823785,1.3080534656144107,0.9732308972651365,0.28634136344418015,0.6973949691420633
0.049,1.7440554254239355,1.0,2826.778300354818,0.423777403150346,1.3076035705180131,0.9735967254229113,0.2863033278678053,0.6982781996319187
0.0495,1.7431498164626302,1.0,2831.364879046185,0.4270095548689151,1.3071536357892286,0.9739525468797289,0.2862652922914305,0.6991602169051592
0.05,1.7422442075013247,1.0,2835.956219557732,0.4302235750725748,1.306703691751871,0.9742987315794633,0.28622725671505567,0.7000409613066749
0.0505,1.7413385985400192,1.0,2840.548921145071,0.43341956671995485,1.306253768729755,0.9746356324427143,0.2861892211386808,0.700920373529406
0.051000000000000004,1.7404329895787138,1.0,2845.1395720568603,0.43659763276968494,1.3058038970466948,0.9749635863031996,0.286151185562306,0.701798394614332
0.051500000000000004,1.7395273806174083,1.0,2849.7295804339747,0.43975785351151425,1.305354064051926,0.9752829095412842,0.2861131499859311,0.7026750496395797
0.052000000000000005,1.738621771656103,1.0,2854.312510652295,0.4429003569097959,1.304904326856103,0.9755939140173358,0.28607511440955635,0.703550227884014
0.0525,1.7377161626947975,1.0,2858.8864882479484,0.4460252444748561,1.3044547018767387,0.9758968923370506,0.2860370788331815,0.7044238982944712
0.053,1.7368105537334921,1.0,2863.4508344308347,0.4491326112945903,1.304005194868539,0.9761921229375884,0.2859990432568067,0.7052960506790231
0.0535,1.7359049447721866,1.0,2868.004868432312,0.45222255245689386,1.303555811586209,0.9764798721668161,0.28596100768043187,0.7061666749114733
0.054,1.734999335810881,1.0,2872.5479075207522,0.4552951630496621,1.3031065577844538,0.9767603949114945,0.285922972104057,0.7070357609313124
0.0545,1.7340937268495757,1.0,2877.079267017663,0.4583505381607906,1.3026574392179793,0.9770339351876904,0.2858849365276822,0.7079032987436709
0.055,1.7331881178882702,1.0,2881.598260314302,0.4613887728781745,1.30220846164149,0.9773007266959829,0.2858469009513073,0.7087692784192733
0.0555,1.732282508926965,1.0,2886.104198889942,0.4644099622897093,1.3017596308096917,0.9775609933438372,0.28580886537493255,0.7096336900943832
0.056,1.7313768999656594,1.0,2890.596392329349,0.4674142014832905,1.3013109524772895,0.9778149497373517,0.2857708297985577,0.7104965239707546
0.0565,1.730471291004354,1.0,2895.0741483426473,0.47040158554681333,1.3008624323989886,0.9780628016444047,0.2857327942221829,0.711357770315574
0.057,1.7295656820430485,1.0,2899.53677278481,0.4733722095681732,1.3004140763294947,0.9783047464310898,0.28569475864580807,0.7122174194614048
0.0575,1.728660073081743,1.0,2903.9835696761484,0.4763261686352656,1.2999658900235125,0.9785409734731829,0.2856567230694332,0.7130754618061289
0.058,1.7277544641204376,1.0,2908.413841223941,0.47926355783598584,1.2995178792357476,0.9787716645442599,0.2856186874930584,0.7139318878128831
0.0585,1.7268488551591321,1.0,2912.8268878437543,0.48218447225822936,1.2990700497209053,0.9789969941819671,0.2855806519166835,0.7147866880099976
0.059000000000000004,1.7259432461978268,1.0,2917.222642449305,0.4850889898632303,1.298622401657033,0.9792171282980272,0.28554261634030875,0.7156398636115616
0.059500000000000004,1.7250376372365213,1.0,2921.6014087122503,0.48797719714584104,1.2981749319661857,0.979432226869864,0.2855045807639339,0.7164914220247466
0.06,1.724132028275216,1.0,2925.961921944776,0.49084922342797227,1.2977276513504048,0.9796424478832187,0.2854665451875591,0.7173413444559049
0.0605,1.7232264193139104,1.0,2930.304269077818,0.4937051548189513,1.297280558624568,0.9798479390981791,0.28542850961118427,0.7181896347699772
0.061,1.722320810352605,1.0,2934.628537678512,0.49654507742810544,1.296833652603553,0.9800488426474807,0.28539047403480944,0.7190362968177078
0.0615,1.7214152013912996,1.0,2938.9348159455762,0.4993690773647619,1.2963869321022383,0.9802452952939282,0.2853524384584346,0.7198813344356607
0.062,1.720509592429994,1.0,2943.223192704013,0.5021772407382481,1.2959403959355018,0.9804374286741581,0.2853144028820597,0.7207247514462323
0.0625,1.7196039834686887,1.0,2947.493757400861,0.5049696536578911,1.2954940429182211,0.9806253695295578,0.28527636730568495,0.7215665516576675
0.063,1.7186983745073832,1.0,2951.7466000996565,0.5077464022330185,1.2950478718652745,0.9808092399251176,0.2852383317293101,0.7224067388640707
0.0635,1.7177927655460778,1.0,2955.981811476039,0.5105075725729574,1.2946018815915399,0.9809891574569224,0.2852002961529353,0.723245316845422
0.064,1.7168871565847723,1.0,2960.1994828129577,0.5132532507870352,1.2941560709118953,0.9811652354489614,0.28516226057656047,0.7240822893675893
0.0645,1.715981547623467,1.0,2964.3997059960693,0.5159835229845791,1.2937104386412186,0.9813375831398734,0.28512422500018564,0.7249176601823437
0.065,1.7150759386621615,1.0,2968.582573508557,0.5186984752749163,1.293264983594388,0.9815063058602136,0.2850861894238108,0.7257514330273706
0.0655,1.714170329700856,1.0,2972.7481784269726,0.5213981937673744,1.2928197045862808,0.9816715052007933,0.2850481538474359,0.7265836116262858
0.066,1.7132647207395506,1.0,2976.896614416389,0.5240827645712804,1.2923746004317758,0.981833279172594,0.28501011827106115,0.7274141996886463
0.0665,1.712359111778245,1.0,2981.0279757256885,0.5267522737959618,1.2919296699457505,0.9819917223587448,0.2849720826946863,0.7282432009099655
0.067,1.7114535028169398,1.0,2985.1423571831187,0.5294068075507457,1.2914849119430831,0.9821469260590013,0.2849340471183115,0.7290706189717254
0.0675,1.7105478938556342,1.0,2989.239854191712,0.5320464519449595,1.2910403252386515,0.9822989784271554,0.28489601154193667,0.7298964575413902
0.068,1.709642284894329,1.0,2993.3205627248367,0.5346712930879305,1.2905959086473335,0.98244796460176,0.28485797596556184,0.730720720272419
0.0685,1.7087366759330234,1.0,2997.384520889685,0.5372813963302782,1.290151661490842,0.9825939655376666,0.284819940389187,0.7315434098664026
0.069,1.7078310669717178,1.0,3001.4319141307055,0.5398768119907934,1.2897075818172545,0.9827370584850219,0.2847819048128121,0.7323645313698941
0.0695,1.7069254580104125,1.0,3005.46323095014,0.5424576981585082,1.2892636650563758,0.9828773246880198,0.28474386923643735,0.733184094636967
0.07,1.706019849049107,1.0,3009.4786349386027,0.545024131009803,1.2888199094644126,0.983014837742565,0.2847058336600625,0.7340021042632925
0.07050000000000001,1.7051142400878017,1.0,3013.4782903987766,0.5475761867210579,1.2883763132975723,0.9831496688275044,0.2846677980836877,0.7348185648242999
0.07100000000000001,1.7042086311264961,1.0,3017.462362338736,0.5501139414686533,1.2879328748120624,0.9832818868004067,0.28462976250731287,0.7356334808751952
0.07150000000000001,1.7033030221651908,1.0,3021.4310164660883,0.5526374714289698,1.28748959226409,0.9834115582889301,0.28459172693093804,0.7364468569509797
