Time [s],Phi [rad],STIM [ ],Fsee [N],Gamma [ ],Lcerel [ ],q [ ],Lmtc [m],fisomrel [ ]
0.0,1.8,1.0,17.973252658716177,8.541355514161198e-05,1.379339063490787,0.0050019117330367,0.288653,0.54114118274851
0.0005,1.79999375,1.0,18.30768036965542,0.005694143761460794,1.3792989528301796,0.013151204358412698,0.2886527375,0.5412382155036009
0.001,1.799975,1.0,21.70541627970978,0.011271413425878235,1.3789294217269374,0.03600263580679827,0.28865195,0.542131675222222
0.0015,1.79994375,1.0,31.27606143951846,0.01681739901808118,1.3780286121399838,0.07114042552644739,0.2886506375,0.5443060216948905
0.002,1.7999,1.0,54.02805822402761,0.022332276015998347,1.376339278760638,0.11535541868326087,0.2886488,0.5483697297892944
0.0025,1.79984375,1.0,97.86766539356489,0.02781621891386764,1.3738991571272048,0.16526804589940391,0.28864643749999996,0.5542073351389217
0.003,1.7997750000000001,1.0,161.93213838906317,0.03326940122926115,1.3711779420579286,0.21799538671052857,0.28864354999999997,0.560672625413396
0.0035,1.79969375,1.0,238.78365850780688,0.038691995503236216,1.3685508803872926,0.2713238638105753,0.2886401375,0.566869415069361
0.004,1.7996,1.0,322.63733551058704,0.04408417331095847,1.3661251167946802,0.32360414760471773,0.2886362,0.572552292257914
0.0045000000000000005,1.7994937500000001,1.0,410.47985338869734,0.04944610526693338,1.3638943825339318,0.3736878787953313,0.2886317375,0.5777451478324251
0.005,1.799375,1.0,500.650265177017,0.05477796101651648,1.3618320775287354,0.4208587045905536,0.28862675,0.5825176902781863
0.0055,1.79924375,1.0,592.0379761105869,0.06007990927917823,1.3599144736151574,0.4647395950742097,0.2886212375,0.5869310321502685
0.006,1.7991000000000001,1.0,683.7669364994343,0.06535211780169117,1.358123724749742,0.5052000052786652,0.2886152,0.5910312428934026
0.006500000000000001,1.79894375,1.0,775.1224454578379,0.07059475340527972,1.3564460742193678,0.542276248888752,0.2886086375,0.5948539418801051
0.007,1.798775,1.0,865.4998015384188,0.0758079817781757,1.3548707920436949,0.5761102187010068,0.28860155,0.5984270438593133
0.0075,1.79859375,1.0,954.4500897509431,0.08099196847930198,1.3533882220883466,0.6069040036391715,0.2885939375,0.6017753969682316
0.008,1.7984,1.0,1041.5456884133957,0.08614687696675438,1.3519911717025213,0.6348900855551765,0.2885858,0.6049177775621372
0.0085,1.79819375,1.0,1126.4694339196271,0.0912728702862233,1.3506728922179254,0.6603097051412501,0.2885771375,0.6078715646158013
0.009000000000000001,1.797975,1.0,1209.0044073099175,0.09637011090980002,1.3494269505516143,0.6833999350400731,0.28856795,0.6106530810848204
0.0095,1.79774375,1.0,1288.9634773758721,0.10143876022034556,1.3482479509612402,0.7043864517439508,0.2885582375,0.6132760352401074
0.01,1.7975,1.0,1366.2095355800407,0.10647897822471916,1.3471309890690057,0.7234790913495187,0.288548,0.6157527947320593
0.0105,1.79724375,1.0,1440.6497924481578,0.11149092397043572,1.3460715542380397,0.7408700104874898,0.2885372375,0.6180946407757256
0.011,1.796975,1.0,1512.2822368989782,0.11647475785756589,1.3450648284122049,0.7567330394358821,0.28852595000000003,0.620313342451708
0.0115,1.79669375,1.0,1581.0595318178332,0.12143063646100301,1.3441072726624266,0.77122502584674,0.2885141375,0.6224176814439618
0.012,1.7964,1.0,1646.9685598562032,0.1263587159184237,1.3431954969113746,0.7844863247937005,0.28850180000000003,0.6244159786344217
0.0125,1.79609375,1.0,1710.0380165533472,0.13125915236750466,1.342326111081719,0.7966420684215396,0.2884889375,0.626316433901998
0.013000000000000001,1.7957750000000001,1.0,1770.318946775833,0.13613210136525733,1.3414959025846844,0.8078036651723556,0.28847555,0.6281267491003563
0.0135,1.79544375,1.0,1827.8720351398497,0.14097771747104507,1.340701924710414,0.8180702332516556,0.2884616375,0.6298539492940671
0.014,1.7951000000000001,1.0,1882.7471238002092,0.14579615335654447,1.3399416675644285,0.8275299869352585,0.2884472,0.6315040263186085
0.0145,1.79474375,1.0,1935.0107677650694,0.15058756138616367,1.339212702370209,0.8362613267881116,0.2884322375,0.6330827249703446
0.015,1.794375,1.0,1984.73699758639,0.1553520930484025,1.3385127522120257,0.8443339929446838,0.28841675,0.6345953972890297
0.0155,1.79399375,1.0,2032.025394203859,0.1600899004064844,1.337839472467274,0.8518100055447765,0.2884007375,0.6360474835555933
0.016,1.7936,1.0,2076.94189449369,0.16480113234009097,1.3371910536696474,0.858744763817561,0.2883842,0.6374432185113297
0.0165,1.7931937500000001,1.0,2119.562461404432,0.16948593748222768,1.336565727280378,0.865187672984185,0.2883671375,0.6387867066971629
0.017,1.792775,1.0,2159.9745014364435,0.17414446433289218,1.335961737146426,0.8711828458211173,0.28834955,0.6400819871605731
0.0175,1.7923437500000001,1.0,2198.2657036873984,0.17877686021004757,1.3353774409407428,0.8767697554588828,0.2883314375,0.6413328192220618
0.018000000000000002,1.7919,1.0,2234.534563436902,0.18338327338334529,1.3348111895924617,0.8819837486908826,0.2883128,0.6425429442719409
0.0185,1.79144375,1.0,2268.8485867289046,0.1879638481801032,1.3342617353308264,0.8868566297902494,0.2882936375,0.6437152177730376
0.019,1.790975,1.0,2301.282557390105,0.1925187289276393,1.3337278303850812,0.8914169673151966,0.28827395,0.6448524720231711
0.0195,1.79049375,1.0,2331.9179334256037,0.1970480599532714,1.33320822698447,0.8956904653252858,0.2882537375,0.6459575174421743
0.02,1.79,1.0,2360.8313554612946,0.20155198410380423,1.3327017841100812,0.899700312552731,0.288233,0.6470329172511764
0.0205,1.78949375,1.0,2388.1137593501085,0.20603064616362315,1.33220727351283,0.9034674221501545,0.2882117375,0.6480814012282261
0.021,1.788975,1.0,2413.836122704103,0.21048418765266969,1.3317237086687672,0.9070107536743311,0.28818995000000003,0.6491051693464249
0.021500000000000002,1.78844375,1.0,2438.059098394114,0.21491274806200653,1.3312502416564684,0.9103475037555706,0.2881676375,0.650106114166235
0.022,1.7879,1.0,2460.8468048360464,0.21931646688269643,1.330786024554509,0.9134932684290633,0.2881448,0.6510861159420404
0.0225,1.78734375,1.0,2482.266537997769,0.2236954836058022,1.330330209441464,0.9164622142438277,0.28812143749999997,0.6520470431452761
0.023,1.786775,1.0,2502.3855893298796,0.22804993722560657,1.3298819760211198,0.9192672341555705,0.28809755,0.6529906948227084
0.0235,1.78619375,1.0,2521.2635530493394,0.23237996512679848,1.3294406014359756,0.9219200924571704,0.28807313749999996,0.6539186547369344
0.024,1.7856,1.0,2538.9792969257396,0.23668570753950482,1.3290052021817995,0.9244314952588318,0.2880482,0.6548328346215345
0.0245,1.78499375,1.0,2555.579369394234,0.24096729873589748,1.328575219547618,0.9268112804718398,0.2880227375,0.6557344550358248
0.025,1.784375,1.0,2571.1119348100915,0.24522487298814827,1.3281500948224574,0.9290684495061783,0.28799675,0.6566247298087124
0.025500000000000002,1.78374375,1.0,2585.626639881713,0.24945856456842902,1.327729269295344,0.9312112498149328,0.2879702375,0.6575048662217472
0.026000000000000002,1.7831000000000001,1.0,2599.174487024747,0.2536685077489116,1.3273121842553042,0.9332472482878793,0.2879432,0.6583760651722634
0.0265,1.78244375,1.0,2611.8059303104087,0.2578548362993596,1.3268982975716201,0.9351833990167734,0.2879156375,0.659239486749925
0.027,1.781775,1.0,2623.564702751292,0.26201768178748325,1.3264871396910145,0.9370261092201896,0.28788755,0.6600961339808036
0.0275,1.7810937500000001,1.0,2634.5099433964206,0.26615718000193245,1.3260781072089887,0.9387812615622233,0.2878589375,0.6609472831600871
0.028,1.7804,1.0,2644.676773594508,0.27027345981316314,1.3256708274231477,0.9404543122426122,0.2878298,0.6617937250176096
0.0285,1.77969375,1.0,2654.101001865934,0.27436665009163136,1.3252649276310964,0.9420502984865916,0.2878001375,0.6626362463429134
0.029,1.778975,1.0,2662.8190643113335,0.2784368797077931,1.3248600351304398,0.943573876170591,0.28776995,0.663475630022479
0.029500000000000002,1.7782437500000001,1.0,2670.8679680999708,0.2824842775321043,1.324455777218783,0.9450293536173648,0.2877392375,0.6643126550680977
0.03,1.7775,1.0,2678.285238037952,0.2865089724350211,1.3240517811937311,0.94642072199224,0.287708,0.6651480966363845
0.0305,1.77674375,1.0,2685.0978122855504,0.29051108877873144,1.3236477756561924,0.9477516943906155,0.2876762375,0.6659825169413232
0.031,1.775975,1.0,2691.349634860689,0.2944907590172207,1.3232433369121064,0.9490257010242323,0.28764395,0.6668167893556329
0.0315,1.7751937500000001,1.0,2697.073578672068,0.2984481100635178,1.3228381462154777,0.9502459411350173,0.2876111375,0.66765156679896
0.032,1.7744,1.0,2702.2935175270263,0.30238326474822685,1.3224319699018634,0.9514153999951432,0.2875778,0.6684873239324103
0.0325,1.77359375,1.0,2707.033573459515,0.30629634590195215,1.3220245743068213,0.9525368573251467,0.2875439375,0.6693245329799443
0.033,1.772775,1.0,2711.3180931953734,0.3101874763552979,1.3216157257659085,0.9536129039412199,0.28750955,0.6701636637119515
0.0335,1.7719437500000002,1.0,2715.1716258287656,0.3140567789388684,1.3212051906146824,0.9546459568641316,0.2874746375,0.6710051834253365
0.034,1.7711000000000001,1.0,2718.6189017084494,0.3179043764832678,1.3207927351887008,0.955638273048282,0.2874392,0.6718495569201279
0.0345,1.7702437500000001,1.0,2721.6848125356278,0.32173039181910035,1.3203781258235205,0.9565919618715186,0.2874032375,0.6726972464726034
0.035,1.7693750000000001,1.0,2724.3896800259113,0.3255349443109295,1.3199611717310005,0.9575090002641502,0.28736675,0.6735486243128994
0.035500000000000004,1.76849375,1.0,2726.7548865760677,0.3293181564229028,1.3195416735407615,0.9583912389150263,0.2873297375,0.6744040780317904
0.036000000000000004,1.7676,1.0,2728.805324473711,0.333080152517899,1.3191194009277964,0.959240409135152,0.2872922,0.6752640559677434
0.0365,1.76669375,1.0,2730.556356536797,0.33682104898235576,1.3186942110415034,0.9600581415575934,0.2872541375,0.6761288260479391
0.037,1.765775,1.0,2732.023417015683,0.3405409622027105,1.3182659610312801,0.9608459665340255,0.28721555,0.6769986544924608
0.0375,1.76484375,1.0,2733.2220031797106,0.34424000856540093,1.317834508046525,0.9616053214201383,0.2871764375,0.6778738057870646
0.038,1.7639,1.0,2734.1676673559246,0.3479183044568644,1.3173997092366359,0.962337557254159,0.28713679999999997,0.6787545426546525
0.0385,1.76294375,1.0,2734.876009420567,0.3515759662635385,1.3169614217510104,0.963043944885151,0.28709663750000003,0.6796411260254405
0.039,1.761975,1.0,2735.3626697423433,0.3552131103718607,1.3165195027390473,0.9637256806019247,0.28705595,0.6805338150058236
0.0395,1.7609937500000001,1.0,2735.6433225793844,0.35882985316826865,1.3160738093501438,0.9643838913082069,0.2870147375,0.6814328668459468
0.04,1.76,1.0,2735.725651175346,0.36242630161074446,1.3156242715380855,0.9650196440585699,0.286973,0.6823383903573115
0.0405,1.7589937500000001,1.0,2735.6270962757108,0.36600257890213383,1.3151707308691787,0.9656339405700943,0.2869307375,0.6832506709291701
0.041,1.757975,1.0,2735.3630918114122,0.3695588038919691,1.3147130472938096,0.9662277271665347,0.28688795,0.6841699549204221
0.0415,1.75694375,1.0,2734.941792757996,0.3730950857680185,1.3142511469775555,0.9668019016544693,0.2868446375,0.6850963540283508
0.042,1.7559,1.0,2734.371365637391,0.37661153371805,1.313784956085994,0.9673573125945469,0.28680079999999997,0.6860299787439759
0.0425,1.75484375,1.0,2733.6599862401226,0.38010825692983197,1.3133144007847029,0.9678947625031414,0.2867564375,0.6869709383320236
0.043000000000000003,1.753775,1.0,2732.815837467538,0.3835853645911324,1.3128394072392595,0.9684150108144539,0.28671155,0.6879193408105508
0.043500000000000004,1.75269375,1.0,2731.847107296775,0.3870429658897195,1.3123599016152416,0.9689187766232287,0.28666613750000003,0.6888752929302187
0.044,1.7516,1.0,2730.7619868642983,0.39048117001336136,1.3118758100782266,0.9694067412263709,0.2866202,0.6898389001532204
0.0445,1.75049375,1.0,2729.568668672371,0.39390008614982625,1.3113870587937921,0.969879550480065,0.2865737375,0.6908102666318605
0.045,1.7493750000000001,1.0,2728.275344914892,0.39729982348688225,1.3108935739275156,0.9703378169874763,0.28652675,0.691789495186787
0.0455,1.74824375,1.0,2726.8902059247794,0.40068049121229754,1.3103952816449749,0.9707821221307511,0.2864792375,0.6927766872848748
0.046,1.7471,1.0,2725.419329987563,0.4040421947453112,1.3098921272938737,0.9712130188691683,0.2864312,0.6937719051061146
0.0465,1.7459437500000001,1.0,2723.8648055036574,0.40738503309497404,1.3093840925058458,0.9716310343556309,0.28638263750000004,0.6947751380878007
0.047,1.744775,1.0,2722.243253913253,0.41070913117833924,1.3088710266515626,0.9720366635344699,0.28633355,0.6957866355076839
0.0475,1.74359375,1.0,2720.558439097896,0.41401459048715317,1.3083528960113602,0.9724303823931729,0.28628393750000003,0.6968064142902018
0.048,1.7424,1.0,2718.814122682048,0.4173015125131619,1.3078296668655742,0.9728126438574292,0.2862338,0.697834490425477
0.0485,1.74119375,1.0,2717.0140636124142,0.4205699987481117,1.3073013054945406,0.973183879119074,0.2861831375,0.6988708789583897
0.049,1.739975,1.0,2715.1620177613677,0.4238201506837487,1.3067677781785951,0.9735444988757458,0.28613195,0.6999155939775774
0.0495,1.73874375,1.0,2713.2617375563404,0.42705206981181915,1.3062290511980739,0.973894894488884,0.2860802375,0.7009686486043605
0.05,1.7375,1.0,2711.316971634088,0.4302658576240692,1.3056850908333124,0.9742354390661342,0.286028,0.7020300549815994
0.0505,1.73624375,1.0,2709.331464520237,0.4334616156122451,1.3051358633646468,0.9745664884737386,0.2859752375,0.7030998242624732
0.051000000000000004,1.734975,1.0,2707.3089563340386,0.43663944526809306,1.304581335072413,0.9748883822840242,0.28592195,0.7041779665991919
0.051500000000000004,1.73369375,1.0,2705.253182518395,0.4397994480833592,1.3040214722369465,0.9752014446626869,0.2858681375,0.7052644911316313
0.052000000000000005,1.7324,1.0,2703.1678735947717,0.4429417255497897,1.3034562411385837,0.9755059852001996,0.2858138,0.7063594059758984
0.0525,1.73109375,1.0,2701.0567549440366,0.44606637915913083,1.3028856080576598,0.9758022996913132,0.28575893750000003,0.7074627182128241
0.053,1.729775,1.0,2698.921822301073,0.4491734912465063,1.3023095550363766,0.9760906698686734,0.28570355000000003,0.7085744034875894
0.0535,1.72844375,1.0,2696.768143090143,0.452263181930377,1.3017280360023427,0.9763713672893566,0.2856476375,0.7096944907212022
0.054,1.7271,1.0,2694.598059056354,0.4553355519237286,1.301141029747217,0.9766446512526055,0.2855912,0.7108229598303117
0.0545,1.7257437500000001,1.0,2692.4132114648714,0.458390694881124,1.3005485214409547,0.9769107695968178,0.2855342375,0.711959777613699
0.055,1.724375,1.0,2690.215239097575,0.4614287044571261,1.2999504962535116,0.9771699596089896,0.28547675,0.7131049100678322
0.0555,1.72299375,1.0,2688.0057782084764,0.46444967430629763,1.2993469393548434,0.9774224485593993,0.2854187375,0.7142583223816574
0.056,1.7216,1.0,2685.786462484075,0.46745369808320164,1.2987378359149058,0.9776684542049078,0.2853602,0.7154199789313739
0.0565,1.72019375,1.0,2683.5589230082965,0.4704408694424009,1.2981231711036543,0.9779081852629711,0.28530113749999997,0.7165898432751954
0.057,1.718775,1.0,2681.3247882330274,0.4734112820384582,1.2975029300910443,0.9781418418582855,0.28524155,0.717767878148097
0.0575,1.71734375,1.0,2679.0856839520247,0.47636502952593657,1.296877098047032,0.9783696159438585,0.2851814375,0.7189540454565462
0.058,1.7159,1.0,2676.8432332816556,0.47930220555939873,1.2962456601415726,0.9785916916981635,0.2851208,0.7201483062732266
0.0585,1.71444375,1.0,2674.5990566451487,0.4822229037934076,1.2956086015446218,0.9788082458999132,0.2850596375,0.7213506208317381
0.059000000000000004,1.7129750000000001,1.0,2672.3547717618812,0.48512721788252605,1.2949659074261355,0.9790194482818831,0.28499795,0.7225609485212898
0.059500000000000004,1.71149375,1.0,2670.111993642259,0.488015241481317,1.2943175629560688,0.9792254618651108,0.2849357375,0.7237792478813792
0.06,1.71,1.0,2667.8723345865305,0.4908870682443431,1.2936635533043779,0.9794264432747045,0.284873,0.7250054765964503
0.0605,1.7084937500000001,1.0,2665.634881857216,0.4937427386910263,1.2930038868410827,0.9796225400068236,0.2848097375,0.7262395481378126
0.061,1.7069750000000001,1.0,2663.403912946531,0.4965824080204513,1.2923385241912242,0.9798139005066161,0.28474595,0.7274814645207176
0.0615,1.7054437500000001,1.0,2661.180139862591,0.4994061693129512,1.291667458736243,0.9800006642960687,0.2846816375,0.7287311655431826
0.062,1.7039,1.0,2658.9638462312682,0.5022141070432873,1.290990687791849,0.9801829651350891,0.2846168,0.7299885829669219
0.0625,1.70234375,1.0,2656.7553152156884,0.5050063056862207,1.2903082086737527,0.9803609317494926,0.2845514375,0.7312536478846838
0.063,1.7007750000000001,1.0,2654.55482952062,0.5077828497165128,1.2896200186976645,0.9805346880563661,0.28448555,0.7325262907192744
0.0635,1.69919375,1.0,2652.3626713961075,0.5105438236089248,1.2889261151792946,0.9807043533777174,0.28441913750000003,0.7338064412225798
0.064,1.6976,1.0,2650.179122641203,0.5132893118382179,1.288226495434353,0.9808700426430992,0.2843522,0.7350940284745884
0.0645,1.69599375,1.0,2648.004464608438,0.5160193988791535,1.2875211567785503,0.9810318665818551,0.2842847375,0.7363889808824118
0.065,1.694375,1.0,2645.83897820794,0.5187341692064927,1.2868100965275968,0.9811899319055891,0.28421675,0.7376912261793067
0.0655,1.69274375,1.0,2643.6829439120297,0.5214337072949968,1.2860933119972024,0.981344341481421,0.2841482375,0.7390006914236971
0.066,1.6911,1.0,2641.5366417596583,0.5241180976194271,1.2853708005030777,0.9814951944965605,0.2840792,0.7403173029981908
0.0665,1.6894437500000001,1.0,2639.4003513616453,0.5267874246545449,1.284642559360933,0.9816425866146867,0.2840096375,0.7416409866086026
0.067,1.687775,1.0,2637.274351904789,0.5294417728751112,1.2839085858864783,0.9817866101246028,0.28393955,0.7429716672829726
0.0675,1.68609375,1.0,2635.158922157943,0.5320812267558874,1.2831688773954237,0.9819273540815933,0.2838689375,0.7443092693705851
0.068,1.6844000000000001,1.0,2633.054340476702,0.5347058707716348,1.2824234312034801,0.9820649044418942,0.2837978,0.7456537165409858
0.0685,1.68269375,1.0,2630.960884808765,0.5373157893971147,1.2816722446263575,0.9821993441906555,0.2837261375,0.7470049317830019
0.069,1.680975,1.0,2628.878832700042,0.5399110671070881,1.2809153149797659,0.9823307534637521,0.28365395,0.7483628374037594
0.0695,1.67924375,1.0,2626.808461299783,0.5424917883763165,1.2801526395794158,0.9824592096637831,0.28358123749999997,0.7497273550276975
0.07,1.6775,1.0,2624.750047366974,0.5450580376795611,1.2793842157410176,0.9825847875705677,0.283508,0.7510984055955885
0.07050000000000001,1.67574375,1.0,2622.704426829391,0.5476098981498518,1.278610035591634,0.982707559123758,0.2834342375,0.7524759185829987
0.07100000000000001,1.673975,1.0,2620.673011345757,0.5501474455915396,1.2778300859060425,0.9828275931621425,0.28335995,0.7538598321602075
0.07150000000000001,1.67219375,1.0,2618.6528524996256,0.5526707630723533,1.2770443939009257,0.9829449585227987,0.2832851375,0.7552500121430763
0.07200000000000001,1.6704,1.0,2616.6440643861933,0.5551799285562091,1.2762529584046232,0.9830597201891408,0.2832098,0.7566463742751708
0.0725,1.66859375,1.0,2614.646760970558,0.5576750200070233,1.275455778245474,0.983171941016443,0.2831339375,0.758048833645345
0.073,1.6667750000000001,1.0,2612.661056090607,0.5601561153887124,1.274652852251818,0.9832816818140786,0.28305755,0.7594573046873121
0.0735,1.66494375,1.0,2610.6870634593656,0.5626232926651926,1.2738441792519941,0.9833890014240477,0.2829806375,0.7608717011792147
0.074,1.6631,1.0,2608.724896667688,0.5650766298003803,1.2730297580743422,0.9834939567959902,0.2829032,0.7622919362431958
0.0745,1.6612437500000001,1.0,2606.7746691869834,0.5675162047581918,1.2722095875472015,0.9835966030588541,0.2828252375,0.7637179223449696
0.075,1.659375,1.0,2604.8364943719384,0.5699420955025433,1.2713836664989115,0.9836969935893969,0.28274675,0.7651495712933915
0.0755,1.65749375,1.0,2602.908993508174,0.5723543798651839,1.270552007644975,0.9837951806754454,0.2826677375,0.7665867702782952
