Time [s],Phi [rad],STIM [ ],Fsee [N],Gamma [ ],Lcerel [ ],q [ ],Lmtc [m],fisomrel [ ]
0.0,1.8,1.0,18.01053530805205,0.00021118031876610528,1.3793348894589166,0.005011602977358721,0.288653,0.541151280737218
0.0005,1.79999375,1.0,18.385486113911025,0.005819205073019006,1.3792903265872265,0.013508461101631439,0.2886527375,0.541259082134423
0.001,1.799975,1.0,21.876509567577624,0.011395773242374023,1.3789120163683148,0.03666462060685981,0.28865195,0.5421737367719959
0.0015,1.79994375,1.0,31.649854371168363,0.01694106127437373,1.37799696601028,0.07204225361988621,0.2886506375,0.5443823140530079
0.002,1.7999,1.0,54.804716211092135,0.02245524462471896,1.376289280476178,0.11642068829079505,0.2886488,0.5484897238479602
0.0025,1.79984375,1.0,99.14942027546161,0.027938497765998636,1.3738378292815943,0.1664252127804871,0.28864643749999996,0.5543535631314591
0.003,1.7997750000000001,1.0,163.58472391476076,0.033390994193691195,1.371116427065569,0.2191880525445711,0.28864354999999997,0.5608182320219588
0.0035,1.79969375,1.0,240.64249810434788,0.03881290642721382,1.368493866028452,0.2725093197109646,0.2886401375,0.5670034142200423
0.004,1.7996,1.0,324.61001607261215,0.04420440602022119,1.3660730423671419,0.32475143788752675,0.2886362,0.572673876441533
0.0045000000000000005,1.7994937500000001,1.0,412.5192806960131,0.04956566356594902,1.3638466393640696,0.37477657272276266,0.2886317375,0.5778559407636248
0.005,1.799375,1.0,502.7286307610253,0.05489684868907821,1.361788012701684,0.4218769996989278,0.28862675,0.582619368193132
0.0055,1.79924375,1.0,594.1327727685537,0.06019813008410495,1.35987362561374,0.46568220827385076,0.2886212375,0.5870247882258345
0.006,1.7991000000000001,1.0,685.8617672005748,0.06546967548144325,1.3580857101862052,0.5060661618547366,0.2886152,0.5911180617361005
0.006500000000000001,1.79894375,1.0,777.2024415214522,0.07071165166250623,1.3564106195306835,0.5430681549237176,0.2886086375,0.594934535349982
0.007,1.798775,1.0,867.5658375588412,0.0759242245428481,1.3548374622338306,0.5768317358102225,0.28860155,0.5985024725620371
0.0075,1.79859375,1.0,956.4623199942575,0.08110755891179948,1.3533573077669472,0.6075603796886826,0.2885939375,0.6018450671163743
0.008,1.7984,1.0,1043.514247040284,0.08626181903485289,1.3519622188401492,0.6354864859806689,0.2885858,0.6049827694806088
0.0085,1.79819375,1.0,1128.4000397563386,0.09138716773885239,1.3506455876488435,0.6608514105483861,0.2885771375,0.6079326271122361
0.009000000000000001,1.797975,1.0,1210.8747472578525,0.09648376714920305,1.3494014161244734,0.6838922782661341,0.28856795,0.6107099821754228
0.0095,1.79774375,1.0,1290.780158276471,0.10155177898333838,1.3482239298674856,0.704834222994375,0.2885582375,0.6133293835065193
0.01,1.7975,1.0,1367.9747739791032,0.10659136313557294,1.3471083169625975,0.7238867504219434,0.288548,0.6158029856358194
0.0105,1.79724375,1.0,1442.370306738307,0.11160267896428525,1.346050034506742,0.7412415988199198,0.2885372375,0.6181421352611053
0.011,1.796975,1.0,1513.9330082566764,0.11658588553332794,1.34504467542591,0.7570723945239624,0.28852595000000003,0.620357691199708
0.0115,1.79669375,1.0,1582.6401571648178,0.12154114045180289,1.3440883999768045,0.7715354503876592,0.2885141375,0.6224590975810032
0.012,1.7964,1.0,1648.484986712965,0.12646859999449878,1.3431777563949583,0.7847707401704204,0.28850180000000003,0.6244548071292177
0.0125,1.79609375,1.0,1711.4939835625248,0.13136841996336934,1.3423093946485245,0.7969030922468463,0.2884889375,0.6263529283653084
0.013000000000000001,1.7957750000000001,1.0,1771.7253579747824,0.1362407563960075,1.341480032190791,0.808043597815048,0.28847555,0.6281613125477563
0.0135,1.79544375,1.0,1829.2272781568538,0.14108576333816053,1.340686874201531,0.8182911767458901,0.2884616375,0.6298866509782851
0.014,1.7951000000000001,1.0,1884.046048247715,0.14590359321174595,1.3399274540856314,0.8277338242307881,0.2884472,0.6315348404300414
0.0145,1.79474375,1.0,1936.2519497425512,0.15069439843868135,1.339199305247978,0.8364497176334051,0.2884322375,0.633111707013039
0.015,1.794375,1.0,1985.9244809089432,0.15545833060771416,1.3385000961536766,0.8445083946221593,0.28841675,0.6346227197192338
0.0155,1.79399375,1.0,2033.1583892716533,0.16019554184387647,1.3378275383498375,0.851971733859986,0.2884007375,0.6360731962132944
0.016,1.7936,1.0,2078.0272868566767,0.16490618151092803,1.3371797451635206,0.8588949674029622,0.2883842,0.637467536516146
0.0165,1.7931937500000001,1.0,2120.6027452589337,0.16959039774795356,1.336554998191367,0.8653273913055164,0.2883671375,0.6388097359451819
0.017,1.792775,1.0,2160.968761713059,0.17424833869403775,1.335951579030017,0.8713130182896813,0.28834955,0.6401037517450201
0.0175,1.7923437500000001,1.0,2199.214160598734,0.17888015179574634,1.3353678354832557,0.876891220070473,0.2883314375,0.6413533639135076
0.018000000000000002,1.7919,1.0,2235.4318451779095,0.18348598466746,1.3348021763909963,0.8820972715292736,0.2883128,0.6425621896806512
0.0185,1.79144375,1.0,2269.706378019891,0.18806598355153886,1.3342531841673178,0.8869628558832707,0.2882936375,0.6437334466645701
0.019,1.790975,1.0,2302.106194160591,0.1926202920450297,1.3337196777260614,0.8915164927331044,0.28827395,0.644869823655656
0.0195,1.79049375,1.0,2332.7061832391732,0.1971490537449791,1.3332004759810683,0.8957838424985577,0.2882537375,0.6459739885395075
0.02,1.79,1.0,2361.587151618081,0.20165241224843372,1.3326943978461794,0.8997880309734683,0.288233,0.6470485894189034
0.0205,1.78949375,1.0,2388.8240140783446,0.2061305095598721,1.3322003720410158,0.9035499576130143,0.2882117375,0.6480960230096005
0.021,1.788975,1.0,2414.504929490147,0.21058348975456667,1.3317172446281247,0.9070885017638144,0.28818995000000003,0.6491188444398115
0.021500000000000002,1.78844375,1.0,2438.6978415523668,0.215011493420545,1.3312440989030427,0.9104208090441105,0.2881676375,0.6501190910137475
0.022,1.7879,1.0,2461.4615812784627,0.21941465924426062,1.3307801397073933,0.913562454009171,0.2881448,0.6510985305330274
0.0225,1.78734375,1.0,2482.858036667363,0.22379312591216705,1.3303245718828,0.9165275838987,0.28812143749999997,0.6520589196761635
0.023,1.786775,1.0,2502.951898231897,0.22814703211071774,1.3298766002708866,0.9193290691999977,0.28809755,0.6530020044442657
0.0235,1.78619375,1.0,2521.8081696540075,0.23247651612726286,1.3294354509799633,0.921978640326473,0.28807313749999996,0.653929475885294
0.024,1.7856,1.0,2539.482308766553,0.23678171419924407,1.3290004617871627,0.9244870201949776,0.2880482,0.6548427810708983
0.0245,1.78499375,1.0,2556.053062763644,0.24106276623950623,1.3285707699588674,0.926863973138209,0.2880227375,0.6557437791091744
0.025,1.784375,1.0,2571.564722596412,0.24531980567553116,1.328145854464985,0.9291184904840027,0.28799675,0.6566336039459342
0.025500000000000002,1.78374375,1.0,2586.0629985292685,0.2495529659348006,1.3277251942754225,0.9312588105623728,0.2879702375,0.6575133834092366
0.026000000000000002,1.7831000000000001,1.0,2599.5949027601437,0.2537623804447964,1.3273082683600879,0.9332924919884643,0.2879432,0.658384239359441
0.0265,1.78244375,1.0,2612.208638059268,0.25794818263300023,1.3268945556888885,0.9352264789201805,0.2879156375,0.6592472878219522
0.027,1.781775,1.0,2623.9534924274467,0.262110505926894,1.3264835352317321,0.9370671592546802,0.28788755,0.6601036391026478
0.0275,1.7810937500000001,1.0,2634.873482503225,0.26624947994004106,1.3260747438470015,0.9388204237272725,0.2878589375,0.6609542775035471
0.028,1.7804,1.0,2645.0199539626915,0.27036524080260466,1.3256676585166485,0.9404916985043477,0.2878298,0.6618003067483536
0.0285,1.77969375,1.0,2654.4274248324423,0.2744579167342104,1.3252619188124646,0.9420860137340965,0.2878001375,0.6626424877883728
0.029,1.778975,1.0,2663.130607791419,0.2785276357214443,1.3248571681646295,0.9436080193076748,0.28776995,0.6634815698088572
0.029500000000000002,1.7782437500000001,1.0,2671.164772508117,0.2825745257508924,1.324453050003323,0.945062018096484,0.2877392375,0.6643182982893535
0.03,1.7775,1.0,2678.5656946019744,0.28659871480914073,1.324049207758724,0.9464519962931255,0.287708,0.6651534150221406
0.0305,1.77674375,1.0,2685.3696074236004,0.2906003308827754,1.3236452848610125,0.9477816507388397,0.2876762375,0.6659876581225577
0.031,1.775975,1.0,2691.604048435552,0.29457949692216423,1.3232410081113424,0.9490544225667948,0.28764395,0.6668215901631476
0.0315,1.7751937500000001,1.0,2697.303389095125,0.2985363420477583,1.3228360448506826,0.9502735042664051,0.2876111375,0.6676558933200512
0.032,1.7744,1.0,2702.5087977813027,0.3024709993013338,1.322430003299002,0.9514418597048853,0.2875778,0.6684913678973392
0.0325,1.77359375,1.0,2707.2416263003743,0.3063835899187606,1.3220226753903441,0.9525622673308524,0.2875439375,0.6693284328266743
0.033,1.772775,1.0,2711.5234366909294,0.31027423513590857,1.3216138530587525,0.953637316809494,0.28750955,0.6701675048491811
0.0335,1.7719437500000002,1.0,2715.375981596176,0.3141430561886476,1.3212033282382707,0.9546694241180347,0.2874746375,0.6710089984969954
0.034,1.7711000000000001,1.0,2718.821185595616,0.31799017431284754,1.3207908928629424,0.9556608452631259,0.2874392,0.6718533260720543
0.0345,1.7702437500000001,1.0,2721.8811274973,0.3218157107443783,1.320376338866811,0.9566136887605311,0.2874032375,0.6727008976221246
0.035,1.7693750000000001,1.0,2724.5780235890406,0.32561978671910974,1.3199594581839202,0.9575299270017968,0.28736675,0.6735521209140696
0.035500000000000004,1.76849375,1.0,2726.9342118503137,0.3294025234729117,1.3195400427483137,0.9584114066188183,0.2873297375,0.6744074014043554
0.036000000000000004,1.7676,1.0,2728.9721371233377,0.33316404224165413,1.319117884494035,0.9592598579450735,0.2872922,0.6752671422067977
0.0365,1.76669375,1.0,2730.7092887784556,0.33690446004404884,1.3186928212335924,0.9600769073634486,0.2872541375,0.6761316508105022
0.037,1.765775,1.0,2732.163462978067,0.34062389657710657,1.3182646886707274,0.9608640816586735,0.28721555,0.6770012370705515
0.0375,1.76484375,1.0,2733.3580032264276,0.34432247599673116,1.3178332727148447,0.961622810927482,0.2871764375,0.6778763098066681
0.038,1.7639,1.0,2734.3052811636016,0.3480003123931859,1.3173984594630155,0.9623544469350935,0.28713679999999997,0.6787570724824762
0.0385,1.76294375,1.0,2735.017711893972,0.35165751985673405,1.3169601350123112,0.9630602612288764,0.28709663750000003,0.6796437270821984
0.039,1.761975,1.0,2735.5077484530084,0.3552942124776388,1.3165181854598027,0.9637414507682767,0.28705595,0.6805364740855675
0.0395,1.7609937500000001,1.0,2735.787876562347,0.35891050434616356,1.3160724969025615,0.9643991431011405,0.2870147375,0.6814355124419014
0.04,1.76,1.0,2735.8706096719948,0.3625065095525715,1.3156229554376582,0.9650344011274417,0.286973,0.6823410395433611
0.0405,1.7589937500000001,1.0,2735.7684842902786,0.3660823421871259,1.3151694471621644,0.965648227487339,0.2869307375,0.6832532511973713
0.041,1.757975,1.0,2735.4940556016145,0.36963811634009003,1.3147118581731514,0.9662415686068404,0.28688795,0.6841723415982215
0.0415,1.75694375,1.0,2735.059893371794,0.3731739461017272,1.31425007456769,0.9668153184310881,0.2868446375,0.6850985032978358
0.042,1.7559,1.0,2734.470168349538,0.37668993298362435,1.3137840588151162,0.9673703261787726,0.28680079999999997,0.6860317743415553
0.0425,1.75484375,1.0,2733.744055597721,0.3801862029798284,1.3133136372135368,0.9679073877736915,0.2867564375,0.6869724640817101
0.043000000000000003,1.753775,1.0,2732.8924058240764,0.3836628695385128,1.3128387116890616,0.9684272605188228,0.28671155,0.6879207285354854
0.043500000000000004,1.75269375,1.0,2731.9216602106007,0.38712003932584144,1.312359224253221,0.9689306636448834,0.28666613750000003,0.6888766422956825
0.044,1.7516,1.0,2730.8382634946624,0.39055781900797815,1.3118751169175449,0.9694182785951322,0.2866202,0.6898402788509812
0.0445,1.75049375,1.0,2729.6486626141145,0.39397631525108684,1.311386331693563,0.9698907513809327,0.2865737375,0.6908117105689616
0.045,1.7493750000000001,1.0,2728.359305425873,0.3973756347213314,1.310892810592806,0.9703486947681236,0.28652675,0.6917910086789085
0.0455,1.74824375,1.0,2726.976639499649,0.4007558840848757,1.3103944956268037,0.9707926903078766,0.2864792375,0.6927782432544074
0.046,1.7471,1.0,2725.5071109866226,0.40411717000788366,1.309891328807086,0.9712232902245171,0.2864312,0.6937734831957225
0.0465,1.7459437500000001,1.0,2723.957163561629,0.407459599156519,1.3093832521451831,0.9716410191716498,0.28638263750000004,0.694776796211958
0.047,1.744775,1.0,2722.333237440779,0.4107832781969458,1.308870207652625,0.9720463758669569,0.28633355,0.6957882488030112
0.0475,1.74359375,1.0,2720.641768473477,0.4140883137953278,1.3083521373409421,0.972439834615114,0.28628393750000003,0.6968079062413035
0.048,1.7424,1.0,2718.8891873084312,0.4173748126178289,1.3078289832216643,0.9728218467274664,0.2862338,0.6978358325533046
0.0485,1.74119375,1.0,2717.0783399070633,0.42064286253410915,1.3073007199098698,0.9731928417942584,0.2861831375,0.6988720266035578
0.049,1.739975,1.0,2715.2187279880663,0.4238925901828895,1.3067672613475194,0.9735532295691377,0.28613195,0.6999166051190775
0.0495,1.73874375,1.0,2713.314131434644,0.42712409829940784,1.306228573536854,0.9739034011230798,0.2860802375,0.7009695814718866
0.05,1.7375,1.0,2711.3675422078472,0.4303374856895567,1.3056846296292886,0.9742437293095626,0.286028,0.7020309541084333
0.0505,1.73624375,1.0,2709.3819490969618,0.43353285115922846,1.3051354027762383,0.9745745697661972,0.2859752375,0.7031007205758382
0.051000000000000004,1.734975,1.0,2707.360337496162,0.4367102935143155,1.3045808661291185,0.9748962618601286,0.28592195,0.7041788775128699
0.051500000000000004,1.73369375,1.0,2705.305689196785,0.4398699115607103,1.304020992839344,0.9752091295734242,0.2858681375,0.7052654206408786
0.052000000000000005,1.7324,1.0,2703.2209821956217,0.4430118041043053,1.3034557560583298,0.9755134823327511,0.2858138,0.7063603447546795
0.0525,1.73109375,1.0,2701.109190519355,0.44613606995099275,1.3028851289374912,0.9758096157873068,0.28575893750000003,0.7074636437133908
0.053,1.729775,1.0,2698.9732840648426,0.44924280790666526,1.3023090846282432,0.9760978125386475,0.28570355000000003,0.7085753104312298
0.0535,1.72844375,1.0,2696.8162284553937,0.45233211677721524,1.301727596282001,0.976378342825779,0.2856476375,0.7096953368682584
0.054,1.7271,1.0,2694.6409849131783,0.45540409536853504,1.3011406370501795,0.9766514651686122,0.2855912,0.7108237140210845
0.0545,1.7257437500000001,1.0,2692.4505101473997,0.45845884248651714,1.3005481800841938,0.9769174269726414,0.2855342375,0.7119604319135172
0.055,1.724375,1.0,2690.247756258315,0.4614964569370539,1.2999501985354591,0.977176465097491,0.28547675,0.713105479587177
0.0555,1.72299375,1.0,2688.0285210661877,0.46451700254150097,1.2993467310418334,0.9774288069579348,0.2854187375,0.7142587200719651
0.056,1.7216,1.0,2685.8014055502376,0.46752061223791924,1.2987376989873822,0.9776746700862807,0.2853602,0.715420239807794
0.0565,1.72019375,1.0,2683.570248649722,0.47050739142380243,1.2981230672805144,0.9779142628923684,0.28530113749999997,0.7165900406736541
0.057,1.718775,1.0,2681.335898100088,0.47347742998416237,1.2975028282035037,0.978147785356103,0.28524155,0.7177680714633818
0.0575,1.71734375,1.0,2679.099200245286,0.4764308178040111,1.2968769740386235,0.9783754293031804,0.2851814375,0.7189542802476738
0.058,1.7159,1.0,2676.8610000322624,0.47936764476836047,1.2962454970681472,0.9785973788009149,0.2851208,0.7201486143713214
0.0585,1.71444375,1.0,2674.622141006402,0.4822880007622226,1.2956083895743487,0.9788138105317975,0.2850596375,0.7213510204504467
0.059000000000000004,1.7129750000000001,1.0,2672.3834653083045,0.48519197567060934,1.2949656438395014,0.9790248941462039,0.28499795,0.7225614443697335
0.059500000000000004,1.71149375,1.0,2670.1458136719675,0.48807965937853265,1.294317252145879,0.9792307925955698,0.2849357375,0.7237798312796527
0.06,1.71,1.0,2667.910025424265,0.49095114177100446,1.2936632067757547,0.9794316624472574,0.284873,0.7250061255936873
0.0605,1.7084937500000001,1.0,2665.6769384857757,0.4938065127330369,1.2930035000114024,0.9796276541822582,0.2848097375,0.7262402709855489
0.061,1.7069750000000001,1.0,2663.447389372869,0.4966458621496417,1.2923381241350955,0.9798189124767837,0.28474595,0.727482210386395
0.0615,1.7054437500000001,1.0,2661.222213201013,0.49946927990583095,1.2916670714291074,0.9800055764687423,0.2846816375,0.7287318859820406
0.062,1.7039,1.0,2659.002243689889,0.5022768558866165,1.290990334175712,0.9801877800100118,0.2846168,0.7299892392101639
0.0625,1.70234375,1.0,2656.7883131690483,0.5050686799770105,1.2903079046571828,0.9803656519053752,0.2845514375,0.731254210757513
0.063,1.7007750000000001,1.0,2654.5812525855104,0.5078448420620247,1.2896197751557932,0.9805393161389103,0.28448555,0.732526740557104
0.0635,1.69919375,1.0,2652.381891512738,0.5106054320266713,1.2889259379538167,0.9807088920885888,0.28441913750000003,0.7338067677854185
0.064,1.6976,1.0,2650.1910581600337,0.513350539755962,1.288226385333527,0.9808744947297726,0.2843522,0.7350942308595958
0.0645,1.69599375,1.0,2648.004263311175,0.5160802546668647,1.2875211586362088,0.9810362372620773,0.2842847375,0.7363889774760589
0.065,1.694375,1.0,2645.7937371024955,0.5187946580847214,1.2868105142047668,0.9811942389412424,0.28421675,0.7376904621862158
0.0655,1.69274375,1.0,2643.6415245817084,0.5214938397231345,1.2860936945465515,0.9813485651781653,0.2841482375,0.7389999934333689
0.066,1.6911004327766044,1.0,2641.5299359671417,0.5241778830076446,1.285371057910297,0.9814993332358527,0.2840792181766174,0.7403168345253759
0.0665,1.6894537220645376,1.0,2639.8439622847354,0.5268468713637919,1.284642962544738,0.9816466563169216,0.28401005632671056,0.7416402546994736
0.067,1.6878070113524708,1.0,2638.7102190454766,0.5295008882171169,1.2839097666986086,0.9817906437433849,0.28394089447680376,0.7429695292510895
0.0675,1.686160300640404,1.0,2638.0896032133,0.53214001699316,1.2831718286206435,0.9819314011273554,0.28387173262689697,0.7443039396544672
0.068,1.6845135899283372,1.0,2637.9431873829394,0.5347643411174617,1.2824295065595772,0.9820690305331796,0.28380257077699017,0.7456427736751077
0.0685,1.6828668792162707,1.0,2638.2321835354537,0.5373739440155623,1.281683158764144,0.9822036306314763,0.2837334089270834,0.7469853254740244
0.069,1.6812201685042039,1.0,2638.9179096392313,0.5399689091130021,1.2809331434830784,0.9823352968455317,0.2836642470771766,0.7483308957038141
0.0695,1.679573457792137,1.0,2639.971759089523,0.542549317058021,1.2801797265404604,0.9824641169895528,0.2835950852272697,0.7496789567465332
0.07,1.6779267470800703,1.0,2641.3545764085416,0.5451152519515471,1.2794232717697944,0.982590180796208,0.28352592337736293,0.7510288112036467
0.07050000000000001,1.6762800363680035,1.0,2643.0328609935937,0.5476667968234259,1.2786640910039484,0.9827135726675118,0.28345676152745614,0.752379860921375
0.07100000000000001,1.6746333256559367,1.0,2644.987453309994,0.550204030721908,1.2779023637518108,0.9828343680115312,0.28338759967754934,0.7537317481541973
0.07150000000000001,1.67298661494387,1.0,2647.1992103155835,0.552727032695244,1.2771382695222688,0.9829526398332427,0.28331843782764254,0.7550841185146756
0.07200000000000001,1.6713399042318031,1.0,2649.6489956830987,0.5552358817916844,1.2763719878242106,0.9830684588316976,0.28324927597773575,0.7564366210015765
0.0725,1.6696931935197366,1.0,2652.317670736773,0.5577306570594798,1.2756036981665242,0.9831818934926894,0.28318011412782895,0.7577889080259421
0.073,1.6680464828076698,1.0,2655.1860861036625,0.5602114375468807,1.2748335800580972,0.9832930101771541,0.28311095227792216,0.7591406354351068
0.0735,1.666399772095603,1.0,2658.235074078866,0.5626783023021379,1.2740618130078178,0.9834018732055294,0.2830417904280153,0.7604914625346553
0.074,1.6647530613835362,1.0,2661.4454417060933,0.5651313303735017,1.2732885765245736,0.9835085449382753,0.2829726285781085,0.76184105210833
0.0745,1.6631063506714694,1.0,2664.8075776163446,0.5675705962648501,1.2725139616839571,0.9836130817047042,0.2829034667282017,0.763189224130468
