Time [s],Phi [rad],STIM [ ],Fsee [N],Gamma [ ],Lcerel [ ],q [ ],Lmtc [m],fisomrel [ ]
0.0,1.8,1.0,17.967480826497923,1.0298539028689809e-05,1.3793397100712939,0.005000028260281414,0.288653,0.5411396185045495
0.0005,1.79999375,1.0,18.276883458532325,0.005619450081163602,1.3793023723146307,0.01294134268931895,0.2886527375,0.5412299437388179
0.001,1.799975,1.0,21.618707524898685,0.011197138718068144,1.3789382688210827,0.03561013186173152,0.28865195,0.5421102947158191
0.0015,1.79994375,1.0,31.069940524979977,0.016743540932624694,1.3780461437065705,0.07060383401878238,0.2886506375,0.5442637539177011
0.002,1.7999,1.0,53.58377208310829,0.02225883221606529,1.3763680418849473,0.1147203579487798,0.2886488,0.5483006921163602
0.0025,1.79984375,1.0,97.12114678395261,0.027743187075534612,1.3739350608071046,0.16457741720900554,0.28864643749999996,0.5541217165152647
0.003,1.7997750000000001,1.0,160.96112347908826,0.03319677904180705,1.371214233086249,0.217283057865967,0.28864354999999997,0.5605867128641202
0.0035,1.79969375,1.0,237.68671352817321,0.03861978066887832,1.3685846300594342,0.2706154779343537,0.2886401375,0.5667900844513714
0.004,1.7996,1.0,321.47041347127464,0.04401236354474767,1.3661559959302636,0.3229183087514547,0.2886362,0.5724801870035612
0.0045000000000000005,1.7994937500000001,1.0,409.2715743419122,0.04937469829660241,1.3639227244134333,0.37303688759181,0.2886317375,0.577679370712705
0.005,1.799375,1.0,499.41743672185123,0.054706954581907115,1.3618582587805301,0.42024968792208584,0.28862675,0.582457272169397
0.0055,1.79924375,1.0,590.7944170650795,0.060009301135870684,1.3599387568892518,0.46417576089836515,0.2886212375,0.5868752911001917
0.006,1.7991000000000001,1.0,682.5221367863645,0.06528190571460141,1.3581463415208568,0.5046818584870292,0.2886152,0.5909795856352864
0.006500000000000001,1.79894375,1.0,773.8856345717653,0.07052493515033247,1.356467178904058,0.541802491454728,0.2886086375,0.5948059641714996
0.007,1.798775,1.0,864.2899529991648,0.07573855533661271,1.35489032809318,0.5756783617938338,0.28860155,0.5983828285265147
0.0075,1.79859375,1.0,953.2465810780716,0.08092293123594872,1.3534067274237471,0.6065113617311522,0.2885939375,0.6017336894503741
0.008,1.7984,1.0,1040.361274584633,0.08607822686390208,1.3520086048259095,0.634533378056091,0.2885858,0.6048786419914436
0.0085,1.79819375,1.0,1125.3231682201426,0.09120460542384749,1.3506891149312177,0.6599855866091702,0.2885771375,0.607835282744768
0.009000000000000001,1.797975,1.0,1207.8826834822771,0.0963022288064286,1.3494422741285024,0.6831054395238434,0.28856795,0.6106189319257035
0.0095,1.79774375,1.0,1287.8770834858592,0.10137125885187302,1.3482623239116127,0.7041185986556616,0.2885582375,0.6132441127030707
0.01,1.7975,1.0,1365.1705947220069,0.10641185580291208,1.347144339710589,0.7232351281519778,0.288548,0.6157232379046533
0.0105,1.79724375,1.0,1439.6636039271023,0.11142417865674226,1.3460838950135807,0.7406474773507356,0.2885372375,0.6180674031002196
0.011,1.796975,1.0,1511.3115147085662,0.11640838604243652,1.3450766843420137,0.7565299587247483,0.28852595000000003,0.62028725103164
0.0115,1.79669375,1.0,1580.1145966143908,0.12136463648958902,1.3441185597059615,0.7710393478079719,0.2885141375,0.6223929109244088
0.012,1.7964,1.0,1646.0692366585927,0.12629308652915608,1.3432060218559667,0.784316172576846,0.28850180000000003,0.62439294184248
0.0125,1.79609375,1.0,1709.1824471842956,0.13119389145869564,1.3423359374730324,0.7964858779145189,0.2884889375,0.6262949805945793
0.013000000000000001,1.7957750000000001,1.0,1769.4974021509688,0.13606720655230295,1.3415051760739158,0.8076600783156302,0.28847555,0.6281065520239916
0.0135,1.79544375,1.0,1827.0763324659526,0.14091318602475372,1.3407107639025229,0.8179380319285975,0.2884616375,0.629834742860202
0.014,1.7951000000000001,1.0,1881.989267467284,0.14573198426872763,1.3399499626711169,0.8274080071151416,0.2884472,0.6314860423466399
0.0145,1.79474375,1.0,1934.28867586864,0.15052375264582823,1.3392204984931397,0.8361485877980437,0.2884322375,0.6330658590627098
0.015,1.794375,1.0,1984.0479738678412,0.15528864251765903,1.338520097482034,0.8442296235703328,0.28841675,0.6345795395432214
0.0155,1.79399375,1.0,2031.3499960932031,0.16002680446790313,1.3378465881855592,0.851713285140457,0.2884007375,0.6360321519495444
0.016,1.7936,1.0,2076.2894402346524,0.16473838963059728,1.337197852894234,0.8586549555532655,0.2883842,0.6374285969499951
0.0165,1.7931937500000001,1.0,2118.9545669960294,0.16942354779664937,1.3365719980891833,0.8651040828845501,0.2883671375,0.638773246499537
0.017,1.792775,1.0,2159.411379171925,0.1740824257635222,1.3359674914672712,0.8711049175751828,0.28834955,0.6400696577716487
0.0175,1.7923437500000001,1.0,2197.7365596396885,0.1787151703286785,1.335382800725363,0.8766970218927146,0.2883314375,0.6413213551581999
0.018000000000000002,1.7919,1.0,2234.0165803306936,0.18332192828958108,1.3348163935603232,0.881915821291225,0.2883128,0.6425318322807996
0.0185,1.79144375,1.0,2268.3390541575513,0.18790284553218314,1.3342668155325492,0.8867931070690783,0.2882936375,0.6437043878626554
0.019,1.790975,1.0,2300.7951031071925,0.1924580682580108,1.3337326560737024,0.8913574488151558,0.28827395,0.6448422011160455
0.0195,1.79049375,1.0,2331.4651783966983,0.1969877409455214,1.333212679599126,0.8956345935201595,0.2882537375,0.6459480553391909
0.02,1.79,1.0,2360.4152021637096,0.20149200554744598,1.3327058516083434,0.8996477893940505,0.288233,0.6470242866886702
0.0205,1.78949375,1.0,2387.716138579559,0.2059710040165155,1.3322111376008785,0.9034180203524707,0.2882117375,0.6480732144576855
0.021,1.788975,1.0,2413.4435746545387,0.21042487830546092,1.3317275030762545,0.9069642573591473,0.28818995000000003,0.6490971419094183
0.021500000000000002,1.78844375,1.0,2437.6707036436073,0.21485376908450926,1.331253977218155,0.9103036918413178,0.2881676375,0.6500982225036798
0.022,1.7879,1.0,2460.4738897413713,0.21925781817265028,1.3307895945815515,0.9134519174938849,0.2881448,0.6510785845553979
0.0225,1.78734375,1.0,2481.9212157710163,0.22363716569605208,1.3303335010092965,0.9164231202829654,0.28812143749999997,0.6520401087721337
0.023,1.786775,1.0,2502.06811233303,0.22799194858221983,1.3298849899729133,0.9192302322241989,0.28809755,0.6529843539240144
0.0235,1.78619375,1.0,2520.972417296884,0.23232230375865864,1.3294433549439244,0.9218850349807116,0.28807313749999996,0.6539128695258019
0.024,1.7856,1.0,2538.694174125649,0.23662836815287364,1.3290078893938528,0.9243982780809292,0.2880482,0.6548271961626349
0.0245,1.78499375,1.0,2555.295441267986,0.24091027869237,1.328577886794222,0.9267797835639343,0.2880227375,0.6557288657839397
0.025,1.784375,1.0,2570.8273928980034,0.24516816917453998,1.328152759748419,0.9290385577373886,0.28799675,0.6566191526450778
0.025500000000000002,1.78374375,1.0,2585.356231654714,0.24940217879344984,1.3277317947276224,0.9311828340368714,0.2879702375,0.6574995877698073
0.026000000000000002,1.7831000000000001,1.0,2598.9287548289344,0.25361244091556323,1.3273144732352458,0.9332201959605995,0.2879432,0.6583712870240229
0.0265,1.78244375,1.0,2611.585902328669,0.2577990869354048,1.3269003421510552,0.9351576197096906,0.2879156375,0.659235224175775
0.027,1.781775,1.0,2623.3696247554403,0.2619622482474994,1.3264889483548166,0.9370015221769512,0.28788755,0.6600923679916005
0.0275,1.7810937500000001,1.0,2634.3227969147,0.2661020562463716,1.326079838726296,0.938757813239318,0.2878589375,0.6609436823221709
0.028,1.7804,1.0,2644.4891358790646,0.27021864232654613,1.3256725601452592,0.9404319425261063,0.2878298,0.6617901261748486
0.0285,1.77969375,1.0,2653.9131236034978,0.2743121378825477,1.3252666594914728,0.942028941306542,0.2878001375,0.6626326537731451
0.029,1.778975,1.0,2662.6307365945695,0.2783826690507452,1.3248617682896904,0.9435534699459986,0.28776995,0.663472039233723
0.029500000000000002,1.7782437500000001,1.0,2670.6921089786556,0.28243037198215526,1.3244573931884935,0.9450098274755075,0.2877392375,0.6643093112414775
0.03,1.7775,1.0,2678.1264068843047,0.2864553725894102,1.324053238668662,0.9464020194021436,0.287708,0.6651450845291809
0.0305,1.77674375,1.0,2684.962373784489,0.29045779632490193,1.3236490168938355,0.9477337610735617,0.2876762375,0.6659799549223653
0.031,1.775975,1.0,2691.229127430158,0.2944377686410225,1.323244440027654,0.9490085015644502,0.28764395,0.6668145152780881
0.0315,1.7751937500000001,1.0,2696.95612517183,0.2983954149901637,1.3228392202337567,0.9502294460809746,0.2876111375,0.6676493554810585
0.032,1.7744,1.0,2702.1731311176945,0.30233086082471755,1.3224330696757833,0.9513995762186819,0.2875778,0.6684850624344754
0.0325,1.77359375,1.0,2706.9101851294986,0.30624423159707587,1.3220257005173737,0.952521668302652,0.2875439375,0.6693222200455828
0.033,1.772775,1.0,2711.189708798671,0.3101356474312755,1.3216168966516781,0.9535983168877054,0.28750955,0.6701612620795401
0.0335,1.7719437500000002,1.0,2715.0414418468804,0.3140052350141348,1.3212063770702855,0.9546319368398178,0.2874746375,0.6710027529635891
0.034,1.7711000000000001,1.0,2718.498852396453,0.3178531240594338,1.3207938285852077,0.9556247802869979,0.2874392,0.6718473199669783
0.0345,1.7702437500000001,1.0,2721.579581453027,0.3216794331156711,1.3203790837158584,0.956578965233976,0.2874032375,0.6726952892773819
0.035,1.7693750000000001,1.0,2724.3013934236515,0.32548428073134533,1.319961974981652,0.9574964728635137,0.28736675,0.6735469852227063
0.035500000000000004,1.76849375,1.0,2726.682163621404,0.32926778545495516,1.319542334902002,0.9583791579593827,0.2873297375,0.6744027302467375
0.036000000000000004,1.7676,1.0,2728.7398663918502,0.3330300658349992,1.3191199959963225,0.9592287584207664,0.2872922,0.6752628448829947
0.0365,1.76669375,1.0,2730.4925638616696,0.336771240419976,1.3186947907840274,0.9600469039566667,0.2872541375,0.6761276477268017
0.037,1.765775,1.0,2731.958395308724,0.3404914277583843,1.318266551784531,0.960835124039403,0.28721555,0.6769974554055629
0.0375,1.76484375,1.0,2733.155567154497,0.3441907463987227,1.3178351115172469,0.9615948551879065,0.2871764375,0.6778725825472554
0.038,1.7639,1.0,2734.102343578105,0.3478693148894898,1.317400302501589,0.9623274476440768,0.28713679999999997,0.6787533417471294
0.0385,1.76294375,1.0,2734.814138822893,0.35152724773858074,1.3169619835815272,0.963034173168823,0.28709663750000003,0.6796399903190807
0.039,1.761975,1.0,2735.3045685724696,0.35516466077595066,1.31652003029327,0.9637162307233308,0.28705595,0.680532750073812
0.0395,1.7609937500000001,1.0,2735.591667992534,0.3587816774849622,1.3160742783455446,0.9643747475338296,0.2870147375,0.6814319214551761
0.04,1.76,1.0,2735.6855693933326,0.3623784092437027,1.3156246354528864,0.9650107903331735,0.286973,0.6823376578291854
0.0405,1.7589937500000001,1.0,2735.596426988022,0.3659549674302593,1.315171009329831,0.9656253653600162,0.2869307375,0.6832501112181619
0.041,1.757975,1.0,2735.334413397796,0.36951146342271923,1.3147133076909132,0.9662194224213867,0.28688795,0.6841694322775658
0.0415,1.75694375,1.0,2734.9097163454812,0.37304800859916976,1.3142514382506685,0.9667938586415834,0.2868446375,0.6850957702722777
0.042,1.7559,1.0,2734.332535538809,0.376564714337698,1.3137853087236326,0.967349521924606,0.28680079999999997,0.6860292730523423
0.0425,1.75484375,1.0,2733.613079741732,0.3800616920163913,1.3133148268243404,0.9678872141547379,0.2867564375,0.6869700870281683
0.043000000000000003,1.753775,1.0,2732.761564034558,0.3835390530133367,1.3128399002673277,0.9684076941575538,0.28671155,0.6879183571451801
0.043500000000000004,1.75269375,1.0,2731.788207263837,0.38699690870662157,1.3123604367671293,0.9689116804415265,0.28666613750000003,0.6888742268579344
0.044,1.7516,1.0,2730.703913577989,0.39043537019474106,1.3118763378232734,0.969399853205711,0.2866202,0.6898378504653809
0.0445,1.75049375,1.0,2729.5157767599867,0.39385454571547707,1.3113875395575703,0.9698728595310695,0.2865737375,0.6908093118886564
0.045,1.7493750000000001,1.0,2728.2268107064365,0.39725454281351563,1.3108940151860937,0.9703313159216346,0.28652675,0.6917886202852963
0.0455,1.74824375,1.0,2726.845215076686,0.40063546838169917,1.3103956907921184,0.9707758037924467,0.2864792375,0.6927758773523076
0.046,1.7471,1.0,2725.379186334873,0.40399742931287,1.3098924924589186,0.9712068752341856,0.2864312,0.6937711834107114
0.0465,1.7459437500000001,1.0,2723.8272277289634,0.40734053168285544,1.3093844344279364,0.9716250611361007,0.28638263750000004,0.6947744634365622
0.047,1.744775,1.0,2722.212452266624,0.4106648826272122,1.308871307000604,0.9720308500207582,0.28633355,0.6957860832644729
0.0475,1.74359375,1.0,2720.545307519043,0.4139705874355952,1.308353015568583,0.9724247145283537,0.28628393750000003,0.6968061791765345
0.048,1.7424,1.0,2718.8151903756802,0.4172577496867967,1.3078296571415902,0.9728071177001874,0.2862338,0.6978345095155964
0.0485,1.7411939537507692,1.0,2717.0216133457693,0.4205264729596086,1.3073013287293422,0.973178500307844,0.2861831460575323,0.6988708334221325
0.049,1.7399837106887897,1.0,2715.555367273679,0.42377686083282307,1.3067681273415561,0.9735392821306658,0.2861323158489292,0.6999149108652896
0.0495,1.7387734676268103,1.0,2714.6141273788985,0.427009016317474,1.3062301441556403,0.9738898626853998,0.28608148564032604,0.7009665140638257
0.05,1.737563224564831,1.0,2714.1513634058692,0.43022304234895875,1.305687800819441,0.9742306449851478,0.2860306554317229,0.7020247717798909
0.0505,1.7363529815028513,1.0,2714.1196468522626,0.4334190412667359,1.3051415285429444,0.9745620139121942,0.28597982522311977,0.7030887996124855
0.051000000000000004,1.735142738440872,1.0,2714.488515019671,0.43659711311907795,1.3045916049155009,0.9748843263621224,0.28592899501451663,0.7041580172672176
0.051500000000000004,1.7339324953788926,1.0,2715.2275902774736,0.4397573579542572,1.3040383075264597,0.9751979230311223,0.2858781648059135,0.7052318480754016
0.052000000000000005,1.732722252316913,1.0,2716.3065584443552,0.4428998758205462,1.303481913965171,0.9755031293012776,0.28582733459731036,0.7063097190562391
0.0525,1.7315120092549336,1.0,2717.6973560790875,0.44602476585611,1.3029226817148443,0.975800254703451,0.2857765043887072,0.7073910998172422
0.053,1.7303017661929543,1.0,2719.3779915689283,0.4491321252035182,1.302360813220872,0.9760895914806591,0.2857256741801041,0.7084755696059089
0.0535,1.7290915231309747,1.0,2721.3096867532995,0.45222205883920574,1.301796663934228,0.976371429377818,0.28567484397150095,0.7095624159380443
0.054,1.7278812800689953,1.0,2723.4765354248466,0.45529466234647503,1.3012303810238668,0.9766460319231993,0.2856240137628978,0.7106513314675256
0.0545,1.726671037007016,1.0,2725.862637356059,0.4583500313086287,1.3006621116587431,0.9769136513718102,0.2855731835542947,0.7117420108829895
0.055,1.7254607939450364,1.0,2728.452091577516,0.46138826130896926,1.3000920030078118,0.9771745292860721,0.28552235334569154,0.7128341509271667
0.0555,1.724250550883057,1.0,2731.2289901363665,0.4644094479307993,1.2995202022400272,0.9774288970819821,0.2854715231370884,0.7139274504148381
0.056,1.7230403078210776,1.0,2734.177412334859,0.46741368675742123,1.2989468565243438,0.9776769765430681,0.28542069292848526,0.7150216102494049
0.0565,1.721830064759098,1.0,2737.2814194491357,0.47040107337213777,1.2983721130297166,0.9779189803042878,0.28536986271988213,0.7161163334380805
0.057,1.7206198216971187,1.0,2740.525049928171,0.4733717033582513,1.2977961189251,0.9781551123078567,0.285319032511279,0.7172113251057007
0.0575,1.7194095786351393,1.0,2743.8994246130137,0.4763256668600702,1.297218956926163,0.9783855640902559,0.28526820230267586,0.7183064146802414
0.058,1.7181993355731597,1.0,2747.386645074219,0.4792630639546693,1.2966407913458022,0.978610524958981,0.2852173720940727,0.7194012784111488
0.0585,1.7169890925111804,1.0,2750.9760693675694,0.4821839881643497,1.2960617204469642,0.9788301724361499,0.2851665418854696,0.7204957196619375
0.059000000000000004,1.715778849449201,1.0,2754.660681931381,0.4850885298506578,1.295481809477773,0.9790446749521379,0.28511571167686645,0.721589605445603
0.059500000000000004,1.7145686063872214,1.0,2758.433452852356,0.4879767793751398,1.294901123686353,0.9792541943527677,0.2850648814682633,0.7226828037261681
0.06,1.713358363325242,1.0,2762.2873366976214,0.4908488270993417,1.2943197283208285,0.9794588862098245,0.2850140512596602,0.7237751834220463
0.0605,1.7121481202632627,1.0,2766.215271440997,0.49370476338480984,1.2937376886293241,0.9796589001146205,0.28496322105105704,0.7248666144091269
0.061,1.710937877201283,1.0,2770.2101774837197,0.4965446785930905,1.2931550698599639,0.9798543799556625,0.2849123908424539,0.725956967523596
0.0615,1.7097276341393037,1.0,2774.264956769424,0.49936866308572975,1.2925719372608724,0.9800454641813962,0.28486156063385076,0.7270461145644775
0.062,1.7085173910773244,1.0,2778.3724919937486,0.5021768072242739,1.2919883560801737,0.9802322860489354,0.2848107304252476,0.7281339282959111
0.0625,1.7073071480153448,1.0,2782.528604246046,0.5049691953799399,1.2914043649332767,0.9804149720268881,0.2847599002166445,0.7292203319446228
0.063,1.7060969049533654,1.0,2786.7283075291793,0.5077459166131121,1.290820009591388,0.9805936446420045,0.28470907000804135,0.7303052360371971
0.0635,1.704886661891386,1.0,2790.9617006268018,0.5105070709810633,1.2902353798792374,0.9807684249884756,0.2846582397994382,0.7313884702371006
0.064,1.7036764188294065,1.0,2795.2262400512195,0.5132527428255462,1.2896504992667497,0.9809394252648066,0.2846074095908351,0.732469988120289
0.0645,1.702466175767427,1.0,2799.519374784812,0.5159830164883134,1.2890653912238506,0.9811067536323423,0.28455657938223194,0.7335497436116143
0.065,1.7012559327054477,1.0,2803.8385461555804,0.5186979763111172,1.2884800792204645,0.9812705143906605,0.2845057491736288,0.7346276909851868
0.0655,1.7000456896434681,1.0,2808.1811877249756,0.5213977066357103,1.2878945867265168,0.9814308081441251,0.28445491896502567,0.7357037848646942
0.066,1.6988354465814888,1.0,2812.5447251877367,0.524082291803845,1.2873089372119324,0.9815877319601087,0.28440408875642254,0.7367779802236922
0.0665,1.6976252035195094,1.0,2816.9265762841414,0.5267518161572741,1.2867231541466366,0.9817413795193545,0.2843532585478194,0.7378502323858548
0.067,1.6964149604575298,1.0,2821.324150724442,0.5294063640377499,1.2861372610005544,0.9818918412589234,0.28430242833921626,0.7389204970251934
0.0675,1.6952047173955505,1.0,2825.734850125473,0.5320460197870249,1.2855512812436105,0.9820392045081424,0.2842515981306131,0.7399887301662387
0.068,1.693994474333571,1.0,2830.1560679593113,0.5346708677468519,1.2849652383457304,0.9821835536179404,0.28420076792201,0.7410548881841872
0.0685,1.6927842312715915,1.0,2834.585189514514,0.5372809922589831,1.2843791557768391,0.9823249700839392,0.28414993771340685,0.7421189278050135
0.069,1.6915739882096121,1.0,2839.0195918693976,0.5398764776651711,1.2837930570068616,0.9824635326636433,0.2840991075048037,0.7431808061055492
0.0695,1.6903637451476325,1.0,2843.4608506299855,0.5424573825888594,1.2832069280420038,0.9825993141368021,0.2840482772962006,0.7442405481792452
0.07,1.6891535020856532,1.0,2847.9036386062135,0.5450238187024524,1.2826208163578245,0.9827323910102475,0.28399744708759744,0.7452980681161889
0.07050000000000001,1.6879432590236738,1.0,2852.3461243629445,0.5475758713433954,1.2820347381985262,0.9828628342141177,0.2839466168789943,0.7463533368918648
0.07100000000000001,1.6867330159616944,1.0,2856.7876623308307,0.5501136176770839,1.281448699221582,0.9829907113871517,0.28389578667039117,0.7474063447272941
0.07150000000000001,1.6855227728997149,1.0,2861.2276049689767,0.5526371348689135,1.2808627050844652,0.9831160879802252,0.28384495646178803,0.7484570819280508
0.07200000000000001,1.6843125298377355,1.0,2865.6653027704474,0.5551465000842796,1.2802767614446484,0.9832390273420037,0.2837941262531849,0.7495055388842463
0.0725,1.6831022867757561,1.0,2870.1001042680123,0.5576417904885778,1.2796908739596045,0.9833595908006981,0.28374329604458176,0.7505517060705124
