Time [s],Phi [rad],STIM [ ],Fsee [N],Gamma [ ],Lcerel [ ],q [ ],Lmtc [m],fisomrel [ ]
0.0,1.8,1.0,18.03511209599756,0.00026493978933661273,1.379332140292004,0.005018229458677646,0.288653,0.5411579315736206
0.0005,1.79999375,1.0,18.427038489940223,0.0058726629954780184,1.3792857271943704,0.013663416816985473,0.2886527375,0.5412702077380027
0.001,1.799975,1.0,21.95794073069808,0.011448931308161506,1.3789037562661488,0.03694942885846864,0.28865195,0.5421936973450348
0.0015,1.79994375,1.0,31.819023718804427,0.016993921165456886,1.3779827052058091,0.07242905469581427,0.2886506375,0.5444166918536302
0.002,1.7999,1.0,55.14761420639848,0.022507808013573983,1.3762673187925643,0.11687681414396721,0.2886488,0.5485424260480065
0.0025,1.79984375,1.0,99.70784738378794,0.027990766315833016,1.3738112343692872,0.16692018685488275,0.28864643749999996,0.5544169676636156
0.003,1.7997750000000001,1.0,164.29983762254713,0.03344296955827727,1.3710899043948874,0.2196978810370502,0.28864354999999997,0.5608810040057185
0.0035,1.79969375,1.0,241.44417568122668,0.038864590251079224,1.3684693449425251,0.27301583191467044,0.2886401375,0.5670610390230435
0.004,1.7996,1.0,325.45924561117505,0.044255799938689465,1.36605067330661,0.3252414755112073,0.2886362,0.5727260987620455
0.0045000000000000005,1.7994937500000001,1.0,413.39623387557356,0.04961676920524034,1.36382614610492,0.37524146551833726,0.2886317375,0.5779034930179894
0.005,1.799375,1.0,503.6214371407624,0.054947667666329324,1.3617691116850872,0.422311753811601,0.28862675,0.5826629777760934
0.0055,1.79924375,1.0,595.0321826870778,0.060248664006889226,1.3598561094487027,0.4660845972894392,0.2886212375,0.5870649888151891
0.006,1.7991000000000001,1.0,686.7611917265917,0.06551992594911304,1.3580694062864724,0.5064358745490686,0.2886152,0.5911552942654756
0.006500000000000001,1.79894375,1.0,778.0953982794829,0.07076162026021557,1.3563954131437255,0.5434061517864921,0.2886086375,0.5949690991393917
0.007,1.798775,1.0,868.4486737840439,0.0759739128644456,1.3548232322023939,0.5771397169982099,0.28860155,0.5985346743923664
0.0075,1.79859375,1.0,957.3296710018423,0.08115696850978978,1.3533439924990711,0.6078404781126289,0.2885939375,0.6018750732296441
0.008,1.7984,1.0,1044.3635663000093,0.08631095148318181,1.3519497357870534,0.6357409808933381,0.2885858,0.6050107891563244
0.0085,1.79819375,1.0,1129.2291949391786,0.09143602461874488,1.350633868073029,0.6610825967349784,0.2885771375,0.6079588346943422
0.009000000000000001,1.797975,1.0,1211.6819846172625,0.09653234994470623,1.349390401577056,0.6841023695873685,0.28856795,0.6107345257838763
0.0095,1.79774375,1.0,1291.56112393391,0.10160008923737551,1.3482136087315444,0.7050253195931472,0.2885582375,0.6133523045094227
0.01,1.7975,1.0,1368.7296886810955,0.10663940249707585,1.3470986255671875,0.7240607579846069,0.288548,0.6158244391880401
0.0105,1.79724375,1.0,1443.0983963354572,0.11165044896933944,1.3460409316224744,0.741400260847865,0.2885372375,0.6181622246232461
0.011,1.796975,1.0,1514.6259716288437,0.11663338726157907,1.3450362188482672,0.7572173286545136,0.28852595000000003,0.6203763000092177
0.0115,1.79669375,1.0,1583.3085567753574,0.12158837583501461,1.3440804221127995,0.7716680048783096,0.2885141375,0.6224766043325182
0.012,1.7964,1.0,1649.131597567885,0.1265155706341724,1.3431701942449217,0.7848921642563964,0.28850180000000003,0.6244713577229042
0.0125,1.79609375,1.0,1712.1181804942953,0.13141512744308953,1.3423022302171532,0.7970145174314601,0.2884889375,0.6263685688404435
0.013000000000000001,1.7957750000000001,1.0,1772.3081146972745,0.13628720123188942,1.3414734580233385,0.8081461128165571,0.28847555,0.6281756296734161
0.0135,1.79544375,1.0,1829.7808877882867,0.14113194749113933,1.3406807277519293,0.8183856135823061,0.2884616375,0.6299000055434179
0.014,1.7951000000000001,1.0,1884.5833295531945,0.14594951865265024,1.3399215763182821,0.8278209234941714,0.2884472,0.6315475827592294
0.0145,1.79474375,1.0,1936.7724033779016,0.15074006653610378,1.339193688831441,0.8365301908248705,0.2884322375,0.6331238566866056
0.015,1.794375,1.0,1986.4261649876673,0.15550374296118147,1.3384947504004512,0.8445828806256488,0.28841675,0.6346342600489039
0.0155,1.79399375,1.0,2033.6238674159629,0.16024069865159044,1.3378226363170598,0.852040853087542,0.2884007375,0.6360837576268864
0.016,1.7936,1.0,2078.4690504000596,0.1649510848146503,1.3371751433549541,0.8589591749125093,0.2883842,0.6374774320904533
0.0165,1.7931937500000001,1.0,2121.0299942239326,0.16963504943114302,1.3365505924716528,0.8653871049522711,0.2883671375,0.6388191923054194
0.017,1.792775,1.0,2161.3822114299255,0.17429274017509447,1.3359473556023462,0.8713686374299977,0.28834955,0.6401128005860675
0.0175,1.7923437500000001,1.0,2199.6122287166436,0.17892430472053056,1.3353638046822254,0.8769431092083094,0.2883314375,0.6413619850416524
0.018000000000000002,1.7919,1.0,2235.799924560271,0.18352988930507422,1.3347984795542145,0.8821457914562999,0.2883128,0.6425700831893694
0.0185,1.79144375,1.0,2270.050829460992,0.18810964161582636,1.3342497508490139,0.8870082763166726,0.2882936375,0.6437407654890694
0.019,1.790975,1.0,2302.4336927067725,0.19266370529793558,1.3337164364305119,0.8915590559311211,0.28827395,0.6448767221177301
0.0195,1.79049375,1.0,2333.0201941697633,0.1971922236923507,1.3331973886193902,0.8958237745658659,0.2882537375,0.6459805491620506
0.02,1.79,1.0,2361.8878260244946,0.20169534014002052,1.3326914597363313,0.8998255435506799,0.288233,0.647054823400858
0.0205,1.78949375,1.0,2389.1134625536215,0.20617319708107976,1.3321975597943465,0.9035852380161736,0.2882117375,0.6481019810799795
0.021,1.788975,1.0,2414.7787814873996,0.21062593748652467,1.3317145980974705,0.9071217326127624,0.28818995000000003,0.6491244432686021
0.021500000000000002,1.78844375,1.0,2438.9572944122624,0.2150537028195463,1.3312416039906934,0.9104521449887855,0.2881676375,0.6501243615614563
0.022,1.7879,1.0,2461.7080346185176,0.21945663175543972,1.3307777807793952,0.9135920350952694,0.2881448,0.6511035068324564
0.0225,1.78734375,1.0,2483.0930913646316,0.22383486296950006,1.330322331768957,0.9165555371261248,0.28812143749999997,0.6520636388224461
0.023,1.786775,1.0,2503.1773552040295,0.2281885351370223,1.3298744602647588,0.9193555098970587,0.28809755,0.6530065065849302
0.0235,1.78619375,1.0,2522.023052737594,0.23251778597399583,1.3294334189770294,0.9220036783373203,0.28807313749999996,0.6539337450928094
0.024,1.7856,1.0,2539.6922073135393,0.23682275303142003,1.328998483837474,0.9245107452624912,0.2880482,0.6548469312265414
0.0245,1.78499375,1.0,2556.2559147525294,0.24110357508623376,1.3285688646161726,0.9268864796089568,0.2880227375,0.6557477716991047
0.025,1.784375,1.0,2571.75908067172,0.24536038563939144,1.3281440344161861,0.9291398637892849,0.28799675,0.6566374128733063
0.025500000000000002,1.78374375,1.0,2586.2480392468033,0.2495933181918476,1.3277234663405753,0.931279128097419,0.2879702375,0.6575169949289472
0.026000000000000002,1.7831000000000001,1.0,2599.7704343964388,0.2538025062445567,1.3273066334924013,0.9333118238954828,0.2879432,0.6583876520148945
0.0265,1.78244375,1.0,2612.3751071218894,0.2579880832984731,1.3268930089747246,0.9352448887866455,0.2879156375,0.6592505123834522
0.027,1.781775,1.0,2624.111477509062,0.2621501826245178,1.326482070632327,0.9370847053703003,0.28788755,0.6601066886340186
0.0275,1.7810937500000001,1.0,2635.0226175178673,0.26628893415058896,1.3260733641587357,0.9388371612903185,0.2878589375,0.660957146639683
0.028,1.7804,1.0,2645.1616618905714,0.2704044738847225,1.3256663500542927,0.9405076759694032,0.2878298,0.6618030243696267
0.0285,1.77969375,1.0,2654.562534583095,0.2744969298331459,1.3252606734862895,0.9421012765812478,0.2878001375,0.6626450710562671
0.029,1.778975,1.0,2663.2597680415256,0.2785664300020864,1.3248559796220178,0.9436226098544067,0.28776995,0.663484032218811
0.029500000000000002,1.7782437500000001,1.0,2671.2884496637653,0.28261310239777165,1.3244519136287687,0.9450759757736219,0.2877392375,0.6643206496895091
0.03,1.7775,1.0,2678.6841710525855,0.2866370750264289,1.3240481206738337,0.9464653578932646,0.287708,0.6651556616318767
0.0305,1.77674375,1.0,2685.482980060499,0.29063847589428565,1.3236442459245046,0.9477944506403304,0.2876762375,0.665989802550889
0.031,1.775975,1.0,2691.712324495549,0.2946174287416065,1.3232400170287044,0.949066693072192,0.28764395,0.6668236332630194
0.0315,1.7751937500000001,1.0,2697.406801866031,0.2985740624437006,1.3228350992832814,0.950285275073975,0.2876111375,0.6676578401490876
0.032,1.7744,1.0,2702.6072726516795,0.30250850846188326,1.3224291037490565,0.9514531583209297,0.2875778,0.6684932176517224
0.0325,1.77359375,1.0,2707.3351323767133,0.30642088827821234,1.3220218219759723,0.9525731194214513,0.2875439375,0.6693301854951378
0.033,1.772775,1.0,2711.6119868740093,0.3103113233747455,1.3216130455139719,0.953647746343996,0.28750955,0.6701691612092726
0.0335,1.7719437500000002,1.0,2715.4596326218984,0.3141799352335405,1.3212025659129978,0.9546794534997576,0.2874746375,0.6710105601113083
0.034,1.7711000000000001,1.0,2718.900038043552,0.3180268453366551,1.320790174722993,0.9556704954485381,0.2874392,0.6718547952844118
0.0345,1.7702437500000001,1.0,2721.955325770084,0.32185217516614706,1.3203756634939003,0.9566229793680481,0.2874032375,0.672702277553709
0.035,1.7693750000000001,1.0,2724.647755867037,0.3256560462040742,1.3199588237756623,0.9575388764112052,0.28736675,0.6735534154594855
0.035500000000000004,1.76849375,1.0,2726.999710023986,0.32943857993249415,1.319539447118222,0.9584200320622297,0.2873297375,0.6744086152276181
0.036000000000000004,1.7676,1.0,2729.033676707988,0.3331998978334647,1.3191173250715222,0.959268175590216,0.2872922,0.6752682807372334
0.0365,1.76669375,1.0,2730.7666576202832,0.3369401122369562,1.3186922998907138,0.9600849317614257,0.2872541375,0.6761327104284673
0.037,1.765775,1.0,2732.2240281526592,0.3406593532850608,1.3182641384276275,0.9608718219359355,0.28721555,0.6770023539251275
0.0375,1.76484375,1.0,2733.4189402361335,0.34435773592132546,1.317832719214574,0.9616302826764888,0.2871764375,0.6778774317495848
0.038,1.7639,1.0,2734.3644025826115,0.3480353747948774,1.3173979225469745,0.962361664408405,0.28713679999999997,0.6787581593203595
0.0385,1.76294375,1.0,2735.0734684607874,0.35169238455484403,1.3169596287202503,0.9630672374276815,0.28709663750000003,0.6796447505150545
0.039,1.761975,1.0,2735.5592298358392,0.35532887985035255,1.3165177180298224,0.9637481975241379,0.28705595,0.680537417644113
0.0395,1.7609937500000001,1.0,2735.834811828205,0.3589449753305304,1.3160720707711122,0.9644056711515133,0.2870147375,0.681436371423664
0.04,1.76,1.0,2735.9133674886725,0.36254078564450476,1.3156225672395403,0.9650407201854848,0.286973,0.682341820947455
0.0405,1.7589937500000001,1.0,2735.808072892128,0.366116425441403,1.3151690877305282,0.9656543463064807,0.2869307375,0.6832539736578656
0.041,1.757975,1.0,2735.532122548343,0.36967200937035244,1.3147115125394968,0.9662474950405201,0.28688795,0.6841730353160145
0.0415,1.75694375,1.0,2735.0878068482107,0.3732076321314802,1.3142498211034022,0.966821064521001,0.2868446375,0.68509901127704
0.042,1.7559,1.0,2734.4992164596947,0.3767234303399653,1.3137837950195375,0.9673758941127999,0.28680079999999997,0.6860323022421457
0.0425,1.75484375,1.0,2733.777348974824,0.3802195187549959,1.3133133348252395,0.9679127838009045,0.2867564375,0.6869730683057633
0.043000000000000003,1.753775,1.0,2732.928734675767,0.3836960040135561,1.3128383816796403,0.968432492628165,0.28671155,0.6879213869517338
0.043500000000000004,1.75269375,1.0,2731.9599089614276,0.3871529927526301,1.3123588767418712,0.968935739342406,0.28666613750000003,0.6888773345681011
0.044,1.7516,1.0,2730.8774108817756,0.39059059160920206,1.3118747611710644,0.9694232049338958,0.2866202,0.6898409864301389
0.0445,1.75049375,1.0,2729.6877817506165,0.3940089072202562,1.3113859761263515,0.9698955349887576,0.2865737375,0.6908124166831608
0.045,1.7493750000000001,1.0,2728.397563833944,0.3974080462227767,1.3108924627668646,0.9703533418733569,0.28652675,0.6917916983251076
0.0455,1.74824375,1.0,2727.0132991153823,0.40078811525374775,1.3103941622517352,0.9707972067633418,0.2864792375,0.6927789031889142
0.046,1.7471,1.0,2725.5415281386895,0.40414922095015343,1.3098910157400956,0.9712276815297782,0.2864312,0.693774101924655
0.0465,1.7459437500000001,1.0,2723.9887889267907,0.407491469948978,1.309382964391077,0.9716452904937303,0.28638263750000004,0.6947773639814718
0.047,1.744775,1.0,2722.3616159772187,0.4108149688872056,1.3088699493638116,0.9720505320596277,0.28633355,0.6957887575892744
0.0475,1.74359375,1.0,2720.666539335197,0.4141198244018204,1.3083519118174312,0.9724438802368618,0.28628393750000003,0.6968083497402269
0.048,1.7424,1.0,2718.9100837425412,0.41740614312980656,1.3078287929110675,0.9728257860582402,0.2862338,0.6978362061700101
0.0485,1.74119375,1.0,2717.0937865052597,0.4206740314585053,1.3073005791857535,0.973196682031492,0.2861831375,0.6988723023982795
0.049,1.739975,1.0,2715.2023533055562,0.42392359069557645,1.3067674105783345,0.9735569900156774,0.28613195,0.6999163131602792
0.0495,1.73874375,1.0,2713.3108989124985,0.42715492452810366,1.3062286030067753,0.9739070563397118,0.2860802375,0.7009695239174707
0.05,1.7375000027353245,1.0,2711.386617841161,0.4303681336716188,1.3056844568957897,0.9742472769447338,0.2860280001148836,0.7020312908556317
0.0505,1.7362502642369653,1.0,2709.7186817378374,0.4335633188416537,1.3051352726700902,0.9745780294207063,0.28597551109795255,0.703100973764508
0.051000000000000004,1.7350005257386063,1.0,2708.570451443537,0.4367405807537403,1.3045813507543904,0.9748996740290081,0.2859230220810215,0.7041779361372162
0.051500000000000004,1.7337507872402473,1.0,2707.908676315636,0.43990002012341034,1.3040229915734034,0.9752125546595145,0.2858705330640904,0.7052615452638976
0.052000000000000005,1.7325010487418884,1.0,2707.70025887529,0.4430417376661958,1.303460495551842,0.9755169997268809,0.2858180440471593,0.7063511723196124
0.0525,1.7312513102435292,1.0,2707.914670985621,0.44616583160076406,1.3028941408043129,0.9758133213379977,0.2857655550302282,0.7074462355434219
0.053,1.7300015717451702,1.0,2708.503016152012,0.44927240391262774,1.3023243739571364,0.9761018287489547,0.28571306601329716,0.7085458319879641
0.0535,1.7287518332468113,1.0,2709.4400000687865,0.45236155143630674,1.3017514268866377,0.9763828039013679,0.28566057699636604,0.7096494782266523
0.054,1.7275020947484523,1.0,2710.7005884190726,0.4554333709498643,1.301175529581913,0.9766565164262141,0.285608087979435,0.710756697643668
0.0545,1.726252356250093,1.0,2712.2597844505103,0.45848795923136354,1.3005969120320588,0.9769232244064942,0.28555559896250393,0.7118670168265009
0.055,1.7250026177517341,1.0,2714.09261451785,0.4615254130588676,1.3000158042261722,0.9771831749749817,0.2855031099455728,0.7129799656075354
0.0555,1.7237528792533752,1.0,2716.174114798502,0.4645458292104397,1.2994324361533494,0.9774366048763058,0.28545062092864176,0.7140950771022652
0.056,1.7225031407550162,1.0,2718.4850642450133,0.4675493022748277,1.2988469854765035,0.9776837377285527,0.2853981319117107,0.7152119874732351
0.0565,1.721253402256657,1.0,2721.0009986001533,0.47053593008596506,1.2982596775679185,0.977924790988211,0.2853456428947796,0.7163302446973256
0.057,1.720003663758298,1.0,2723.7070922431863,0.4735058059866182,1.2976706499051347,0.9781599677718148,0.2852931538778485,0.7174495669166286
0.0575,1.718753925259939,1.0,2726.589275296235,0.47645902297131665,1.2970800330083296,0.9783894625442037,0.2852406648609174,0.7185696874610006
0.058,1.7175041867615801,1.0,2729.6334652891596,0.4793956740345901,1.2964879573976809,0.9786134619646952,0.28518817584398637,0.7196903415757365
0.0585,1.716254448263221,1.0,2732.82556274937,0.4823158521709681,1.295894553593366,0.9788321452660208,0.28513568682705526,0.7208112664342561
0.059000000000000004,1.715004709764862,1.0,2736.151447169705,0.48521965037498027,1.2952999521155621,0.9790456846120087,0.2850831978101242,0.7219322011497025
0.059500000000000004,1.713754971266503,1.0,2739.6055513618217,0.48810715427838947,1.294704205657468,0.9792542405705409,0.28503070879319314,0.7230530330605893
0.06,1.712505232768144,1.0,2743.165420053792,0.4909784660550457,1.2941075199842291,0.9794579771329193,0.28497821977626203,0.7241733631655812
0.0605,1.7112554942697848,1.0,2746.8217960299653,0.49383367632538355,1.2935099808022699,0.9796570446072084,0.284925730759331,0.7252930203107499
0.061,1.7100057557714259,1.0,2750.568215572912,0.49667287319001757,1.2929116483424608,0.9798515860201199,0.2848732417423999,0.7264118822235415
0.0615,1.708756017273067,1.0,2754.3982012444326,0.4994961447495624,1.2923125828356716,0.9800417389955385,0.2848207527254688,0.7275298275380696
0.062,1.707506278774708,1.0,2758.305260866257,0.5023035791046325,1.2917128445127732,0.9802276360011827,0.28476826370853775,0.728646735798044
0.0625,1.7062565402763488,1.0,2762.2828865811794,0.5050952643558425,1.2911124936046354,0.9804094045822278,0.28471577469160664,0.7297624874594741
0.063,1.7050068017779898,1.0,2766.3245539952177,0.507871288603807,1.2905115903421291,0.980587167582675,0.2846632856746756,0.7308769638931344
0.0635,1.7037570632796308,1.0,2770.423721399186,0.5106317399491406,1.2899101949561242,0.98076104335519,0.28461079665774447,0.731990047386805
0.064,1.7025073247812719,1.0,2774.573829072015,0.5133767064924577,1.289308367677491,0.9809311459600989,0.2845583076408134,0.7331016211472758
0.0645,1.7012575862829127,1.0,2778.7682986630584,0.5161062763343731,1.2887061687371,0.9810975853541715,0.28450581862388236,0.7342115693021211
0.065,1.7000078477845537,1.0,2783.0046203632382,0.5188205286614997,1.2881036215689947,0.981260465111931,0.28445332960695124,0.7353198445115736
0.0655,1.6987581092861948,1.0,2787.2763429673473,0.5215195558032257,1.2875007849960325,0.9814198878056896,0.2844008405900202,0.7364263349064576
0.066,1.6975083707878358,1.0,2791.576227613048,0.5242034516380978,1.2868977247460454,0.9815759528426102,0.28434835157308913,0.7375309168862959
0.0665,1.6962586322894766,1.0,2795.9020405371903,0.5268722981320401,1.2862944613971306,0.981728753159953,0.284295862556158,0.7386335502975987
0.067,1.6950088937911176,1.0,2800.251541177647,0.5295261772509765,1.2856910155273853,0.9818783784809413,0.2842433735392269,0.7397341953027146
0.0675,1.6937591552927587,1.0,2804.6224820853467,0.5321651709608309,1.285087407714907,0.9820249154492106,0.28419088452229585,0.740832812380084
0.068,1.6925094167943997,1.0,2809.01260884536,0.5347893612275275,1.284483658537793,0.9821684477567317,0.2841383955053648,0.7419293623244656
0.0685,1.6912596782960405,1.0,2813.4196600081054,0.5373988300169901,1.2838797885741404,0.9823090562655677,0.2840859064884337,0.7430238062471344
0.069,1.6900099397976815,1.0,2817.841367029651,0.5399936592951428,1.2832758184020465,0.9824468191238038,0.2840334174715026,0.7441161055760548
0.0695,1.6887602012993226,1.0,2822.2754542206626,0.5425739310279094,1.2826717685996085,0.982581811875964,0.28398092845457157,0.7452062220560248
0.07,1.6875104628009636,1.0,2826.7196387059807,0.5451397271812142,1.2820676597449236,0.9827141075682171,0.28392843943764046,0.7462941177487946
0.07050000000000001,1.6862607243026044,1.0,2831.171630392882,0.5476911297209809,1.2814635124160896,0.9828437768486467,0.2838759504207094,0.7473797550331562
0.07100000000000001,1.6850109858042455,1.0,2835.6291319484667,0.5502282206131335,1.280859347191203,0.9829708880628522,0.2838234614037783,0.7484630966050103
0.07150000000000001,1.6837612473058865,1.0,2840.0898387873967,0.5527510818235961,1.2802551846483619,0.9830955073451272,0.28377097238684723,0.7495441054773999
0.07200000000000001,1.6825115088075275,1.0,2844.5545613377035,0.5552597728830518,1.2796510175652778,0.9832176961309405,0.2837184833699161,0.7506227945621962
0.0725,1.6812617703091683,1.0,2849.0198939675024,0.5577543935945993,1.279046876252259,0.9833375179366416,0.28366599435298506,0.7516991098656135
