Time [s],Phi [rad],STIM [ ],Fsee [N],Gamma [ ],Lcerel [ ],q [ ],Lmtc [m],fisomrel [ ]
0.0,1.8,1.0,18.6077051493872,0.0008159281733374286,1.3792686119853121,0.005171313417687222,0.288653,0.5413116070240267
0.0005,1.79999375,1.0,19.160245237160332,0.0064205607703694415,1.3792054062108952,0.015328489351913457,0.2886527375,0.54146447672331
0.001,1.799975,1.0,23.100807463499567,0.011993755809913988,1.3787894043783238,0.039931022131558094,0.28865195,0.5424699844729424
0.0015,1.79994375,1.0,33.89840500193961,0.017535689632215738,1.3778104189647515,0.07643757218788233,0.2886506375,0.5448319111022926
0.002,1.7999,1.0,59.060905345320606,0.02304653758760592,1.3760213618713766,0.12157731133578899,0.2886488,0.5491324471186074
0.0025,1.79984375,1.0,105.81230732005554,0.028526474043015185,1.3735252315433473,0.1720040987491288,0.28864643749999996,0.5550985376291098
0.003,1.7997750000000001,1.0,171.94298350709542,0.03397567238869521,1.37080995723237,0.22492320334722268,0.28864354999999997,0.5615432895960712
0.0035,1.79969375,1.0,249.9176110859559,0.0393943050399589,1.3682126145081803,0.2781992300149458,0.2886401375,0.5676641279242673
0.004,1.7996,1.0,334.3801905493235,0.04478254344680902,1.3658174327741233,0.3302506186656631,0.2886362,0.573270426908641
0.0045000000000000005,1.7994937500000001,1.0,422.5738696592304,0.050140558096893426,1.3636129671323922,0.37998961352649074,0.2886317375,0.5783979914961029
0.005,1.799375,1.0,512.9322202751964,0.055468518490728,1.3615729889289565,0.42674949993999883,0.28862675,0.5831153497352701
0.0055,1.79924375,1.0,604.4014648639892,0.06076659331242588,1.3596744224321882,0.47019011099971736,0.2886212375,0.5874818553828822
0.006,1.7991000000000001,1.0,696.1084773922879,0.06603495007256911,1.3579005956737786,0.510206965097528,0.2886152,0.5915407003072526
0.006500000000000001,1.79894375,1.0,787.3632275010709,0.07127375550701943,1.3562381012699445,0.5468530767728549,0.2886086375,0.5953265790930637
0.007,1.798775,1.0,877.5903898212796,0.07648317542928727,1.3546763041867846,0.580280288630872,0.28860155,0.5988670894400618
0.0075,1.79859375,1.0,966.3000280007856,0.08166337448224537,1.3532066349455711,0.6106965888303806,0.2885939375,0.6021845441021239
0.008,1.7984,1.0,1053.1338938943975,0.0868145169657893,1.3518211276584167,0.6383360464128712,0.2885858,0.6052994073123728
0.0085,1.79819375,1.0,1137.7741990749723,0.09193676549557864,1.3505133396874927,0.6634401273483305,0.2885771375,0.6082283121846952
0.009000000000000001,1.797975,1.0,1219.9838807296812,0.09703028207217643,1.3492773365336228,0.686244979508964,0.28856795,0.6109864227805434
0.0095,1.79774375,1.0,1299.6059588440703,0.10209522833195017,1.348107470382869,0.7069742173361129,0.2885582375,0.6135879753304846
0.01,1.7975,1.0,1376.5087424786325,0.10713176424056983,1.3469989153753716,0.7258354680463092,0.288548,0.6160451298734556
0.0105,1.79724375,1.0,1450.6063157097526,0.1121400489643679,1.3459471980357218,0.7430185479228404,0.2885372375,0.6183690566684729
0.011,1.796975,1.0,1521.8609546914197,0.11712024098642033,1.3449480420155517,0.7586952163545759,0.28852595000000003,0.6205703071098123
0.0115,1.79669375,1.0,1590.2708403118431,0.12207249871455328,1.3439974218134039,0.7730198687718739,0.2885141375,0.6226587174289895
0.012,1.7964,1.0,1655.8224552766305,0.12699697796173415,1.3430920311622099,0.7861308524732477,0.28850180000000003,0.624642404824583
0.0125,1.79609375,1.0,1718.540944292182,0.1318938344472244,1.3422285864946408,0.7981514779763326,0.2884889375,0.626529319470281
0.013000000000000001,1.7957750000000001,1.0,1778.4672826910873,0.13676322301798022,1.3414040414793236,0.8091915335163868,0.28847555,0.6283267871861745
0.0135,1.79544375,1.0,1835.6828341569571,0.1416052991832388,1.340615259112938,0.8193485511585709,0.2884616375,0.630042236158884
0.014,1.7951000000000001,1.0,1890.2350666778652,0.14642021526863197,1.3398597979519313,0.8287094310617967,0.2884472,0.631681497882884
0.0145,1.79474375,1.0,1942.181132724217,0.1512081229547147,1.3391353657525364,0.8373514325414501,0.2884322375,0.6332500117853741
0.015,1.794375,1.0,1991.5989716452075,0.1559691739220421,1.3384396702709869,0.8453432350342502,0.28841675,0.6347531555703625
0.0155,1.79399375,1.0,2038.5678207796518,0.16070351885974113,1.3377706052521334,0.8527460039784467,0.2884007375,0.6361958489400747
0.016,1.7936,1.0,2083.1908597819643,0.1654113089053036,1.3371259872341241,0.8596141938721176,0.2883842,0.6375831273323251
0.0165,1.7931937500000001,1.0,2125.539817825866,0.1700926921010634,1.3365041149610948,0.8659965106225681,0.2883671375,0.638918943285237
0.017,1.792775,1.0,2165.6890818602965,0.1747478159150514,1.335903384514443,0.8719364743340418,0.28834955,0.6402070034175454
0.0175,1.7923437500000001,1.0,2203.723862816373,0.17937682781529857,1.3353221919755673,0.8774730034883164,0.2883314375,0.6414509807675408
0.018000000000000002,1.7919,1.0,2239.7267279466473,0.18397987412033603,1.3347590592927379,0.8826409884887938,0.2883128,0.642654248155106
0.0185,1.79144375,1.0,2273.796010000023,0.18855710220381416,1.3342124375774642,0.8874717105568065,0.2882936375,0.6438203015578112
0.019,1.790975,1.0,2306.004588483363,0.19310865600813285,1.3336811097610046,0.8919933573253814,0.28827395,0.6449519036628328
0.0195,1.79049375,1.0,2336.423814799793,0.19763467867715712,1.3331639374760729,0.8962313137368432,0.2882537375,0.6460516287163247
0.02,1.79,1.0,2365.13077803307,0.202135313354752,1.3326597823553832,0.9002084610245773,0.288233,0.6471220318981795
0.0205,1.78949375,1.0,2392.20365884953,0.20661070251143235,1.3321675464292273,0.9039454660639475,0.2882117375,0.6481655647295508
0.021,1.788975,1.0,2417.7200750495836,0.21106098844322255,1.3316861826245514,0.9074610290431078,0.28818995000000003,0.6491845543876045
0.021500000000000002,1.78844375,1.0,2441.758038040479,0.21548631347073222,1.3312146803360392,0.9107720952443291,0.2881676375,0.6501812357458399
0.022,1.7879,1.0,2464.375510050168,0.21988681600442184,1.3307522565914762,0.9138940810476087,0.2881448,0.6511573493611169
0.0225,1.78734375,1.0,2485.633453579803,0.224262634454752,1.330298128418648,0.9168409922828569,0.28812143749999997,0.6521146248824565
0.023,1.786775,1.0,2505.595582600724,0.22861390723218325,1.3298515128453399,0.9196255728146021,0.28809755,0.6530547814848233
0.0235,1.78619375,1.0,2524.3281273441467,0.23294077274717606,1.3294116268993372,0.9222594357180376,0.28807313749999996,0.6539795282638133
0.024,1.7856,1.0,2541.886968950145,0.23724336616512967,1.32897780670082,0.924753199149252,0.2880482,0.654890314726779
0.0245,1.78499375,1.0,2558.344619363057,0.24152182835477418,1.3285492502828882,0.9271165456042547,0.2880227375,0.655788871615281
0.025,1.784375,1.0,2573.7474084762734,0.24577629290821484,1.3281254188476472,0.9293583783416461,0.28799675,0.6566763695983932
0.025500000000000002,1.78374375,1.0,2588.1414377562046,0.25000689295783096,1.327705789084365,0.9314868586408289,0.2879702375,0.6575539406906685
0.026000000000000002,1.7831000000000001,1.0,2601.574101499153,0.25421376163600184,1.3272898376823095,0.9335094755233425,0.2879432,0.6584227109371414
0.0265,1.78244375,1.0,2614.093975618211,0.25839703207510667,1.3268770413307482,0.9354331101981387,0.2879156375,0.6592838005448225
0.027,1.781775,1.0,2625.7507125024676,0.2625568374075248,1.3264668767189491,0.9372640935428724,0.28788755,0.6601383239967298
0.0275,1.7810937500000001,1.0,2636.5843965350336,0.26669330718828305,1.3260589180642597,0.939008270638607,0.2878589375,0.6609871873429987
0.028,1.7804,1.0,2646.6472547536105,0.27080657694880783,1.3256526349186342,0.9406710193231157,0.2878298,0.6618315094724196
0.0285,1.77969375,1.0,2655.9800126848368,0.27489677741392277,1.325247610294841,0.9422573199257765,0.2878001375,0.6626721683593599
0.029,1.778975,1.0,2664.6149074679297,0.27896403583837653,1.324843511261251,0.9437717869566074,0.28776995,0.6635098634931806
0.029500000000000002,1.7782437500000001,1.0,2672.5847081047073,0.28300847947691776,1.3244400048862348,0.9452186910130185,0.2877392375,0.6643452909101402
0.03,1.7775,1.0,2679.9226681858313,0.28703023558429513,1.3240367582381631,0.946601988808939,0.287708,0.6651791432095097
0.0305,1.77674375,1.0,2686.6624810745875,0.29102943141525744,1.323633438385406,0.9479253502254077,0.2876762375,0.6660121095626264
0.031,1.775975,1.0,2692.838237548034,0.2950061942245533,1.3232297123963348,0.9491921827104287,0.28764395,0.6668448757148683
0.0315,1.7751937500000001,1.0,2698.4834506386887,0.298960650661314,1.3228252558891713,0.9504056541908008,0.2876111375,0.6676781063778414
0.032,1.7744,1.0,2703.625103342631,0.3028929237637188,1.3224198070116222,0.9515687185794786,0.2875778,0.668512334332233
0.0325,1.77359375,1.0,2708.298899686362,0.3068031439913639,1.3220130266910186,0.9526841197732846,0.2875439375,0.6693482482183971
0.033,1.772775,1.0,2712.526281643724,0.31069143265029864,1.3216047082560527,0.9537544284266549,0.28750955,0.6701862615674083
0.0335,1.7719437500000002,1.0,2716.328877919626,0.31455791104657244,1.3211946450354168,0.9547820430148937,0.2874746375,0.6710267857161116
0.034,1.7711000000000001,1.0,2719.7284856040505,0.31840270048623454,1.3207826303578032,0.955769203414679,0.2874392,0.6718702297854879
0.0345,1.7702437500000001,1.0,2722.747052773197,0.32222592227533436,1.320368457551904,0.9567180032607413,0.2874032375,0.6727170006562946
0.035,1.7693750000000001,1.0,2725.40666203758,0.3260276977199213,1.3199519199464114,0.9576304012018549,0.28736675,0.6735675029419808
0.035500000000000004,1.76849375,1.0,2727.7295150373952,0.3298081481260446,1.3195328108700177,0.9585082311656994,0.2873297375,0.6744221389588823
0.036000000000000004,1.7676,1.0,2729.7286224540094,0.3335673865651739,1.3191110081397548,0.959353218536321,0.2872922,0.6752811367475426
0.0365,1.76669375,1.0,2731.431339115727,0.33730554112882083,1.3186862599559812,0.9601669717455964,0.2872541375,0.676144986336954
0.037,1.765775,1.0,2732.8593408280863,0.34102273443952485,1.3182583668904018,0.9609510044618188,0.28721555,0.6770140685722399
0.0375,1.76484375,1.0,2734.025572892597,0.34471908092088566,1.3178272094128558,0.9617067445598557,0.2871764375,0.6778885999899129
0.038,1.7639,1.0,2734.943030833774,0.34839469499650305,1.3173926679931816,0.9624355342931971,0.28713679999999997,0.6787687956127871
0.0385,1.76294375,1.0,2735.6247542481783,0.35204969108997675,1.3169546231012177,0.9631386363640329,0.28709663750000003,0.6796548689246334
0.039,1.761975,1.0,2736.0838209699405,0.3556841836249065,1.3165129552068036,0.9638172394994882,0.28705595,0.6805470318439285
0.0395,1.7609937500000001,1.0,2736.3333415538796,0.35929828702489214,1.3160675447797772,0.9644724635790809,0.2870147375,0.681445494696695
0.04,1.76,1.0,2736.3864540742466,0.36289211571353336,1.3156182722899776,0.9651053643539429,0.286973,0.6823504661884233
0.0405,1.7589937500000001,1.0,2736.2563192413263,0.36646578411443,1.3151650182072436,0.9657169377942948,0.2869307375,0.6832621533750887
0.041,1.757975,1.0,2735.9561158339593,0.3700194066511817,1.314707663001414,0.9663081240980707,0.28688795,0.6841807616332538
0.0415,1.75694375,1.0,2735.499036449266,0.3735530977473883,1.3142460871423272,0.966879811390369,0.2868446375,0.6851064946292631
0.042,1.7559,1.0,2734.8892311295645,0.3770669595625201,1.3137802533018983,0.9674328439814878,0.28680079999999997,0.6860393897888921
0.0425,1.75484375,1.0,2734.1462510031065,0.380561118875112,1.313309984382498,0.9679680129353269,0.2867564375,0.6869797630300984
0.043000000000000003,1.753775,1.0,2733.2775714992117,0.3840356840207306,1.3128352129755112,0.9684860728259473,0.28671155,0.6879277089367557
0.043500000000000004,1.75269375,1.0,2732.2898851417,0.38749076216485157,1.3123558788242506,0.9689877385942361,0.28666613750000003,0.6888833066451852
0.044,1.7516,1.0,2731.189887749554,0.3909264604729503,1.3118719216720298,0.9694736876585069,0.2866202,0.6898466341600615
0.0445,1.75049375,1.0,2729.984277031867,0.39434288611050244,1.3113832812621615,0.9699445622511317,0.2865737375,0.6908177683367653
0.045,1.7493750000000001,1.0,2728.6797512619482,0.39774014624298343,1.3108898973379588,0.970400971587496,0.28652675,0.6917967848634995
0.0455,1.74824375,1.0,2727.283008032555,0.4011183480358689,1.3103917096427344,0.9708434938808361,0.2864792375,0.6927837582431775
0.046,1.7471,1.0,2725.800743091853,0.40447759865463423,1.3098886579198017,0.9712726782152921,0.2864312,0.693778761775077
0.0465,1.7459437500000001,1.0,2724.239649259227,0.40781800526475503,1.3093806819124734,0.9716890462884287,0.28638263750000004,0.6947818675362658
0.047,1.744775,1.0,2722.6064154221135,0.41113967503170684,1.3088677213640627,0.9720930940334738,0.28633355,0.6957931463627924
0.0475,1.74359375,1.0,2720.908013168354,0.4144427147378926,1.3083497133999928,0.9724852928945714,0.28628393750000003,0.69681267297877
0.048,1.7424,1.0,2719.149558436501,0.41772722810032786,1.3078266119896385,0.9728660922861415,0.2862338,0.6978404877263411
0.0485,1.74119375,1.0,2717.334127654091,0.42099331830772707,1.307298389642179,0.9732359213005561,0.2861831375,0.6988765935054959
0.049,1.739975,1.0,2715.466147373025,0.42424108808366195,1.3067650065435144,0.9735951877500055,0.28613195,0.6999210164552219
0.0495,1.73874375,1.0,2713.550039785492,0.4274706401517043,1.3062264228795433,0.9739442802661616,0.2860802375,0.7009737816658137
0.05,1.737501883676737,1.0,2711.6982919961697,0.4306820728215956,1.3056824639874305,0.9742835598350377,0.28602807911442296,0.7020351760541239
0.0505,1.7362587460319032,1.0,2710.327067755024,0.4338754933292401,1.305133553322451,0.9746134113796802,0.2859758673333399,0.7031043196327006
0.051000000000000004,1.7350156083870694,1.0,2709.4465919429767,0.43705100560073334,1.304580168423876,0.9749342052979348,0.2859236555522569,0.7041802327898066
0.051500000000000004,1.7337724707422355,1.0,2709.0268028277633,0.440208707779276,1.304022581390381,0.9752462812463497,0.2858714437711739,0.7052623405763048
0.052000000000000005,1.7325293330974014,1.0,2709.037770604632,0.44334869800806886,1.3034610643206415,0.9755499636274809,0.28581923199009085,0.7063500715605342
0.0525,1.7312861954525676,1.0,2709.4496728663075,0.44647107443031264,1.3028958893133336,0.9758455624152481,0.28576702020900785,0.7074428578988674
0.053,1.7300430578077337,1.0,2710.232771714316,0.44957593518920813,1.3023273284671333,0.9761333739288898,0.2857148084279248,0.7085401354015501
0.0535,1.7287999201628999,1.0,2711.357392512368,0.45266337842795606,1.3017556538807158,0.976413681559118,0.2856625966468418,0.7096413435938191
0.054,1.727556782518066,1.0,2712.793904280342,0.4557335022897572,1.3011811376527576,0.9766867564498003,0.28561038486575874,0.7107459257722919
0.0545,1.7263136448732321,1.0,2714.5127017310488,0.4587864049178122,1.3006040518819342,0.9769528581382355,0.28555817308467574,0.7118533290566436
0.055,1.725070507228398,1.0,2716.484383595754,0.4618221844050728,1.3000246668934063,0.9772122350461225,0.28550596130359274,0.7129630078300401
0.0555,1.7238273695835642,1.0,2718.689539139033,0.464840936438412,1.2994431619762072,0.9774651195545864,0.2854537495225097,0.7140745942145756
0.056,1.7225842319387303,1.0,2721.1121890814115,0.4678427556327721,1.2988596851780325,0.97771173245336,0.2854015377414267,0.715187782446707
0.0565,1.7213410942938965,1.0,2723.742996298247,0.47082773160075125,1.298274324092095,0.9779522814785993,0.2853493259603437,0.7163023838884051
0.057,1.7200979566490626,1.0,2726.5482784403757,0.473795968491333,1.2976873877721808,0.9781869798863179,0.2852971141792606,0.7174177906931609
0.0575,1.7188548190042288,1.0,2729.514866180809,0.4767475591737423,1.297098998352407,0.9784160206865574,0.2852449023981776,0.7185337537563662
0.058,1.717611681359395,1.0,2732.6321379775777,0.4796825950446741,1.2965092546913861,0.9786395877147637,0.28519269061709457,0.7196500697779296
0.0585,1.7163685437145608,1.0,2735.8894602680048,0.4826011675008235,1.2959182556477304,0.9788578575009141,0.28514047883601157,0.7207665369081775
0.059000000000000004,1.715125406069727,1.0,2739.2761846078383,0.4855033679388856,1.2953261000800524,0.9790709996201497,0.2850882670549285,0.7218829547560806
0.059500000000000004,1.713882268424893,1.0,2742.781645028713,0.4883892877555554,1.294732886846965,0.9792791770239525,0.2850360552738455,0.7229991243968563
0.06,1.7126391307800592,1.0,2746.3951556112092,0.49125901834752794,1.2941387148070802,0.9794825463530901,0.2849838434927625,0.7241148483789513
0.0605,1.7113959931352254,1.0,2750.1060082750555,0.4941126511114984,1.2935436828190106,0.9796812582334623,0.28493163171167946,0.7252299307303958
0.061,1.7101528554903915,1.0,2753.903470786044,0.49695027744416165,1.2929478897413689,0.9798754575559111,0.28487941993059646,0.7263441769645369
0.0615,1.7089097178455575,1.0,2757.780328620185,0.4997719847385148,1.2923514023879792,0.9800652817419817,0.2848272081495134,0.7274574538322127
0.062,1.7076665802007236,1.0,2761.727304056567,0.50257786573251,1.2917543060597396,0.9802508644457535,0.2847749963684304,0.7285695946926014
0.0625,1.7064234425558897,1.0,2765.7359474781424,0.5053680117808298,1.2911566783606352,0.9804323338518626,0.28472278458734734,0.7296804484885256
0.063,1.7051803049110559,1.0,2769.8017363953113,0.5081425091128686,1.2905585612530288,0.9806098112114274,0.28467057280626434,0.7307899313857459
0.0635,1.703937167266222,1.0,2773.920136348351,0.5109014439580206,1.2899599966992836,0.9807834133467569,0.28461836102518134,0.7318979601854319
0.064,1.7026940296213882,1.0,2778.0866004720706,0.51364490254568,1.2893610266617626,0.9809532528469432,0.2845661492440983,0.7330044523254169
0.0645,1.7014508919765543,1.0,2782.2965690992064,0.5163729711052408,1.288761693102829,0.981119438253444,0.2845139374630153,0.734109325881338
0.065,1.7002077543317202,1.0,2786.5454694021287,0.5190857358660975,1.288162037984846,0.9812820742362373,0.28446172568193223,0.7352124995676665
0.0655,1.6989646166868864,1.0,2790.8287150747524,0.5217832830576442,1.2875621032701767,0.9814412617610909,0.28440951390084923,0.7363138927386232
0.066,1.6977214790420525,1.0,2795.1417060524873,0.524465698909275,1.286961930921184,0.9815970982484554,0.2843573021197662,0.7374134253889849
0.0665,1.6964783413972186,1.0,2799.481061176929,0.5271330656871661,1.2863615518345461,0.9817496769197235,0.2843050903386832,0.7385110383638729
0.067,1.6952352037523848,1.0,2803.846247679266,0.5297854588862752,1.2857609712687896,0.981899086090093,0.2842528785576002,0.7396067197050957
0.0675,1.6939920661075507,1.0,2808.2277047860975,0.5324229851319632,1.2851602753711653,0.9820454169648916,0.2842006667765171,0.7407003104280651
0.068,1.6927489284627169,1.0,2812.6239173783533,0.5350457245085245,1.2845594779783094,0.9821887524748414,0.2841484549954341,0.7417917840966584
0.0685,1.691505790817883,1.0,2817.0333655793684,0.5376537571002532,1.2839585929268584,0.9823291727497709,0.28409624321435106,0.742881114486603
0.069,1.6902626531730491,1.0,2821.4545247266005,0.5402471629914435,1.2833576340534483,0.9824667552330507,0.28404403143326806,0.7439682755855616
0.0695,1.6890195155282153,1.0,2825.8858653460634,0.5428260222663894,1.2827566151947154,0.9826015747906041,0.283991819652185,0.7450532415932004
0.07,1.6877763778833814,1.0,2830.3258531325982,0.5453904150093852,1.2821555501872957,0.9827337038147819,0.283939607871102,0.7461359869212516
0.07050000000000001,1.6865332402385476,1.0,2834.772948932864,0.547940421304725,1.2815544528678258,0.9828632123233755,0.283887396090019,0.7472164861935564
0.07100000000000001,1.6852901025937135,1.0,2839.2256087336996,0.550476121236703,1.2809533370729416,0.9829901680540303,0.28383518430893595,0.7482947142461036
0.07150000000000001,1.6840469649488796,1.0,2843.6822836544693,0.5529975948896133,1.2803522166392793,0.9831146365542981,0.28378297252785295,0.7493706461270491
0.07200000000000001,1.6828038273040458,1.0,2848.1414199431165,0.5555049223477501,1.2797511054034756,0.983236681267562,0.28373076074676995,0.7504442570967267
0.0725,1.681560689659212,1.0,2852.6014589769943,0.5579981836954075,1.2791500172021661,0.9833563636150462,0.2836785489656869,0.7515155226276478
