Time [s],Phi [rad],STIM [ ],Fsee [N],Gamma [ ],Lcerel [ ],q [ ],Lmtc [m],fisomrel [ ]
0.0,1.8,1.0,19.18919484550815,0.001128545425621315,1.3792050892546843,0.005326795418901628,0.288653,0.5414652432504685
0.0005,1.79999375,1.0,19.823027826975483,0.006731424487051942,1.37913411269852,0.016334958232189632,0.2886527375,0.5416368768759758
0.001,1.799975,1.0,23.999139206494256,0.012302875827013242,1.378701492276169,0.04167256761323139,0.28865195,0.5426823333794732
0.0015,1.79994375,1.0,35.36284773904176,0.01784307573035349,1.377692236274288,0.07874676587277644,0.2886506375,0.5451166283741307
0.002,1.7999,1.0,61.60342498605938,0.023352199492820285,1.3758659080703237,0.1242643135365167,0.2886488,0.5495051631073692
0.0025,1.79984375,1.0,109.57323637434558,0.02883042142688227,1.3733531216658732,0.17489700789019036,0.28864643749999996,0.555508439229425
0.003,1.7997750000000001,1.0,176.52528138564887,0.0342779148675584,1.3706450979272768,0.22788764421400587,0.28864354999999997,0.5619330720104572
0.0035,1.79969375,1.0,254.92528523595638,0.039694852178072865,1.368062933860344,0.28113356670066997,0.2886401375,0.5680155507592985
0.004,1.7996,1.0,339.61278218018197,0.04508140475289173,1.3656820713839313,0.3330817631105392,0.2886362,0.5735861692230785
0.0045000000000000005,1.7994937500000001,1.0,427.9271424357865,0.050437743025133874,1.3634896888761423,0.38267013676065553,0.2886317375,0.5786838204104761
0.005,1.799375,1.0,518.3502757971497,0.0557640364734885,1.3614596814694546,0.42925257595762784,0.28862675,0.5833765901530625
0.0055,1.79924375,1.0,609.8261516771106,0.06106045364174507,1.3595698714598579,0.4725045500537488,0.2886212375,0.5877216439360373
0.006,1.7991000000000001,1.0,701.5065818205244,0.06632716207834856,1.3578036227071528,0.5123320232670658,0.2886152,0.591762013959303
0.006500000000000001,1.79894375,1.0,792.7051244748723,0.0715643284407183,1.3561478484943408,0.5487949501468478,0.2886086375,0.5955316008062885
0.007,1.798775,1.0,882.8492499342918,0.07677211848846413,1.3545921290347522,0.5820493171310737,0.28860155,0.5990574681970715
0.0075,1.79859375,1.0,971.4547533798947,0.08195069677775162,1.3531279921606576,0.6123052544927784,0.2885939375,0.6023616745936944
0.008,1.7984,1.0,1058.1673153743943,0.08710022759851098,1.3517475593306754,0.6397976700158012,0.2885858,0.6054644595182175
0.0085,1.79819375,1.0,1142.6739851465027,0.09222087356840386,1.350444431688144,0.6647680064046246,0.2885771375,0.6083823351363957
0.009000000000000001,1.797975,1.0,1224.7384971986526,0.09731279656119132,1.3492127557519062,0.6874519015865662,0.28856795,0.6111302653704065
0.0095,1.79774375,1.0,1304.207764028959,0.10237615798543544,1.3480469048114845,0.7080721412359874,0.2885582375,0.6137224236324792
0.01,1.7975,1.0,1380.9603938617993,0.1074111182075903,1.3469419818162596,0.7268353443425599,0.288548,0.6161711136907086
0.0105,1.79724375,1.0,1454.903650192556,0.11241783601039301,1.345893656543838,0.743930390043893,0.2885372375,0.6184871759015735
0.011,1.796975,1.0,1525.9944396130359,0.11739646965668395,1.344897758960712,0.7595280928509309,0.28852595000000003,0.6206809179332862
0.0115,1.79669375,1.0,1594.2426623594515,0.12234717778510279,1.3439501534359066,0.7737818519794686,0.2885141375,0.6227624105593632
0.012,1.7964,1.0,1659.647570020804,0.1272701166714763,1.343047416833507,0.7868290954894388,0.28850180000000003,0.6247400185072007
0.0125,1.79609375,1.0,1722.2185179779049,0.13216544131440885,1.3421864812044664,0.7987924376464193,0.2884889375,0.6266212119926831
0.013000000000000001,1.7957750000000001,1.0,1782.0001628708508,0.1370333067125048,1.3413642785997395,0.8097809414118505,0.28847555,0.6284133587247431
0.0135,1.79544375,1.0,1839.048022204686,0.14187386698632432,1.3405779771310515,0.8198916141730703,0.2884616375,0.6301232190475796
0.014,1.7951000000000001,1.0,1893.4505523568632,0.14668727647582272,1.339824691133543,0.8292106135773586,0.2884472,0.6317575870407912
0.0145,1.79474375,1.0,1945.26306449155,0.15147368658930402,1.3391021691724143,0.8378147159914296,0.2884322375,0.6333218075974596
0.015,1.794375,1.0,1994.549815404079,0.15623324822306212,1.3384082816765863,0.8457722145919683,0.28841675,0.6348209020813145
0.0155,1.79399375,1.0,2041.3931715275567,0.16096611227339092,1.3377408990749793,0.8531438727947567,0.2884007375,0.636259837665895
0.016,1.7936,1.0,2085.877646098015,0.16567242840511337,1.337098041468625,0.8599838599705055,0.2883842,0.6376432093049016
0.0165,1.7931937500000001,1.0,2128.1041312553857,0.17035234690811096,1.3364777095498812,0.8663404816878054,0.2883671375,0.6389756089798015
0.017,1.792775,1.0,2168.140767007021,0.17500601468495094,1.335878373508409,0.8722570122791681,0.28834955,0.6402605810246993
0.0175,1.7923437500000001,1.0,2206.0646849505715,0.17963357851996495,1.3352985185053765,0.8777721570270207,0.2883314375,0.641501605510522
0.018000000000000002,1.7919,1.0,2241.9625633719374,0.18423518519748455,1.334736629701951,0.882920584679695,0.2883128,0.6427021324482749
0.0185,1.79144375,1.0,2275.9123306780293,0.18881097967448088,1.3341913662408773,0.8877334416678986,0.2882936375,0.6438652127871678
0.019,1.790975,1.0,2308.01971726994,0.19336110935256115,1.333661186278429,0.8922386666926702,0.28827395,0.6449943009287997
0.0195,1.79049375,1.0,2338.3497039941676,0.19788571666688057,1.333145020426847,0.8964615174809303,0.2882537375,0.6460918219540681
0.02,1.79,1.0,2366.97119512212,0.2023849438872819,1.3326418146923606,0.9004247656242059,0.288233,0.6471601502492768
0.0205,1.78949375,1.0,2393.9581061477697,0.20685893328360797,1.3321505150811983,0.904148971621537,0.2882117375,0.6482016432758121
0.021,1.788975,1.0,2419.3887091564648,0.21130782708704346,1.3316700698410637,0.9076527301905202,0.28818995000000003,0.6492186376646171
0.021500000000000002,1.78844375,1.0,2443.3293823719246,0.21573176508409875,1.3311995817049243,0.9109529158975187,0.2881676375,0.6502131284390409
0.022,1.7879,1.0,2465.8678595566994,0.22013089055305482,1.3307379828197068,0.9140648047549365,0.2881448,0.6511874576541816
0.0225,1.78734375,1.0,2487.058973992701,0.22450534084831797,1.330284552162543,0.9170023431102898,0.28812143749999997,0.6521432225854222
0.023,1.786775,1.0,2506.960166536028,0.22885525332429435,1.3298385687105645,0.9197782214649087,0.28809755,0.6530820108130301
0.0235,1.78619375,1.0,2525.631270557074,0.23318076533539017,1.3293993114409028,0.9224040049275318,0.28807313749999996,0.6540054005811834
0.024,1.7856,1.0,2543.1343084072114,0.23748201423601162,1.3289660593306896,0.924890248556989,0.2880482,0.6549149611238432
0.0245,1.78499375,1.0,2559.5245695154135,0.24175913521517153,1.3285381733009176,0.9272466128313276,0.2880227375,0.655812081263062
0.025,1.784375,1.0,2574.8652389087733,0.24601226655911204,1.3281149564024102,0.9294819311139595,0.28799675,0.6566982633451673
0.025500000000000002,1.78374375,1.0,2589.20804868909,0.2502415430984214,1.3276958337771174,0.9316043181037483,0.2879702375,0.6575747465724484
0.026000000000000002,1.7831000000000001,1.0,2602.596026785691,0.2544470968885634,1.3272803240627438,0.9336212346871559,0.2879432,0.6584425684993158
0.0265,1.78244375,1.0,2615.073324215485,0.25862905998500185,1.3268679458969936,0.9355395365885153,0.2879156375,0.6593027613044644
0.027,1.781775,1.0,2626.685118844894,0.2627875644432006,1.326458217917572,0.937365531562719,0.28788755,0.6601563518943978
0.0275,1.7810937500000001,1.0,2637.477524288615,0.26692274231862356,1.3260506587621825,0.9391050304866171,0.2878589375,0.6610043619921773
0.028,1.7804,1.0,2647.4937047253425,0.2710347243654506,1.3256448221327573,0.940763397684145,0.2878298,0.661847735389429
0.0285,1.77969375,1.0,2656.7721424816077,0.27512364035571124,1.3252403117051552,0.9423455936027633,0.2878001375,0.6626873075316757
0.029,1.778975,1.0,2665.3646080599724,0.2791896246331737,1.3248366147815727,0.9438561896438404,0.28776995,0.6635241508203067
0.029500000000000002,1.7782437500000001,1.0,2673.3008760897915,0.28323280343190443,1.3244334266805318,0.9452994425294976,0.2877392375,0.6643589019525766
0.03,1.7775,1.0,2680.611178728632,0.28725330298596985,1.3240304427205556,0.9466792963049624,0.287708,0.6651921944844412
0.0305,1.77674375,1.0,2687.326165120202,0.2912512495294364,1.3236273582201665,0.9479994092677597,0.2876762375,0.6660246588374874
0.031,1.775975,1.0,2693.476862909902,0.29522676929637043,1.3232238684978872,0.9492631782600164,0.28764395,0.6668569222999379
0.0315,1.7751937500000001,1.0,2699.0946418183053,0.2991799885208385,1.32281966887224,0.9504737606106506,0.2876111375,0.6676896090217389
0.032,1.7744,1.0,2704.2111792733635,0.30311103343690693,1.3224144546617478,0.9516340939801986,0.2875778,0.6685233400037238
0.0325,1.77359375,1.0,2708.8521323386835,0.3070200261645743,1.3220079786286831,0.9527469199640738,0.2875439375,0.6693586151131045
0.033,1.772775,1.0,2713.050005215286,0.31090709550308654,1.321599933166067,0.9538147891899995,0.28750955,0.6701960554450932
0.0335,1.7719437500000002,1.0,2716.827802984853,0.31477236383928064,1.321190099222227,0.9548400899721149,0.2874746375,0.6710360974541327
0.034,1.7711000000000001,1.0,2720.2058701837127,0.31861595153856526,1.3207782835150166,0.9558250551577131,0.2874392,0.671879122529208
0.0345,1.7702437500000001,1.0,2723.2046965764057,0.32243797896634885,1.3203642927622894,0.956771771905958,0.2874032375,0.672725509958285
0.035,1.7693750000000001,1.0,2725.8449018703964,0.32623856648804006,1.319947933681899,0.9576821928938989,0.28736675,0.6735756369026884
0.035500000000000004,1.76849375,1.0,2728.147221259763,0.3300178344690473,1.3195290129916992,0.9585581465364592,0.2873297375,0.6744298783691024
0.036000000000000004,1.7676,1.0,2730.13249179687,0.3337759032747792,1.3191073374095432,0.9594013463174141,0.2872922,0.6752886071791835
0.0365,1.76669375,1.0,2731.8174038846782,0.33751288878961005,1.318682752137919,0.9602134022017046,0.2872541375,0.676152115720031
0.037,1.765775,1.0,2733.219347146521,0.34122890861203287,1.3182550966885545,0.9609958251946337,0.28721555,0.6770207060961699
0.0375,1.76484375,1.0,2734.365974282602,0.34492409288512843,1.3178241179509502,0.9617500283233964,0.2871764375,0.6778948662267235
0.038,1.7639,1.0,2735.269101091121,0.34859855504778714,1.317389707176778,0.9624773502852643,0.28713679999999997,0.6787747888336708
0.0385,1.76294375,1.0,2735.940584951717,0.3522524085388996,1.3169517556177088,0.9631790504874197,0.28709663750000003,0.6796606652131767
0.039,1.761975,1.0,2736.3923196198184,0.3558857667973563,1.3165101545254145,0.9638563146013884,0.28705595,0.6805526852114101
0.0395,1.7609937500000001,1.0,2736.63623028487,0.3594987432620475,1.3160647951515665,0.9645102596707653,0.2870147375,0.681451037199612
0.04,1.76,1.0,2736.6842688887946,0.3630914513718639,1.315615568747836,0.9651419388125659,0.286973,0.6823559080484058
0.0405,1.7589937500000001,1.0,2736.5484097083363,0.36666400456569587,1.3151623665658942,0.9657523455484965,0.2869307375,0.683267483101355
0.041,1.757975,1.0,2736.2406451982247,0.37021651628243385,1.314705079857413,0.9663424177988666,0.28688795,0.6841859461477658
0.0415,1.75694375,1.0,2735.7729820977,0.3737490999609684,1.3142435998740636,0.9669130415686725,0.2868446375,0.6851114793947367
0.042,1.7559,1.0,2735.157437798579,0.3772618690401899,1.3137778178675172,0.967465054352519,0.28680079999999997,0.686044263438454
0.0425,1.75484375,1.0,2734.4033152224756,0.38075493177887254,1.313307649806957,0.9679992494783058,0.2867564375,0.6869844278457948
0.043000000000000003,1.753775,1.0,2733.519741736483,0.38422839910263495,1.3128330133099413,0.9685163783368894,0.28671155,0.6879320975236674
0.043500000000000004,1.75269375,1.0,2732.519709185387,0.3876823906465347,1.3123537909212413,0.9690171510195769,0.28666613750000003,0.6888874658709487
0.044,1.7516,1.0,2731.4094505540456,0.3911170124816003,1.311869926586717,0.9695022431076095,0.2866202,0.6898506023303435
0.0445,1.75049375,1.0,2730.1952007635623,0.3945323706788603,1.3113813642522287,0.9699722951173931,0.2865737375,0.690821575243689
0.045,1.7493750000000001,1.0,2728.883195459022,0.3979285713093433,1.3108880478636364,0.9704279146604516,0.28652675,0.6918004518352593
0.0455,1.74824375,1.0,2727.4796698670875,0.4013057204440776,1.3103899213668007,0.9708696784500163,0.2864792375,0.6927872981948702
0.046,1.7471,1.0,2725.990857723754,0.4046639241540918,1.3098869287075816,0.971298134166522,0.2864312,0.6937821792607852
0.0465,1.7459437500000001,1.0,2724.422990271044,0.40800328851041445,1.3093790138318393,0.971713802193192,0.28638263750000004,0.694785158802419
0.047,1.744775,1.0,2722.782295323664,0.41132391958407405,1.308866120685434,0.9721171772319126,0.28633355,0.695796299402841
0.0475,1.74359375,1.0,2721.0749964057836,0.41462592344609905,1.308348193214226,0.9725087298087038,0.28628393750000003,0.6968156624410788
0.048,1.7424,1.0,2719.307311956429,0.417909406167518,1.3078251753640755,0.9728889076773043,0.2862338,0.6978433080742226
0.0485,1.74119375,1.0,2717.480476214861,0.4211744603040159,1.3072970564324788,0.9732581386150805,0.2861831375,0.698879206339075
0.049,1.739975,1.0,2715.5990938252876,0.42442119295119074,1.3067637950066913,0.9736168297829348,0.28613195,0.6999233867126681
0.0495,1.73874375,1.0,2713.674878559854,0.42764972834067433,1.3062252848253009,0.9739653668152649,0.2860802375,0.7009760042527531
0.05,1.7375,1.0,2711.710605082901,0.4308601643103805,1.305681501006764,0.9743041197019219,0.286028,0.7020370533872825
0.0505,1.73624375,1.0,2709.709045067194,0.43405259869822305,1.305132418669536,0.9746334413787232,0.2859752375,0.703106527668619
0.051000000000000004,1.734975,1.0,2707.6729669957613,0.4372271293421157,1.3045780129320736,0.9749536686623674,0.28592195,0.7041844197651453
0.051500000000000004,1.73369375,1.0,2705.6051359776607,0.4403838540799723,1.3040182589128324,0.975265123126102,0.2858681375,0.705270721452838
0.052000000000000005,1.7324,1.0,2703.508313577242,0.4435228707497067,1.3034531317302684,0.9755681119203882,0.2858138,0.7063654236067995
0.0525,1.73109375,1.0,2701.385257657264,0.4466442771892325,1.3028826065028378,0.9758629285424657,0.28575893750000003,0.7074685161927523
0.053,1.729775,1.0,2699.2387222356433,0.44974817123646366,1.3023066583489964,0.9761498535584158,0.28570355000000003,0.7085799882584922
0.0535,1.72844375,1.0,2697.0714573561872,0.4528346507293139,1.3017252623872002,0.9764291552810337,0.2856476375,0.7096998279253035
0.054,1.7271,1.0,2694.886208972696,0.45590381350569703,1.3011383937359051,0.9767010904065733,0.2855912,0.7108280223793335
0.0545,1.7257437500000001,1.0,2692.6857188469544,0.4589557574035268,1.3005460275135674,0.9769659046131841,0.2855342375,0.7119645578629272
0.055,1.724375,1.0,2690.4727244604146,0.46199058026071704,1.2999481388386431,0.977223833123644,0.28547675,0.7131094196659249
0.0555,1.72299375,1.0,2688.249958939868,0.46500837991518157,1.299344702829588,0.9774751012348056,0.2854187375,0.7142625921169188
0.056,1.7216,1.0,2686.0201509962585,0.4680092542048341,1.298735694604858,0.9777199248159764,0.2853602,0.7154240585744674
0.0565,1.72019375,1.0,2683.7831739751527,0.4709932869241217,1.298121115416312,0.9779585110105007,0.28530113749999997,0.7165937517312948
0.057,1.718775,1.0,2681.539258761797,0.4739605733379718,1.2975009632393926,0.9781910593110859,0.28524155,0.717771609922301
0.0575,1.71734375,1.0,2679.2939755156044,0.47691123034889776,1.2968751870618684,0.9784177602027154,0.2851814375,0.7189576636064433
0.058,1.7159,1.0,2677.0481166694367,0.4798453471343532,1.2962437796372075,0.9786387964670221,0.2851208,0.720151859139865
0.0585,1.71444375,1.0,2674.802473333553,0.4827630128717917,1.295606733718878,0.9788543435638773,0.2850596375,0.7213541421557921
0.059000000000000004,1.7129750000000001,1.0,2672.5578352936363,0.48566431673866695,1.2949640420603485,0.979064569980523,0.28499795,0.722564457561929
0.059500000000000004,1.71149375,1.0,2670.3149910110797,0.4885493479124326,1.2943156974150873,0.979269637561405,0.2849357375,0.7237827495378532
0.06,1.71,1.0,2668.074727622853,0.4914181955705423,1.2936616925365627,0.9794697018199062,0.284873,0.7250089615324021
0.0605,1.7084937500000001,1.0,2665.837830943891,0.4942709488904497,1.293002020178243,0.9796649122331145,0.2848097375,0.7262430362610601
0.061,1.7069750000000001,1.0,2663.6050854699033,0.4971076970496084,1.2923366730935968,0.979855412520663,0.28474595,0.7274849157033403
0.0615,1.7054437500000001,1.0,2661.377274381285,0.49992852922547204,1.291665644036092,0.9800413409086255,0.2846816375,0.7287345411001647
0.062,1.7039,1.0,2659.155179549128,0.5027335345954943,1.290988925759197,0.98022283037937,0.2846168,0.7299918529512388
0.0625,1.70234375,1.0,2656.939581540906,0.5055228023371288,1.2903065110163805,0.9804000089082184,0.2845514375,0.7312567910124239
0.063,1.7007750000000001,1.0,2654.731259628754,0.5082964216278292,1.2896183925611107,0.9805729996877044,0.28448555,0.7325292942931072
0.0635,1.69919375,1.0,2652.530991798128,0.5110544816450491,1.2889245631468556,0.9807419213401635,0.28441913750000003,0.7338093010535672
0.064,1.6976,1.0,2650.339554757344,0.5137970715662421,1.2882250155270838,0.9809068881193452,0.2843522,0.7350967488023352
0.0645,1.69599375,1.0,2648.1577239495728,0.516524280568862,1.2875197424552638,0.9810680101016904,0.2842847375,0.7363915742935548
0.065,1.694375,1.0,2645.9859923701983,0.5192361685171525,1.286808739280836,0.9812253914256039,0.28421675,0.7376937087759483
0.0655,1.69274375,1.0,2643.8245658160786,0.5219328429742052,1.2860920039985204,0.9813791359686231,0.2841482375,0.7390030779595363
0.066,1.6911,1.0,2641.67369462282,0.5246144089868597,1.2853695341886995,0.9815293436766097,0.2840792,0.7403196076432548
0.0665,1.6894437500000001,1.0,2639.533510613928,0.5272809469885967,1.2846413285237337,0.9816761093079632,0.2840096375,0.7416432209701656
0.067,1.687775,1.0,2637.404145433762,0.5299325374128968,1.283907385675984,0.9818195242880248,0.28393955,0.7429738404292989
0.0675,1.68609375,1.0,2635.285730551066,0.5325692606932404,1.2831677043178111,0.9819596768481865,0.2838689375,0.744311387855168
0.068,1.6844000000000001,1.0,2633.178397261144,0.5351911972631082,1.282422283121576,0.9820966521582437,0.2837978,0.7456557844272845
0.0685,1.68269375,1.0,2631.0822766887914,0.5377984275559805,1.2816711207596394,0.9822305324523637,0.2837261375,0.7470069506696704
0.069,1.680975,1.0,2628.9974997911336,0.5403910320053382,1.280914215904362,0.9823613971490235,0.28365395,0.7483648064503745
0.0695,1.67924375,1.0,2626.9241973603744,0.5429690910446618,1.280151567228105,0.9824893229652402,0.28358123749999997,0.749729270980984
0.07,1.6775,1.0,2624.8625000268726,0.5455326851074318,1.2793831734032288,0.9826143840254047,0.283508,0.7511002628161396
0.07050000000000001,1.67574375,1.0,2622.8125382618746,0.5480818946271286,1.2786090331020945,0.9827366519650069,0.2834342375,0.7524776998530485
0.07100000000000001,1.673975,1.0,2620.7744423803797,0.550616800037233,1.277829144997063,0.9828561960295275,0.28335995,0.7538614993309981
0.07150000000000001,1.67219375,1.0,2618.74834254456,0.5531374817712256,1.2770435077604947,0.9829730831687457,0.2832851375,0.7552515778308697
0.07200000000000001,1.6704,1.0,2616.734368766446,0.5556440202625866,1.2762521200647508,0.9830873781267139,0.2832098,0.756647851274651
0.0725,1.66859375,1.0,2614.7326509109794,0.558136495944797,1.275454980582192,0.9831991435276152,0.2831339375,0.7580502349249498
0.073,1.6667750000000001,1.0,2612.743318699512,0.560614989251337,1.274652087985179,0.9833084399577253,0.28305755,0.7594586433845072
0.0735,1.66494375,1.0,2610.7665017125482,0.5630795806156875,1.273843440946073,0.9834153260436751,0.2829806375,0.7608729905957099
0.074,1.6631,1.0,2608.8023293930414,0.5655303504713288,1.2730290381372344,0.9835198585272057,0.2829032,0.7622931898401039
0.0745,1.6612437500000001,1.0,2606.850990656107,0.5679673659738436,1.2722088776766258,0.9836220915620237,0.2828252375,0.7637191547003563
0.075,1.659375,1.0,2604.912290759872,0.5703906699276992,1.271382961249886,0.9837220763821766,0.28274675,0.7651507919108511
0.0755,1.65749375,1.0,2602.9854173091594,0.572800405604063,1.270551296294981,0.9838198684345659,0.2826677375,0.7665879976820964
