Time [s],Phi [rad],STIM [ ],Fsee [N],Gamma [ ],Lcerel [ ],q [ ],Lmtc [m],fisomrel [ ]
0.0,1.8,1.0,17.96691544382044,1.249841505700923e-05,1.3793397734129913,0.005000041559633226,0.288653,0.541139465264606
0.0005,1.79999375,1.0,18.277111524241043,0.0056216376176281444,1.3793023469811454,0.012947452579725953,0.2886527375,0.5412300050210292
0.001,1.799975,1.0,21.62060598107514,0.01119931398418245,1.3789380749274454,0.03562160007789562,0.28865195,0.5421107632980926
0.0015,1.79994375,1.0,31.075322587966227,0.016745703997217226,1.378045685198339,0.07061953361894022,0.2886506375,0.5442648593843062
0.002,1.7999,1.0,53.596093877978404,0.022260983147573656,1.3763672425666653,0.11473895197575029,0.2886488,0.5483026107231025
0.0025,1.79984375,1.0,97.14233376167974,0.02774532594201939,1.3739340399244997,0.1645976459462265,0.28864643749999996,0.5541241511024958
0.003,1.7997750000000001,1.0,160.98895277868291,0.03319890591094169,1.3712131914636676,0.21730392664189588,0.28864354999999997,0.5605891788372401
0.0035,1.79969375,1.0,237.71830602429185,0.03862189560795723,1.3685836569662393,0.27063623413327814,0.2886401375,0.566792371866689
0.004,1.7996,1.0,321.50412035317134,0.04401446662068972,1.3661551031921648,0.3229384063630534,0.2886362,0.5724822717038749
0.0045000000000000005,1.7994937500000001,1.0,409.30654662761737,0.04937678957595564,1.3639219035019565,0.3730559654431493,0.2886317375,0.5776812759933438
0.005,1.799375,1.0,499.4531737923032,0.05470903413086075,1.3618574993873251,0.4202675365851268,0.28862675,0.5824590246720408
0.0055,1.79924375,1.0,590.830516225414,0.06001136902015828,1.3599380516123625,0.46419228582859645,0.2886212375,0.586876910081302
0.006,1.7991000000000001,1.0,682.558321330703,0.06528396199967698,1.3581456837928132,0.5046970445297704,0.2886152,0.5909810879482725
0.006500000000000001,1.79894375,1.0,773.9237239435529,0.07052697990330349,1.3564665287033295,0.5418163536707533,0.2886086375,0.5948074423284386
0.007,1.798775,1.0,864.3277093268274,0.0757405886155345,1.3548897182156268,0.5756909931577107,0.28860155,0.5983842088802074
0.0075,1.79859375,1.0,953.2837229620872,0.080924953113604,1.35340615614976,0.6065228497262957,0.2885939375,0.6017349770263123
0.008,1.7984,1.0,1040.3972957979538,0.08608023737890703,1.3520080744914253,0.6345438191305312,0.2885858,0.6048798325664514
0.0085,1.79819375,1.0,1125.3592876900161,0.09120660469896387,1.350688603618458,0.659995063734513,0.2885771375,0.6078364263142094
0.009000000000000001,1.797975,1.0,1207.9183919444724,0.09630421703296944,1.3494417862148862,0.6831140483235707,0.28856795,0.6106200192823654
0.0095,1.79774375,1.0,1287.9092313185786,0.10137323582259823,1.3482618985099724,0.7041264456975581,0.2885582375,0.6132450575453754
0.01,1.7975,1.0,1365.195900637483,0.10641382147471291,1.347144014463097,0.7232423108439493,0.288548,0.6157239579797356
0.0105,1.79724375,1.0,1439.6717895537984,0.11142613247688604,1.3460837925644722,0.7406541242957344,0.2885372375,0.6180676292225491
0.011,1.796975,1.0,1511.31970124455,0.11641032875723777,1.3450765843397183,0.7565360244903588,0.28852595000000003,0.6202874711110755
0.0115,1.79669375,1.0,1580.1454048352464,0.12136656930635846,1.3441181916553129,0.7710447711678347,0.2885141375,0.6223937186603232
0.012,1.7964,1.0,1646.1138079060709,0.12629500923210082,1.343205500162764,0.7843210661642767,0.28850180000000003,0.6243940837309533
0.0125,1.79609375,1.0,1709.229629214638,0.13119580364231764,1.342335395513581,0.7964903495492116,0.2884889375,0.626296163834694
0.013000000000000001,1.7957750000000001,1.0,1769.5339607637577,0.13606910764486163,1.341504763359272,0.8076642297495608,0.28847555,0.6281074509021927
0.0135,1.79544375,1.0,1827.1008920090624,0.14091507632523295,1.3407104910500742,0.8179419009972947,0.2884616375,0.6298353357411266
0.014,1.7951000000000001,1.0,1882.0075604684978,0.14573386340284084,1.3399497624256402,0.8274115968344946,0.2884472,0.6314864764883634
0.0145,1.79474375,1.0,1934.3099278482564,0.15052562116725027,1.3392202690236599,0.8361518903136326,0.2884322375,0.6330663554959051
0.015,1.794375,1.0,1984.0750263144694,0.15529050070895628,1.338519809068018,0.8442326563501434,0.28841675,0.6345801622083951
0.0155,1.79399375,1.0,2031.3723830459403,0.1600286516789323,1.3378463523068267,0.8517161089488962,0.2884007375,0.6360326601816695
0.016,1.7936,1.0,2076.310494675203,0.16474022642409591,1.3371976334692703,0.8586575793998958,0.2883842,0.6374290688224605
0.0165,1.7931937500000001,1.0,2118.9769572083524,0.16942537466987523,1.3365717671042672,0.8651065171514221,0.2883671375,0.638773742309665
0.017,1.792775,1.0,2159.435504488325,0.17408424292939176,1.3359672449249447,0.8711071782217384,0.28834955,0.6400701860253261
0.0175,1.7923437500000001,1.0,2197.7604576751787,0.17871697771576706,1.3353825586444308,0.8766991296563525,0.2883314375,0.6413218729499839
0.018000000000000002,1.7919,1.0,2234.0358479149936,0.18332372554212265,1.3348161999758532,0.8819178009834682,0.2883128,0.64253224564327
0.0185,1.79144375,1.0,2268.3545894472545,0.18790463292158005,1.3342666606323395,0.8867949674474604,0.2882936375,0.6437047180794147
0.019,1.790975,1.0,2300.801613305192,0.19245984492031826,1.333732591620827,0.8913592122194657,0.28827395,0.6448423382973418
0.0195,1.79049375,1.0,2331.4639120092156,0.1969895070865202,1.333212692054007,0.8956362650768308,0.2882537375,0.6459480288715609
0.02,1.79,1.0,2360.4110809843764,0.2014937617920518,1.3327058918907009,0.8996493656530891,0.288233,0.6470242012156036
0.0205,1.78949375,1.0,2387.7115988407036,0.20597275067213083,1.3322111817200255,0.9034195036509979,0.2882117375,0.6480731209827302
0.021,1.788975,1.0,2413.4384999254753,0.2104266153619751,1.3317275521310978,0.9069656551118888,0.28818995000000003,0.6490970381285388
0.021500000000000002,1.78844375,1.0,2437.6660703015064,0.21485549691743244,1.331254021783209,0.910305008809493,0.2881676375,0.6500981283560247
0.022,1.7879,1.0,2460.46498669662,0.2192595357635187,1.3307896798163517,0.913453168325098,0.2881448,0.6510784047416951
0.0225,1.78734375,1.0,2481.910286277444,0.2236388734205939,1.3303336051915864,0.916424305818911,0.28812143749999997,0.6520398892893149
0.023,1.786775,1.0,2502.056820763075,0.2279936467128742,1.3298850971723821,0.9192313542809821,0.28809755,0.6529841283914797
0.0235,1.78619375,1.0,2520.9618360691957,0.2323239924645756,1.3294434550222074,0.9218860962412082,0.28807313749999996,0.6539126592571136
0.024,1.7856,1.0,2538.684772488793,0.23663004749991423,1.3290079780045307,0.9243992819984146,0.2880482,0.6548270102339612
0.0245,1.78499375,1.0,2555.287075758919,0.24091194864310617,1.3285779653828211,0.9267807342759083,0.2880227375,0.6557287010997628
0.025,1.784375,1.0,2570.8202248128664,0.2451698299122205,1.3281528268842508,0.9290394586580846,0.28799675,0.6566190121424582
0.025500000000000002,1.78374375,1.0,2585.348807442987,0.24940382999147878,1.327731864066665,0.9311836905807326,0.2879702375,0.6574994428424392
0.026000000000000002,1.7831000000000001,1.0,2598.9217117280236,0.25361408276494646,1.3273145388428829,0.9332210101506669,0.2879432,0.6583711500703793
0.0265,1.78244375,1.0,2611.5797148413462,0.25780071958362744,1.3269003996486664,0.9351583936309376,0.2879156375,0.6592351043033873
0.027,1.781775,1.0,2623.3646024699065,0.2619638717985259,1.3264889949197778,0.9370022579699063,0.28788755,0.6600922710340349
0.0275,1.7810937500000001,1.0,2634.3190826577647,0.26610367076064584,1.3260798730919792,0.9387585130941719,0.2878589375,0.6609436108556084
0.028,1.7804,1.0,2644.486704170969,0.2702202478209912,1.325672582601033,0.9404326086772954,0.2878298,0.6617900795343539
0.0285,1.77969375,1.0,2653.91177938372,0.2743137343305661,1.325266671882701,0.9420295760277886,0.2878001375,0.6626326280687223
0.029,1.778975,1.0,2662.630179824724,0.2783842567524355,1.324861773413673,0.9435540756019133,0.28776995,0.6634720286177405
0.029500000000000002,1.7782437500000001,1.0,2670.6916019695745,0.2824319506616356,1.3244573978474778,0.9450104065919788,0.2877392375,0.6643093016009041
0.03,1.7775,1.0,2678.125931234759,0.2864569423178898,1.3240532430334078,0.9464025735630877,0.287708,0.6651450755087092
0.0305,1.77674375,1.0,2684.961936548774,0.29045935717643084,1.3236490209009701,0.9477342917192204,0.2876762375,0.6659799466512863
0.031,1.775975,1.0,2691.228761250452,0.29443932069249146,1.323244443379672,0.9490090100036793,0.28764395,0.6668145083678765
0.0315,1.7751937500000001,1.0,2696.955888383396,0.29839695832130436,1.322839222399021,0.9502299335023496,0.2876111375,0.6676493510229446
0.032,1.7744,1.0,2702.1731078302814,0.3023323955181023,1.3224330698885247,0.9514000437005429,0.2875778,0.6684850619970081
0.0325,1.77359375,1.0,2706.9104852875325,0.3062457577381181,1.32202569777769,0.9525221168222036,0.2875439375,0.6693222256721678
0.033,1.772775,1.0,2711.189330771212,0.31013716485158416,1.3216169000993885,0.9535987484696372,0.28750955,0.6701612550078444
0.0335,1.7719437500000002,1.0,2715.04099981489,0.31400674453043165,1.3212063810988735,0.9546323519624433,0.2874746375,0.6710027447109862
0.034,1.7711000000000001,1.0,2718.4984269966185,0.31785462537640885,1.3207938324597472,0.9556251796386357,0.2874392,0.6718473120401391
0.0345,1.7702437500000001,1.0,2721.5792725375964,0.3216809260145871,1.3203790865278662,0.9565793494616465,0.2874032375,0.6726952835317923
0.035,1.7693750000000001,1.0,2724.301320065427,0.3254857650700376,1.3199619756490861,0.9574968425750112,0.28736675,0.6735469838607577
0.035500000000000004,1.76849375,1.0,2726.682464110011,0.32926926116783195,1.3195423321692632,0.9583795137252481,0.2873297375,0.6744027358157789
0.036000000000000004,1.7676,1.0,2728.740698221423,0.3330315329330413,1.3191199884342535,0.9592291007761641,0.2872922,0.6752628602733479
0.0365,1.76669375,1.0,2730.494103712326,0.336772698990737,1.318694776789913,0.9600472334031634,0.2872541375,0.6761276761697305
0.037,1.765775,1.0,2731.960839022431,0.3404928779659904,1.3182665295820977,0.9608354410466589,0.28721555,0.6769975004711982
0.0375,1.76484375,1.0,2733.1591297070418,0.3441921884838729,1.3178350791566635,0.9615951601952745,0.2871764375,0.6778726481424663
0.038,1.7639,1.0,2734.107259047903,0.3478707491694558,1.3174002578594668,0.9623277410621187,0.28713679999999997,0.6787534321133418
0.0385,1.76294375,1.0,2734.8171219277424,0.3515286728341555,1.3169619564925958,0.9630344580561834,0.28709663750000003,0.6796400450777609
0.039,1.761975,1.0,2735.3059625050414,0.3551660794739618,1.316520017636402,0.9637165077450084,0.28705595,0.6805327756232518
0.0395,1.7609937500000001,1.0,2735.5923111030384,0.35878308908836504,1.316074272506426,0.96437501622709,0.2870147375,0.6814319332255534
0.04,1.76,1.0,2735.6861977345234,0.36237981320727886,1.3156246297479635,0.9650110503721093,0.286973,0.6823376693126946
0.0405,1.7589937500000001,1.0,2735.597674142347,0.3659563633606166,1.3151709980063095,0.9656256165452151,0.2869307375,0.683250133978657
0.041,1.757975,1.0,2735.336810351833,0.3695128510782918,1.3147132859267596,0.9662196646704866,0.28688795,0.6841694759604007
0.0415,1.75694375,1.0,2734.9136914089518,0.373049387890218,1.3142514021546092,0.9667940919806357,0.2868446375,0.6850958426143561
0.042,1.7559,1.0,2734.338414303368,0.3765660853263087,1.3137852553351537,0.9673497464801728,0.28680079999999997,0.6860293798923865
0.0425,1.75484375,1.0,2733.621085076586,0.3800630549164774,1.313314754113688,0.967887430146661,0.2867564375,0.6869702323172169
0.043000000000000003,1.753775,1.0,2732.771816114576,0.3835404081906375,1.3128398071355083,0.9684079018923323,0.28671155,0.6879185429573278
0.043500000000000004,1.75269375,1.0,2731.80072362662,0.38699825667870263,1.3123603230459093,0.9689118803062535,0.28666613750000003,0.6888744534013239
0.044,1.7516,1.0,2730.7144643263123,0.3904367017684333,1.3118762419421937,0.9694000471428572,0.2866202,0.689838041173515
0.0445,1.75049375,1.0,2729.5228019231786,0.3938558603808507,1.3113874757017172,0.9698730488305308,0.2865737375,0.6908094386993383
0.045,1.7493750000000001,1.0,2728.2351396518807,0.39725584927570207,1.3108939394615218,0.9703314986955723,0.28652675,0.6917887704276009
0.0455,1.74824375,1.0,2726.8569141056278,0.40063677251678953,1.3103955844007278,0.9707759796956,0.2864792375,0.6927760879608759
0.046,1.7471,1.0,2725.3935611780357,0.4039987341679151,1.3098923616984546,0.9712070453923982,0.2864312,0.6937714418397775
0.0465,1.7459437500000001,1.0,2723.850515194338,0.40734183829288073,1.3093842225338221,0.97162522171212,0.28638263750000004,0.6947748815278776
0.047,1.744775,1.0,2722.23320809659,0.4106661889554884,1.3088711180859505,0.9720310085839056,0.28633355,0.6957864553964759
0.0475,1.74359375,1.0,2720.547068681681,0.4139718902195402,1.308352999533959,0.9724248814663851,0.28628393750000003,0.6968062107092168
0.048,1.7424,1.0,2718.797521890823,0.4172590461488381,1.3078298180569676,0.9728072927707161,0.2862338,0.6978341936065504
0.0485,1.74119375,1.0,2716.98998815414,0.420527760807184,1.3073015248340965,0.9731786731880712,0.2861831375,0.6988704490900485
0.049,1.739975,1.0,2715.1298827858095,0.42377813825838,1.306768071044465,0.9735394329288125,0.28613195,0.699915021006563
0.0495,1.73874375,1.0,2713.2226154336254,0.42701028256622814,1.306229407867193,0.9738899628799864,0.2860802375,0.7009679520322334
0.05,1.7375,1.0,2711.2735895809105,0.4302242977945303,1.3056854864814005,0.9742306356872157,0.286028,0.7020292836563442
0.0505,1.73624375,1.0,2709.2856482752863,0.43342027720237514,1.30513628136595,0.9745618070792736,0.2859752375,0.7030990108232138
0.051000000000000004,1.734975,1.0,2707.2597571330757,0.43659831520870973,1.3045817841056526,0.9748838177738626,0.28592195,0.7041770943591124
0.051500000000000004,1.73369375,1.0,2705.205491767486,0.4397585430785316,1.3040219076680966,0.975196992000386,0.2858681375,0.7052636468681486
0.052000000000000005,1.7324,1.0,2703.1248675236125,0.4429010562830515,1.3034566339484304,0.9755016398712253,0.2858138,0.7063586457675011
0.0525,1.73109375,1.0,2701.01989712516,0.44602595029347997,1.3028859448418035,0.9757980576981062,0.28575893750000003,0.7074620676571682
0.053,1.729775,1.0,2698.8925905783162,0.44913332058102784,1.3023098222433653,0.9760865287228822,0.28570355000000003,0.7085738883137273
0.0535,1.72844375,1.0,2696.744955083414,0.45222326261690576,1.3017282480482646,0.9763673238035528,0.2856476375,0.7096940826840719
0.054,1.7271,1.0,2694.578994953495,0.4552958718723245,1.301141204151651,0.9766407020586174,0.2855912,0.7108226248791252
0.0545,1.7257437500000001,1.0,2692.3967115402493,0.4583512438184947,1.3005486724486737,0.9769069114726229,0.2855342375,0.711959488167538
0.055,1.724375,1.0,2690.2001031671834,0.461389473926627,1.2999506348344816,0.9771661894655542,0.28547675,0.7131046449693605
0.0555,1.72299375,1.0,2687.991165070122,0.4644106576679322,1.299347073204224,0.9774187634285058,0.2854187375,0.714258066849697
0.056,1.7216,1.0,2685.7718893449446,0.46741489051362095,1.2987379694530503,0.9776648512278916,0.2853602,0.7154197245123355
0.0565,1.72019375,1.0,2683.5442649025917,0.47040226793490403,1.2981233054761097,0.9779046616802946,0.28530113749999997,0.7165895877933617
0.057,1.718775,1.0,2681.3102774315,0.473372885402992,1.2975030631685511,0.9781383949998759,0.28524155,0.7177676256547484
0.0575,1.71734375,1.0,2679.071909366683,0.4763268383890957,1.296877224425524,0.9783662432201529,0.2851814375,0.7189538061779244
0.058,1.7159,1.0,2676.8311398669657,0.47926422236442573,1.2962457711421775,0.9785883905918005,0.2851208,0.7201480965573233
0.0585,1.71444375,1.0,2674.589944799022,0.4821851328001928,1.295608685213661,0.9788050139580198,0.2850596375,0.7213504630939116
0.059000000000000004,1.7129750000000001,1.0,2672.3467610810844,0.485089640146733,1.2949659810146563,0.9790162827933642,0.28499795,0.7225608100894816
0.059500000000000004,1.71149375,1.0,2670.104399118854,0.4879778516546396,1.294317632750934,0.9792223607752116,0.2849357375,0.7237791168746375
0.06,1.71,1.0,2667.8667483184577,0.49084987983892464,1.2936636046645955,0.9794234050210099,0.284873,0.7250053804062377
0.0605,1.7084937500000001,1.0,2665.6342125445826,0.49370581107954536,1.2930038929973304,0.9796195661100559,0.2848097375,0.7262395366339571
0.061,1.7069750000000001,1.0,2663.4071949867975,0.4965457317564588,1.2923384939908287,0.9798109888191796,0.28474595,0.7274815208264485
0.0615,1.7054437500000001,1.0,2661.1860981627838,0.49936972824962195,1.2916674038867804,0.979997812388837,0.2846816375,0.72873126756998
0.062,1.7039,1.0,2658.9713239225566,0.502177886938992,1.290990618926875,0.9801801707750423,0.2846168,0.7299887107670735
0.0625,1.70234375,1.0,2656.763273451638,0.5049702942045259,1.2903081353528023,0.9803581928879934,0.2845514375,0.7312537836351372
0.063,1.7007750000000001,1.0,2654.5623472760026,0.5077470364261807,1.2896199494062524,0.9805320028181884,0.28448555,0.7325264187051015
0.0635,1.69919375,1.0,2652.3689452665612,0.5105081999839136,1.2889260573289147,0.9807017200507748,0.28441913750000003,0.7338065478200532
0.064,1.6976,1.0,2650.18346664366,0.5132538712576817,1.2882264553624794,0.9808674596688264,0.2843522,0.7350941021338671
0.0645,1.69599375,1.0,2648.0063099829354,0.5159841366274419,1.287521139748636,0.9810293325461994,0.2842847375,0.7363890121098386
0.065,1.694375,1.0,2645.837873220442,0.5186990824731514,1.2868101067290745,0.9811874455305677,0.28421675,0.7376912075193142
0.0655,1.69274375,1.0,2643.6785536586463,0.5213987951747674,1.2860933525454845,0.9813419016172109,0.2841482375,0.7390006174403225
0.066,1.6911,1.0,2641.528747972603,0.5240833611122466,1.2853708734395561,0.981492800114081,0.2840792,0.7403171702562017
0.0665,1.6894437500000001,1.0,2639.3888522166053,0.5267528666655464,1.284642665652979,0.9816402367986449,0.2840096375,0.7416407936542295
0.067,1.687775,1.0,2637.2592618305043,0.5294073982146238,1.2839087254274428,0.98178430406697,0.28393955,0.7429714146242503
0.0675,1.68609375,1.0,2635.1403716474715,0.5320470421394358,1.2831690490046377,0.9819250910754856,0.2838689375,0.7443089594572995
0.068,1.6844000000000001,1.0,2633.032593202493,0.5346718832949443,1.2824236324661336,0.9820626837680978,0.2837978,0.7456533540326349
0.0685,1.68269375,1.0,2630.937601129264,0.5372819569051458,1.2816724601935947,0.982197161344699,0.2837261375,0.7470045445423719
0.069,1.680975,1.0,2628.855336861677,0.5398774123044929,1.2809155325973622,0.9823286083893576,0.28365395,0.748362447530422
0.0695,1.67924375,1.0,2626.7856966502413,0.5424583268055481,1.2801528505078286,0.9824571020063622,0.28358123749999997,0.749726978164344
0.07,1.6775,1.0,2624.728576966701,0.5450247777208737,1.2793844147553852,0.9825827166949741,0.283508,0.7510980509942312
0.07050000000000001,1.67574375,1.0,2622.683874501905,0.5475768423630316,1.2786102261704244,0.9827055244536089,0.2834342375,0.7524755799530133
0.07100000000000001,1.673975,1.0,2620.651486163685,0.5501145980445846,1.2778302855833379,0.9828255948791602,0.28335995,0.7538594783567631
0.07150000000000001,1.67219375,1.0,2618.6313090751096,0.5526381220780947,1.2770445938245178,0.9829429952617305,0.2832851375,0.7552496589049997
0.07200000000000001,1.6704,1.0,2616.6232405724886,0.5551474917761241,1.276253151724356,0.983057790675002,0.2832098,0.7566460336809946
0.0725,1.66859375,1.0,2614.6271782032386,0.5576427844512353,1.2754559601132445,0.9831700440624834,0.2831339375,0.7580485141520749
0.073,1.6667750000000001,1.0,2612.6430197242116,0.5601240774159904,1.2746530198215753,0.9832798163198399,0.28305755,0.7594570111699278
0.0735,1.66494375,1.0,2610.6706630995877,0.5625914479829518,1.27384433167974,0.9833871663735132,0.2829806375,0.7608714349709073
0.074,1.6631,1.0,2608.710006498911,0.5650449734646816,1.273029896518131,0.9834921512558173,0.2829032,0.762291695176335
0.0745,1.6612437500000001,1.0,2606.760948295531,0.5674847311737424,1.27220971516714,0.9835948261766922,0.2828252375,0.7637177007928077
0.075,1.659375,1.0,2604.823387064541,0.5699107984226962,1.2713837884571593,0.9836952445922853,0.28274675,0.7651493602124995
0.0755,1.65749375,1.0,2602.897221580764,0.5723232525241053,1.2705521172185805,0.9837934582705151,0.2826677375,0.7665865812134677
