Time [s],Phi [rad],STIM [ ],Fsee [N],Gamma [ ],Lcerel [ ],q [ ],Lmtc [m],fisomrel [ ]
0.0,1.8,1.0,18.748842419356162,0.0009016972110777657,1.3792531037816034,0.005209041651328317,0.288653,0.5413491175765957
0.0005,1.79999375,1.0,19.324338910357817,0.006505848711608524,1.379187641759481,0.015600201059644977,0.2886527375,0.5415074372987356
0.001,1.799975,1.0,23.32871620767686,0.012078565353579991,1.3787669413886248,0.04040528081276689,0.28865195,0.5425242478032721
0.0015,1.79994375,1.0,34.2797055834723,0.017620023461090963,1.3777794055875856,0.07706864642318623,0.2886506375,0.5449066349294978
0.002,1.7999,1.0,59.73650945510256,0.02313039837049897,1.3759797331645949,0.12231308039190998,0.2886488,0.5492322712036992
0.0025,1.79984375,1.0,106.82129254552663,0.028609864433407045,1.3734787615661586,0.1727972352480156,0.28864643749999996,0.5552092304177567
0.003,1.7997750000000001,1.0,173.18324054664356,0.034058595024455574,1.3707651213420902,0.2257365502673362,0.28864354999999997,0.5616493137633456
0.0035,1.79969375,1.0,251.27939913424933,0.03947676254434966,1.3681717630033468,0.27900474389827634,0.2886401375,0.5677600539764269
0.004,1.7996,1.0,335.8042890363137,0.044864538425820055,1.3657804886424862,0.33102815034976335,0.2886362,0.573356613930051
0.0045000000000000005,1.7994937500000001,1.0,424.0311166016452,0.05022209315451765,1.3635793318344915,0.3807260248540783,0.2886317375,0.5784759868073492
0.005,1.799375,1.0,514.4097932438058,0.05554959620845715,1.3615420294316078,0.42743729610631687,0.28862675,0.5831867377374822
0.0055,1.79924375,1.0,605.883617302054,0.06084721625053229,1.3596458102165205,0.4708261511518311,0.2886212375,0.5875474846737962
0.006,1.7991000000000001,1.0,697.5753317725361,0.06611512074207984,1.3578742076230248,0.5107911246968075,0.2886152,0.5916009295860719
0.006500000000000001,1.79894375,1.0,788.8165935711945,0.07135347653594178,1.356213516023983,0.5473869067040423,0.2886086375,0.5953824330415549
0.007,1.798775,1.0,879.0136472903765,0.07656244920568928,1.35465349819598,0.5807667035802733,0.28860155,0.5989186741624811
0.0075,1.79859375,1.0,967.707925030838,0.08174220376247586,1.3531851346629067,0.6111388044779288,0.2885939375,0.6022329740215067
0.008,1.7984,1.0,1054.50707855703,0.0868929039528925,1.3518010398283096,0.63873785852494,0.2885858,0.6053444782389036
0.0085,1.79819375,1.0,1139.1010446461858,0.09201471259984031,1.3504946650080398,0.6638052505062733,0.2885771375,0.6082700567630802
0.009000000000000001,1.797975,1.0,1221.2819002417982,0.09710779230121942,1.3492596933854974,0.6865767610942712,0.28856795,0.6110257225008556
0.0095,1.79774375,1.0,1300.8631706695423,0.10217230375995354,1.34809091325531,0.707276023029313,0.2885582375,0.6136247324907023
0.01,1.7975,1.0,1377.7164898581725,0.10720840712720854,1.346983460028241,0.7261103695678031,0.288548,0.616079331845759
0.0105,1.79724375,1.0,1451.775101274697,0.11221626188784363,1.3459326280213035,0.7432692196795597,0.2885372375,0.6184012017547017
0.011,1.796975,1.0,1523.0015301566782,0.1171960269622558,1.3449341603183456,0.7589240793024166,0.28852595000000003,0.6206008451705289
0.0115,1.79669375,1.0,1591.360692776391,0.12214785922030287,1.3439844456844814,0.7732292771231082,0.2885141375,0.6226871847166456
0.012,1.7964,1.0,1656.8599466013975,0.12707191524031441,1.3430799252657575,0.7863227973398556,0.28850180000000003,0.6246688931111042
0.0125,1.79609375,1.0,1719.5398819678803,0.13196835135902998,1.3422171450007645,0.7983276616471896,0.2884889375,0.626554291031651
0.013000000000000001,1.7957750000000001,1.0,1779.4484972064101,0.13683732317259467,1.3413929938647975,0.8093534454116998,0.28847555,0.6283508410077498
0.0135,1.79544375,1.0,1836.6194770204543,0.14167898361508297,1.3406048788777178,0.8194977197995839,0.2884616375,0.6300647847088494
0.014,1.7951000000000001,1.0,1891.1132394907693,0.14649348562056938,1.3398502070593874,0.8288471588180745,0.2884472,0.6317022855921286
0.0145,1.79474375,1.0,1943.0093854492422,0.15128098172577983,1.3391264417621926,0.837478791004144,0.2884322375,0.6332693128115886
0.015,1.794375,1.0,1992.3929672257523,0.15604162401585164,1.3384312221283527,0.8454611544376934,0.28841675,0.6347713899512422
0.0155,1.79399375,1.0,2039.3490979875196,0.16077556393093353,1.3377623887240113,0.8528552963127591,0.2884007375,0.6362135483528377
0.016,1.7936,1.0,2083.941477018376,0.16548294997291935,1.3371181781111092,0.8597157117795153,0.2883842,0.6375999170505308
0.0165,1.7931937500000001,1.0,2126.247434853332,0.17016393064370278,1.336496826851588,0.8660909966765148,0.2883671375,0.6389345839247844
0.017,1.792775,1.0,2166.356784332875,0.1748186544451776,1.335896571507389,0.8720245467188147,0.28834955,0.6402215983723902
0.0175,1.7923437500000001,1.0,2204.3519384133633,0.1794472682796257,1.3353158388159052,0.8775552233674304,0.2883314375,0.6414645670892407
0.018000000000000002,1.7919,1.0,2240.3368652778317,0.18404992082934377,1.3347529373694171,0.8827178036453396,0.2883128,0.642667317992816
0.0185,1.79144375,1.0,2274.381714288047,0.1886267565232227,1.3342066049791639,0.887543594940574,0.2882936375,0.6438327333810623
0.019,1.790975,1.0,2306.5579910571055,0.19317791922305894,1.3336756374292824,0.8920607403325378,0.28827395,0.6449635490630168
0.0195,1.79049375,1.0,2336.9436624437344,0.19770355279064883,1.33315883050391,0.8962945667410307,0.2882537375,0.6460624797744484
0.02,1.79,1.0,2365.6226116761422,0.20220380108778876,1.3326549799871839,0.9002679041674191,0.288233,0.6471322203116273
0.0205,1.78949375,1.0,2392.6668633765453,0.2066788055898488,1.3321630492512377,0.9040014017463815,0.2882117375,0.6481750915565045
0.021,1.788975,1.0,2418.166668279409,0.21112871097599403,1.331681869654417,0.9075137060700041,0.28818995000000003,0.6491936777504793
0.021500000000000002,1.78844375,1.0,2442.1810694197466,0.2155536562721187,1.3312106150618812,0.9108217759790022,0.2881676375,0.6501898229283494
0.022,1.7879,1.0,2464.772431009475,0.21995378049694567,1.3307484597673371,0.9139409953316052,0.2881448,0.6511653582957084
0.0225,1.78734375,1.0,2486.006204841967,0.22432922266919794,1.3302945780644924,0.9168853409743408,0.28812143749999997,0.6521221036390273
0.023,1.786775,1.0,2505.950667921187,0.22868012180759842,1.3298481442470536,0.9196675309152889,0.28809755,0.6530618677830835
0.0235,1.78619375,1.0,2524.6659379678536,0.23300661428005107,1.3294084340880545,0.9222991726357399,0.28807313749999996,0.6539862358152291
0.024,1.7856,1.0,2542.220623868545,0.2373088408737835,1.3289746640759657,0.9247908510558037,0.2880482,0.6548969081508469
0.0245,1.78499375,1.0,2558.666250613909,0.24158693686136248,1.328546230661825,0.927152269079051,0.2880227375,0.6557951987178154
0.025,1.784375,1.0,2574.0509984307996,0.2458410359925925,1.3281225771425411,0.9293923138385959,0.28799675,0.6566823162287537
0.025500000000000002,1.78374375,1.0,2588.42450889049,0.25007127201727813,1.3277031468150235,0.9315191297163928,0.2879702375,0.6575594629066681
0.026000000000000002,1.7831000000000001,1.0,2601.837759668405,0.25427777868522394,1.3272873829761809,0.9335401905008136,0.2879432,0.6584278346447792
0.0265,1.78244375,1.0,2614.3429461752316,0.25846068974623443,1.3268747289229221,0.9354623636535866,0.2879156375,0.6592886211465758
0.027,1.781775,1.0,2625.982744187713,0.2626201359820993,1.326464726422527,0.9372919815584231,0.28788755,0.6601428010263537
0.0275,1.7810937500000001,1.0,2636.8070534843987,0.2667562522264871,1.3260568588875137,0.9390348703770102,0.2878589375,0.6609914692997705
0.028,1.7804,1.0,2646.8643938486625,0.27086917156240975,1.3256506305921596,0.9406964060223902,0.2878298,0.6618356721777067
0.0285,1.77969375,1.0,2656.1879031433696,0.27495902179329723,1.325245694711569,0.9422815719946388,0.2878001375,0.6626761418099136
0.029,1.778975,1.0,2664.8113147767117,0.27902593072257953,1.324841704420847,0.943794975235398,0.28776995,0.6635136067249973
0.029500000000000002,1.7782437500000001,1.0,2672.768905688149,0.2830700261536865,1.3244383128950974,0.945240879436058,0.2877392375,0.664348791855175
0.03,1.7775,1.0,2680.0954470015427,0.28709143589004804,1.3240351733094253,0.9466232350022057,0.287708,0.6651824185533504
0.0305,1.77674375,1.0,2686.8261573450413,0.2910902877350941,1.323631938838935,0.9479457060463876,0.2876762375,0.666015204602525
0.031,1.775975,1.0,2692.9966588382235,0.29506670949225466,1.323228262658731,0.9492116947361988,0.28764395,0.6668478642175331
0.0315,1.7751937500000001,1.0,2698.6350329485126,0.29902082407440045,1.3228238701869268,0.9504243707411216,0.2876111375,0.6676809593033617
0.032,1.7744,1.0,2703.77751912244,0.3029527628154744,1.322418415015727,0.9515866768972964,0.2875778,0.6685151966159006
0.0325,1.77359375,1.0,2708.4482999183165,0.3068626488764197,1.3220116634132144,0.9527013648889059,0.2875439375,0.6693510479140776
0.033,1.772775,1.0,2712.669777937438,0.3107506040013383,1.3216033998717014,0.9537710014711772,0.28750955,0.6701889451242429
0.0335,1.7719437500000002,1.0,2716.464547057867,0.3146167499343322,1.3211934088835005,0.9547979815246871,0.2874746375,0.6710293178883817
0.034,1.7711000000000001,1.0,2719.855373200252,0.3184612084195032,1.3207814749409237,0.9557845416089215,0.2874392,0.6718725935418545
0.0345,1.7702437500000001,1.0,2722.8651761232063,0.32228410120095335,1.3203673825362838,0.9567327722946144,0.2874032375,0.672719197088171
0.035,1.7693750000000001,1.0,2725.5170122485392,0.32608555002278455,1.3199509161618928,0.9576446293977262,0.28736675,0.6735695511708083
0.035500000000000004,1.76849375,1.0,2727.830842346833,0.3298656734842876,1.3195318895527641,0.9585219465469889,0.2873297375,0.6744240164503832
0.036000000000000004,1.7676,1.0,2729.8231736991925,0.33362458729114597,1.3191101487480978,0.9593664447311578,0.2872922,0.6752828857333127
0.0365,1.76669375,1.0,2731.526991262657,0.3373624252737472,1.3186853908291563,0.9601797270321947,0.2872541375,0.6761467527808289
0.037,1.765775,1.0,2732.9553367056765,0.34107930214484106,1.3182574948682688,0.9609633119992741,0.28721555,0.6770158385209626
0.0375,1.76484375,1.0,2734.1213087993533,0.34477533261717697,1.3178263399377643,0.9617186260549087,0.2871764375,0.6778903623780761
0.038,1.7639,1.0,2735.0380568569303,0.3484506314035045,1.3173918051099724,0.9624470101003237,0.28713679999999997,0.6787705422481929
0.0385,1.76294375,1.0,2735.7187744990943,0.35210531321657335,1.3169537694572222,0.9631497255775938,0.28709663750000003,0.6796565944733994
0.039,1.761975,1.0,2736.1766937413904,0.3557394927691329,1.316512112051843,0.963827960038634,0.28705595,0.6805487338153111
0.0395,1.7609937500000001,1.0,2736.4250794083023,0.35935328477393286,1.316066711966164,0.9644828322660544,0.2870147375,0.6814471734276082
0.04,1.76,1.0,2736.4772238693167,0.3629468039437227,1.3156174482725147,0.965115396986348,0.286973,0.6823521248276356
0.0405,1.7589937500000001,1.0,2736.346442100925,0.36652016499125206,1.3151642000432242,0.9657266492118548,0.2869307375,0.6832637978670745
0.041,1.757975,1.0,2736.046067071533,0.3700734826292705,1.3147068463506217,0.9663175282443414,0.28688795,0.6841824007016779
0.0415,1.75694375,1.0,2735.5868168583816,0.37360686691087347,1.314245290133353,0.9668889226042485,0.2868446375,0.6851080919292245
0.042,1.7559,1.0,2734.9785292518145,0.3771204289344808,1.313779442422458,0.9674416730123261,0.28680079999999997,0.6860410124778423
0.0425,1.75484375,1.0,2734.2360213322963,0.38061429040577804,1.3133091691044285,0.9679765726369337,0.2867564375,0.6869813920761882
0.043000000000000003,1.753775,1.0,2733.366272964661,0.38408855861699803,1.3128344072765925,0.968494375575293,0.28671155,0.687929316402752
0.043500000000000004,1.75269375,1.0,2732.3762688373827,0.38754334086037345,1.3123550940362783,0.9689957959371954,0.28666613750000003,0.688884869992308
0.044,1.7516,1.0,2731.2729968924564,0.39097874442813707,1.311871166480814,0.9694815103602945,0.2866202,0.6898481362177818
0.0445,1.75049375,1.0,2730.063446844628,0.3943948766125217,1.3113825617075279,0.969952160343134,0.2865737375,0.6908191972718674
0.045,1.7493750000000001,1.0,2728.7546087871647,0.3977918447057601,1.3108892168137478,0.9704083544107853,0.28652675,0.6917981341483881
0.0455,1.74824375,1.0,2727.3534718857763,0.40116975600008503,1.310391068896802,0.970850670126621,0.2864792375,0.6927850266234081
0.046,1.7471,1.0,2725.8670231605624,0.4045287177877292,1.3098880550540186,0.971279655962547,0.2864312,0.6937799532360891
0.0465,1.7459437500000001,1.0,2724.302246354998,0.40786883736092544,1.309380112382726,0.9716958330389122,0.28638263750000004,0.694782991269298
0.047,1.744775,1.0,2722.6661208932665,0.4111902220119065,1.3088671779802519,0.9720996967443375,0.28633355,0.6957942167299599
0.0475,1.74359375,1.0,2720.958327325306,0.4144929657559882,1.3083492553439249,0.9724917212751282,0.28628393750000003,0.696813573752701
0.048,1.7424,1.0,2719.184892334665,0.4177771778746041,1.307826290208212,0.9728723557622083,0.2862338,0.6978411194408469
0.0485,1.74119375,1.0,2717.361241885345,0.4210429818916971,1.3072981426335821,0.9732420235843638,0.2861831375,0.6988770775955058
0.049,1.739975,1.0,2715.4903331385726,0.424290476893938,1.3067647861371894,0.9736011327912819,0.28613195,0.6999214476600908
0.0495,1.73874375,1.0,2713.5751205705365,0.4275197619679978,1.3062261942361886,0.9739500722568406,0.2860802375,0.7009742282003193
0.05,1.7375,1.0,2711.6185557241097,0.4307309362005475,1.3056823404477338,0.974289212750637,0.286028,0.7020354168953947
0.0505,1.73624375,1.0,2709.6235869756088,0.4339240986782579,1.3051331982889798,0.9746189079403307,0.2859752375,0.7031050105291395
0.051000000000000004,1.734975,1.0,2707.593159318014,0.4370993484878,1.3045787412770808,0.9749394953298596,0.28592195,0.7041830049810875
0.051500000000000004,1.73369375,1.0,2705.530214158953,0.44025678471584473,1.3040189429291915,0.9752512971381477,0.2858681375,0.7052693952175286
0.052000000000000005,1.7324,1.0,2703.4376891345332,0.44339650644906303,1.303453776762466,0.9755546211225831,0.2858138,0.7063641752825108
0.0525,1.73109375,1.0,2701.3185179387833,0.44651861277412574,1.3028832162940593,0.9758497613511797,0.28575893750000003,0.7074673382887948
0.053,1.729775,1.0,2699.1756301686505,0.44962320277770396,1.3023072350411253,0.9761369989270432,0.28570355000000003,0.7085788764087686
0.0535,1.72844375,1.0,2697.011951184348,0.4527103755464685,1.3017258065208188,0.9764166026684685,0.2856476375,0.7096987808653107
0.054,1.7271,1.0,2694.8304019855796,0.4557802301670903,1.301138904250294,0.9766888297477432,0.2855912,0.7108270419226155
0.0545,1.7257437500000001,1.0,2692.633899102856,0.4588328657262403,1.3005465017467055,0.9769539262914905,0.2855342375,0.7119636488769693
0.055,1.724375,1.0,2690.425354504757,0.4618683813105895,1.2999485725272077,0.9772121279451761,0.28547675,0.7131085900474821
0.0555,1.72299375,1.0,2688.206492367288,0.46488685633874377,1.299345100945656,0.9774636591882327,0.2854187375,0.7142618320785554
0.056,1.7216,1.0,2685.9795766947987,0.46788840609832927,1.298736066384356,0.977708738186964,0.2853602,0.715423350258934
0.0565,1.72019375,1.0,2683.746216451189,0.4708731300909076,1.2981214541965176,0.9779475729146718,0.28530113749999997,0.7165931076140104
0.057,1.718775,1.0,2681.507645187376,0.4738411191629243,1.2975012531540553,0.9781803621992861,0.28524155,0.71777105985895
0.0575,1.71734375,1.0,2679.2650944343522,0.47679246416082516,1.2968754520288834,0.9784072967669727,0.2851814375,0.7189571619344584
0.058,1.7159,1.0,2677.0197936911172,0.4797272559310557,1.2962440395929158,0.9786285596350762,0.2851208,0.7201513680027773
0.0585,1.71444375,1.0,2674.7729704144967,0.48264558532006163,1.295607004618067,0.9788443264829683,0.2850596375,0.7213536314436675
0.059000000000000004,1.7129750000000001,1.0,2672.525850012178,0.48554754317428844,1.2949643358762513,0.9790547660022118,0.28499795,0.7225639048503891
0.059500000000000004,1.71149375,1.0,2670.27965583864,0.4884332203401819,1.2943160221393826,0.9792600402273429,0.2849357375,0.7237821400256712
0.06,1.71,1.0,2668.035609193417,0.4913027076641875,1.2936620521793754,0.9794603048484942,0.284873,0.7250082879776717
0.0605,1.7084937500000001,1.0,2665.794929322721,0.494156095992751,1.293002414768144,0.9796557095069767,0.2848097375,0.7262422989159327
0.061,1.7069750000000001,1.0,2663.558833423525,0.496993476172318,1.2923370986776024,0.9798463980748864,0.28474595,0.7274841222473272
0.0615,1.7054437500000001,1.0,2661.3285366502796,0.49981493904933405,1.291666092679665,0.9800325089197022,0.2846816375,0.7287337065719932
0.062,1.7039,1.0,2659.1052521252127,0.5026205754702449,1.290989385546246,0.9802141751547971,0.2846168,0.7299909996792673
0.0625,1.70234375,1.0,2656.890190950114,0.505410476281496,1.2903069660492594,0.9803915248767084,0.2845514375,0.7312559485436038
0.063,1.7007750000000001,1.0,2654.6797611812935,0.508184699602333,1.2896188672109505,0.9805646812219723,0.28448555,0.7325284175875185
0.0635,1.69919375,1.0,2652.4745560058454,0.510943345466024,1.2889250835190482,0.9807337639312509,0.28441913750000003,0.7338083421986958
0.064,1.6976,1.0,2650.2805789691297,0.5136865414288247,1.288225559544482,0.9808988877916162,0.2843522,0.7350957488050709
0.0645,1.69599375,1.0,2648.097854611107,0.516414369114527,1.2875202949426512,0.9810601628050993,0.2842847375,0.7363905612120245
0.065,1.694375,1.0,2645.9264074705698,0.5191269101469225,1.286809289368955,0.9812176949915549,0.28421675,0.7376927025882497
0.0655,1.69274375,1.0,2643.7662620859037,0.5218242461498029,1.2860925424787923,0.9813715865599663,0.2841482375,0.7390020954656262
0.066,1.6911,1.0,2641.6174429958874,0.5245064587469602,1.2853700539275628,0.9815219360711881,0.2840792,0.7403186617390942
0.0665,1.6894437500000001,1.0,2639.47997474062,0.527173629562186,1.2846418233706651,0.9816688385926081,0.2840096375,0.7416423226665276
0.067,1.687775,1.0,2637.3538818617767,0.529825840219272,1.2839078504634989,0.9818123858451862,0.28393955,0.7429729988686083
0.0675,1.68609375,1.0,2635.239188903835,0.53246317234201,1.283168134861463,0.9819526663432951,0.2838689375,0.7443106103287
0.068,1.6844000000000001,1.0,2633.1359204146233,0.5350857075541917,1.2824226762199569,0.9820897655277627,0.2837978,0.7456550763927213
0.0685,1.68269375,1.0,2631.0441009459387,0.5376935274796089,1.2816714741943793,0.9822237658924932,0.2837261375,0.7470063157690214
0.069,1.680975,1.0,2628.9637550546204,0.5402867137420532,1.2809145284401298,0.9823547471050158,0.28365395,0.7483642465282511
0.0695,1.67924375,1.0,2626.8949073028143,0.5428653479653164,1.2801518386126074,0.9824827861212947,0.28358123749999997,0.7497287861032385
0.07,1.6775,1.0,2624.837582259345,0.5454295117731903,1.2793834043672112,0.9826079572951073,0.283508,0.7510998512888627
0.07050000000000001,1.67574375,1.0,2622.7918044999833,0.5479792867894666,1.2786092253593406,0.9827303324822851,0.2834342375,0.7524773582419265
0.07100000000000001,1.673975,1.0,2620.7575986083393,0.550514754637937,1.2778293012443944,0.9828499811400907,0.28335995,0.7538612224810317
0.07150000000000001,1.67219375,1.0,2618.734989176689,0.5530359969423934,1.2770436316777722,0.9829669704219862,0.2832851375,0.7552513588864506
0.07200000000000001,1.6704,1.0,2616.724000806703,0.5555430953266273,1.276252216314873,0.9830813652680396,0.2832098,0.7566476817000019
0.0725,1.66859375,1.0,2614.724658110316,0.5580361314144304,1.275455054811096,0.9831932284911947,0.2831339375,0.7580501045249239
0.073,1.6667750000000001,1.0,2612.7369857102995,0.5605151868295948,1.2746521468218401,0.9833026208596192,0.28305755,0.7594585403257473
0.0735,1.66494375,1.0,2610.7610082411334,0.562980343195912,1.2738434920025048,0.983409601175336,0.2829806375,0.76087290142817
0.074,1.6631,1.0,2608.798344966327,0.5654316381606179,1.2730290751825073,0.983514223181413,0.2829032,0.7622931253347729
0.0745,1.6612437500000001,1.0,2606.8477804881045,0.5678691959719413,1.2722089075343823,0.983616544974851,0.2828252375,0.7637191028665118
0.075,1.659375,1.0,2604.9088531459365,0.5702930976598839,1.2713829932350125,0.9837166200639025,0.28274675,0.7651507365523125
0.0755,1.65749375,1.0,2602.9813559193135,0.5727034158302653,1.2705513340979893,0.9838144996991817,0.2826677375,0.7665879324547136
