Time [s],Phi [rad],STIM [ ],Fsee [N],Gamma [ ],Lcerel [ ],q [ ],Lmtc [m],fisomrel [ ]
0.0,1.8,1.0,17.967767635214724,1.2235025296926648e-05,1.3793396779395426,0.005000039833131781,0.288653,0.5411396962395539
0.0005,1.79999375,1.0,18.277796172725623,0.0056213757052759146,1.379302270931502,0.01294671934076768,0.2886527375,0.5412301889866247
0.001,1.799975,1.0,21.621047877973577,0.01119905354095169,1.3789380297967337,0.03562022173471702,0.28865195,0.5421108723653372
0.0015,1.79994375,1.0,31.07534237771992,0.016745445014866644,1.3780456835124855,0.07061764501262649,0.2886506375,0.5442648634489085
0.002,1.7999,1.0,53.59529553839061,0.022260725617909802,1.376367294352394,0.11473671474946548,0.2886488,0.5483024864217426
0.0025,1.79984375,1.0,97.14046195621086,0.027745069856893,1.3739341301119097,0.16459521298801336,0.28864643749999996,0.5541239360250301
0.003,1.7997750000000001,1.0,160.98623554732495,0.03319865126225049,1.371213293162927,0.21730141820193719,0.28864354999999997,0.5605889380712206
0.0035,1.79969375,1.0,237.7150737996892,0.03862164238764424,1.3685837565203214,0.2706337405569773,0.2886401375,0.5667921378487515
0.004,1.7996,1.0,321.50057361019503,0.044014214820742685,1.3661551971266417,0.32293599291474956,0.2886362,0.5724820523506065
0.0045000000000000005,1.7994937500000001,1.0,409.302794839156,0.04937653918840625,1.3639219915667604,0.37305367519392446,0.2886317375,0.5776810716010292
0.005,1.799375,1.0,499.44928091249875,0.054708785147778834,1.3618575821075738,0.42026539449446126,0.28862675,0.5824588337731521
0.0055,1.79924375,1.0,590.8265419970465,0.06001112143368861,1.3599381292566426,0.46419030300387604,0.2886212375,0.5868767318470296
0.006,1.7991000000000001,1.0,682.5542971655555,0.06528371580197725,1.3581457569393773,0.5046952227450276,0.2886152,0.5909809208747463
0.006500000000000001,1.79894375,1.0,773.9016801501992,0.07052673486453212,1.3564669049977007,0.541814882989265,0.2886086375,0.5948065868665824
0.007,1.798775,1.0,864.329359929206,0.0757403452479117,1.3548896915537683,0.5756894185924122,0.28860155,0.598384269224717
0.0075,1.79859375,1.0,953.2924779742065,0.08092471119101892,1.353406021491796,0.6065213501880816,0.2885939375,0.6017352805272329
0.008,1.7984,1.0,1040.3943010162616,0.08607999670227548,1.3520081185827608,0.6345425576420678,0.2885858,0.6048797335836256
0.0085,1.79819375,1.0,1125.3533171542203,0.0912063652924517,1.350688688137713,0.6599939424162553,0.2885771375,0.6078362372839603
0.009000000000000001,1.797975,1.0,1207.9185172676755,0.09630397900620505,1.3494417845025066,0.6831129840116653,0.28856795,0.610620023098545
0.0095,1.79774375,1.0,1287.903509369638,0.10137299896033113,1.3482619742262423,0.7041255189158561,0.2885582375,0.6132448893751281
0.01,1.7975,1.0,1365.1913340171227,0.10641358592596005,1.347144073155942,0.7232414603859237,0.288548,0.6157238280379527
0.0105,1.79724375,1.0,1439.6976299633748,0.11142589948021889,1.3460834691547472,0.7406531642494891,0.2885372375,0.6180683430415024
0.011,1.796975,1.0,1511.3534263204401,0.11641009756947239,1.3450761723752889,0.756535099777043,0.28852595000000003,0.6202883777385839
0.0115,1.79669375,1.0,1580.1428426594705,0.12136633800600258,1.3441182222642287,0.771044115994804,0.2885141375,0.6223936514850348
0.012,1.7964,1.0,1646.085335710156,0.12629477802567057,1.343205833420539,0.7843205968146595,0.28850180000000003,0.6243933542924529
0.0125,1.79609375,1.0,1709.2073614161163,0.1311955738626152,1.3423356512931608,0.7964898927020414,0.2884889375,0.626295605400789
0.013000000000000001,1.7957750000000001,1.0,1769.5304192469584,0.136068879788328,1.341504803339701,0.8076637283437725,0.28847555,0.6281073638262504
0.0135,1.79544375,1.0,1827.1075557110828,0.14091485007430035,1.3407104170177666,0.8179413964841173,0.2884616375,0.6298354966058022
0.014,1.7951000000000001,1.0,1882.000303310451,0.14573363785668722,1.3399498418664562,0.827411186621839,0.2884472,0.6314863042569243
0.0145,1.79474375,1.0,1934.306465340255,0.1505253972198512,1.3392203064102046,0.8361514980382061,0.2884322375,0.6330662746140526
0.015,1.794375,1.0,1984.0808689197215,0.15529027859044714,1.338519746778559,0.8442322605948834,0.28841675,0.6345802966867995
0.0155,1.79399375,1.0,2031.3924102285973,0.16002843217036425,1.3378461412927665,0.8517156944976066,0.2884007375,0.6360331148392477
0.016,1.7936,1.0,2076.326345687896,0.1647400081614917,1.3371974682740742,0.8586572069250475,0.2883842,0.6374294240738354
0.0165,1.7931937500000001,1.0,2118.963908563773,0.16942515550571025,1.3365719017182989,0.8651062577558095,0.2883671375,0.6387734533601013
0.017,1.792775,1.0,2159.412170451179,0.17408402414476407,1.3359674833809794,0.8711069673881214,0.28834955,0.6400696750977404
0.0175,1.7923437500000001,1.0,2197.742748588644,0.1787167603997516,1.335382738032781,0.8766989187564599,0.2883314375,0.6413214892526627
0.018000000000000002,1.7919,1.0,2234.0299429985157,0.18332351010352313,1.3348162593033954,0.8819175735305719,0.2883128,0.642532118960719
0.0185,1.79144375,1.0,2268.3565762229255,0.18790441908892902,1.3342666408225141,0.8867947348001048,0.2882936375,0.6437047603100521
0.019,1.790975,1.0,2300.8060082514257,0.1924596322757824,1.333732548109618,0.8913589881615143,0.28827395,0.644842430906446
0.0195,1.79049375,1.0,2331.4678529585076,0.19698929522974543,1.333212653294906,0.8956360554343862,0.2882537375,0.6459481112377831
0.02,1.79,1.0,2360.417915064847,0.20149355123840584,1.3327058250911827,0.8996491620041649,0.288233,0.6470243429540667
0.0205,1.78949375,1.0,2387.722332775306,0.20597254161570708,1.3322110774030709,0.9034193034427601,0.2882117375,0.6480733419983764
0.021,1.788975,1.0,2413.451741127401,0.2104264076755926,1.3317274241351937,0.9069654609445013,0.28818995000000003,0.649097308917823
0.021500000000000002,1.78844375,1.0,2437.6808952301035,0.21485529073200582,1.3312538791921738,0.9103048222239374,0.2881676375,0.6500984295922729
0.022,1.7879,1.0,2460.4743250044025,0.21925932999415057,1.3307895904144913,0.9134530020311178,0.2881448,0.6510785933463428
0.0225,1.7873472191689497,1.0,2482.073348550197,0.2236386680212346,1.3303336175921128,0.9164241682451548,0.2881215832050959,0.6520398631648846
0.023,1.78679403202156,1.0,2502.914980406103,0.22799344265449387,1.3298855458054333,0.9192313095091015,0.2880983493449055,0.6529831845301384
0.0235,1.7862408448741702,1.0,2523.039981622469,0.2323237902070898,1.3294450724001965,0.9218862776228676,0.28807511548471515,0.653909261068971
0.024,1.7856876577267806,1.0,2542.47085242149,0.23662984699218378,1.329011894722146,0.9243998839494353,0.2880518816245248,0.6548187918729065
0.0245,1.7851344705793908,1.0,2561.230949197713,0.24091174932293719,1.3285857101170255,0.9267820050334674,0.2880286477643344,0.6557124716418689
0.025,1.7845812834320012,1.0,2579.344436576769,0.24516963351251148,1.3281662159305785,0.9290416762275063,0.288005413904144,0.6565909908220822
0.025500000000000002,1.7840280962846113,1.0,2596.832720110746,0.2494036330136297,1.3277531423241191,0.9311871788801921,0.2879821800439537,0.65745496714498
0.026000000000000002,1.7834749091372217,1.0,2613.7234865898276,0.25361388561229464,1.3273461673626625,0.9332261033853055,0.2879589461837633,0.658305123446989
0.0265,1.782921721989832,1.0,2630.0372039009135,0.2578005231011803,1.3269450424857783,0.9351654308917463,0.28793571232357296,0.6591420254909842
0.027,1.7823685348424423,1.0,2645.7939649648,0.2619636765435543,1.3265495278363728,0.9370115833065988,0.2879124784633826,0.6599662176972002
0.0275,1.7818153476950525,1.0,2661.014388056689,0.2661034770026842,1.3261593835573529,0.9387704746152904,0.2878892446031922,0.6607782414460701
0.028,1.7812621605476628,1.0,2675.719587608839,0.2702200555418377,1.3257743697916247,0.9404475577784928,0.28786601074300183,0.6615786351622124
0.0285,1.780708973400273,1.0,2689.931146288434,0.27431354322428236,1.325394246682095,0.9420478667323309,0.28784277688281146,0.6623679343947448
0.029,1.7801557862528834,1.0,2703.658745537887,0.2783840595824659,1.3250188870979358,0.9435760654921475,0.2878195430226211,0.6631464382322043
0.029500000000000002,1.7796025991054936,1.0,2716.939126077997,0.28243174979908603,1.3246479200705263,0.9450364456771813,0.2877963091624307,0.6639149489600802
0.03,1.779049411958104,1.0,2729.7912461303877,0.2864567427269761,1.3242811411159308,0.94643299928153,0.2877730753022404,0.6646739206522634
0.0305,1.7784962248107141,1.0,2742.2290892149217,0.2904591623131396,1.3239183938798964,0.9477694328900012,0.28774984144204996,0.6654237056960086
0.031,1.7779430376633245,1.0,2754.2669064000766,0.2944391325045802,1.32355952200817,0.9490491874561809,0.28772660758185964,0.6661646547125146
0.0315,1.7773898505159347,1.0,2765.919202596739,0.2983967772483014,1.3232043691464983,0.950275460662227,0.28770337372166926,0.6668971165963459
0.032,1.776836663368545,1.0,2777.2007233953,0.30233222049130665,1.3228527789406286,0.951451227135962,0.2876801398614789,0.6676214385532959
0.0325,1.7762834762211555,1.0,2788.1264424441074,0.30624558618059955,1.322504595036308,0.9525792567537117,0.2876569060012885,0.6683379661366934
0.033,1.7757302890737656,1.0,2798.711549370273,0.31013699826318364,1.322159661079283,0.9536621312307118,0.28763367214109814,0.6690470432821478
0.0335,1.775177101926376,1.0,2808.971438242299,0.31400658068606246,1.3218178207153009,0.9547022591776322,0.2876104382809078,0.669749012340735
0.034,1.7746239147789862,1.0,2818.9216965746186,0.3178544573962396,1.3214789175901083,0.955701889781389,0.2875872044207174,0.6704442141106262
0.0345,1.7740707276315966,1.0,2828.578094874829,0.32168075234071847,1.3211427953494526,0.9566631252505388,0.28756397056052707,0.6711329878671545
0.035,1.7735175404842067,1.0,2837.9454175079018,0.32548557507965986,1.32080939711522,0.9575879392596531,0.2875407367003367,0.6718154678653352
0.035500000000000004,1.7729643533368171,1.0,2847.0476336258803,0.32926906429264174,1.3204784960850349,0.9584781688934783,0.2875175028401463,0.6724921350353135
0.036000000000000004,1.7724111661894273,1.0,2855.8944507735587,0.3330313374506261,1.3201499940289538,0.9593355438400571,0.28749426897995595,0.673163205750194
0.0365,1.7718579790420377,1.0,2864.4945684650697,0.3367725104468475,1.3198238026183922,0.9601616869111116,0.28747103511976557,0.673828875250994
0.037,1.7713047918946478,1.0,2872.856782470003,0.34049269917454084,1.319499833524765,0.9609581212658824,0.2874478012595752,0.674489337938927
0.0375,1.7707516047472582,1.0,2880.9899803749804,0.3441920195269407,1.3191779984194876,0.9617262776496911,0.2874245673993848,0.6751447873881684
0.038,1.7701984175998684,1.0,2888.9031373178404,0.34787058739728177,1.3188582089739755,0.9624675010295966,0.2874013335391945,0.6757954163581268
0.0385,1.7696452304524788,1.0,2896.605311894872,0.35152851867879875,1.3185403768596438,0.9631830566834485,0.2873780996790041,0.6764414168052173
0.039,1.769092043305089,1.0,2904.1056422418055,0.35516592926472634,1.318224413747908,0.9638741357928379,0.28735486581881375,0.6770829798941336
0.0395,1.7685388561576993,1.0,2911.413342286027,0.3587829350482993,1.3179102313101831,0.9645418605853108,0.2873316319586234,0.6777202960086284
0.04,1.7679856690103095,1.0,2918.5376981737336,0.3623796519227521,1.317597741217885,0.9651872890666202,0.287308398098433,0.67835355476179
0.0405,1.76743248186292,1.0,2925.4880648688554,0.36595619578131966,1.3172868551424284,0.9658114193797359,0.28728516423824263,0.678982945005828
0.041,1.76687929471553,1.0,2932.2654470671705,0.3695126636264284,1.3169775585598968,0.966415196870651,0.28726193037805225,0.6796085056422423
0.0415,1.7663261075681405,1.0,2938.886432556102,0.37304919266039116,1.3166697006560757,0.9669995099877782,0.2872386965178619,0.6802305506581359
0.042,1.7657729204207508,1.0,2945.356838573787,0.3765658930012992,1.3163632256697158,0.9675652018574745,0.2872154626576715,0.680849201032693
0.0425,1.765219733273361,1.0,2951.681551297552,0.38006287241003284,1.316058086336915,0.9681130703044895,0.2871922287974812,0.6814645601436455
0.043000000000000003,1.7646665461259714,1.0,2957.8654922405035,0.38354023864747233,1.3157542353937721,0.9686438704635218,0.2871689949372908,0.6820767309658621
0.043500000000000004,1.7641133589785816,1.0,2963.9136168772297,0.38699809947449804,1.3154516255763855,0.9691583174940636,0.28714576107710044,0.6826858160753058
0.044,1.763560171831192,1.0,2969.8309133181688,0.3904365626519902,1.3151502096208536,0.9696570890963876,0.28712252721691006,0.6832919176528445
0.0445,1.7630069846838021,1.0,2975.6224010336477,0.3938557359408293,1.314849940263275,0.9701408278450814,0.2870992933567197,0.6838951374879215
0.045,1.7624537975364125,1.0,2981.293129627788,0.3972557271018956,1.3145507702397479,0.9706101433550367,0.2870760594965293,0.6844955769820834
0.0455,1.7619006103890227,1.0,2986.8481776617386,0.4006366438960694,1.3142526522863711,0.9710656142934472,0.28705282563633894,0.6850933371523633
0.046,1.761347423241633,1.0,2992.2926515262598,0.403998594084231,1.3139555391392428,0.971507790250164,0.2870295917761486,0.6856885186345262
0.0465,1.7607942360942432,1.0,2997.631684363979,0.4073416854272608,1.3136593835344614,0.9719371934776463,0.2870063579159582,0.6862812216861659
0.047,1.7602410489468536,1.0,3002.870435041824,0.4106660256860391,1.3133641382081256,0.972354320510768,0.28698312405576787,0.6868715461896644
0.0475,1.7596878617994638,1.0,3008.011467758321,0.41397171079411543,1.3130697785767762,0.9727596437656755,0.2869598901955775,0.6874595463708173
0.048,1.7591346746520742,1.0,3013.058313296694,0.4172588451898713,1.3127762718246831,0.9731536133885236,0.2869366563353871,0.6880452926768237
0.0485,1.7585814875046843,1.0,3018.0192914315808,0.4205275556257303,1.3124835438917561,0.9735366579104194,0.28691342247519674,0.6886289374899519
0.049,1.7580283003572947,1.0,3022.8968852183416,0.4237779412029289,1.3121915714116519,0.9739091856218209,0.28689018861500637,0.6892105316949091
0.0495,1.757475113209905,1.0,3027.693590321689,0.4270101010227033,1.311900331018026,0.9742715856977541,0.286866954754816,0.6897901259912176
0.05,1.7569219260625153,1.0,3032.411914630363,0.4302241341862899,1.3116097993445348,0.9746242292656131,0.2868437208946256,0.69036777089432
0.0505,1.7563687389151255,1.0,3037.0543778839155,0.433420139794925,1.3113199530248343,0.9749674704040275,0.2868204870344353,0.6909435167366549
0.051000000000000004,1.7558155517677358,1.0,3041.623511311325,0.4365982169498449,1.3110307686925804,0.9753016470778293,0.28679725317424487,0.6915174136686943
0.051500000000000004,1.755262364620346,1.0,3046.121857282639,0.439758464752286,1.3107422229814296,0.9756270820137334,0.28677401931405455,0.6920895116599474
0.052000000000000005,1.7547091774729564,1.0,3050.551968971251,0.44290098230348457,1.3104542925250378,0.9759440835209918,0.2867507854538642,0.6926598604999308
0.0525,1.7541559903255668,1.0,3054.9164100298262,0.44602586870467686,1.3101669539570608,0.9762529462609214,0.2867275515936738,0.6932285097991024
0.053,1.753602803178177,1.0,3059.2177542771274,0.44913322305709935,1.3098801839111551,0.9765539519689157,0.2867043177334834,0.6937955089897598
0.0535,1.7530496160307873,1.0,3063.458585397639,0.4522231444619883,1.3095939590209764,0.9768473701322543,0.28668108387329305,0.6943609073269068
0.054,1.7524964288833975,1.0,3067.641496653049,0.45529573202058005,1.309308255920181,0.9771334586267748,0.2866578500131027,0.6949247538890811
0.0545,1.751943241736008,1.0,3071.7690906059847,0.45835108483411086,1.309023051242425,0.977412464315233,0.2866346161529123,0.6954870975791504
0.055,1.751390054588618,1.0,3075.8439788554924,0.4613893020038171,1.3087383216213644,0.9776846236099593,0.286611382292722,0.6960479871250733
0.0555,1.7508368674412285,1.0,3079.865931155236,0.464410455935023,1.308454068083485,0.977950161935875,0.2865881484325316,0.6966074230955
0.056,1.7502836802938386,1.0,3083.838323306085,0.4674146603727694,1.3081702608283976,0.9782092974104901,0.28656491457234123,0.697165466648461
0.0565,1.749730493146449,1.0,3087.7649581461824,0.4704020315237958,1.307886866494822,0.9784622391342929,0.28654168071215086,0.6977221857142847
0.057,1.7491773059990592,1.0,3091.6469926703767,0.4733726592389091,1.307603874413827,0.9787091865640765,0.2865184468519605,0.6982776034617428
0.0575,1.7486241188516696,1.0,3095.4855881069207,0.4763266333689161,1.3073212739164815,0.9789503310896445,0.2864952129917701,0.6988317429794355
0.058,1.7480709317042797,1.0,3099.281909823869,0.47926404376462356,1.3070390543338541,0.9791858564246531,0.28647197913157973,0.6993846272760604
0.0585,1.7475177445568901,1.0,3103.037127237845,0.4821849802768383,1.3067572049970135,0.9794159389755068,0.2864487452713894,0.6999362792806767
0.059000000000000004,1.7469645574095003,1.0,3106.752413724507,0.4850895327563671,1.3064757152370285,0.9796407481897064,0.286425511411199,0.7004867218429585
0.059500000000000004,1.7464113702621107,1.0,3110.4289465332704,0.48797779105401684,1.3061945743849679,0.9798604468849423,0.28640227755100867,0.7010359777334451
0.06,1.7458581831147209,1.0,3114.0679067026117,0.49084984502059426,1.3059137717719,0.9800751915601443,0.2863790436908183,0.7015840696437814
0.0605,1.7453049959673312,1.0,3117.6704789792107,0.49370578450690616,1.305633296728894,0.980285132689608,0.2863558098306279,0.7021310201869512
0.061,1.7447518088199414,1.0,3121.237851739137,0.49654569936375936,1.3053531385870183,0.9804904150012396,0.28633257597043754,0.7026768518975038
0.0615,1.7441986216725518,1.0,3124.771216911732,0.49936967944196065,1.3050732866773418,0.9806911777398961,0.28630934211024717,0.7032215872317744
0.062,1.743645434525162,1.0,3128.271769905695,0.5021778145923169,1.304793730330933,0.9808875549167225,0.2862861082500568,0.7037652485680949
0.0625,1.7430922473777724,1.0,3131.740709538015,0.5049701946656348,1.3045144588788604,0.9810796755453339,0.2862628743898664,0.7043078582069988
0.063,1.7425390602303827,1.0,3135.1792379654585,0.5077469095127212,1.3042354616521934,0.9812676638656271,0.2862396405296761,0.7048494383714183
0.0635,1.741985873082993,1.0,3138.588560617912,0.510508048984383,1.3039567279820001,0.9814516395559602,0.28621640666948567,0.7053900112068763
0.064,1.7414326859356033,1.0,3141.9698861356937,0.5132537029314268,1.3036782471993498,0.981631717934384,0.28619317280929535,0.7059295987816665
0.0645,1.7408794987882135,1.0,3145.3243546138374,0.5159839595678748,1.3034000092423765,0.9818080100657199,0.286169938949105,0.706468221912391
0.065,1.7403263116408239,1.0,3148.6498526732016,0.5186988387384741,1.303122031608284,0.9819806196913097,0.2861467050889146,0.7070058480665383
0.0655,1.739773124493434,1.0,3151.9509755539457,0.5213985176238973,1.3028442750155254,0.9821496548344341,0.2861234712287242,0.7075425544971966
0.066,1.7392199373460444,1.0,3155.228216150062,0.5240830761255647,1.3025667349499164,0.9823152147666475,0.28610023736853385,0.7080783510897546
0.0665,1.7386667501986546,1.0,3158.4820687814104,0.5267525941448971,1.3022894068972726,0.9824773952913806,0.2860770035083435,0.7086132476967322
0.067,1.738113563051265,1.0,3161.71302917185,0.5294071515833149,1.3020122863434105,0.9826362888896816,0.2860537696481531,0.7091472541378375
0.0675,1.7375603759038751,1.0,3164.9215944289163,0.5320468283422388,1.3017353687741458,0.9827919848588431,0.2860305357879628,0.7096803802000328
0.068,1.7370071887564855,1.0,3168.108263022468,0.5346717043230893,1.3014586496752942,0.9829445694443113,0.2860073019277724,0.71021263563759
0.0685,1.7364540016090957,1.0,3171.2735347652647,0.5372818594272871,1.301182124532672,0.9830941259652453,0.28598406806758203,0.7107440301721495
0.069,1.735900814461706,1.0,3174.417910793086,0.5398773735562528,1.3009057888320952,0.9832407349340767,0.28596083420739166,0.711274573492776
0.0695,1.7353476273143162,1.0,3177.54189354547,0.5424583266114068,1.3006296380593791,0.983384474170391,0.2859376003472013,0.7118042752560163
0.07,1.7347944401669266,1.0,3180.645986747125,0.5450247984941698,1.3003536677003404,0.9835254189094419,0.2859143664870109,0.7123331450859486
0.07050000000000001,1.7342412530195368,1.0,3183.730695389463,0.5475768691059624,1.3000778732407947,0.9836636419055826,0.28589113262682053,0.7128611925742396
