Time [s],Phi [rad],STIM [ ],Fsee [N],Gamma [ ],Lcerel [ ],q [ ],Lmtc [m],fisomrel [ ]
0.0,1.8,1.0,17.964730273378915,1.7128557875454e-05,1.379340018234257,0.0050000778616559926,0.288653,0.5411388729784234
0.0005,1.79999375,1.0,18.27668960391624,0.0056262417890094825,1.37930239384808,0.012960321713911371,0.2886527375,0.5412298916489671
0.001,1.799975,1.0,21.62375523164083,0.011203892329801885,1.3789377533061113,0.03564575039946967,0.28865195,0.5421115405590458
0.0015,1.79994375,1.0,31.08581360790373,0.01675025666194055,1.3780447915624174,0.07065259291606267,0.2886506375,0.5442670139430114
0.002,1.7999,1.0,53.621179507155674,0.02226551027544285,1.3763656155387747,0.11477810421491376,0.2886488,0.5483065160718089
0.0025,1.79984375,1.0,97.18609321240511,0.027749827676284058,1.3739319317523433,0.16464023740603528,0.28864643749999996,0.5541291786223242
0.003,1.7997750000000001,1.0,161.0467522709032,0.0332033823940358,1.3712110283746728,0.2173478626717833,0.28864354999999997,0.5605942997864091
0.0035,1.79969375,1.0,237.78410493093386,0.03862634698151708,1.368581630475178,0.27067993065277324,0.2886401375,0.5667971354472559
0.004,1.7996,1.0,321.57444585000997,0.04401889302556153,1.3661532407484007,0.3229807145501365,0.2886362,0.5724866208209302
0.0045000000000000005,1.7994937500000001,1.0,409.3796025809782,0.0493811911522057,1.3639201887580534,0.3730961255544604,0.2886317375,0.5776852557854043
0.005,1.799375,1.0,499.5279018946368,0.05471341101780649,1.3618559115438111,0.4203051081399349,0.28862675,0.5824626890331555
0.0055,1.79924375,1.0,590.9060532373604,0.06001572135613235,1.3599365758995778,0.4642270702402727,0.2886212375,0.5868802976074218
0.006,1.7991000000000001,1.0,682.634086857605,0.06528828992244881,1.3581443066559882,0.5047290100359195,0.2886152,0.5909842334499411
0.006500000000000001,1.79894375,1.0,773.9987932724757,0.07053128354603587,1.3564652472868628,0.5418455838677969,0.2886086375,0.5948103554742212
0.007,1.798775,1.0,864.4047927213354,0.07574486812891972,1.3548884731297448,0.5757176016294492,0.28860155,0.5983870269121123
0.0075,1.79859375,1.0,953.3614851670847,0.0809292086126418,1.3534049601364864,0.606547031382683,0.2885939375,0.6017376726751547
0.008,1.7984,1.0,1040.4761366240402,0.08608446905330393,1.3520069137627613,0.6345657673200679,0.2885858,0.6048824383393365
0.0085,1.79819375,1.0,1125.4359729377127,0.09121081255937397,1.350687518077524,0.6600150036124138,0.2885771375,0.6078388541601605
0.009000000000000001,1.797975,1.0,1207.9980410079872,0.0963084013258048,1.3494406979312576,0.683132130397915,0.28856795,0.6106224446087869
0.0095,1.79774375,1.0,1287.9759823214274,0.10137739627886277,1.3482610152329808,0.7041429650381227,0.2885582375,0.613247019352339
0.01,1.7975,1.0,1365.2702201184695,0.10641795901201377,1.3471430592799574,0.7232572883582464,0.288548,0.6157260726841582
0.0105,1.79724375,1.0,1439.7656847485152,0.1114302479374532,1.3460826174182288,0.7406676459807244,0.2885372375,0.6180702229622064
0.011,1.796975,1.0,1511.4098576847819,0.11641442144755734,1.3450754830553242,0.7565483762106469,0.28852595000000003,0.6202898947517049
0.0115,1.79669375,1.0,1580.1930991982888,0.12137063738173909,1.3441176218813125,0.7710562793988694,0.2885141375,0.6223949691031572
0.012,1.7964,1.0,1646.1390202653604,0.12629905357757285,1.3432052050627206,0.7843317123438697,0.28850180000000003,0.6243947296487753
0.0125,1.79609375,1.0,1709.2609287266816,0.13119982554923007,1.342335035993833,0.7965000837291345,0.2884889375,0.6262969487598884
0.013000000000000001,1.7957750000000001,1.0,1769.5818215733516,0.13607310761813857,1.3415042230591927,0.8076730969157759,0.28847555,0.6281086276554119
0.0135,1.79544375,1.0,1827.1563755995232,0.14091905410572622,1.3407098746433412,0.8179500259376268,0.2884616375,0.629836675129205
0.014,1.7951000000000001,1.0,1882.0468130111115,0.14573781839528785,1.3399493327485235,0.8274191486657462,0.2884472,0.6314874080479391
0.0145,1.79474375,1.0,1934.3480775371982,0.1505295541991119,1.3392198571033482,0.8361588668572869,0.2884322375,0.6330672466415306
0.015,1.794375,1.0,1984.1194625582784,0.1552944121825927,1.338519335324542,0.8442390858478322,0.28841675,0.6345811849854284
0.0155,1.79399375,1.0,2031.4290830931586,0.1600325425651553,1.3378457548961278,0.8517220234532482,0.2884007375,0.6360339473809489
0.016,1.7936,1.0,2076.3613661394775,0.16474409556622466,1.3371971033021297,0.8586630846485102,0.2883842,0.6374302089434084
0.0165,1.7931937500000001,1.0,2119.0006875077042,0.1694292201516327,1.3365715222958972,0.8651117146447368,0.2883671375,0.6387742677915256
0.017,1.792775,1.0,2159.4499916667464,0.1740880660306719,1.3359670968776964,0.8711120430659663,0.28834955,0.6400705032384328
0.0175,1.7923437500000001,1.0,2197.7783239688497,0.17872077942841857,1.3353823776643465,0.8767036559013603,0.2883314375,0.6413222600516889
0.018000000000000002,1.7919,1.0,2234.0621503108077,0.18332750640793713,1.3348159357128662,0.8819220044837188,0.2883128,0.6425328099257586
0.0185,1.79144375,1.0,2268.3865379160206,0.18790839303229182,1.3342663420802745,0.8867988828808882,0.2882936375,0.6437053971692376
0.019,1.790975,1.0,2300.8300386343144,0.19246358370969083,1.3337323102027754,0.8913628859702946,0.28827395,0.6448429372663218
0.0195,1.79049375,1.0,2331.490573192015,0.19699322504715158,1.3332124298428296,0.8956397131077757,0.2882537375,0.6459485860913181
0.02,1.79,1.0,2360.4355140928647,0.20149745909473998,1.3327056530704473,0.8996526072916734,0.288233,0.6470247079558902
0.0205,1.78949375,1.0,2387.733185004136,0.20597642738876826,1.3322109719367208,0.9034225566013084,0.2882117375,0.6480735654491687
0.021,1.788975,1.0,2413.456462856853,0.2104302714655486,1.3317273784927428,0.906968535634825,0.28818995000000003,0.6490974054793768
0.021500000000000002,1.78844375,1.0,2437.6823926412244,0.21485913286139321,1.3312538647896055,0.9103077263006844,0.2881676375,0.6500984600189725
0.022,1.7879,1.0,2460.4747733561553,0.21926315054015688,1.3307895861221246,0.9134557439880857,0.2881448,0.6510786024016375
0.0225,1.78734375,1.0,2481.9195609892217,0.22364246755527212,1.3303335167830184,0.9164267389433358,0.28812143749999997,0.6520400755413371
0.023,1.786775,1.0,2502.070922306567,0.22799722087423505,1.329884963295733,0.9192336457180248,0.28809755,0.6529844100490207
0.0235,1.78619375,1.0,2520.9827140137054,0.23232754700460526,1.3294432575567743,0.9218882527423348,0.28807313749999996,0.6539130741402452
0.024,1.7856,1.0,2538.710930747781,0.2366335824539423,1.3290077314626494,0.9244013155462385,0.2880482,0.654827527544009
0.0245,1.78499375,1.0,2555.3135249700763,0.24091546372980582,1.3285777169098643,0.9267826614898628,0.2880227375,0.6557292217802969
0.025,1.784375,1.0,2570.8473934661515,0.24517332671497966,1.3281525724248573,0.9290412868909543,0.28799675,0.6566195446777704
0.025500000000000002,1.78374375,1.0,2585.3625347604525,0.24940730557057653,1.3277317358593201,0.9311854472115187,0.2879702375,0.6574997108119797
0.026000000000000002,1.7831000000000001,1.0,2598.9273078674696,0.25361753808853577,1.3273144867139213,0.9332226923824711,0.2879432,0.6583712588877624
0.0265,1.78244375,1.0,2611.581421926171,0.2578041553794281,1.3269003837854676,0.9351600003936326,0.2879156375,0.6592351373753635
0.027,1.781775,1.0,2623.3655784549774,0.2619672885538244,1.3264889858707654,0.9370037897549991,0.28788755,0.6600922898758903
0.0275,1.7810937500000001,1.0,2634.3213875107726,0.26610706872229534,1.3260798517666212,0.9387599718057309,0.2878589375,0.6609436552036299
0.028,1.7804,1.0,2644.4912881645314,0.2702236269954118,1.3256725402698415,0.9404339974974216,0.2878298,0.6617901674559581
0.0285,1.77969375,1.0,2653.9184732924723,0.2743170944837445,1.325266610177233,0.9420308992952382,0.2878001375,0.6626327560708289
0.029,1.778975,1.0,2662.64133337093,0.27838759959250703,1.3248616707670962,0.9435553348199025,0.28776995,0.6634722412831978
0.029500000000000002,1.7782437500000001,1.0,2670.7018834122186,0.282435274562034,1.3244573033698135,0.9450116115917521,0.2877392375,0.6643094970981787
0.03,1.7775,1.0,2678.1328110279155,0.2864602468994965,1.3240531799017807,0.9464037304706914,0.287708,0.6651452059806893
0.0305,1.77674375,1.0,2684.9640390129043,0.290462642335762,1.323649001632518,0.9477354049330151,0.2876762375,0.6659799864230689
0.031,1.775975,1.0,2691.2258716071524,0.2944425866016977,1.3232444698315449,0.9490100823426454,0.28764395,0.6668144538371286
0.0315,1.7751937500000001,1.0,2696.948958457457,0.29840020542817086,1.3228392857683822,0.9502309663405272,0.2876111375,0.6676492205502579
0.032,1.7744,1.0,2702.1642605594106,0.30233562454604873,1.3224331507125497,0.9514010370889442,0.2875778,0.6684848957958489
0.0325,1.77359375,1.0,2706.8989203280717,0.3062489670684136,1.3220258033366277,0.952523073299407,0.2875439375,0.669322008882014
0.033,1.772775,1.0,2711.178590946303,0.3101403562421226,1.3216169980495343,0.9535996667479959,0.28750955,0.6701610540995085
0.0335,1.7719437500000002,1.0,2715.040706551607,0.3140099239011769,1.3212063837716146,0.9546332256173572,0.2874746375,0.6710027392358491
0.034,1.7711000000000001,1.0,2718.503756731654,0.3178577894727891,1.3207937839165653,0.9556260149136113,0.2874392,0.6718474113536097
0.0345,1.7702437500000001,1.0,2721.5863725007243,0.32168407238417224,1.3203790218980835,0.9565801514740881,0.2874032375,0.6726954155855462
0.035,1.7693750000000001,1.0,2724.30731231738,0.32548889206253906,1.319961921129866,0.9574976153919935,0.28736675,0.6735470951112416
0.035500000000000004,1.76849375,1.0,2726.6854487937635,0.32927236793510256,1.3195423050256099,0.9583802604336086,0.2873297375,0.6744027911317605
0.036000000000000004,1.7676,1.0,2728.7397560957766,0.3330346194290755,1.3191199969990117,0.9592298235473321,0.2872922,0.6752628428423175
0.0365,1.76669375,1.0,2730.489298035214,0.3367757659716707,1.3186948204637687,0.9600479335531219,0.2872541375,0.6761275874029535
0.037,1.765775,1.0,2731.9532168527726,0.3404959269901011,1.3182665988335776,0.9608361190913958,0.28721555,0.6769973599072278
0.0375,1.76484375,1.0,2733.1507226927642,0.34419522191157953,1.317835155522135,0.9615958159020637,0.2871764375,0.6778724933489166
0.038,1.7639,1.0,2734.0966479452854,0.347873761286496,1.3174003542291743,0.9623283755259321,0.28713679999999997,0.6787532370382483
0.0385,1.76294375,1.0,2734.812520058808,0.35153167300100896,1.3169619982811804,0.963035067129198,0.28709663750000003,0.679639960604595
0.039,1.761975,1.0,2735.309860898823,0.35516907042114476,1.3165199822391156,0.9637170909530319,0.28705595,0.6805328470770088
0.0395,1.7609937500000001,1.0,2735.599864303944,0.3587860662583624,1.3160742039272237,0.9643755777814967,0.2870147375,0.6814320714661091
0.04,1.76,1.0,2735.693750956239,0.3623827732241211,1.3156245611697492,0.9650115935428093,0.286973,0.682337807354602
0.0405,1.7589937500000001,1.0,2735.6027642316126,0.3659593040298799,1.3151709517909367,0.965626143713003,0.2869307375,0.6832502268724332
0.041,1.757975,1.0,2735.338166281489,0.369515771387098,1.3147132736150298,0.9662201773759178,0.28688795,0.6841695006712736
0.0415,1.75694375,1.0,2734.911234345932,0.3730522880072344,1.3142514244662733,0.9667945909696469,0.2868446375,0.6850957978983359
0.042,1.7559,1.0,2734.3332572983627,0.37656896660174827,1.3137853021689112,0.9673502317466623,0.28680079999999997,0.6860292861695316
0.0425,1.75484375,1.0,2733.615532421914,0.38006591988209876,1.3133148045471879,0.967887900972218,0.2867564375,0.6869701315419563
0.043000000000000003,1.753775,1.0,2732.758279744485,0.3835432404015939,1.3128399301024722,0.9684083618703122,0.28671155,0.6879182976195162
0.043500000000000004,1.75269375,1.0,2731.781321888266,0.38700105999622886,1.312360499326414,0.9689123290198122,0.28666613750000003,0.6888741022339073
0.044,1.7516,1.0,2730.6972412476052,0.3904394967762267,1.311876398458901,0.9694004824521871,0.2866202,0.6898377298606659
0.0445,1.75049375,1.0,2729.511420468064,0.3938586552966637,1.311387579154519,0.9698734698682403,0.2865737375,0.6908092332534698
0.045,1.7493750000000001,1.0,2728.2292434902743,0.39725864011261613,1.3108939930678538,0.970331905634167,0.28652675,0.6917886641400679
0.0455,1.74824375,1.0,2726.8560945827935,0.4006395557791602,1.3103955918534906,0.9707763728180482,0.2864792375,0.6927760732076571
0.046,1.7471,1.0,2725.3973574265915,0.4040015068513722,1.3098923271660154,0.9712074250829188,0.2864312,0.6937715100881099
0.0465,1.7459437500000001,1.0,2723.8584142509894,0.4073445978843284,1.3093841506600137,0.971625588447793,0.28638263750000004,0.6947750233430547
0.047,1.744775,1.0,2722.2446450217867,0.410668933433105,1.308871013990071,0.9720313629270265,0.28633355,0.6957866604488054
0.0475,1.74359375,1.0,2720.561426681368,0.41397461805277824,1.308352868810773,0.972425224057499,0.28628393750000003,0.6968064677811421
0.048,1.7424,1.0,2718.814132439819,0.4172617562984245,1.3078296667767053,0.9728076243222707,0.2862338,0.6978344905999445
0.0485,1.74119375,1.0,2717.0081311191293,0.42053045272511985,1.3073013595424534,0.9731789944786318,0.2861831375,0.6988707730336727
0.049,1.739975,1.0,2715.1487865477234,0.4237808118879407,1.306767898762603,0.9735397447977907,0.28613195,0.6999153580637033
0.0495,1.73874375,1.0,2713.241457008177,0.42701293834196324,1.3062292360917398,0.9738902662228364,0.2860802375,0.7009682875085124
0.05,1.7375,1.0,2711.2914947360396,0.43022693664226375,1.3056853231844492,0.974230931451059,0.286028,0.7020296020077132
0.0505,1.73624375,1.0,2709.30176208681,0.4334229048897047,1.3051361343523158,0.9745620967119819,0.2859752375,0.703099296914941
0.051000000000000004,1.734975,1.0,2707.2720017154647,0.43660093569094033,1.3045816723509258,0.9748841031826471,0.28592195,0.70417731144105
0.051500000000000004,1.73369375,1.0,2705.214338306086,0.43976115300688084,1.3040218268962018,0.9751972727087365,0.2858681375,0.7052638034779843
0.052000000000000005,1.7324,1.0,2703.1307576731538,0.44290365282942834,1.303456580148662,0.9755019154986938,0.2858138,0.7063587498867305
0.0525,1.73109375,1.0,2701.023243036394,0.44602853115048474,1.3028859142688243,0.9757983279538684,0.28575893750000003,0.7074621267140894
0.053,1.729775,1.0,2698.893774927655,0.4491358839619523,1.3023098114172076,0.9760867933997862,0.28570355000000003,0.7085739091865191
0.0535,1.72844375,1.0,2696.744331105461,0.45222580725573297,1.3017282537543295,0.9763675827726135,0.2856476375,0.7096940717039635
0.054,1.7271,1.0,2694.5768864757974,0.4552983970237288,1.301141223440709,0.9766409552639257,0.2855912,0.7108225878336513
0.0545,1.7257437500000001,1.0,2692.3934130204884,0.458353749257842,1.3005487026368638,0.976907158926636,0.2855342375,0.7119594303038839
0.055,1.724375,1.0,2690.1958797324537,0.46139195994997445,1.2999506735033124,0.9771664312447368,0.28547675,0.7131045709977974
0.0555,1.72299375,1.0,2687.9862525581925,0.46441312509202826,1.299347118200573,0.9774189996692947,0.2854187375,0.7142579809471054
0.056,1.7216,1.0,2685.7664943469626,0.46741734067590557,1.2987380188891637,0.9776650821229651,0.2853602,0.7154196303258216
0.0565,1.72019375,1.0,2683.5385648074716,0.4704047026935084,1.298123357729603,0.9779048874751126,0.28530113749999997,0.7165894884439643
0.057,1.718775,1.0,2681.3044204713633,0.4733753071367388,1.297503116882409,0.9781386159894832,0.28524155,0.7177675237412364
0.0575,1.71734375,1.0,2679.0660146635323,0.4763292499974988,1.2968772785081002,0.9783664597462155,0.2851814375,0.7189537037806886
0.058,1.7159,1.0,2676.8248634237866,0.479266620214445,1.296245828751232,0.9785886026500425,0.2851208,0.7201479877152288
0.0585,1.71444375,1.0,2674.5823322346837,0.48218749808214095,1.2956087551157345,0.9788052205612713,0.2850596375,0.72135033131035
0.059000000000000004,1.7129750000000001,1.0,2672.3417208862566,0.48509200698304333,1.294966027315457,0.9790164850080666,0.28499795,0.7225607229902329
0.059500000000000004,1.71149375,1.0,2670.103660040406,0.48798023467019014,1.2943176395431866,0.9792225590572536,0.2849357375,0.7237791041254047
0.06,1.71,1.0,2667.868779301107,0.4908522688966192,1.2936635859917096,0.9794235993904054,0.284873,0.7250054153778374
0.0605,1.7084937500000001,1.0,2665.6377072167893,0.4937081974153685,1.2930038608538126,0.9796197566014238,0.2848097375,0.7262395966988509
0.061,1.7069750000000001,1.0,2663.4110712831384,0.49654810797947585,1.2923384583222826,0.9798111754780335,0.28474595,0.7274815873270124
0.0615,1.7054437500000001,1.0,2661.1894979469675,0.49937208834197927,1.291667372589906,0.9799979952681719,0.2846816375,0.7287313257860364
0.062,1.7039,1.0,2658.97361261107,0.5021802262559166,1.2909905978494693,0.9801803499321912,0.2846168,0.7299887498826798
0.0625,1.70234375,1.0,2656.7640396388388,0.5049726094743259,1.2903081282937596,0.9803583683817363,0.2845514375,0.7312537967046365
0.063,1.7007750000000001,1.0,2654.561402360771,0.5077493257502448,1.2896199581155634,0.9805321747060877,0.28448555,0.7325264026184288
0.0635,1.69919375,1.0,2652.3663230813363,0.5105104628367114,1.2889260815076673,0.9807018883867223,0.28441913750000003,0.7338065032672985
0.064,1.6976,1.0,2650.1794230857763,0.5132561084867637,1.288226492662858,0.9808676245007838,0.2843522,0.7350940335690928
0.0645,1.69599375,1.0,2648.0013226492733,0.5159863504534394,1.2875211857739222,0.9810294939141138,0.2842847375,0.736388927714151
0.065,1.694375,1.0,2645.8326410454783,0.5187012764897766,1.2868101550336464,0.9811876034644511,0.28421675,0.737691119163188
0.0655,1.69274375,1.0,2643.673996556069,0.5214009743488132,1.2860933946348176,0.9813420561353672,0.2841482375,0.7390005406451738
0.066,1.6911,1.0,2641.526006481843,0.5240855317835869,1.2853708987702221,0.9814929512214697,0.2840792,0.7403171241552157
0.0665,1.6894437500000001,1.0,2639.3861959455667,0.5267549956186197,1.2846426902061838,0.9816403830907834,0.2840096375,0.7416407490822272
0.067,1.687775,1.0,2637.2569545230153,0.5294094825430808,1.2839087467636165,0.9817844453526151,0.28393955,0.7429713759920684
0.0675,1.68609375,1.0,2635.1404101104195,0.5320491021307175,1.2831690486488194,0.9819252279384438,0.2838689375,0.7443089600998806
0.068,1.6844000000000001,1.0,2633.0364471600974,0.5346739329946364,1.2824235967991784,0.9820628165788239,0.2837978,0.7456534182749207
0.0685,1.68269375,1.0,2630.944950365069,0.5372840537479439,1.2816723921520787,0.9821972940483377,0.2837261375,0.7470046667708086
0.069,1.680975,1.0,2628.8658046568735,0.5398795430037466,1.2809154356449057,0.98232874028643,0.28365395,0.74836262122587
0.0695,1.67924375,1.0,2626.798895203212,0.5424604793751513,1.2801527282150449,0.982457232512493,0.28358123749999997,0.7497271966634795
0.07,1.6775,1.0,2624.7441074058697,0.5450269414752645,1.2793842707998817,0.9825828453355119,0.283508,0.7510983074924056
0.07050000000000001,1.67574375,1.0,2622.7013268984965,0.5475790079171928,1.2786100643368017,0.9827056508585633,0.2834342375,0.7524758675071531
0.07100000000000001,1.673975,1.0,2620.6704395442084,0.5501167573140429,1.2778301097631901,0.9828257187784406,0.28335995,0.7538597898883092
0.07150000000000001,1.67219375,1.0,2618.65133143383,0.5526402682789212,1.2770444080164327,0.9829431164806643,0.2832851375,0.7552499872028838
0.07200000000000001,1.6704,1.0,2616.6438888835346,0.5551496194249345,1.2762529600339145,0.9830579091301213,0.2832098,0.756646371404657
0.0725,1.66859375,1.0,2614.6479984326734,0.5576448893651892,1.2754557667530215,0.983170159757558,0.2831339375,0.7580488538345185
0.073,1.6667750000000001,1.0,2612.6635468419067,0.5601261567127921,1.2746528291111385,0.983279929342148,0.28305755,0.7594573452208155
0.0735,1.66494375,1.0,2610.690421090942,0.5625935000808497,1.2738441480456517,0.9833872768903321,0.2829806375,0.7608717556796913
0.074,1.6631,1.0,2608.72850837651,0.5650469980824687,1.273029724493946,0.9834922595111232,0.2829032,0.7622919947154336
0.0745,1.6612437500000001,1.0,2606.777696110371,0.5674867293307556,1.2722095593934069,0.9835949324880571,0.2828252375,0.7637179712208142
0.075,1.659375,1.0,2604.837871917424,0.569912772438817,1.27138365368142,0.9836953493479585,0.28274675,0.7651495934774333
