Time [s],Phi [rad],STIM [ ],Fsee [N],Gamma [ ],Lcerel [ ],q [ ],Lmtc [m],fisomrel [ ]
0.0,1.8,1.0,17.967514903460195,1.0000487233932471e-05,1.3793397062535706,0.005000026654356864,0.288653,0.5411396277406083
0.0005,1.79999375,1.0,18.276813998279536,0.005619153701203583,1.3793023800302906,0.012940515147810482,0.2886527375,0.5412299250744803
0.001,1.799975,1.0,21.61841409838448,0.011196844000565389,1.378938298790158,0.0356085785096921,0.28865195,0.5421102222896077
0.0015,1.79994375,1.0,31.069175471121422,0.01674324786825395,1.3780462088861942,0.07060170753591925,0.2886506375,0.5442635967690561
0.002,1.7999,1.0,53.58206620783592,0.02225854079555422,1.376368152552796,0.11471783938614905,0.2886488,0.5483004264795768
0.0025,1.79984375,1.0,97.11824044728085,0.027742897289661998,1.373935200855987,0.16457467713435825,0.28864643749999996,0.5541213825280377
0.003,1.7997750000000001,1.0,160.95731982999132,0.033196490881404084,1.3712143754599881,0.21728023098794394,0.28864354999999997,0.5605863758030962
0.0035,1.79969375,1.0,237.68240344612926,0.03861949412482757,1.36858476282102,0.27061266621511304,0.2886401375,0.5667897723729991
0.004,1.7996,1.0,321.4658202125757,0.0440120786079826,1.3661561175878878,0.3229155861791354,0.2886362,0.5724799029112402
0.0045000000000000005,1.7994937500000001,1.0,409.26681252289967,0.049374414958106724,1.3639228361912792,0.3730343031143611,0.2886317375,0.5776791112834675
0.005,1.799375,1.0,499.41257396057387,0.05470667283271342,1.3618583621136482,0.4202472699240401,0.28862675,0.582457033700344
0.0055,1.79924375,1.0,590.7895072807114,0.0600090209670722,1.3599388528144065,0.46417352220366487,0.2886212375,0.5868750709013042
0.006,1.7991000000000001,1.0,682.5172175609785,0.06528162711733036,1.3581464309391778,0.5046798011529958,0.2886152,0.5909793813951811
0.006500000000000001,1.79894375,1.0,773.8804710908076,0.0705246581161464,1.3564672670479636,0.5418006133228741,0.2886086375,0.5948057637862112
0.007,1.798775,1.0,864.2849904745459,0.07573827985628154,1.3548904082537772,0.5756766488358803,0.28860155,0.5983826470965159
0.0075,1.79859375,1.0,953.2425017884226,0.08092265730033472,1.353406790167394,0.6065097962162173,0.2885939375,0.6017335480343735
0.008,1.7984,1.0,1040.3440421093364,0.08607795407961677,1.3520088585400962,0.6345320702789651,0.2885858,0.604878072414855
0.0085,1.79819375,1.0,1125.3141523334386,0.09120433430071002,1.3506892425627737,0.6599843352152128,0.2885771375,0.6078349972919264
0.009000000000000001,1.797975,1.0,1207.8997995919826,0.09630195989658474,1.3494420402563443,0.6831041070800377,0.28856795,0.6106194531297304
0.0095,1.79774375,1.0,1287.8917007514785,0.10137099139355685,1.3482621304855118,0.7041174015114862,0.2885582375,0.61324454231407
0.01,1.7975,1.0,1365.1665174147522,0.10641158931794231,1.34714439211498,0.7232341586950526,0.288548,0.6157231218849524
0.0105,1.79724375,1.0,1439.6590978275674,0.11142391361919747,1.346083951410838,0.7406465968665067,0.2885372375,0.6180672786220048
0.011,1.796975,1.0,1511.3220080377512,0.1164081230618035,1.345076556161229,0.7565290697664669,0.28852595000000003,0.6202875331247009
0.0115,1.79669375,1.0,1580.1206387963773,0.12136437482371855,1.3441184875227048,0.7710385575592892,0.2885141375,0.622393069340198
0.012,1.7964,1.0,1646.056497303661,0.12629282553848103,1.3432061709676275,0.784315542772375,0.28850180000000003,0.624392615464731
0.0125,1.79609375,1.0,1709.1735503105485,0.13119363208305662,1.3423360396683879,0.7964852834628288,0.2884889375,0.6262947574750126
0.013000000000000001,1.7957750000000001,1.0,1769.5064754535008,0.13606694930916843,1.3415050736438978,0.8076594524859638,0.28847555,0.6281067751131248
0.0135,1.79544375,1.0,1827.0915607472834,0.14091293066354074,1.3407105947186282,0.8179374292361419,0.2884616375,0.6298351104798428
0.014,1.7951000000000001,1.0,1881.992734673824,0.1457317295928979,1.33994992471705,0.8274074963450956,0.2884472,0.6314861246328826
0.0145,1.79474375,1.0,1934.2783651361442,0.1505234985266025,1.3392206098243247,0.836148167304916,0.2884322375,0.633065618209226
0.015,1.794375,1.0,1984.0497838984759,0.15528839048329804,1.3385200781847086,0.8442291921497286,0.28841675,0.6345795812047792
0.0155,1.79399375,1.0,2031.370174762653,0.16002655520862566,1.3378463755742085,0.8517128234172948,0.2884007375,0.6360326100490143
0.016,1.7936,1.0,2076.310825215447,0.16473814203774526,1.337197630024458,0.8586545217573665,0.2883842,0.6374290762305128
0.0165,1.7931937500000001,1.0,2118.95733174034,0.16942330030581676,1.3365719695670906,0.865103734845205,0.2883671375,0.6387733077223516
0.017,1.792775,1.0,2159.3906254266417,0.17408217815001595,1.3359677035558155,0.8711046619735342,0.28834955,0.6400692033400245
0.0175,1.7923437500000001,1.0,2197.717669526811,0.17871492457127147,1.3353829920782625,0.8766967801263343,0.2883314375,0.6413209458693627
0.018000000000000002,1.7919,1.0,2234.0102522233974,0.1833216850715348,1.3348164571400012,0.8819155635764834,0.2883128,0.6425316965185515
0.0185,1.79144375,1.0,2268.342532015429,0.18790260473069148,1.3342667808552668,0.8867928418201737,0.2882936375,0.6437044617878094
0.019,1.790975,1.0,2300.7961874589582,0.19245782862862715,1.3337326453382943,0.8913572060392047,0.28827395,0.644842223965256
0.0195,1.79049375,1.0,2331.4513164430855,0.1969875007424172,1.3332128159311862,0.895634400008105,0.2882537375,0.645947765622479
0.02,1.79,1.0,2360.3966971595305,0.20149176613463637,1.3327060324852886,0.899647618649429,0.288233,0.6470239028950832
0.0205,1.78949375,1.0,2387.7033965874148,0.2059707668424138,1.3322112614331796,0.9034178486602086,0.2882117375,0.6480729520949478
0.021,1.788975,1.0,2413.4369744558358,0.21042464348902218,1.3317275668770525,0.906964084007767,0.28818995000000003,0.649097006931858
0.021500000000000002,1.78844375,1.0,2437.6669918852326,0.2148535366977343,1.331254012919101,0.9103035236514383,0.2881676375,0.650098147082245
0.022,1.7879,1.0,2460.4666741188876,0.21925758709182283,1.330789663661518,0.9134517659341296,0.2881448,0.6510784388223847
0.0225,1.78734375,1.0,2481.8985913114134,0.2236369327696563,1.3303337166707792,0.9164230048396735,0.28812143749999997,0.6520396544338949
0.023,1.786775,1.0,2502.0449881615505,0.22799171616131328,1.329885209508535,0.9192301243522263,0.28809755,0.652983892052009
0.0235,1.78619375,1.0,2520.959754943162,0.23232207373182687,1.3294434747057253,0.9218849156755851,0.28807313749999996,0.6539126179012058
0.024,1.7856,1.0,2538.694500687352,0.23662814107957622,1.329007886316003,0.9243981439709882,0.2880482,0.654827202620778
0.0245,1.78499375,1.0,2555.3027223717295,0.24091005380294053,1.3285778183930212,0.9267796452101772,0.2880227375,0.6557290091201619
0.025,1.784375,1.0,2570.8396456181795,0.24516794750029897,1.328152644990433,0.9290384191275738,0.28799675,0.6566193928118075
0.025500000000000002,1.78374375,1.0,2585.362074078267,0.2494019577700307,1.3277317401618918,0.931182711743228,0.2879702375,0.6574997018190634
0.026000000000000002,1.7831000000000001,1.0,2598.9180811360734,0.25361221651220023,1.3273145726624753,0.9332201024649822,0.2879432,0.6583710794731543
0.0265,1.78244375,1.0,2611.5691565898082,0.25779886217721637,1.326900497762033,0.9351575392834861,0.2879156375,0.6592348997542574
0.027,1.781775,1.0,2623.355213767631,0.26196202563717813,1.3264890819688218,0.9370014430612136,0.28788755,0.6600920897804718
0.0275,1.7810937500000001,1.0,2634.3148802208316,0.2661018369463695,1.3260799119745137,0.9387577299817869,0.2878589375,0.6609435299958336
0.028,1.7804,1.0,2644.4875845858664,0.2702184261590744,1.3256725744707807,0.9404318553950732,0.2878298,0.661790096420835
0.0285,1.77969375,1.0,2653.913486168278,0.2743119233295767,1.3252666561492943,0.9420288557616007,0.2878001375,0.6626326607061759
0.029,1.778975,1.0,2662.6334083134802,0.27838245851216037,1.3248617437017267,0.9435533862732128,0.28776995,0.6634720901756175
0.029500000000000002,1.7782437500000001,1.0,2670.6863287854935,0.2824301603921349,1.3244574463035996,0.9450097572236349,0.2877392375,0.6643092013333762
0.03,1.7775,1.0,2678.103804080058,0.28645515396162635,1.3240534460812363,0.9464019700653833,0.287708,0.6651446558765155
0.0305,1.77674375,1.0,2684.93588903952,0.29045757661845706,1.3236492596191891,0.9477337181903676,0.2876762375,0.6659794539156592
0.031,1.775975,1.0,2691.2075594011458,0.2944375519594972,1.3232446374623021,0.9490084558674634,0.28764395,0.6668141082648752
0.0315,1.7751937500000001,1.0,2696.944104399662,0.298395203581617,1.322839330155419,0.9502293930797168,0.2876111375,0.6676491291607153
0.032,1.7744,1.0,2702.1710986440735,0.30233065508168655,1.3224330882433843,0.9513995158185673,0.2875778,0.6684850242532969
0.0325,1.77359375,1.0,2706.9143753753433,0.3062440300565761,1.3220256622710416,0.9525216044571518,0.2875439375,0.6693222985934218
0.033,1.772775,1.0,2711.200001102613,0.3101354521031557,1.321616802783235,0.9535982504051086,0.28750955,0.67016145461572
0.0335,1.7719437500000002,1.0,2715.0542516197684,0.3140050448182956,1.3212062603248083,0.9546318712239801,0.2874746375,0.6710029921178301
0.034,1.7711000000000001,1.0,2718.5035894015837,0.31785293179886603,1.3207937854406058,0.9556247243618684,0.2874392,0.6718474082356078
0.0345,1.7702437500000001,1.0,2721.572238042633,0.3216792344421468,1.320379150561786,0.9565789214874009,0.2874032375,0.6726951526954992
0.035,1.7693750000000001,1.0,2724.280038260207,0.32548407132295565,1.3199621692775143,0.9574964416397683,0.28736675,0.673546588747536
0.035500000000000004,1.76849375,1.0,2726.656911776383,0.32926757250821376,1.3195425645508336,0.9583791308278177,0.2873297375,0.6744022622457791
0.036000000000000004,1.7676,1.0,2728.7180747407074,0.33302985465929,1.3191201941021793,0.9592287295429751,0.2872922,0.6752624416970262
0.0365,1.76669375,1.0,2730.478823961117,0.336771034437553,1.318694915651987,0.9600468699157536,0.2872541375,0.6761273939335872
0.037,1.765775,1.0,2731.954528044685,0.3404912285043718,1.3182665869206924,0.9608350836821001,0.28721555,0.6769973840875425
0.0375,1.76484375,1.0,2733.1606189877148,0.344190553521115,1.3178350656287312,0.9615948094785766,0.2871764375,0.6778726755637121
0.038,1.7639,1.0,2734.1125842144374,0.3478691261491514,1.317400209496539,0.9623273995297196,0.28713679999999997,0.6787535300113304
0.0385,1.76294375,1.0,2734.8259590645343,0.3515270630498498,1.3169618762445512,0.9630341257843393,0.28709663750000003,0.6796402072944319
0.039,1.761975,1.0,2735.3163197293243,0.3551644808845791,1.3165199235932037,0.9637161855516725,0.28705595,0.6805329654609455
0.0395,1.7609937500000001,1.0,2735.5992766374056,0.3587814963147079,1.316074209262932,0.9643747066831264,0.2870147375,0.6814320607104982
0.04,1.76,1.0,2735.6806168815406,0.36237821302830064,1.3156246804184462,0.9650107579483757,0.286973,0.6823375673174545
0.0405,1.7589937500000001,1.0,2735.583155119478,0.3659547600146457,1.3151711298317499,0.9656253385076343,0.2869307375,0.683249869006946
0.041,1.757975,1.0,2735.3203239471886,0.36951125362867837,1.3147134356222037,0.966219396600048,0.28688795,0.6841691755065978
0.0415,1.75694375,1.0,2734.9002567751772,0.3730478029496716,1.3142515241495811,0.966793830717519,0.2868446375,0.685095598117555
0.042,1.7559,1.0,2734.3310985628204,0.37656451705689853,1.3137853217736557,0.9673494900620884,0.28680079999999997,0.686029246936873
0.0425,1.75484375,1.0,2733.6210035471354,0.3800615050296322,1.3133147548542012,0.9678871777508365,0.2867564375,0.6869702308375376
0.043000000000000003,1.753775,1.0,2732.778133091515,0.3835388759471457,1.312839749750991,0.9684076537809664,0.28671155,0.6879186574481422
0.043500000000000004,1.75269375,1.0,2731.8106536553883,0.3869967388887121,1.3123602328237989,0.9689116377752521,0.28666613750000003,0.6888746331322135
0.044,1.7516,1.0,2730.726734883196,0.3904352029336044,1.3118761304323985,0.9693998115261677,0.2866202,0.6898382629671989
0.0445,1.75049375,1.0,2729.5345478146123,0.3938543771610958,1.3113873689365634,0.9698728213553124,0.2865737375,0.6908096507231013
0.045,1.7493750000000001,1.0,2728.2422632141206,0.3972543706504593,1.310893874696067,0.9703312803032341,0.28652675,0.6917888988407723
0.0455,1.74824375,1.0,2726.8580500211797,0.400635292480968,1.3103955740706832,0.9707757701633843,0.2864792375,0.6927761084098566
0.046,1.7471,1.0,2725.390073920885,0.40399725173189494,1.3098923934201856,0.9712068433727099,0.2864312,0.6937713791463933
0.0465,1.7459437500000001,1.0,2723.8424915086375,0.4073403416767348,1.3093842955417414,0.9716250253166645,0.28638263750000004,0.6947747374749376
0.047,1.744775,1.0,2722.2245637943693,0.41066468600756395,1.3088711967642566,0.9720308161042374,0.28633355,0.6957863004126783
0.0475,1.74359375,1.0,2720.541657599165,0.4139703920109929,1.3083530487995418,0.9724246916909867,0.28628393750000003,0.696806113826618
0.048,1.7424,1.0,2718.7977711073086,0.4172575608659369,1.30782981578723,0.9728071050519492,0.2862338,0.6978341980625004
0.0485,1.74119375,1.0,2716.9968996317057,0.4205262937513111,1.3073014618669538,0.9731784874258586,0.2861831375,0.6988705724950036
0.049,1.739975,1.0,2715.143035182342,0.42377669184603084,1.3067679511783465,0.973539249554872,0.28613195,0.6999152555160701
0.0495,1.73874375,1.0,2713.240166063981,0.42700885632901125,1.306229247861041,0.9738897828426292,0.2860802375,0.7009682645231539
0.05,1.7375,1.0,2711.292276502111,0.43022288837916767,1.3056853160546702,0.9742304604367196,0.286028,0.7020296159073864
0.0505,1.73624375,1.0,2709.3033462972003,0.43341888917541527,1.3051361198988671,0.9745616382411298,0.2859752375,0.7030993250416587
0.051000000000000004,1.734975,1.0,2707.2773505079986,0.43659695989666925,1.3045816235332643,0.9748836558637852,0.28592195,0.7041774062686251
0.051500000000000004,1.73369375,1.0,2705.218259162656,0.43975720172184496,1.3040217910974954,0.9751968375038867,0.2858681375,0.7052638728886189
0.052000000000000005,1.7324,1.0,2703.130036998877,0.44289971582985754,1.3034565867311927,0.9755014927833662,0.2858138,0.7063587371474941
0.0525,1.73109375,1.0,2701.016643232526,0.4460246033996222,1.3028859745739894,0.9757979175264352,0.28575893750000003,0.7074620102243772
0.053,1.729775,1.0,2698.881268400015,0.4491319604447131,1.3023099257397126,0.9760863943920471,0.28570355000000003,0.7085736887731169
0.0535,1.72844375,1.0,2696.7228582441926,0.45222185766261436,1.3017284501167032,0.9763671935022735,0.2856476375,0.7096936938462122
0.054,1.7271,1.0,2694.5508198419834,0.4552944425540138,1.3011414619075998,0.9766405751583285,0.2855912,0.7108221298474287
0.0545,1.7257437500000001,1.0,2692.3663994192834,0.45834980743978937,1.3005489498671614,0.97690678742742,0.2855342375,0.7119589564213855
0.055,1.724375,1.0,2690.1708413130405,0.46138804464081895,1.2999509027501468,0.9771660678186189,0.28547675,0.7131041324597321
0.0555,1.72299375,1.0,2687.965387942012,0.4644092464779805,1.299347309311315,0.9774186438177848,0.2854187375,0.7142576160971807
0.056,1.7216,1.0,2685.7512797811137,0.4674135052721518,1.298738158305425,0.9776647333911063,0.2853602,0.7154193647075346
0.0565,1.72019375,1.0,2683.529755337819,0.4704009133442108,1.2981234384872353,0.977904545459349,0.28530113749999997,0.7165893348997054
0.057,1.718775,1.0,2681.3020511321447,0.47337156301503547,1.297503138611505,0.9781382803447318,0.28524155,0.7177674825137234
0.0575,1.71734375,1.0,2679.0694016783664,0.47632554660550364,1.296877247432993,0.9783661301922238,0.2851814375,0.7189537626167393
0.058,1.7159,1.0,2676.8330394708714,0.47926295643649325,1.2962457537064582,0.9785882793669187,0.2851208,0.7201481294990195
0.0585,1.71444375,1.0,2674.594194971744,0.48218388482888214,1.2956086461866596,0.9788049048290246,0.2850596375,0.7213505366699309
0.059000000000000004,1.7129750000000001,1.0,2672.3540966017003,0.48508842410354824,1.2949659136283556,0.9790161764878976,0.28499795,0.7225609368539205
0.059500000000000004,1.71149375,1.0,2670.113970733482,0.4879766665813695,1.2943175447863056,0.979222257536445,0.2849357375,0.7237792819864828
0.06,1.71,1.0,2667.875041688526,0.49084870458322377,1.293663528415268,0.9794233047671321,0.284873,0.7250055232101247
0.0605,1.7084937500000001,1.0,2665.6385317358004,0.493704630429989,1.2930038532700021,0.9796194688707391,0.2848097375,0.726239610870316
0.061,1.7069750000000001,1.0,2663.40566109425,0.49654453644254304,1.2923385081052667,0.9798108947189333,0.28474595,0.7274814945114378
0.0615,1.7054437500000001,1.0,2661.1776479370055,0.4993685149417638,1.2916674816758205,0.9799977216316539,0.2846816375,0.7287311228727198
0.062,1.7039,1.0,2658.955630855667,0.5021766568916404,1.290990763450557,0.9801800835630932,0.2846168,0.729988442558871
0.0625,1.70234375,1.0,2656.738381315618,0.5049690038228993,1.2903083646898046,0.9803581067907835,0.2845514375,0.7312533590278426
0.063,1.7007750000000001,1.0,2654.5307558908416,0.5077457103694674,1.2896202405858046,0.9805319185197712,0.28448555,0.7325258808769792
0.0635,1.69919375,1.0,2652.3328958857205,0.5105068593909352,1.2889263897355594,0.9807016380459382,0.28441913750000003,0.7338059353136979
0.064,1.6976,1.0,2650.1449423961626,0.5132525337468937,1.28822681073607,0.9808673802763903,0.2843522,0.7350934488932198
0.0645,1.69599375,1.0,2647.9670363124865,0.5159828162969335,1.2875215021843383,0.981029255921409,0.2842847375,0.7363883475180535
0.065,1.694375,1.0,2645.7993183217327,0.5186977899006454,1.2868104626773655,0.9811873716766503,0.28421675,0.7376905564374857
0.0655,1.69274375,1.0,2643.6419289103105,0.5213975374176201,1.286093690812154,0.9813418303961511,0.2841482375,0.739000000247065
0.066,1.6911,1.0,2641.4950083669164,0.5240821417074483,1.2853711851857048,0.9814927312566706,0.2840792,0.7403166028880936
0.0665,1.6894437500000001,1.0,2639.3586967852007,0.5267516856297207,1.2846429443950198,0.9816401699138577,0.2840096375,0.74164028764711
0.067,1.687775,1.0,2637.233134066225,0.5294062520440281,1.2839089670371004,0.9817842386507082,0.28393955,0.7429709771553783
0.0675,1.68609375,1.0,2635.1184599218323,0.5320459238099612,1.2831692517089486,0.9819250265187387,0.2838689375,0.7443085933883742
0.068,1.6844000000000001,1.0,2633.0148138770905,0.5346707837871107,1.2824237970075656,0.9820626194722902,0.2837978,0.7456530576652722
0.0685,1.68269375,1.0,2630.9223352732033,0.5372809148350675,1.2816726015299533,0.9821971004963336,0.2837261375,0.7470042906484315
0.069,1.680975,1.0,2628.84116327085,0.5398763998134221,1.2809156638731132,0.9823285497281374,0.28365395,0.748362212342883
0.0695,1.67924375,1.0,2626.771436852727,0.5424573215817652,1.280152982634047,0.9824570445731351,0.28358123749999997,0.7497267420958144
0.07,1.6775,1.0,2624.7132948268504,0.5450237629996878,1.2793845564097563,0.982582659815297,0.283508,0.7510977985960576
0.07050000000000001,1.67574375,1.0,2622.666875829633,0.5475758069267804,1.2786103837972427,0.9827054677223155,0.2834342375,0.7524752998735751
0.07100000000000001,1.673975,1.0,2620.632318328826,0.5501135362226338,1.2778304633935078,0.9828255381458668,0.28335995,0.7538591632989436
0.07150000000000001,1.67219375,1.0,2618.6097606268418,0.5526370337468388,1.2770447937955531,0.9829429386172228,0.2832851375,0.7552493055828426
0.07200000000000001,1.6704,1.0,2616.5994207835793,0.5551463809667374,1.2762533728584353,0.983057734321595,0.2832098,0.7566456440827115
0.0725,1.66859375,1.0,2614.6055563656455,0.5576415989902808,1.2754561609189239,0.983169983047407,0.2831339375,0.7580481613896936
0.073,1.6667750000000001,1.0,2612.623955186319,0.560122845586193,1.2746531969443538,0.9832797522365173,0.28305755,0.759456700919152
0.0735,1.66494375,1.0,2610.654393621722,0.5625901942922523,1.2738444828915199,0.9833871005935774,0.2829806375,0.7608711708860845
0.074,1.6631,1.0,2608.696648439663,0.5650437186462369,1.2730300207172165,0.9834920849396834,0.2829032,0.7622914789131261
0.0745,1.6612437500000001,1.0,2606.7504967951245,0.5674834921859249,1.2722098123782388,0.9835947602835321,0.2828252375,0.7637175320312628
0.075,1.659375,1.0,2604.815716226165,0.5699095884490942,1.2713838598313814,0.9836951798894353,0.28274675,0.7651492366805521
0.0755,1.65749375,1.0,2602.8920846490937,0.5723220809735232,1.2705521650334388,0.983793395342356,0.2826677375,0.7665864987108383
