Time [s],Phi [rad],STIM [ ],Fsee [N],Gamma [ ],Lcerel [ ],q [ ],Lmtc [m],fisomrel [ ]
0.0,1.8,1.0,17.967548323247637,1.0103283469883203e-05,1.3793397025094758,0.005000027202944327,0.288653,0.5411396367985408
0.0005,1.79999375,1.0,18.27687894930259,0.00561925592083397,1.3793023728155163,0.01294080046584949,0.2886527375,0.5412299425271656
0.001,1.799975,1.0,21.618553831446746,0.01119694564682448,1.378938284518516,0.03560911395030642,0.28865195,0.5421102567798601
0.0015,1.79994375,1.0,31.0694775769131,0.016743348944357934,1.3780461831478557,0.07060244043564252,0.2886506375,0.5442636588244196
0.002,1.7999,1.0,53.5826935334115,0.0222586413047011,1.376368111855142,0.1147187073919245,0.2886488,0.548300524166439
0.0025,1.79984375,1.0,97.11928111211603,0.02774299723503209,1.3739351507087867,0.16457562153728186,0.28864643749999996,0.5541215021186129
0.003,1.7997750000000001,1.0,160.95866708454082,0.03319659026615967,1.3712143250309408,0.21728120539467824,0.28864354999999997,0.5605864951907624
0.0035,1.79969375,1.0,237.68392165591737,0.0386195929521132,1.3685847160561257,0.2706136354731727,0.2886401375,0.5667898823017383
0.004,1.7996,1.0,321.46743255433546,0.04401217688092526,1.3661560748831034,0.32291652476425803,0.2886362,0.5724800026345637
0.0045000000000000005,1.7994937500000001,1.0,409.26847991679625,0.04937451267981607,1.3639227970511838,0.37303519413486674,0.2886317375,0.5776792021251368
0.005,1.799375,1.0,499.4142733178085,0.054706770006281914,1.361858326002445,0.42024810358367787,0.28862675,0.5824571170366971
0.0055,1.79924375,1.0,590.7912206644627,0.06000911759557261,1.3599388193390416,0.4641742940673992,0.2886212375,0.5868751477449514
0.006,1.7991000000000001,1.0,682.5189319110294,0.0652817232038208,1.3581463997768561,0.5046805105089527,0.2886152,0.5909794525729475
0.006500000000000001,1.79894375,1.0,773.8821752887725,0.07052475366366757,1.3564672379561873,0.541801261916406,0.2886086375,0.5948058299231089
0.007,1.798775,1.0,864.2866717856912,0.07573837486785771,1.354890381095215,0.5756772399334351,0.28860155,0.5983827085653477
0.0075,1.79859375,1.0,953.2441527967824,0.08092275177897303,1.353406764773181,0.6065103338416079,0.2885939375,0.6017336052696225
0.008,1.7984,1.0,1040.345839402974,0.08607804803652423,1.3520088320783965,0.6345325572248218,0.2885858,0.6048781318201635
0.0085,1.79819375,1.0,1125.315960347462,0.0912044277326093,1.3506892169679519,0.6599847771319054,0.2885771375,0.6078350545357296
0.009000000000000001,1.797975,1.0,1207.9012518386203,0.09630205279272819,1.3494420204131232,0.6831045109744004,0.28856795,0.6106194973520229
0.0095,1.79774375,1.0,1287.892781717482,0.10137108375858427,1.348262116181441,0.7041177711452302,0.2885582375,0.6132445740842618
0.01,1.7975,1.0,1365.1676124796531,0.10641168117188092,1.347144378040436,0.7232344949261039,0.288548,0.615723153045022
0.0105,1.79724375,1.0,1439.660686649452,0.11142400496559868,1.3460839315255155,0.7406469001065586,0.2885372375,0.6180673225122522
0.011,1.796975,1.0,1511.323568343639,0.11640821389611468,1.3450765371014217,0.7565293465005529,0.28852595000000003,0.6202875750704436
0.0115,1.79669375,1.0,1580.1218562560234,0.12136446514260363,1.3441184729782736,0.7710388122120778,0.2885141375,0.6223931012598891
0.012,1.7964,1.0,1646.0571149228288,0.12629291531783673,1.3432061637385024,0.7843157788218664,0.28850180000000003,0.6243926312879473
0.0125,1.79609375,1.0,1709.174337301313,0.13119372137413285,1.3423360306284824,0.7964854991410774,0.2884889375,0.6262947772115267
0.013000000000000001,1.7957750000000001,1.0,1769.5075232240843,0.1360670381296573,1.3415050618154587,0.8076596494654306,0.28847555,0.628106800875063
0.0135,1.79544375,1.0,1827.0927963032896,0.14091301900525902,1.3407105809918194,0.81793760967875,0.2884616375,0.6298351403068141
0.014,1.7951000000000001,1.0,1881.9939101186044,0.145731817421787,1.3399499118499534,0.8274076628211261,0.2884472,0.6314861525293652
0.0145,1.79474375,1.0,1934.280199402709,0.15052358584498104,1.339220590018623,0.8361483183899983,0.2884322375,0.6330656610568155
0.015,1.794375,1.0,1984.0510503247056,0.15528847727016237,1.3385200646829318,0.8442293337874534,0.28841675,0.634579610354157
0.0155,1.79399375,1.0,2031.371771441995,0.16002664153917506,1.3378463587509364,0.8517129534779408,0.2884007375,0.6360326462969821
0.016,1.7936,1.0,2076.3130846412378,0.1647382279255115,1.3371976064772642,0.8586546402333394,0.2883842,0.6374291268686356
0.0165,1.7931937500000001,1.0,2118.95999261789,0.16942338570266408,1.3365719421165423,0.8651038435529416,0.2883671375,0.6387733666450859
0.017,1.792775,1.0,2159.395334954066,0.17408226304896698,1.3359676554276991,0.8711047568368422,0.28834955,0.640069306461782
0.0175,1.7923437500000001,1.0,2197.7224025126934,0.17871500893197895,1.3353829441340266,0.8766968681379935,0.2883314375,0.6413210484183431
0.018000000000000002,1.7919,1.0,2234.0149342036743,0.18332176899301902,1.3348164100992606,0.8819156456532043,0.2883128,0.642531796965063
0.0185,1.79144375,1.0,2268.3469243601276,0.18790268823902945,1.3342667370597894,0.8867929191236096,0.2882936375,0.6437045551511532
0.019,1.790975,1.0,2300.79988293406,0.19245791167695256,1.3337326087520012,0.8913572799469913,0.28827395,0.6448423018354073
0.0195,1.79049375,1.0,2331.454533995966,0.1969875833044426,1.3332127842865766,0.8956344702508824,0.2882537375,0.6459478328698576
0.02,1.79,1.0,2360.399245484937,0.20149184804860956,1.33270600757667,0.8996476858258705,0.288233,0.6470239557474262
0.0205,1.78949375,1.0,2387.7077236092364,0.20597084834934487,1.3322112193812354,0.9034179077792119,0.2882117375,0.6480730411901552
0.021,1.788975,1.0,2413.4442211965684,0.2104247246902014,1.3317274968264627,0.9069641333250827,0.28818995000000003,0.6490971551315343
0.021500000000000002,1.78844375,1.0,2437.676960408354,0.21485361755473198,1.33125391703854,0.9103035642782564,0.2881676375,0.6500983496384696
0.022,1.7879,1.0,2460.477800253082,0.2192576674264895,1.3307895571436568,0.9134518014912969,0.2881448,0.6510786635354064
0.0225,1.78734375,1.0,2481.91282596916,0.22363701284777632,1.3303335809826766,0.916423032142369,0.28812143749999997,0.6520399402906933
0.023,1.786775,1.0,2502.056838086843,0.2279917952658957,1.3298850970079141,0.9192301536937141,0.28809755,0.6529841287374971
0.0235,1.78619375,1.0,2520.9688744840573,0.23232215229305747,1.3294433884521701,0.9218849478354916,0.28807313749999996,0.6539127991235731
0.024,1.7856,1.0,2538.7008925821874,0.2366282193554462,1.3290078260723213,0.9243981789332785,0.2880482,0.6548273290279503
0.0245,1.78499375,1.0,2555.3067426433313,0.24091013187924645,1.328577780625244,0.9267796822617256,0.2880227375,0.6557290882633582
0.025,1.784375,1.0,2570.8420076554557,0.24516802529064283,1.3281526228678149,0.9290384569444212,0.28799675,0.6566194391102477
0.025500000000000002,1.78374375,1.0,2585.363851996411,0.24940203501581987,1.3277317235569106,0.931182748466109,0.2879702375,0.6574997365255636
0.026000000000000002,1.7831000000000001,1.0,2598.9190676652074,0.25361229322497986,1.3273145634727834,0.9332201384961392,0.2879432,0.6583710986563177
0.0265,1.78244375,1.0,2611.5678721902013,0.2577989376080501,1.3269005096974287,0.9351575765221155,0.2879156375,0.6592348748710501
0.027,1.781775,1.0,2623.3552489200297,0.2619621005965854,1.3264890816428996,0.9370014766481108,0.28788755,0.6600920904591073
0.0275,1.7810937500000001,1.0,2634.318568284427,0.2661019119356668,1.3260798778511538,0.9387577570764725,0.2878589375,0.6609436009584715
0.028,1.7804,1.0,2644.495988518666,0.27021850137037506,1.3256724968641482,0.9404318749865102,0.2878298,0.6617902576092838
0.0285,1.77969375,1.0,2653.9263874050985,0.27431199864579126,1.3252665372238406,0.942028868497494,0.2878001375,0.6626329074056503
0.029,1.778975,1.0,2662.649297587985,0.27838253350699627,1.324861597472188,0.9435533943060539,0.28776995,0.6634723931371751
0.029500000000000002,1.7782437500000001,1.0,2670.7048454615133,0.282430235699071,1.324457276151148,0.9450097614909674,0.2877392375,0.6643095534202096
0.03,1.7775,1.0,2678.1246822442054,0.2864552312030336,1.324053254494634,0.9464019716592454,0.287708,0.6651450518221811
0.0305,1.77674375,1.0,2684.9502181205044,0.29045765180179806,1.3236491282969811,0.9477337265544659,0.2876762375,0.6659797249764167
0.031,1.775975,1.0,2691.215488603598,0.2944376252320609,1.3232445648779563,0.9490084705765953,0.28764395,0.6668142578981529
0.0315,1.7751937500000001,1.0,2696.9461573999506,0.29839527516914255,1.3228393113821313,0.9502294133314936,0.2876111375,0.6676491678134926
0.032,1.7744,1.0,2702.168174800771,0.3023307252883635,1.322433114954078,0.95139954046604,0.2875778,0.6684849693272013
0.0325,1.77359375,1.0,2706.907750611722,0.3062440992650442,1.3220257227383687,0.9525216320383529,0.2875439375,0.6693221744095386
0.033,1.772775,1.0,2711.191328500064,0.3101355207745051,1.3216168818795755,0.953598279169808,0.28750955,0.6701612923790152
0.0335,1.7719437500000002,1.0,2715.045561759512,0.31400511349206667,1.32120633952227,0.954631899157916,0.2874746375,0.6710028298810722
0.034,1.7711000000000001,1.0,2718.4972904923857,0.31785300109304937,1.3207938428110244,0.9556247492086946,0.2874392,0.6718472908626778
0.0345,1.7702437500000001,1.0,2721.5611053471753,0.3216792993855974,1.32037925190116,0.9565789493242072,0.2874032375,0.6726949456353735
0.035,1.7693750000000001,1.0,2724.2710094441527,0.325484139802933,1.3199622514246963,0.9574964675401306,0.28736675,0.6735464211200238
0.035500000000000004,1.76849375,1.0,2726.6475933768693,0.32926764287464977,1.3195426492957836,0.9583791567535929,0.2873297375,0.6744020895441067
0.036000000000000004,1.7676,1.0,2728.7066427899726,0.33302992559342653,1.3191202980292873,0.9592287568956941,0.2872922,0.6752622301839887
0.0365,1.76669375,1.0,2730.464025544515,0.33677110495194207,1.3186950501400718,0.9600468995742447,0.2872541375,0.6761271205874271
0.037,1.765775,1.0,2731.9356824884894,0.3404912979428753,1.3182667581430028,0.9608351160372257,0.28721555,0.6769970365470134
0.0375,1.76484375,1.0,2733.1376187109604,0.34419062155890484,1.317835274552945,0.9615948444653043,0.2871764375,0.6778722520722389
0.038,1.7639,1.0,2734.0858952774743,0.3478691927927096,1.317400451884763,0.9623274366567351,0.28713679999999997,0.6787530393601665
0.0385,1.76294375,1.0,2734.7966214482713,0.35152712863696833,1.3169621426533225,0.963034164161386,0.28709663750000003,0.6796396687647157
0.039,1.761975,1.0,2735.285947378339,0.3551645460843599,1.3165201993734883,0.9637162239147952,0.28705595,0.6805324087645639
0.0395,1.7609937500000001,1.0,2735.569092079077,0.3587815602488671,1.3160744833238838,0.9643747438585089,0.2870147375,0.681431508263839
0.04,1.76,1.0,2735.6577847805506,0.3623782823448656,1.3156248877194783,0.9650107893889833,0.286973,0.6823371500384782
0.0405,1.7589937500000001,1.0,2735.567911043366,0.3659548359847736,1.3151712682406864,0.9656253644288438,0.2869307375,0.6832495908021597
0.041,1.757975,1.0,2735.3085618723676,0.3695113313954862,1.3147135424213265,0.9662194195390135,0.28688795,0.684168961149936
0.0415,1.75694375,1.0,2734.8888428785326,0.37304787880389867,1.3142516277952172,0.9667938525583245,0.2868446375,0.6850953903955876
0.042,1.7559,1.0,2734.317871540426,0.37656458843690616,1.3137854418961774,0.9673495120684363,0.28680079999999997,0.6860290065498109
0.0425,1.75484375,1.0,2733.6047746174127,0.3800615705214039,1.3133149022580253,0.9678872005967575,0.2867564375,0.6869699362979722
0.043000000000000003,1.753775,1.0,2732.7586857122456,0.38353893528428695,1.3128399264145796,0.9684076775796547,0.28671155,0.6879183049774249
0.043500000000000004,1.75269375,1.0,2731.78874298581,0.3869967929524506,1.3123604318996591,0.9689116621061328,0.28666613750000003,0.6888742365543955
0.044,1.7516,1.0,2730.7040870217984,0.39043525375279,1.3118763362470822,0.9693998354602887,0.2866202,0.6898378536004366
0.0445,1.75049375,1.0,2729.513858842556,0.39385442791220027,1.3113875569906674,0.9698728434791593,0.2865737375,0.6908092772684433
0.045,1.7493750000000001,1.0,2728.2164893850822,0.3972544068524617,1.3108941090249817,0.9703313034888686,0.28652675,0.6917884342269223
0.0455,1.74824375,1.0,2726.827045521378,0.4006353151341456,1.3103958560271607,0.970775794662068,0.2864792375,0.6927755502588206
0.046,1.7471,1.0,2725.359371910404,0.40399727287435905,1.3098926727009867,0.971206867093918,0.2864312,0.6937708271882626
0.0465,1.7459437500000001,1.0,2723.817586504581,0.407340382126997,1.3093845221543094,0.9716250474199065,0.28638263750000004,0.6947742903423137
0.047,1.744775,1.0,2722.205805837946,0.41066474494595445,1.308871367494978,0.9720308362502308,0.28633355,0.6957859641000712
0.0475,1.74359375,1.0,2720.5281444869142,0.4139704633851263,1.3083531718308414,0.9724247096977523,0.28628393750000003,0.6968058718809298
0.048,1.7424,1.0,2718.788714560621,0.41725763949840733,1.3078298982697492,0.9728071208024311,0.2862338,0.6978340361327675
0.0485,1.74119375,1.0,2716.9916252222015,0.42052637533969267,1.3073015099195506,0.973178500860152,0.2861831375,0.6988704783200393
0.049,1.739975,1.0,2715.140982239587,0.42377677296287714,1.306767969888095,0.9735392606631799,0.28613195,0.6999152189117885
0.0495,1.73874375,1.0,2713.2408875668684,0.4270089344218556,1.3062292412832313,0.9738897916588853,0.2860802375,0.700968277369568
0.05,1.7375,1.0,2711.295438956004,0.4302229617705231,1.3056852872128089,0.9742304670328104,0.286028,0.7020296721352761
0.0505,1.73624375,1.0,2709.308729597882,0.4334189570627745,1.3051360707846773,0.9745616427216592,0.2859752375,0.7030994206189044
0.051000000000000004,1.734975,1.0,2707.284847794805,0.43659702235250475,1.3045815551066855,0.9748836583613337,0.28592195,0.7041775391862026
0.051500000000000004,1.73369375,1.0,2705.2278766618374,0.43975725969360874,1.304021703286683,0.9751968381747159,0.2858681375,0.7052640431462504
0.052000000000000005,1.7324,1.0,2703.141893859253,0.44289977113998136,1.3034564784325189,0.9755014918035276,0.2858138,0.7063589467389484
0.0525,1.73109375,1.0,2701.0309713549195,0.44602465874551755,1.3028858436520425,0.9757979150882468,0.28575893750000003,0.7074622631224186
0.053,1.729775,1.0,2698.898039950109,0.44913200427567224,1.3023097724305834,0.9760863893480723,0.28570355000000003,0.7085739843525793
0.0535,1.72844375,1.0,2696.745860738524,0.45222192712646947,1.3017282397663597,0.9763671875616166,0.2856476375,0.709694098620836
0.054,1.7271,1.0,2694.5764745043493,0.455294528277735,1.301141227209562,0.9766405693671957,0.2855912,0.7108225805954049
0.0545,1.7257437500000001,1.0,2692.391669448607,0.45834990133982395,1.3005487185941138,0.9769067826475466,0.2855342375,0.7119593997175899
0.055,1.724375,1.0,2690.193231065154,0.4613881399230916,1.299950697753938,0.9771660647311713,0.28547675,0.713104524607544
0.0555,1.72299375,1.0,2687.982942090463,0.46440933763789294,1.2993471485229573,0.9774186429271654,0.2854187375,0.7142579230585924
0.056,1.7216,1.0,2685.7625824585457,0.4674135880945833,1.2987380547350953,0.9776647350286563,0.2853602,0.7154195620315409
0.0565,1.72019375,1.0,2683.533929262191,0.4704009849035176,1.2981234002242743,0.9779045497869393,0.28530113749999997,0.7165894076489705
0.057,1.718775,1.0,2681.2987567197706,0.4733716216750512,1.297503168824418,0.9781382873582413,0.28524155,0.7177674251895083
0.0575,1.71734375,1.0,2679.058836147742,0.47632559201953917,1.296877344369449,0.9783661397248993,0.2851814375,0.7189535790820905
0.058,1.7159,1.0,2676.815935939172,0.4792629895473366,1.2962459106932906,0.9785882910926166,0.2851208,0.7201478329002005
0.0585,1.71444375,1.0,2674.5718215481525,0.4821839078687987,1.2956088516298654,0.9788049182653304,0.2850596375,0.7213501493560976
0.059000000000000004,1.7129750000000001,1.0,2672.3282554792954,0.4850884405942807,1.2949661510130968,0.9790161909991221,0.28499795,0.7225604902950223
0.059500000000000004,1.71149375,1.0,2670.0869972841947,0.4879766813341376,1.2943177926769076,0.9792222723364988,0.2849357375,0.7237788166893904
0.06,1.71,1.0,2667.8498035624093,0.49084872369872456,1.293663760455221,0.9794233189222772,0.284873,0.7250050886329673
0.0605,1.7084937500000001,1.0,2665.6152871722065,0.4937046111137406,1.2930040670706877,0.9796194788134739,0.2848097375,0.7262392113521554
0.061,1.7069750000000001,1.0,2663.385962203021,0.4965444847829135,1.2923386893691602,0.9798109002828247,0.28474595,0.7274811565622502
0.0615,1.7054437500000001,1.0,2661.163331473681,0.4993684520922548,1.29166761346713,0.9799977236826753,0.2846816375,0.7287308777244541
0.062,1.7039,1.0,2658.9477285701846,0.5021765972118444,1.290990836226002,0.9801800827778007,0.2846168,0.729988307501569
0.0625,1.70234375,1.0,2656.7394865305027,0.5049690043117622,1.2903083545071814,0.980358106298794,0.2845514375,0.7312533778805252
0.063,1.7007750000000001,1.0,2654.5389378492446,0.5077457575620881,1.2896201651720731,0.9805319181674067,0.28448555,0.7325260201712407
0.0635,1.69919375,1.0,2652.346414481701,0.5105069411329021,1.2889262650820823,0.9807016377101748,0.28441913750000003,0.7338061650054793
0.064,1.6976,1.0,2650.1622478480717,0.513252639194284,1.2882266510986136,0.9808673798610233,0.2843522,0.7350937423357082
0.0645,1.69599375,1.0,2647.986768838465,0.5159829359163138,1.2875213200830724,0.9810292553534934,0.2842847375,0.7363886814339522
0.065,1.694375,1.0,2645.820307817691,0.5186979154690715,1.2868102688968637,0.9811873709031936,0.28421675,0.7376909108906529
0.0655,1.69274375,1.0,2643.6631946302764,0.5213976620226369,1.2860934944013924,0.9813418293810432,0.2841482375,0.7390003586135219
0.066,1.6911,1.0,2641.5157586058554,0.52408225974709,1.2853709934580635,0.9814927299778291,0.2840792,0.7403169518263963
0.0665,1.6894437500000001,1.0,2639.3783285647855,0.5267517928125106,1.2846427629282822,0.9816401683605748,0.2840096375,0.7416406170680924
0.067,1.687775,1.0,2637.251232823717,0.5294063453889787,1.2839087996734533,0.9817842368211822,0.28393955,0.7429712801912596
0.0675,1.68609375,1.0,2635.1347992018036,0.5320460016465742,1.2831691005549821,0.9819250244177796,0.2838689375,0.7443088663612323
0.068,1.6844000000000001,1.0,2633.029355026936,0.534670845755377,1.2824236624342733,0.9820626171091816,0.2837978,0.7456533000548842
0.0685,1.68269375,1.0,2630.9352271416824,0.5372809618854671,1.2816724821727323,0.982197097882843,0.2837261375,0.7470045050594765
0.069,1.680975,1.0,2628.8527419106326,0.5398764342069244,1.2809155566317638,0.9823285468766622,0.28365395,0.7483624044715125
0.0695,1.67924375,1.0,2626.78222522668,0.5424573468898287,1.280152882672773,0.9824570414949735,0.28358123749999997,0.749726920695585
0.07,1.6775,1.0,2624.724002518449,0.54502378410426,1.2793844571571649,0.982582656519036,0.283508,0.7510979754432281
0.07050000000000001,1.67574375,1.0,2622.678398757494,0.5475758300202983,1.2786102769463443,0.9827054642123252,0.2834342375,0.7524754897317645
0.07100000000000001,1.673975,1.0,2620.6458867710085,0.5501135552928819,1.2778303375259639,0.9828255335316781,0.28335995,0.7538593863208195
0.07150000000000001,1.67219375,1.0,2618.626509400278,0.5526370073833392,1.2770446383657486,0.982942929931132,0.2832851375,0.7552495802066059
0.07200000000000001,1.6704,1.0,2616.6190682716315,0.5551463291105593,1.276253190458376,0.9830577229498001,0.2832098,0.7566459654386741
0.0725,1.66859375,1.0,2614.62343339547,0.5576415949166157,1.275455994891851,0.9831699753216147,0.2831339375,0.7580484530552953
0.073,1.6667750000000001,1.0,2612.6394750316927,0.5601228792435818,1.274653052754178,0.9832797477421736,0.28305755,0.7594569534847282
0.0735,1.66494375,1.0,2610.6670636867225,0.5625902565335312,1.273844365133362,0.9833870989468207,0.2829806375,0.7608713765456184
0.074,1.6631,1.0,2608.706070111297,0.5650438012285373,1.2730299331174075,0.9834920857852314,0.2829032,0.7622916314473979
0.0745,1.6612437500000001,1.0,2606.756365297966,0.5674835877706736,1.2722097577943192,0.9835947632926878,0.2828252375,0.7637176267906827
0.075,1.659375,1.0,2604.8178204789683,0.5699096906020136,1.2713838402521018,0.9836951847582053,0.28274675,0.7651492705676712
0.0755,1.65749375,1.0,2602.890307123587,0.5723221841646307,1.2705521815787602,0.983793401789671,0.2826677375,0.7665864701625433
