Time [s],Phi [rad],STIM [ ],Fsee [N],Gamma [ ],Lcerel [ ],q [ ],Lmtc [m],fisomrel [ ]
0.0,1.8,1.0,18.137188554589216,0.0004204595292616228,1.379320741985355,0.005045742553623481,0.288653,0.5411855060576521
0.0005,1.79999375,1.0,18.57691177325559,0.006027310392655384,1.3792691807972344,0.014119227845680905,0.2886527375,0.541310231177917
0.001,1.799975,1.0,22.223188495834375,0.011602711255728862,1.378876956089284,0.037779501741820126,0.28865195,0.5422584570934912
0.0015,1.79994375,1.0,32.34028139623017,0.01714683852905841,1.3779390004600636,0.07355240544247174,0.2886506375,0.5445220405970921
0.002,1.7999,1.0,56.17730797105493,0.022659867631587473,1.3762017769112576,0.11819888945498014,0.2886488,0.5486996908444274
0.0025,1.79984375,1.0,101.35905225947778,0.028141973000047178,1.373733028975211,0.16835320158715072,0.28864643749999996,0.5546033898374174
0.003,1.7997750000000001,1.0,166.4007780978255,0.03359332809199365,1.371012315277215,0.22117275380393042,0.28864354999999997,0.5610646106908179
0.0035,1.79969375,1.0,243.78663285625493,0.0390141053929807,1.368397928022412,0.2744803816522226,0.2886401375,0.5672288476683478
0.004,1.7996,1.0,327.9355292872074,0.04440447641894572,1.3659856130575054,0.3266578291618462,0.2886362,0.5728779688613581
0.0045000000000000005,1.7994937500000001,1.0,415.9504429606106,0.049764611724619844,1.3637665810863224,0.3765847461822954,0.2886317375,0.5780416915968368
0.005,1.799375,1.0,506.21868004335846,0.05509468089816444,1.3617142222206484,0.4235676949432361,0.28862675,0.5827896091942326
0.0055,1.79924375,1.0,597.6527142723995,0.060394852633193746,1.3598051494771721,0.467246793349233,0.2886212375,0.587181933704432
0.006,1.7991000000000001,1.0,689.3763634079675,0.06566529456181687,1.3580220615336818,0.5075036279893812,0.2886152,0.5912634038749126
0.006500000000000001,1.79894375,1.0,780.6941227448896,0.07090617348685338,1.3563512083851461,0.5443822037681104,0.2886086375,0.5950695672271882
0.007,1.798775,1.0,871.0166745521808,0.07611765524507204,1.354781880846668,0.5780290573444713,0.28860155,0.5986282430577189
0.0075,1.79859375,1.0,959.8491825189061,0.08129990456796762,1.353305348015981,0.6086493115356731,0.2885939375,0.60196215262534
0.008,1.7984,1.0,1046.8300365395203,0.0864530858460735,1.3519135130544269,0.6364758767295869,0.2885858,0.6050920896992722
0.0085,1.79819375,1.0,1131.6331354127985,0.09157736171621782,1.3505999142181746,0.6617502171408727,0.2885771375,0.6080347581320429
0.009000000000000001,1.797975,1.0,1214.0185770045462,0.09667289425841481,1.3493585400351427,0.6847091076636164,0.28856795,0.6108055181904133
0.0095,1.79774375,1.0,1293.8258060527128,0.1017398451774343,1.3481836966322285,0.7055771815862942,0.2885582375,0.6134187289525392
0.01,1.7975,1.0,1370.919933119382,0.1067783745132376,1.3470705229035764,0.7245632720816798,0.288548,0.6158866458272897
0.0105,1.79724375,1.0,1445.2127193097617,0.11178864147179947,1.3460145104705659,0.7418584581058714,0.2885372375,0.6182205310708376
0.011,1.796975,1.0,1516.6633852573289,0.11677080458508418,1.3450113664725885,0.757635751037404,0.28852595000000003,0.620430985346675
0.0115,1.79669375,1.0,1585.2693104665188,0.12172502238299251,1.3440570287182418,0.7720507243343769,0.2885141375,0.6225279368290016
0.012,1.7964,1.0,1651.0159352171115,0.12665145073196826,1.3431481652622481,0.7852428219944381,0.28850180000000003,0.6245195684858191
0.0125,1.79609375,1.0,1713.9266468337219,0.13155024535302948,1.342281480303194,0.7973363593068756,0.2884889375,0.6264138655658618
0.013000000000000001,1.7957750000000001,1.0,1774.04431971074,0.13642156120129387,1.3414538780341259,0.808442015000412,0.28847555,0.6282182690543887
0.0135,1.79544375,1.0,1831.4446868609546,0.1412655537439177,1.3406622610209997,0.8186581519236023,0.2884616375,0.6299401272833554
0.014,1.7951000000000001,1.0,1886.1776300446327,0.14608237554185693,1.3399041398684504,0.828072376609992,0.2884472,0.63158538169735
0.0145,1.79474375,1.0,1938.2993745802362,0.1508721782787305,1.3391772150478987,0.8367625888055462,0.2884322375,0.6331594923225494
0.015,1.794375,1.0,1987.887104714278,0.15563511363815727,1.3384791870307648,0.8447980338135097,0.28841675,0.6346678569738282
0.0155,1.79399375,1.0,2035.0211372184535,0.16037133235401166,1.3378079247899557,0.8522403708214664,0.2884007375,0.6361154526438254
0.016,1.7936,1.0,2079.802684685201,0.16508098566734053,1.3371612539800637,0.8591445005982745,0.2883842,0.6375072985159151
0.0165,1.7931937500000001,1.0,2122.304634835011,0.16976422176331615,1.336537451227283,0.8655595132120161,0.2883671375,0.6388473977086868
0.017,1.792775,1.0,2162.601004015577,0.17442118809282023,1.3359349078716447,0.8715292725762374,0.28834955,0.6401394696213953
0.0175,1.7923437500000001,1.0,2200.776719152403,0.1790520321067344,1.3353520152531797,0.8770930004953947,0.2883314375,0.6413871998266298
0.018000000000000002,1.7919,1.0,2236.916927930023,0.1836569002158493,1.3347872626978232,0.882285847828693,0.2883128,0.6425940329569475
0.0185,1.79144375,1.0,2271.115956143428,0.18823593978195158,1.33423913585101,0.8871393436655006,0.2882936375,0.6437633930662312
0.019,1.790975,1.0,2303.448587589626,0.19278929512451856,1.3337063933481474,0.8916818804439262,0.28827395,0.6448980964240163
0.0195,1.79049375,1.0,2333.9855675836056,0.197317109296893,1.3331878983499235,0.895939030568523,0.2882537375,0.6460007155394167
0.02,1.79,1.0,2362.8034129982116,0.20181952535241765,1.332682514017026,0.8999338415910035,0.288233,0.6470738037860693
0.0205,1.78949375,1.0,2389.983820933321,0.20629668632840725,1.332189104522852,0.9036871197374399,0.2882117375,0.6481198942484239
0.021,1.788975,1.0,2415.5941171270483,0.2107487326949357,1.331706719507944,0.9072177171740193,0.28818995000000003,0.6491411104377494
0.021500000000000002,1.78844375,1.0,2439.728361758535,0.21517580904360709,1.3312341901496436,0.9105426629492607,0.2881676375,0.6501400232012429
0.022,1.7879,1.0,2462.4424438878373,0.2195780535310879,1.3307707520816354,0.9136774835626824,0.2881448,0.6511183340795577
0.0225,1.78734375,1.0,2483.79522520297,0.2239556043140448,1.3303156409376033,0.9166362832504323,0.28812143749999997,0.6520777339029984
0.023,1.786775,1.0,2503.8482967555583,0.22830859954914423,1.3298680923512312,0.9194318939463958,0.28809755,0.6530199032160703
0.0235,1.78619375,1.0,2522.665748650542,0.2326371773930528,1.3294273419562033,0.9220760076610452,0.28807313749999996,0.6539465126647663
0.024,1.7856,1.0,2540.3069012614196,0.23694147442920166,1.328992691824902,0.9245793047666102,0.2880482,0.6548590839470825
0.0245,1.78499375,1.0,2556.835133965633,0.24122162867735167,1.3285634245576374,0.9269515424383169,0.2880227375,0.6557591710553499
0.025,1.784375,1.0,2572.3090494813723,0.24547777671725168,1.328138884655107,0.9292016594924739,0.28799675,0.6566481899786428
0.025500000000000002,1.78374375,1.0,2586.773236304417,0.249710051404924,1.3277185623172354,0.931337869662503,0.2879702375,0.6575272446196565
0.026000000000000002,1.7831000000000001,1.0,2600.273564268491,0.25391858559639086,1.3273019477439483,0.9333677093491639,0.2879432,0.6583974330453373
0.0265,1.78244375,1.0,2612.8570759475588,0.2581035121476746,1.3268885311351706,0.935298102616272,0.2879156375,0.6592598476157226
0.027,1.781775,1.0,2624.5718838205344,0.26226496391479737,1.3264778026908275,0.9371354191571293,0.28788755,0.6601155750962026
0.0275,1.7810937500000001,1.0,2635.4631663599316,0.26640307252101747,1.3260692887505143,0.9388855310033472,0.2878589375,0.6609656215999162
0.028,1.7804,1.0,2645.5717541552194,0.27051796889720847,1.325662563658455,0.9405538602194536,0.2878298,0.6618108884929936
0.0285,1.77969375,1.0,2654.950119081793,0.27460978741195247,1.3252571012395757,0.9421453998915255,0.2878001375,0.6626524811646313
0.029,1.778975,1.0,2663.63017530361,0.27867865525061514,1.324852571265573,0.9436647904762013,0.28776995,0.663491093565516
0.029500000000000002,1.7782437500000001,1.0,2671.6443687300734,0.282724699598562,1.324448643508143,0.9451163262374853,0.2877392375,0.6643274162172382
0.03,1.7775,1.0,2679.025630065879,0.28674804764115885,1.3240449877389822,0.946503985503095,0.287708,0.6651621362284532
0.0305,1.77674375,1.0,2685.80733027911,0.29074882656377127,1.3236412737297865,0.947831457917192,0.2876762375,0.6659959373040862
0.031,1.775975,1.0,2692.023238486435,0.294727163551765,1.3232371712522522,0.9491021690203104,0.28764395,0.6668294997475837
0.0315,1.7751937500000001,1.0,2697.706472425142,0.29868318571922486,1.322832359310993,0.9503193035764611,0.2876111375,0.6676634814467408
0.032,1.7744,1.0,2702.8893004652364,0.3026170183633216,1.3224265275671936,0.9514858251667505,0.2875778,0.6684985150540872
0.0325,1.77359375,1.0,2707.607043071493,0.3065287858025492,1.3220193403761238,0.9526044902825183,0.2875439375,0.6693352819634124
0.033,1.772775330045076,1.0,2711.8812521629206,0.3104186110849718,1.3216107390481662,0.9536779003934986,0.2875095638618932,0.6701738919926414
0.0335,1.7719532025225597,1.0,2716.136711901974,0.31428661725865387,1.3212006648937042,0.9547084822422798,0.2874750345059475,0.6710144543107217
0.034,1.7711310750000435,1.0,2720.557716726408,0.3181329268507648,1.320789113878568,0.9556985076435822,0.28744050515000186,0.6718569656154438
0.0345,1.7703089474775275,1.0,2725.1177202280915,0.3219576622486389,1.3203763310912848,0.9566501268903937,0.28740597579405613,0.6727009135092075
0.035,1.7694868199550113,1.0,2729.7992410172515,0.32576094385293336,1.3199624785124795,0.9575653413476388,0.28737144643811047,0.6735459577300738
0.035500000000000004,1.7686646924324954,1.0,2734.586366893477,0.32954289172936496,1.3195477033940062,0.9584460226817182,0.2873369170821648,0.6743917897181642
0.036000000000000004,1.7678425649099792,1.0,2739.4660487412675,0.3333036238388553,1.3191321265526768,0.9592939210692389,0.28730238772621913,0.6752381562562702
0.0365,1.767020437387463,1.0,2744.4216582368626,0.33704326123290784,1.3187159008631064,0.960110681462783,0.28726785837027347,0.6760847402328397
0.037,1.766198309864947,1.0,2749.436735684935,0.340761925645258,1.3182991771506856,0.9608978473062846,0.28723332901432774,0.6769312303099378
0.0375,1.7653761823424308,1.0,2754.5035409361453,0.3444597325372502,1.3178820268123368,0.9616568588857297,0.2871987996583821,0.6777774777732168
0.038,1.7645540548199148,1.0,2759.6143061555226,0.34813679737022907,1.3174645212449831,0.9623890699229857,0.2871642703024364,0.6786233346642017
0.0385,1.7637319272973986,1.0,2764.7612352037613,0.35179323560553916,1.3170467318455472,0.9630957537329736,0.28712974094649074,0.6794686537820718
0.039,1.7629097997748824,1.0,2769.936503131316,0.35542916270452496,1.316628730010952,0.9637781088787557,0.2870952115905451,0.6803132886851136
0.0395,1.7620876722523664,1.0,2775.132255785743,0.359044694128531,1.31621058713812,0.9644372643704407,0.28706068223459935,0.6811570936918541
0.04,1.7612655447298502,1.0,2780.3406095320283,0.362639945338902,1.315792374623974,0.9650742844491903,0.28702615287865374,0.6819999238818614
0.0405,1.760443417207334,1.0,2785.5592634229315,0.3662150218961817,1.3153741133673191,0.9656901667681268,0.286991623522708,0.6828417366638309
0.041,1.759621289684818,1.0,2790.7774161858274,0.36977004889327464,1.3149559006006104,0.966285863189824,0.28695709416676235,0.683682336342023
0.0415,1.7587991621623018,1.0,2795.9892349531274,0.3733051420355493,1.3145377885722567,0.9668622672467823,0.2869225648108167,0.684521618495135
0.042,1.7579770346397858,1.0,2801.1925420070575,0.37682041000433375,1.3141197965403981,0.9674202195415873,0.286888035454871,0.6853595453489123
0.0425,1.7571549071172696,1.0,2806.385151738561,0.3803159614809559,1.3137019437631752,0.9679605151630399,0.28685350609892535,0.6861960793342019
0.043000000000000003,1.7563327795947534,1.0,2811.564870702648,0.3837919051467437,1.3132842494987282,0.9684839066143973,0.2868189767429796,0.687031183086794
0.043500000000000004,1.7555106520722374,1.0,2816.7294976824314,0.38724834968302524,1.3128667330051975,0.9689911065247957,0.28678444738703396,0.68786481944724
0.044,1.7546885245497212,1.0,2821.876823760353,0.3906854037711283,1.3124494135407234,0.9694827901619266,0.2867499180310883,0.6886969514606441
0.0445,1.7538663970272053,1.0,2827.004632398436,0.39410317609238105,1.3120323103634464,0.96995959776237,0.2867153886751426,0.6895275423764347
0.045,1.753044269504689,1.0,2832.110699526655,0.3975017753281113,1.3116154427315065,0.970422136694487,0.28668085931919696,0.6903565556481096
0.0455,1.7522221419821729,1.0,2837.192793638999,0.4008813101596471,1.3111988299030446,0.9708709834674307,0.28664632996325123,0.6911839549329589
0.046,1.7514000144596569,1.0,2842.2486758987916,0.40424188926831645,1.3107824911362007,0.9713066855986117,0.28661180060730557,0.6920097040917645
0.0465,1.7505778869371407,1.0,2847.278124724245,0.4075836077200957,1.310366427672029,0.9717297602048365,0.2865772712513599,0.6928338028510943
0.047,1.7497557594146247,1.0,2852.279515256112,0.4109065808158638,1.3099506532293794,0.9721407025567359,0.28654274189541423,0.6936562262840593
0.0475,1.7489336318921085,1.0,2857.2506378322087,0.4142109263173477,1.30953518667924,0.9725399844110915,0.28650821253946857,0.6944769394370156
0.048,1.7481115043695923,1.0,2862.1914680986547,0.4174967448362294,1.3091200274346093,0.9729280511703103,0.28647368318352284,0.695295945914625
0.0485,1.7472893768470763,1.0,2867.101982559228,0.42076413698419113,1.3087051749084875,0.9733053269780727,0.28643915382757723,0.6961132493135209
0.049,1.74646724932456,1.0,2871.9821585705918,0.4240132033729149,1.3082906285138731,0.9736722159299133,0.2864046244716315,0.6969288532223249
0.0495,1.745645121802044,1.0,2876.8319743392176,0.42724404461408294,1.3078763876637658,0.9740291032041799,0.28637009511568584,0.6977427612216538
0.05,1.744822994279528,1.0,2881.6514089166985,0.4304567613193772,1.3074624517711646,0.9743763561192895,0.2863355657597402,0.6985549768841336
0.0505,1.7440008667570117,1.0,2886.4404421961453,0.4336514541004799,1.307048820249069,0.9747143251227021,0.2863010364037945,0.6993655037744096
0.051000000000000004,1.7431787392344957,1.0,2891.199054908121,0.4368282235690731,1.3066354925104782,0.9750433447165995,0.28626650704784884,0.7001743454491598
0.051500000000000004,1.7423566117119795,1.0,2895.927228616581,0.4399871703368388,1.3062224679683911,0.9753637343248494,0.2862319776919031,0.7009815054571036
0.052000000000000005,1.7415344841894633,1.0,2900.6249457152962,0.4431283950154593,1.3058097460358074,0.9756757991054605,0.28619744833595745,0.7017869873390148
0.0525,1.7407123566669473,1.0,2905.292189423303,0.44625199821661654,1.3053973261257261,0.9759798307124087,0.2861629189800118,0.7025907946277324
0.053,1.7398902291444311,1.0,2909.9289437815414,0.4493580805519927,1.3049852076511466,0.9762761080104011,0.2861283896240661,0.7033929308481729
0.0535,1.7390681016219152,1.0,2914.5351936485577,0.4524467426332699,1.304573390025068,0.9765648977458663,0.28609386026812045,0.70419339951734
0.054,1.738245974099399,1.0,2919.1113468779345,0.45551803418955716,1.3041618689497458,0.9768464499204402,0.2860593309121747,0.7049922113424669
0.0545,1.7374238465768828,1.0,2923.6578007342014,0.45857210466226256,1.303750640239094,0.9771210137049806,0.28602480155622906,0.7057893767676675
0.055,1.7366017190543668,1.0,2928.174869834161,0.4616090678312348,1.3033397004503788,0.9773888242271723,0.2859902722002834,0.7065849047534262
0.0555,1.7357795915318506,1.0,2932.6629628717424,0.4646290143528082,1.3029290453314202,0.977650104504099,0.2859557428443377,0.7073788057863342
0.056,1.7349574640093346,1.0,2937.1224905699705,0.46763203488331706,1.3025186706300371,0.9779050683087758,0.28592121348839206,0.7081710903068722
0.0565,1.7341353364868184,1.0,2941.553865654464,0.4706182200790958,1.3021085720940486,0.9781539206291221,0.2858866841324464,0.7089617687094867
0.057,1.7333132089643022,1.0,2945.9575028270647,0.47358766059647883,1.301698745471274,0.9783968581005296,0.2858521547765007,0.7097508513426638
0.0575,1.7324910814417862,1.0,2950.3338187401346,0.47654044709180043,1.3012891865095324,0.9786340694137546,0.285817625420555,0.7105383485090058
0.058,1.73166895391927,1.0,2954.683231971092,0.479476670221395,1.300879890956643,0.9788657356997232,0.28578309606460933,0.7113242704653017
0.0585,1.7308468263967538,1.0,2959.006162997202,0.4823964206415969,1.300470854560425,0.9790920308927358,0.28574856670866366,0.7121086274226016
0.059000000000000004,1.7300246988742378,1.0,2963.303034171219,0.48529978900874043,1.3000620730686976,0.9793131220734399,0.285714037352718,0.7128914295462869
0.059500000000000004,1.7292025713517216,1.0,2967.574269696951,0.48818686597916,1.2996535422292799,0.9795291697928532,0.28567950799677233,0.713672686956139
0.06,1.7283804438292056,1.0,2971.8202956053215,0.49105774220918996,1.2992452577899913,0.9797403283786238,0.2856449786408266,0.7144524097264082
0.0605,1.7275583163066894,1.0,2976.041539731594,0.4939125083551647,1.2988372154986507,0.9799467462246279,0.28561044928488094,0.7152306078858832
0.061,1.7267361887841732,1.0,2980.2384316913813,0.49675125507341855,1.2984294111030774,0.9801485660649365,0.2855759199289353,0.7160072914179542
0.0615,1.7259140612616573,1.0,2984.411402858735,0.4995740730202859,1.2980218403510906,0.9803459252331117,0.2855413905729896,0.7167824702606795
0.062,1.725091933739141,1.0,2988.5608863435455,0.502381052852101,1.2976144989905096,0.9805389559077133,0.28550686121704394,0.7175561543068494
0.0625,1.724269806216625,1.0,2992.687316969983,0.5051722852251983,1.2972073827691533,0.9807277853448595,0.2854723318610982,0.7183283534040499
0.063,1.7234476786941089,1.0,2996.791131254871,0.5079478607959123,1.296800487434841,0.9809125360986095,0.28543780250515255,0.7190990773547217
0.0635,1.7226255511715927,1.0,3000.8727673867634,0.5107078702205771,1.2963938087353921,0.9810933262298934,0.2854032731492069,0.7198683359162239
0.064,1.7218034236490767,1.0,3004.932665205213,0.5134524041555272,1.2959873424186255,0.9812702695046663,0.2853687437932612,0.7206361388008908
0.0645,1.7209812961265605,1.0,3008.970573129126,0.5161815065056916,1.295581090232259,0.9814434725900952,0.28533421443731555,0.7214024843657816
0.065,1.7201591686040443,1.0,3012.987514867709,0.5188952995751077,1.2951750428888391,0.9816130432967032,0.2852996850813698,0.7221673917588393
0.0655,1.7193370410815283,1.0,3016.984254835605,0.5215938938340481,1.2947691933699432,0.9817790848557044,0.2852651557254242,0.7229308757654114
0.066,1.718514913559012,1.0,3020.961086880345,0.5242773695727694,1.2943635387437482,0.9819416949896025,0.2852306263694785,0.7236929434255672
0.0665,1.717692786036496,1.0,3024.918305998695,0.5269458070815282,1.2939580760784308,0.9821009680126044,0.2851960970135328,0.7244536017483019
0.067,1.71687065851398,1.0,3028.856208323595,0.5295992866505811,1.2935528024421676,0.9822569949737321,0.28516156765758716,0.7252128577115744
0.0675,1.7160485309914637,1.0,3032.7750911118874,0.5322378885701848,1.2931477149031356,0.9824098637929555,0.2851270383016415,0.7259707182623403
0.068,1.7152264034689477,1.0,3036.6752527322196,0.534861693130596,1.2927428105295113,0.9825596593907278,0.2850925089456958,0.7267271903165899
0.0685,1.7144042759464315,1.0,3040.556992652808,0.5374707806220711,1.2923380863894716,0.9827064638112949,0.2850579795897501,0.727482280759381
0.069,1.7135821484239155,1.0,3044.4206114301396,0.540065231334867,1.291933539551193,0.9828503563401115,0.28502345023380443,0.7282359964448725
0.0695,1.7127600209013993,1.0,3048.266410696735,0.5426451255592402,1.2915291670828524,0.9829914136156884,0.28498892087785876,0.7289883441963596
0.07,1.7119378933788831,1.0,3052.09469315006,0.5452105435854473,1.2911249660526263,0.9831297097361705,0.2849543915219131,0.7297393308063049
0.07050000000000001,1.7111157658563672,1.0,3055.905762541182,0.547761565703745,1.2907209335286918,0.9832653163609256,0.28491986216596743,0.7304889630363711
0.07100000000000001,1.710293638333851,1.0,3059.6999236637607,0.5502982722043899,1.2903170665792254,0.9833983028074138,0.2848853328100217,0.7312372476174541
