Time [s],Phi [rad],STIM [ ],Fsee [N],Gamma [ ],Lcerel [ ],q [ ],Lmtc [m],fisomrel [ ]
0.0,1.8,1.0,17.99543833708153,0.00017452050395168236,1.3793365791407148,0.00500793619615165,0.288653,0.5411471930032532
0.0005,1.79999375,1.0,18.35881265436552,0.0057827508907706965,1.3792932817864907,0.013403566443472296,0.2886527375,0.5412519336467914
0.001,1.799975,1.0,21.822714906464295,0.011359523539260657,1.3789174815520768,0.03647104322661203,0.28865195,0.54216052989232
0.0015,1.79994375,1.0,31.536614764865245,0.016905014903422985,1.3780065332984937,0.07177894924523606,0.2886506375,0.5443592499478789
0.002,1.7999,1.0,54.573507190902106,0.022419400445432745,1.376304127587309,0.1161099282489347,0.2886488,0.5484540929870994
0.0025,1.79984375,1.0,98.77112373125581,0.027902854644195653,1.3738558881074563,0.16608781258109628,0.28864643749999996,0.5543105067837536
0.003,1.7997750000000001,1.0,163.09903485410746,0.033355551001626585,1.371134473734274,0.21884041123874173,0.28864354999999997,0.5607755178762226
0.0035,1.79969375,1.0,240.0973377086154,0.03877766204344862,1.3685105643065028,0.27216385721507075,0.2886401375,0.5669641709008384
0.004,1.7996,1.0,324.03215109916977,0.04416935932959017,1.3660882803051009,0.3244171526512206,0.2886362,0.5726383004568045
0.0045000000000000005,1.7994937500000001,1.0,411.922323409891,0.04953081345949167,1.363860601945272,0.3744593990596583,0.2886317375,0.5778235406633431
0.005,1.799375,1.0,502.12067946589184,0.05486219406396738,1.361800892845563,0.4215803607015335,0.28862675,0.5825896490311018
0.0055,1.79924375,1.0,593.5202306992389,0.060163669844284194,1.3598855625678974,0.46540763362061055,0.2886212375,0.5869973911198598
0.006,1.7991000000000001,1.0,685.2490654575575,0.06543540853610967,1.3580968227744195,0.5058138730941529,0.2886152,0.5910926834147514
0.006500000000000001,1.79894375,1.0,776.5945043540987,0.07067757693358051,1.3564209772454723,0.542837496911149,0.2886086375,0.5949109916434392
0.007,1.798775,1.0,866.965609092565,0.07589034093584535,1.3548471411757048,0.576621548261875,0.28860155,0.5984805688757315
0.0075,1.79859375,1.0,955.8740248769126,0.08107386537901783,1.353366342503335,0.6073692055379722,0.2885939375,0.6018247065874225
0.008,1.7984,1.0,1042.9384966739947,0.08622831449483846,1.3519706839447043,0.6353127830733197,0.2885858,0.6049637679958453
0.0085,1.79819375,1.0,1127.8353977984789,0.09135385110924585,1.3506535709648069,0.660693637733977,0.2885771375,0.6079147741378481
0.009000000000000001,1.797975,1.0,1210.3297499385385,0.0964506374402759,1.3494088545498215,0.6837488662448176,0.28856795,0.610693406767161
0.0095,1.79774375,1.0,1290.2536351727763,0.10151883511267923,1.3482308900874589,0.7047037730207389,0.2885582375,0.6133139259850005
0.01,1.7975,1.0,1367.4628985607283,0.10655860399410264,1.3471148898053134,0.7237679869673992,0.288548,0.6157884351895573
0.0105,1.79724375,1.0,1441.8718715491905,0.1115701034331637,1.3460562674792498,0.7411333397181707,0.2885372375,0.6181283792676338
0.011,1.796975,1.0,1513.4549742812314,0.11655349288890382,1.3450505102410395,0.7569735243397693,0.28852595000000003,0.6203448513469334
0.0115,1.79669375,1.0,1582.1821829289763,0.12150892958988134,1.3440938672245724,0.7714450095281493,0.2885141375,0.6224470999312448
0.012,1.7964,1.0,1648.044587550745,0.1264365698026348,1.3431829077368276,0.7846878812892144,0.28850180000000003,0.6244435326444391
0.0125,1.79609375,1.0,1711.071878608624,0.13133656957420872,1.3423142402413624,0.7968270438173373,0.2884889375,0.6263423498978917
0.013000000000000001,1.7957750000000001,1.0,1771.3174984622208,0.136209084473508,1.34148463395932,0.8079736937151686,0.28847555,0.6281512907196085
0.0135,1.79544375,1.0,1828.834883376052,0.1410542689813015,1.3406912313269195,0.8182268016376749,0.2884616375,0.629877183982613
0.014,1.7951000000000001,1.0,1883.6699870255554,0.1458722755031865,1.3399315686309283,0.8276744325328574,0.2884472,0.6315259204340449
0.0145,1.79474375,1.0,1935.892730869352,0.15066325644476017,1.3392031821581145,0.836394825529017,0.2884322375,0.633103320197095
0.015,1.794375,1.0,1985.5791893117175,0.15542736320606607,1.338503775840876,0.8444575837442668,0.28841675,0.6346147759613201
0.0155,1.79399375,1.0,2032.828800309236,0.16016474823700388,1.3378310096489114,0.8519246152838195,0.2884007375,0.636065717218103
0.016,1.7936,1.0,2077.7128191767515,0.1648755607018166,1.3371830212412918,0.8588512019987872,0.2883842,0.6374604916664366
0.0165,1.7931937500000001,1.0,2120.3024190725455,0.16955994873026192,1.3365580953703042,0.8652866774488711,0.2883671375,0.6388030881400293
0.017,1.792775,1.0,2160.681195096775,0.17421806045209753,1.3359545167882347,0.8712750873897726,0.28834955,0.6400974574285195
0.0175,1.7923437500000001,1.0,2198.9393652601852,0.1788500434800371,1.3353706182483356,0.8768558277146878,0.2883314375,0.6413474120399527
0.018000000000000002,1.7919,1.0,2235.1676402339726,0.1834560450640285,1.334804830143606,0.882064204116707,0.2883128,0.6425565233179565
0.0185,1.79144375,1.0,2269.4538908302025,0.18803621184401678,1.3342557009978044,0.8869319131935394,0.2882936375,0.6437280814747015
0.019,1.790975,1.0,2301.8658951760212,0.19259068736554227,1.3337220561428982,0.8914874963320973,0.28827395,0.644864761619121
0.0195,1.79049375,1.0,2332.4778680645204,0.1971196151741451,1.3332027209108535,0.8957566332267606,0.2882537375,0.6459692180408287
0.02,1.79,1.0,2361.369925952623,0.20162313881536553,1.332696520633637,0.8997624667437444,0.288233,0.6470440853261223
0.0205,1.78949375,1.0,2388.6173601413625,0.20610140036978639,1.3322023799701275,0.9035259091945487,0.2882117375,0.6480917689482879
0.021,1.788975,1.0,2414.307241633112,0.21055454370947807,1.3317191551948653,0.907065854307166,0.28818995000000003,0.649114802540832
0.021500000000000002,1.78844375,1.0,2438.509393488959,0.21498270972442804,1.33124591111274,0.9103994547319668,0.2881676375,0.6501152626629172
0.022,1.7879,1.0,2461.282238035182,0.21938603705316684,1.3307818563653766,0.9135422957253,0.2881448,0.651094909118225
0.0225,1.78734375,1.0,2482.687248194192,0.22376466433422515,1.3303261995944002,0.9165085340831823,0.28812143749999997,0.6520554906298484
0.023,1.786775,1.0,2502.7886941463826,0.22811873020613355,1.3298781494414367,0.9193110488390256,0.28809755,0.6529987452840982
0.0235,1.78619375,1.0,2521.653049694022,0.23244837322953305,1.329436917897556,0.9219615748692143,0.28807313749999996,0.6539263938971904
0.024,1.7856,1.0,2539.3353769837126,0.23675372885142615,1.3290018464269686,0.9244708417711808,0.2880482,0.6548398757896855
0.0245,1.78499375,1.0,2555.9135559743927,0.24103493774302243,1.3285720803583558,0.9268486215587464,0.2880227375,0.6557410331919074
0.025,1.784375,1.0,2571.432049006509,0.24529213327822408,1.3281470969144418,0.9291039102991562,0.28799675,0.6566310037838774
0.025500000000000002,1.78374375,1.0,2585.9367412747365,0.24952544883093328,1.3277263733179498,0.9312449506034828,0.2879702375,0.6575109191067086
0.026000000000000002,1.7831000000000001,1.0,2599.474822991797,0.2537350177750522,1.3273093867916037,0.933279304959824,0.2879432,0.658381904713343
0.0265,1.78244375,1.0,2612.0946776113365,0.257920973484483,1.326895614558127,0.9352139210350963,0.2879156375,0.6592450803018638
0.027,1.781775,1.0,2623.8457761106715,0.26208344933312794,1.3264845338402436,0.9370551899104063,0.28788755,0.660101559831374
0.0275,1.7810937500000001,1.0,2634.7693554210105,0.26622257462828897,1.326075707177887,0.938809009259132,0.2878589375,0.6609522741978344
0.028,1.7804,1.0,2644.921808534404,0.2703384860998456,1.3256685647645314,0.9404808012014659,0.2878298,0.6617984245032213
0.0285,1.77969375,1.0,2654.337685308677,0.27443131230381285,1.3252627459721915,0.9420755988515751,0.2878001375,0.6626407719471608
0.029,1.778975,1.0,2663.0502122518988,0.2785011809959306,1.324857907985156,0.9435980565382134,0.28776995,0.6634800370520025
0.029500000000000002,1.7782437500000001,1.0,2671.093162183623,0.28254821993193874,1.324453707987714,0.9450524811719117,0.2877392375,0.6643169367762223
0.03,1.7775,1.0,2678.50080517575,0.28657255686757716,1.324049803164154,0.9464428626253517,0.287708,0.6651521845321204
0.0305,1.77674375,1.0,2685.3078620986144,0.2905743195585858,1.3236458506987658,0.9477729010960644,0.2876762375,0.6659864901960211
0.031,1.775975,1.0,2691.54946077309,0.29455363576070465,1.323241507775838,0.9490460317840107,0.28764395,0.6668205601109787
0.0315,1.7751937500000001,1.0,2697.2485079936287,0.298510624955022,1.322836546670153,0.9502654589335326,0.2876111375,0.6676548601214608
0.032,1.7744,1.0,2702.452306243557,0.3024454244413688,1.3224305193462735,0.9514341418542036,0.2875778,0.6684903067413659
0.0325,1.77359375,1.0,2707.184443476228,0.3063581569470619,1.3220231972957102,0.9525548582314285,0.2875439375,0.6693273609803831
0.033,1.772775,1.0,2711.4664065114653,0.31024894368022793,1.3216143731597882,0.9536301990561157,0.28750955,0.6701664380645296
0.0335,1.7719437500000002,1.0,2715.319872088381,0.31411790584899324,1.3212038395798338,0.9546625815267731,0.2874746375,0.6710079510177691
0.034,1.7711000000000001,1.0,2718.766688294467,0.3179651646614844,1.3207913891971719,0.9556542627762642,0.2874392,0.67185231064078
0.0345,1.7702437500000001,1.0,2721.8288569482015,0.32179084132582786,1.320376814653128,0.956607352359928,0.2874032375,0.6726999254869745
0.035,1.7693750000000001,1.0,2724.5285169343274,0.32559505705015007,1.3199599085890283,0.95752382362985,0.28736675,0.6735512018357801
0.035500000000000004,1.76849375,1.0,2726.8879284932664,0.3293779330425776,1.3195404636461978,0.958405524106292,0.2873297375,0.674406543663179
0.036000000000000004,1.7676,1.0,2728.929458463172,0.333139590511237,1.3191182724659622,0.9592541849451194,0.2872922,0.6752663526095022
0.0365,1.76669375,1.0,2730.663913130018,0.3368801432085667,1.3186932335914672,0.960071438651848,0.2872541375,0.6761308127009392
0.037,1.765775,1.0,2732.1181321445465,0.3405997173805284,1.318265100511694,0.9608588056271355,0.28721555,0.6770004011361009
0.0375,1.76484375,1.0,2733.3131599246785,0.3442984333813181,1.317833680037421,0.9616177178632463,0.2871764375,0.677875484164127
0.038,1.7639,1.0,2734.2613103496874,0.34797640533443397,1.3173988587913512,0.9623495277601303,0.28713679999999997,0.6787562641516196
0.0385,1.76294375,1.0,2734.9749406198885,0.35163374736337405,1.3169605233961874,0.9630555074548005,0.28709663750000003,0.6796429419911191
0.039,1.761975,1.0,2735.4664457571157,0.35527057359163666,1.3165185604746328,0.9637368544549363,0.28705595,0.6805357170761042
0.0395,1.7609937500000001,1.0,2735.7482533908933,0.35888699814271996,1.31607285664939,0.9643946968185435,0.2870147375,0.6814347872751727
0.04,1.76,1.0,2735.832818828622,0.36248313514012204,1.3156232985431622,0.9650300979207217,0.286973,0.6823403489054016
0.0405,1.7589937500000001,1.0,2735.7326204115234,0.3660590987073411,1.3151697727786524,0.9656440608444922,0.2869307375,0.6832525967048871
0.041,1.757975,1.0,2735.4601551553565,0.36961500296787536,1.3147121659785632,0.9662375324289866,0.28688795,0.6841717238044684
0.0415,1.75694375,1.0,2735.0279346757416,0.37315096204522297,1.314250364765598,0.9668114070050382,0.2868446375,0.6850979216986242
0.042,1.7559,1.0,2734.4335510799956,0.3766670887215255,1.313784391350753,0.9673665409952629,0.28680079999999997,0.6860311088795839
0.0425,1.75484375,1.0,2733.7198410721403,0.38016349372134983,1.313313857143995,0.9679037100083884,0.2867564375,0.6869720246222968
0.043000000000000003,1.753775,1.0,2732.88424402378,0.38364028694068164,1.3128387858307375,0.9684236816068249,0.28671155,0.6879205806120853
0.043500000000000004,1.7526987156495655,1.0,2732.1507271283817,0.38709757773323866,1.312359385639577,0.968927197213205,0.28666634605728175,0.6888763207999555
0.044,1.751622357518311,1.0,2731.8671549524342,0.3905354754527386,1.3118758647991093,0.9694149591238309,0.2866211390157691,0.6898387913131623
0.0445,1.7505459993870562,1.0,2732.0147352512395,0.3939540890492876,1.3113884267288094,0.9698876325325864,0.28657593197425635,0.6908075500617248
0.045,1.7494696412558017,1.0,2732.555025071384,0.3973535273564741,1.310897420981358,0.9703458594496667,0.2865307249327437,0.691781867433483
0.0455,1.748393283124547,1.0,2733.4525729768243,0.40073389807484155,1.3104031706207955,0.9707902468433895,0.286485517891231,0.6927610703716751
0.046,1.7473169249932923,1.0,2734.6805002327314,0.4040953073529219,1.30990592133039,0.9712213649623961,0.28644031084971827,0.6937446426159506
0.0465,1.7462405668620378,1.0,2736.2119670271227,0.4074378613392467,1.3094059187934106,0.9716397555089099,0.2863951038082056,0.6947320708405784
0.047,1.745164208730783,1.0,2738.0204555663386,0.4107616660500892,1.308903405981713,0.9720459331318191,0.28634989676669287,0.6957228500411256
0.0475,1.7440878505995285,1.0,2740.0854797592106,0.4140668251262351,1.3083985712323005,0.972440383031082,0.2863046897251802,0.6967165856564913
0.048,1.7430114924682738,1.0,2742.37601286506,0.41735344755810894,1.307891698527096,0.9728235743014938,0.2862594826836675,0.6977126976342467
0.0485,1.741935134337019,1.0,2744.8764666498564,0.4206216355631897,1.3073829317122547,0.9731959428772691,0.2862142756421548,0.698710884221873
0.049,1.7408587762057646,1.0,2747.571249077107,0.4238714913589564,1.306872414633932,0.9735579039940983,0.2861690686006421,0.6997108454615439
0.0495,1.7397824180745098,1.0,2750.4447584957284,0.42710311716288807,1.3063602911382821,0.9739098533646721,0.2861238615591294,0.7007122832068464
0.05,1.7387060599432553,1.0,2753.4813782878923,0.4303166151924637,1.3058467050714608,0.9742521682772425,0.2860786545176167,0.7017149011381725
0.0505,1.7376297018120006,1.0,2756.6654719747607,0.43351208766516236,1.3053318002796228,0.9745852086229051,0.28603344747610404,0.7027184047768003
0.051000000000000004,1.7365533436807459,1.0,2759.9859237706705,0.43668963284607837,1.304815679525465,0.9749093147295524,0.2859882404345913,0.703722581362975
0.051500000000000004,1.7354769855494914,1.0,2763.428010983097,0.4398493536316067,1.3042984780020908,0.975224814153241,0.28594303339307864,0.7047271565229946
0.052000000000000005,1.7344006274182366,1.0,2766.9739735117028,0.4429913564286349,1.303780358063565,0.9755320218820646,0.2858978263515659,0.7057318050215953
0.0525,1.7333242692869821,1.0,2770.6167947893823,0.44611573804187526,1.3032613847776497,0.9758312317552774,0.28585261931005324,0.7067363919092546
0.053,1.7322479111557274,1.0,2774.349444376534,0.4492225952760403,1.3027416232121074,0.9761227247175818,0.28580741226854056,0.7077407830832219
0.0535,1.7311715530244727,1.0,2778.164876777243,0.45231202493584216,1.3022211384346996,0.9764067694973373,0.28576220522702783,0.7087448452909253
0.054,1.7300951948932182,1.0,2782.0560303490365,0.45538412382599336,1.3016999955131885,0.9766836232435454,0.28571699818551516,0.7097484461331061
0.0545,1.7290188367619634,1.0,2786.0158263060157,0.45843898875120614,1.3011782595153363,0.9769535321244381,0.28567179114400243,0.7107514540666862
0.055,1.7279424786307087,1.0,2790.037167817079,0.46147671651619293,1.3006559955089048,0.9772167318902911,0.28562658410248976,0.7117537384073643
0.0555,1.7268661204994542,1.0,2794.112939196527,0.46449740392566596,1.300133268561656,0.9774734484028779,0.2855813770609771,0.7127551693319416
0.056,1.7257897623681995,1.0,2798.2360051895953,0.4675011477843377,1.2996101437413519,0.9777238981338071,0.2855361700194644,0.7137556178803779
0.0565,1.724713404236945,1.0,2802.4021893996796,0.47048803844954923,1.2990866593918577,0.9779682865007279,0.2854909629779517,0.7147550069318204
0.057,1.7236370461056902,1.0,2806.6068382128988,0.4734581712193893,1.2985628580290833,0.9782068112272259,0.285445755936439,0.715753251930821
0.0575,1.7225606879744355,1.0,2810.8404915178617,0.4764116527139225,1.2980388251005992,0.9784396654624489,0.2854005488949263,0.7167501872852502
0.058,1.721484329843181,1.0,2815.1007343373085,0.47934857316877205,1.2975145827442855,0.9786670296064116,0.2853553418534136,0.7177457686686661
0.0585,1.7204079717119263,1.0,2819.385144518042,0.48226902281956124,1.2969901530980232,0.9788890768912795,0.28531013481190093,0.7187399520497855
0.059000000000000004,1.7193316135806715,1.0,2823.6912926337377,0.48517309190191327,1.296465558299693,0.9791059737235709,0.2852649277703882,0.7197326936927659
0.059500000000000004,1.718255255449417,1.0,2828.016741898745,0.4880608706514515,1.2959408204871747,0.9793178800074301,0.2852197207288755,0.7207239501574547
0.06,1.7171788973181623,1.0,2832.3590480919265,0.4909324493037989,1.2954159617983494,0.9795249494501589,0.2851745136873628,0.7217136782996052
0.0605,1.7161025391869078,1.0,2836.715759492298,0.4937879180945791,1.2948910043710977,0.9797273298511072,0.2851293066458501,0.7227018352710626
0.061,1.715026181055653,1.0,2841.08441682496,0.4966273672594151,1.2943659703433001,0.9799251633749558,0.28508409960433745,0.7236883785199214
0.0615,1.7139498229243983,1.0,2845.4625532180385,0.4994508870339302,1.2938408818528369,0.9801185868103414,0.2850388925628247,0.7246732657906478
0.062,1.7128734647931438,1.0,2849.847694170783,0.5022585676537477,1.293315761037589,0.9803077318147226,0.28499368552131205,0.725656455124171
0.0625,1.7117971066618891,1.0,2854.2373575317365,0.5050504993544908,1.2927906300354366,0.9804927251463111,0.2849484784797993,0.7266379048579468
0.063,1.7107207485306346,1.0,2858.6290534890354,0.5078267723717828,1.2922655109842605,0.9806736888838478,0.28490327143828664,0.7276175736259858
0.0635,1.7096443903993799,1.0,2863.024662490793,0.5105874477344365,1.2917403871673019,0.9808507365272763,0.28485806439677397,0.7285954926513801
0.064,1.7085680322681251,1.0,2867.418580031966,0.5133326487797012,1.291215308298105,0.9810239853276362,0.28481285735526124,0.7295715695562488
0.0645,1.7074916741368706,1.0,2871.8094394281206,0.5160624642215267,1.2906902863843344,0.9811935439192958,0.28476765031374857,0.7305457825312298
0.065,1.706415316005616,1.0,2876.1966844788244,0.5187769766306323,1.2901653262204509,0.9813595162637738,0.28472244327223584,0.731518123276082
0.0655,1.7053389578743614,1.0,2880.5797573554896,0.5214762685777377,1.2896404326009163,0.9815220026403262,0.28467723623072316,0.7324885835547004
0.066,1.7042625997431067,1.0,2884.9580986078186,0.5241604226335624,1.289115610320192,0.9816810998031269,0.2846320291892105,0.7334571551950986
0.0665,1.703186241611852,1.0,2889.3311471712695,0.526829521368826,1.2885908641727395,0.9818369011306626,0.28458682214769776,0.7344238300893859
0.067,1.7021098834805974,1.0,2893.6983403751638,0.529483647354248,1.2880661989530204,0.9819894967677704,0.2845416151061851,0.7353886001937464
0.0675,1.7010335253493427,1.0,2898.0591139505937,0.532122883160548,1.2875416194554958,0.9821389737607383,0.28449640806467236,0.7363514575284147
0.068,1.6999571672180882,1.0,2902.412902039653,0.5347473113584456,1.2870171304746274,0.9822854161858497,0.2844512010231597,0.7373123941776489
0.0685,1.6988808090868335,1.0,2906.759137204433,0.5373570145186601,1.2864927368048766,0.982428905271732,0.284405993981647,0.7382714022897057
0.069,1.6978044509555787,1.0,2911.0972504372007,0.5399520752119112,1.2859684432407048,0.9825695195158536,0.28436078694013434,0.7392284740768107
0.0695,1.6967280928243242,1.0,2915.426671170619,0.5425325760089186,1.2854442545765736,0.9827073347954811,0.2843155798986216,0.7401836018151282
0.07,1.6956517346930695,1.0,2919.7468272889464,0.5450985994804015,1.2849201756069442,0.9828424244734034,0.28427037285710893,0.7411367778447324
0.07050000000000001,1.6945753765618148,1.0,2924.057145138831,0.5476502281970798,1.2843962111262783,0.9829748594986976,0.2842251658155962,0.7420879945695706
0.07100000000000001,1.6934990184305603,1.0,2928.357049542011,0.5501875447296728,1.2838723659290372,0.9831047085028021,0.28417995877408353,0.7430372444574325
0.07150000000000001,1.6924226602993055,1.0,2932.6459638070214,0.5527106316489001,1.2833486448096822,0.9832320378911495,0.28413475173257086,0.7439845200399124
0.07200000000000001,1.691346302168051,1.0,2936.924289134542,0.5552195355570327,1.2828250439804947,0.9833569094377902,0.2840895446910581,0.744929829392319
