Time [s],Phi [rad],STIM [ ],Fsee [N],Gamma [ ],Lcerel [ ],q [ ],Lmtc [m],fisomrel [ ]
0.0,1.8,1.0,18.100209100171387,0.0003722992686303664,1.3793248675598258,0.005035898982054375,0.288653,0.5411755256719409
0.0005,1.79999375,1.0,18.52537676426659,0.005979420272999563,1.3792748628398612,0.01397688015847693,0.2886527375,0.5412964873016723
0.001,1.799975,1.0,22.13593959374023,0.011555089761775678,1.3788857538279242,0.03752147853493188,0.28865195,0.5422371988081812
0.0015,1.79994375,1.0,32.17423615118044,0.017099484154103936,1.377952884007613,0.07320383501650077,0.2886506375,0.544488576117117
0.002,1.7999,1.0,55.85248143752508,0.02261277887726406,1.3762223873658068,0.11778907401598887,0.2886488,0.5486502399386888
0.0025,1.79984375,1.0,100.84237070980595,0.02809514837602456,1.3737574314335532,0.16790925521471825,0.28864643749999996,0.5545452246434719
0.003,1.7997750000000001,1.0,165.7439129710714,0.03354676611762314,1.3710365208373079,0.2207160453291625,0.28864354999999997,0.5610073348372002
0.0035,1.79969375,1.0,243.05819463693572,0.03896780459376984,1.3684200997707978,0.27402695705918756,0.2886401375,0.5671767540971793
0.004,1.7996,1.0,327.16621911776525,0.04435843533051433,1.366005799023852,0.3262194153195334,0.2886362,0.5728308516610701
0.0045000000000000005,1.7994937500000001,1.0,415.157138739157,0.04971882889378798,1.3637850615800033,0.3761690171117083,0.2886317375,0.5779988168725548
0.005,1.799375,1.0,505.4125213402371,0.05504915488056465,1.3617312442701612,0.4231790365303846,0.28862675,0.5827503409399265
0.0055,1.79924375,1.0,596.8360187491927,0.060349581958132774,1.3598210192806015,0.4668872168349454,0.2886212375,0.587145516849072
0.006,1.7991000000000001,1.0,688.5632520811711,0.06562027783034069,1.3580367723682834,0.5071732699653551,0.2886152,0.5912298138778764
0.006500000000000001,1.79894375,1.0,779.8841268117334,0.0708614092492214,1.3563649786550922,0.5440802520494952,0.2886086375,0.5950382716459046
0.007,1.798775,1.0,870.2136441524221,0.07607314211153213,1.3547948051238476,0.5777539648476663,0.28860155,0.5985989995444227
0.0075,1.79859375,1.0,959.0635587019163,0.08125564116402989,1.353317392533643,0.6083991046345151,0.2885939375,0.601935013179935
0.008,1.7984,1.0,1046.0597044973206,0.08640907066474023,1.3519248216109092,0.6362485541717594,0.2885858,0.605066708973628
0.0085,1.79819375,1.0,1130.882417201687,0.09153359341488132,1.350610513673445,0.6615437038018442,0.2885771375,0.6080110577220761
0.009000000000000001,1.797975,1.0,1213.2874538666385,0.09662937147153756,1.3493685062590857,0.6845214368063594,0.28856795,0.6107833126093598
0.0095,1.79774375,1.0,1293.11835583245,0.10169656657290632,1.3481930378767104,0.7054064745770067,0.2885582375,0.6133979858870782
0.01,1.7975,1.0,1370.2369887474729,0.10673533862329501,1.3470792832395135,0.7244078192540933,0.288548,0.6158672549296733
0.0105,1.79724375,1.0,1444.553972403851,0.11174584694424444,1.3460227402761649,0.7417167091833269,0.2885372375,0.618202369935503
0.011,1.796975,1.0,1516.0346795846772,0.11672825029568067,1.3450190336439534,0.7575062699979085,0.28852595000000003,0.620414114870512
0.0115,1.79669375,1.0,1584.6656604277543,0.12168270669445366,1.3440642292145852,0.7719322820067284,0.2885141375,0.6225121370375426
0.012,1.7964,1.0,1650.4348066880866,0.1266093722216062,1.3431549576451982,0.7851343051990939,0.28850180000000003,0.6245047035826602
0.0125,1.79609375,1.0,1713.367364015818,0.13150840268229053,1.3422878962118707,0.797236765634412,0.2884889375,0.6263998600346035
0.013000000000000001,1.7957750000000001,1.0,1773.5170711223568,0.13637995358529215,1.3414598230475951,0.8083504035425612,0.28847555,0.6282053228453603
0.0135,1.79544375,1.0,1830.9441272812314,0.1412241798069849,1.3406678159169665,0.8185737536706125,0.2884616375,0.6299280586682521
0.014,1.7951000000000001,1.0,1885.6910942903444,0.14604123347578124,1.33990946020191,0.8279945353102969,0.2884472,0.6315738484223412
0.0145,1.79474375,1.0,1937.8241541944876,0.15083126672009353,1.3391823412843515,0.8366906807488165,0.2884322375,0.633148403574189
0.015,1.794375,1.0,1987.4271394620216,0.15559443134664674,1.3384840864168979,0.8447314793257503,0.28841675,0.6346572807478253
0.0155,1.79399375,1.0,2034.5869119000693,0.16033087846334265,1.3378124961057802,0.8521786319892568,0.2884007375,0.6361056041925454
0.016,1.7936,1.0,2079.3948674453295,0.16504075905640653,1.3371655007935024,0.8590871310009036,0.2883842,0.6374981666921771
0.0165,1.7931937500000001,1.0,2121.9161654142276,0.1697242207950398,1.3365414558373028,0.8655061378447966,0.2883671375,0.6388388026240714
0.017,1.792775,1.0,2162.2280446998084,0.17438141134844387,1.335938716594421,0.871479546069447,0.28834955,0.6401313096074404
0.0175,1.7923437500000001,1.0,2200.4188110442456,0.17901247838582024,1.335355638422096,0.8770466038521775,0.2883314375,0.6413794508243256
0.018000000000000002,1.7919,1.0,2236.5724612585877,0.18361756812713642,1.3347907215052193,0.8822424978609799,0.2883128,0.642586647940098
0.0185,1.79144375,1.0,2270.7880367350404,0.18819682842856753,1.3342424036137992,0.8870987740967976,0.2882936375,0.6437564273803258
0.019,1.790975,1.0,2303.138159396838,0.19275040332233956,1.333709465013548,0.891643857049307,0.28827395,0.6448915591848585
0.0195,1.79049375,1.0,2333.6926933881346,0.1972784357868835,1.3331907772926708,0.895903344416761,0.2882537375,0.6459945979818427
0.02,1.79,1.0,2362.527253955328,0.20178106880063035,1.3326852120393733,0.8999003061563533,0.288233,0.6470680793696341
0.0205,1.78949375,1.0,2389.7227237917446,0.20625844534201113,1.3321916408418608,0.9036555681480369,0.2882117375,0.6481145209017607
0.021,1.788975,1.0,2415.3497561230083,0.2107107062992885,1.3317090806291458,0.9071879915366142,0.28818995000000003,0.6491361155234912
0.021500000000000002,1.78844375,1.0,2439.4964848931195,0.21513799557198535,1.3312364195310817,0.9105146318067139,0.2881676375,0.6501353136997106
0.022,1.7879,1.0,2462.22379070157,0.21954045212872925,1.3307728446024443,0.9136510181158032,0.2881448,0.6511139198775742
0.0225,1.78734375,1.0,2483.589501528089,0.2239182139764624,1.3303176012385554,0.9166112682488624,0.28812143749999997,0.6520736043112461
0.023,1.786775,1.0,2503.6541581891443,0.2282714191221268,1.3298699348347376,0.9194082262499287,0.28809755,0.6530160270794834
0.0235,1.78619375,1.0,2522.480786810016,0.23260020557266461,1.3294290907863129,0.922053594967781,0.28807313749999996,0.6539428384684414
0.024,1.7856,1.0,2540.129615005087,0.2369047103811491,1.3289943622497087,0.9245580614269809,0.2880482,0.6548555791068478
0.0245,1.78499375,1.0,2556.6595259255173,0.2411850702025145,1.328565073812862,0.9269313968269591,0.2880227375,0.6557557151477951
0.025,1.784375,1.0,2572.1395276480953,0.24544142309942465,1.3281404719535896,0.9291825298569613,0.28799675,0.6566448681953937
0.025500000000000002,1.78374375,1.0,2586.612561324241,0.2496739017836269,1.3277200625657233,0.9313196835827446,0.2879702375,0.6575241090303521
0.026000000000000002,1.7831000000000001,1.0,2600.1228269371586,0.2538826389668685,1.327303351543095,0.9333504028159861,0.2879432,0.6583945027699527
0.0265,1.78244375,1.0,2612.7156782359616,0.2580677673608969,1.3268898447795363,0.9352816192092925,0.2879156375,0.6592571089923809
0.027,1.781775,1.0,2624.4375230832748,0.2622294196774595,1.326479048168879,0.9371197093105028,0.28788755,0.6601129818454807
0.0275,1.7810937500000001,1.0,2635.3357292155565,0.26636772862830355,1.3260704676049555,0.9388705464133305,0.2878589375,0.6609631701399415
0.028,1.7804,1.0,2645.4532227874734,0.2704828227880205,1.3256636580324532,0.9405395524618969,0.2878298,0.6618086155514074
0.0285,1.77969375,1.0,2654.837941012117,0.2745748379909986,1.325258135123411,0.9421317308397766,0.2878001375,0.6626503365307428
0.029,1.778975,1.0,2663.522638023647,0.2786439015060783,1.3248535607611236,0.9436517237974459,0.28776995,0.663489043561285
0.029500000000000002,1.7782437500000001,1.0,2671.540520738779,0.28269014054161473,1.3244495976223778,0.9451038273270213,0.2877392375,0.6643254419728226
0.03,1.7775,1.0,2678.925286581376,0.28671368230596267,1.3240459083839609,0.9464920213405539,0.287708,0.6651602336084619
0.0305,1.77674375,1.0,2685.711077952873,0.29071465400747726,1.3236421557226599,0.9478199969369027,0.2876762375,0.6659941168341506
0.031,1.775975,1.0,2691.932439225273,0.29469318285451335,1.3232380023152623,0.9490911809941794,0.28764395,0.666827786540939
0.0315,1.7751937500000001,1.0,2697.6176713669456,0.29864939175666033,1.3228331712282009,0.9503087645572073,0.2876111375,0.6676618098046656
0.032,1.7744,1.0,2702.794067967474,0.3025834052062786,1.322427397453009,0.9514757182041036,0.2875778,0.6684967263127533
0.0325,1.77359375,1.0,2707.5064048162744,0.3064953603881738,1.3220202588391858,0.9525947931131835,0.2875439375,0.6693333957179329
0.033,1.772775,1.0,2711.774502175233,0.3103853774929386,1.3216115634690906,0.95366857579575,0.28750955,0.6701722010298696
0.0335,1.7719437500000002,1.0,2715.6183613198473,0.3142535767111655,1.321201119425082,0.9546994793393341,0.2874746375,0.6710135232145227
0.034,1.7711000000000001,1.0,2719.0581475502768,0.3181000782334472,1.320788734789519,0.9556897570995389,0.2874392,0.6718577411739146
0.0345,1.7702437500000001,1.0,2722.114174020348,0.3219250022503763,1.3203742176447608,0.9566415151570214,0.2874032375,0.6727052317235569
0.035,1.7693750000000001,1.0,2724.8068863820176,0.32572846895254537,1.3199573760731664,0.9575567236639587,0.28736675,0.6735563695675202
0.035500000000000004,1.76849375,1.0,2727.1568482473845,0.329510598530547,1.3195380181570946,0.9584372271906045,0.2873297375,0.6744115272711617
0.036000000000000004,1.7676,1.0,2729.1847274667357,0.3332715111749738,1.3191159519789042,0.9592847541704521,0.2872922,0.6752710752314979
0.0365,1.76669375,1.0,2730.911283223358,0.33701132707641823,1.3186909856209545,0.9601009255318407,0.2872541375,0.6761353816452313
0.037,1.765775,1.0,2732.3573539452036,0.3407301664254732,1.3182629271656046,0.9608872625944441,0.28721555,0.6770048124744295
0.0375,1.76484375,1.0,2733.5332612501306,0.34442814202462013,1.3178316808357917,0.9616452021221976,0.2871764375,0.6778795365341053
0.038,1.7639,1.0,2734.461476461646,0.34810537750674014,1.3173970409751288,0.9623760863315153,0.28713679999999997,0.6787599438145167
0.0385,1.76294375,1.0,2735.1616545443435,0.35176199249294415,1.316958827965664,0.9630811794568512,0.28709663750000003,0.6796463691793131
0.039,1.761975,1.0,2735.644644403987,0.35539809974854525,1.3165169425100476,0.9637616777076599,0.28705595,0.6805389831125359
0.0395,1.7609937500000001,1.0,2735.9213255838627,0.3590138120388564,1.3160712853109287,0.9644187079468108,0.2870147375,0.6814379547254386
0.04,1.76,1.0,2736.0026040305197,0.36260924212919077,1.3156217570709574,0.9650533324484265,0.286973,0.6823434517329131
0.0405,1.7589937500000001,1.0,2735.8994080790685,0.3661845027848613,1.315168258492783,0.9656665532806836,0.2869307375,0.683255640429293
0.041,1.757975,1.0,2735.6226846562727,0.3697397067711812,1.3147106902790555,0.9662593163467825,0.28688795,0.6841746856635217
0.0415,1.75694375,1.0,2735.183395702642,0.3732749668534633,1.3142489531324246,0.9668325151140377,0.2868446375,0.6851007508136964
0.042,1.7559,1.0,2734.5925148133665,0.3767903957970208,1.3137829477555398,0.9673869940581454,0.28680079999999997,0.6860339977609827
0.0425,1.75484375,1.0,2733.861024097535,0.38028610636716675,1.3133125748510508,0.9679235518470929,0.2867564375,0.6869745868628976
0.043000000000000003,1.7537773353152333,1.0,2733.1305980364486,0.38376220556373053,1.312837602661695,0.9684429326086791,0.2867116480832398,0.6879229412017966
0.043500000000000004,1.752709976184348,1.0,2732.8188128367624,0.3872188075677595,1.3123584017133063,0.9689458903886476,0.2866668189997426,0.6888782808645051
0.044,1.751642617053463,1.0,2732.9186946933382,0.390656026610673,1.3118754612288306,0.9694331486981015,0.28662198991624543,0.6898395940156383
0.0445,1.7505752579225777,1.0,2733.405199844651,0.39407396863098354,1.3113890088883942,0.9699053715740367,0.28657716083274826,0.6908063939524987
0.045,1.7495078987916926,1.0,2734.253361299792,0.39747273956720325,1.3108992723721231,0.9703631887824115,0.2865323317492511,0.6917781965512896
0.0455,1.7484405396608076,1.0,2735.43827168508,0.4008524453578444,1.3104064793601435,0.9708071979262897,0.2864875026657539,0.6927545203164567
0.046,1.7473731805299224,1.0,2736.9350672402693,0.40421319194141936,1.3099108575325813,0.971237966404905,0.2864426735822567,0.6937348864267223
0.0465,1.7463058213990372,1.0,2738.718912963885,0.4075550852564404,1.309412634569563,0.9716560332354993,0.28639784449875955,0.6947188187778128
0.047,1.745238462268152,1.0,2740.764988908165,0.41087823124141976,1.3089120381512143,0.9720619107487535,0.28635301541526237,0.6957058440218837
0.0475,1.7441711031372669,1.0,2743.048477622927,0.41418273583486975,1.3084092959576616,0.9724560861676782,0.2863081863317652,0.6966954916036335
0.048,1.7431037440063817,1.0,2745.5445527493052,0.4174687049753027,1.3079046356690311,0.9728390230789843,0.286263357248268,0.6976872937931161
0.0485,1.7420363848754965,1.0,2748.231535593262,0.42073624302035856,1.3073982562784092,0.9732111606142584,0.28621852816477084,0.6986808419546985
0.049,1.7409690257446113,1.0,2751.094026129916,0.4239854537132385,1.306890299736035,0.9735729130476373,0.28617369908127366,0.6996758416069089
0.0495,1.7399016666137261,1.0,2754.115663999838,0.42721644096328887,1.3063809165459184,0.9739246757786676,0.2861288699977765,0.700671983343377
0.05,1.7388343074828412,1.0,2757.284850627529,0.4304293054222203,1.3058702139492142,0.9742668225225799,0.2860840409142793,0.7016690440646107
0.0505,1.737766948351956,1.0,2760.589972402713,0.4336241477417433,1.305358299187077,0.9745997097843669,0.2860392118307822,0.7026668020330855
0.051000000000000004,1.7366995892210708,1.0,2764.019397670152,0.4368010685735685,1.3048452795006613,0.9749236778076092,0.28599438274728495,0.7036650368818995
0.051500000000000004,1.7356322300901856,1.0,2767.5614739759,0.43996016856940645,1.304331262131122,0.9752390514629283,0.2859495536637878,0.7046635296226986
0.052000000000000005,1.7345648709593005,1.0,2771.2045255666612,0.44310154838096766,1.3038163543196135,0.9755461410804105,0.2859047245802906,0.7056620626528669
0.0525,1.7334975118284153,1.0,2774.943355159938,0.4462253011115456,1.3033006046743005,0.9758452387377621,0.28585989549679347,0.7066605331766699
0.053,1.73243015269753,1.0,2778.761840532868,0.4493315347911408,1.3027841601358727,0.9761366313850484,0.28581506641329624,0.7076586491416269
0.0535,1.7313627935666451,1.0,2782.649826995868,0.45242035074119086,1.302267113552621,0.9764205894399226,0.2857702373297991,0.7086562246956856
0.054,1.73029543443576,1.0,2786.60234263259,0.4554918440114448,1.3017495109132595,0.9766973681760528,0.2857254082463019,0.7096531653814052
0.0545,1.7292280753048748,1.0,2790.614403194605,0.4585461096516518,1.3012313982065022,0.9769672119782081,0.28568057916280476,0.7106493773423332
0.055,1.7281607161739896,1.0,2794.6810115570092,0.46158324271156087,1.3007128214210633,0.9772303548993106,0.2856357500793075,0.7116447673245654
0.0555,1.7270933570431044,1.0,2798.7971572226816,0.4646033382409211,1.300193826545657,0.9774870211845266,0.2855909209958104,0.712639242678176
0.056,1.7260259979122192,1.0,2802.9578158716404,0.46760649128948156,1.299674459568997,0.9777374257645978,0.28554609191231317,0.7136327113585126
0.0565,1.724958638781334,1.0,2807.1579489589867,0.4705927969069913,1.2991547664797978,0.9779817747204613,0.28550126282881605,0.7146250819273523
0.057,1.7238912796504489,1.0,2811.3925033581736,0.4735623501431994,1.2986347932667734,0.9782202657210456,0.2854564337453188,0.7156162635539269
0.0575,1.7228239205195637,1.0,2815.656411052871,0.476515246047855,1.2981145859186376,0.9784530884360007,0.2854116046618217,0.716606166015814
0.058,1.7217565613886787,1.0,2819.9445888736836,0.4794515796707072,1.2975941904241046,0.9786804249249825,0.2853667755783245,0.7175946996996867
0.0585,1.7206892022577935,1.0,2824.257783440565,0.4823714286205929,1.2970736005404968,0.9789024456194895,0.28532194649482734,0.7185818745596471
0.059000000000000004,1.7196218431269084,1.0,2828.5871953133696,0.48527490673509244,1.2965528952830458,0.9791193219879207,0.28527711741133016,0.7195675392195244
0.059500000000000004,1.7185544839960232,1.0,2832.929672451402,0.4881621075817019,1.296032103039505,0.9793312143240915,0.285232288327833,0.7205516389349742
0.06,1.717487124865138,1.0,2837.2836867717647,0.4910331192529869,1.2955112376331195,0.9795382754759444,0.2851874592443358,0.7215341467874425
0.0605,1.7164197657342528,1.0,2841.6477054715824,0.4938880298415131,1.2949903128871347,0.9797406524227305,0.28514263016083863,0.7225150360419336
0.061,1.7153524066033676,1.0,2846.0201910075966,0.49672692743984603,1.2944693426247962,0.9799384865459732,0.28509780107734145,0.7234942801470676
0.0615,1.7142850474724827,1.0,2850.3996010801625,0.4995499001405513,1.293948340669349,0.9801319138859278,0.2850529719938443,0.7244718527351286
0.062,1.7132176883415975,1.0,2854.784388621353,0.5023570360361944,1.2934273208440386,0.9803210653844139,0.2850081429103471,0.7254477276220972
0.0625,1.7121503292107123,1.0,2859.1730017874293,0.5051484232193411,1.29290629697211,0.9805060671148437,0.2849633138268499,0.7264218788076727
0.063,1.7110829700798271,1.0,2863.5638839553817,0.5079241497825568,1.2923852828768088,0.9806870405002122,0.28491848474335274,0.7273942804752822
0.0635,1.710015610948942,1.0,2867.9554737239073,0.5106843038184073,1.2918642923813803,0.9808641025197641,0.28487365565985556,0.7283649069920795
0.064,1.7089482518180568,1.0,2872.3462049185946,0.513428973419458,1.2913433393090696,0.9810373659050051,0.2848288265763584,0.7293337329089296
0.0645,1.7078808926871716,1.0,2876.734506601038,0.5161582466782746,1.2908224374831225,0.9812069393256823,0.2847839974928612,0.7303007329603804
0.065,1.7068135335562864,1.0,2881.118803082526,0.5188722116874227,1.2903016007267838,0.9813729275663141,0.28473916840936403,0.731265882064627
0.0655,1.7057461744254012,1.0,2885.498000506298,0.5215709507749455,1.2897808385618263,0.9815354310843767,0.28469433932586685,0.7322291632729743
0.066,1.7046788152945163,1.0,2889.8730821993845,0.5242545295330346,1.289260142131984,0.9816945447728715,0.2846495102423697,0.7331905936664044
0.0665,1.703611456163631,1.0,2894.2404054810786,0.526923071832487,1.2887395434424822,0.9818503661272001,0.2846046811588725,0.7341501149637338
0.067,1.702544097032746,1.0,2898.5996862620423,0.5295766579394587,1.2882190447779824,0.9820029849013016,0.2845598520753753,0.7351077239389903
0.0675,1.7014767379018607,1.0,2902.950639739306,0.5322153681201057,1.2876986484231465,0.9821524877678539,0.28451502299187814,0.7360634173963481
0.068,1.7004093787709755,1.0,2907.2929804009223,0.5348392826405839,1.2871783566626362,0.9822989584458546,0.28447019390838096,0.7370171921701139
0.0685,1.6993420196400904,1.0,2911.6264220316443,0.5374484817670493,1.2866581717811132,0.982442477822066,0.2844253648248838,0.7379690451247124
0.069,1.6982746605092052,1.0,2915.950677718113,0.5400430457656578,1.2861380960632394,0.9825831240666599,0.2843805357413866,0.7389189731546697
0.0695,1.69720730137832,1.0,2920.2654598542626,0.5426230549025653,1.285618131793676,0.9827209727433746,0.28433570665788943,0.7398669731845995
0.07,1.696139942247435,1.0,2924.570480147042,0.545188589443928,1.285098281257085,0.9828560969144832,0.28429087757439225,0.7408130421691839
0.07050000000000001,1.6950725831165498,1.0,2928.8654496220156,0.5477397296559017,1.2845785467381283,0.9829885672408492,0.2842460484908951,0.7417571770931598
0.07100000000000001,1.6940052239856647,1.0,2933.150078629184,0.5502765558046423,1.2840589305214674,0.9831184520773316,0.2842012194073979,0.7426993749713016
0.07150000000000001,1.6929378648547795,1.0,2937.424076849021,0.5527991481563058,1.2835394348917637,0.983245817563785,0.2841563903239007,0.7436396328484034
0.07200000000000001,1.6918705057238943,1.0,2941.6871532983846,0.5553075869770482,1.2830200621336796,0.9833707277118866,0.28411156124040354,0.7445779477992607
