Time [s],Phi [rad],STIM [ ],Fsee [N],Gamma [ ],Lcerel [ ],q [ ],Lmtc [m],fisomrel [ ]
0.0,1.8,1.0,18.476483072443518,0.0007279329760291421,1.3792830835528118,0.005136487408137034,0.288653,0.5412766024574961
0.0005,1.79999375,1.0,19.004993993700392,0.0063330591565348105,1.3792222835651762,0.015053216484530379,0.2886527375,0.541423659590603
0.001,1.799975,1.0,22.87990317552803,0.011906745010829159,1.3788112829988342,0.039447276429434866,0.28865195,0.5424171296963558
0.0015,1.79994375,1.0,33.5225912416305,0.017449166895053263,1.3778411572160978,0.07579209038969766,0.2886506375,0.5447578441122451
0.002,1.7999,1.0,58.38631809054918,0.022960500174571175,1.376063166168081,0.12082356590650886,0.2886488,0.5490321908534382
0.0025,1.79984375,1.0,104.79157993870217,0.028440919231758306,1.3735724683167492,0.17119088431782106,0.28864643749999996,0.5549860041955722
0.003,1.7997750000000001,1.0,170.6846536529181,0.033890597472282596,1.3708556120290414,0.22408872059447643,0.28864354999999997,0.5614353157734858
0.0035,1.79969375,1.0,248.53297652751797,0.03930970732664106,1.3682542656494057,0.27737241296714144,0.2886401375,0.5675663132366613
0.004,1.7996,1.0,332.92846280134495,0.04469842025983136,1.3658551747325942,0.3294522897297116,0.2886362,0.5731823696472671
0.0045000000000000005,1.7994937500000001,1.0,421.08451155857404,0.050056906773761393,1.3636474035815969,0.3792333601079583,0.2886317375,0.5783181309577909
0.005,1.799375,1.0,511.4262306300515,0.055385336396819106,1.3616045897598352,0.42604298377553235,0.28862675,0.583042476609124
0.0055,1.79924375,1.0,602.8876987858667,0.060683877791766865,1.3597036811694398,0.4695367082382966,0.2886212375,0.5874147377332716
0.006,1.7991000000000001,1.0,694.5978916719479,0.06595269851600093,1.3579277995063395,0.5096069458615585,0.2886152,0.5914786044022631
0.006500000000000001,1.79894375,1.0,785.8697943519469,0.0711919653319672,1.3562633879425108,0.5463046851497277,0.2886086375,0.5952691275884059
0.007,1.798775,1.0,876.1194114490821,0.07640184402312053,1.3546998942897688,0.5797806703144749,0.28860155,0.5988137276493204
0.0075,1.79859375,1.0,964.8571860492367,0.08158249926959169,1.353228685136384,0.6102422468079971,0.2885939375,0.6021348724388436
0.008,1.7984,1.0,1051.7259118662494,0.08673409541886051,1.3518417381297736,0.637923217854545,0.2885858,0.6052531610644765
0.0085,1.79819375,1.0,1136.4030921550257,0.0918567950486052,1.3505326487664777,0.6630650797141818,0.2885771375,0.6081851471580267
0.009000000000000001,1.797975,1.0,1218.6524806795733,0.09695076018801738,1.34929544315576,0.6859041092744614,0.28856795,0.6109460886180524
0.0095,1.79774375,1.0,1298.3159676290654,0.10201615249434606,1.3481244675323687,0.706664151635704,0.2885582375,0.6135502394939566
0.01,1.7975,1.0,1375.2612536021065,0.10705313197311057,1.3470148864082374,0.725553101904916,0.288548,0.6160097851118562
0.0105,1.79724375,1.0,1449.4024091728386,0.11206185775823564,1.345962212004402,0.7427610538191972,0.2885372375,0.6183359306920322
0.011,1.796975,1.0,1520.6993162366614,0.11704248830924148,1.3449621854137628,0.7584600552497459,0.28852595000000003,0.6205391920744923
0.0115,1.79669375,1.0,1589.151351758937,0.12199518218625353,1.3440107554292686,0.7728047546372442,0.2885141375,0.6226294647607906
0.012,1.7964,1.0,1654.7456572006224,0.12692009519640388,1.3431045997183322,0.7859337381342518,0.28850180000000003,0.6246149032274333
0.0125,1.79609375,1.0,1717.5057372549165,0.13181738294099524,1.3422404469146474,0.7979705457651111,0.2884889375,0.6265034327030052
0.013000000000000001,1.7957750000000001,1.0,1777.4783994496122,0.1366872003721775,1.3414151785208215,0.8090251386909312,0.28847555,0.6283025378686085
0.0135,1.79544375,1.0,1834.7345150401652,0.14152970278036664,1.3406257714471679,0.8191952762208023,0.2884616375,0.6300193999554264
0.014,1.7951000000000001,1.0,1889.3278326130246,0.14634504293482162,1.3398697085745495,0.8285679895357033,0.2884472,0.6316600165607489
0.0145,1.79474375,1.0,1941.31417764729,0.15113337237878915,1.3391447087790285,0.8372206849092289,0.2884322375,0.6332298039132269
0.015,1.794375,1.0,1990.7701334839078,0.15589484265551606,1.3384484909366674,0.8452221714858931,0.28841675,0.6347341166539942
0.0155,1.79399375,1.0,2037.7786637569004,0.16062960443902358,1.3377789062491527,0.8526337116183215,0.2884007375,0.6361779671336929
0.016,1.7936,1.0,2082.4369772091695,0.16533780894370426,1.337133831744617,0.8595098783756232,0.2883842,0.6375662611390058
0.0165,1.7931937500000001,1.0,2124.820436707357,0.17001960455266354,1.336511525478665,0.865899451248278,0.2883671375,0.6389030396046613
0.017,1.792775,1.0,2165.0023263798516,0.17467513851535144,1.3359103930275835,0.8718460294902722,0.28834955,0.6401919893369081
0.0175,1.7923437500000001,1.0,2203.0667357976376,0.17930455808121795,1.3353288399676597,0.8773886013645127,0.2883314375,0.6414367636669123
0.018000000000000002,1.7919,1.0,2239.100918458833,0.18390800974302032,1.3347653393317982,0.8825621034431957,0.2883128,0.6426408405040371
0.0185,1.79144375,1.0,2273.196748543079,0.18848564031412313,1.334218405959182,0.887397886773201,0.2882936375,0.6438075800959931
0.019,1.790975,1.0,2305.4370774522085,0.19303759511700253,1.333686722286473,0.8919241609224762,0.28827395,0.6449399597248413
0.0195,1.79049375,1.0,2335.8891678890045,0.1975640168423408,1.3331691904285872,0.8961663633780551,0.2882537375,0.6460404673123719
0.02,1.79,1.0,2364.6259113393626,0.2020650481808202,1.3326647125004403,0.9001474218442733,0.288233,0.6471115722480849
0.0205,1.78949375,1.0,2391.7253595410116,0.20654083182312294,1.3321721906169481,0.9038880356941176,0.2882117375,0.6481557263416386
0.021,1.788975,1.0,2417.2608676947684,0.21099150895019397,1.3316906178308803,0.9074069417859028,0.28818995000000003,0.6491751723308958
0.021500000000000002,1.78844375,1.0,2441.31527828293,0.21541722258159401,1.3312189355744226,0.9107211005583883,0.2881676375,0.6501722471841406
0.022,1.7879,1.0,2463.956232541301,0.21981811284785271,1.330756267603609,0.913845933417865,0.2881448,0.6511488885233729
0.0225,1.78734375,1.0,2485.240390615908,0.22419431747480875,1.3303018725246012,0.9167954763005056,0.28812143749999997,0.6521067379041522
0.023,1.786775,1.0,2505.2270840655187,0.2285459741883008,1.3298550089435608,0.9195824999510834,0.28809755,0.6530474268968223
0.0235,1.78619375,1.0,2523.978093172576,0.23287322071416758,1.3294149354666491,0.9222186414696607,0.28807313749999996,0.6539725774601511
0.024,1.7856,1.0,2541.5574364413133,0.23717619477824772,1.3289809107000277,0.9247145206082533,0.2880482,0.6548838022799122
0.0245,1.78499375,1.0,2558.0196829845145,0.24145503075516977,1.3285523011267524,0.9270798600510357,0.2880227375,0.6557824790316193
0.025,1.784375,1.0,2573.433151108409,0.24570986879442538,1.3281283605799072,0.9293235411700864,0.28799675,0.656670213594204
0.025500000000000002,1.78374375,1.0,2587.842694542941,0.24994084178650985,1.3277085777982298,0.9314537390708535,0.2879702375,0.6575481123643545
0.026000000000000002,1.7831000000000001,1.0,2601.2927421799423,0.2541480820855275,1.3272924573266027,0.9334779575867406,0.2879432,0.6584172429117154
0.0265,1.78244375,1.0,2613.828871096207,0.25833172204558275,1.3268795037099084,0.9354030913131648,0.2879156375,0.6592786672651914
0.027,1.781775,1.0,2625.4977070326077,0.2624918940207798,1.3264692214930291,0.9372354832389669,0.28788755,0.6601334420208402
0.0275,1.7810937500000001,1.0,2636.346830315331,0.26662873036522305,1.3260611152208475,0.9389809762243075,0.2878589375,0.6609826184341111
0.028,1.7804,1.0,2646.4137056839854,0.27074235997260654,1.3256547908109753,0.940644972547198,0.2878298,0.6618270319574616
0.0285,1.77969375,1.0,2655.74691940959,0.27483291705628543,1.3252497581957907,0.9422324487198385,0.2878001375,0.6626677129897312
0.029,1.778975,1.0,2664.3896901148446,0.27890053281564403,1.3248455832203525,0.943748011997561,0.28776995,0.6635055709892508
0.029500000000000002,1.7782437500000001,1.0,2672.372336510217,0.2829453336093919,1.3244419557488851,0.9451959415590844,0.2877392375,0.6643412543043319
0.03,1.7775,1.0,2679.725642957982,0.2869674457962387,1.324038565645612,0.9465802019600283,0.287708,0.6651754080814236
0.0305,1.77674375,1.0,2686.480817956496,0.29096699573489404,1.3236351027747573,0.9479044702542497,0.2876762375,0.6660086742728709
0.031,1.775975,1.0,2692.6694547572174,0.2949441097840676,1.3232312570005451,0.9491721604571736,0.28764395,0.6668416916385445
0.0315,1.7751937500000001,1.0,2698.323494114078,0.29889891430246895,1.3228267181871989,0.9503864456404215,0.2876111375,0.6676750957413358
0.032,1.7744,1.0,2703.4751891654705,0.3028315356488077,1.3224211761989433,0.9515502779126989,0.2875778,0.6685095189365114
0.0325,1.77359375,1.0,2708.1506652103835,0.30674209572440236,1.3220143793684578,0.9526664121742425,0.2875439375,0.6693454702804431
0.033,1.772775,1.0,2712.380152967821,0.3106307236335102,1.3216060406777583,0.9537374143552902,0.28750955,0.6701835286976278
0.0335,1.7719437500000002,1.0,2716.1870934406006,0.31449754225932536,1.3211959369403656,0.9547656840851155,0.2874746375,0.6710241393271705
0.034,1.7711000000000001,1.0,2719.5920908121234,0.3183426718463361,1.3207838723756482,0.9557534646569955,0.2874392,0.6718676888510327
0.0345,1.7702437500000001,1.0,2722.6158966919947,0.32216623263903066,1.3203696512029741,0.9567028528702962,0.2874032375,0.6727145618242497
0.035,1.7693750000000001,1.0,2725.279394547642,0.3259683448818973,1.3199530776417119,0.9576158103076468,0.28736675,0.6735651406492242
0.035500000000000004,1.76849375,1.0,2727.6035849864784,0.3297491288194242,1.31953395591123,0.9584941736190528,0.2873297375,0.674419805547577
0.036000000000000004,1.7676,1.0,2729.609571887716,0.3335087046960996,1.319112090230897,0.9593396639107126,0.2872922,0.6752789345295531
0.0365,1.76669375,1.0,2731.3185493842034,0.3372471927564118,1.318687284820081,0.9601538953257319,0.2872541375,0.676142903360984
0.037,1.765775,1.0,2732.7354394150284,0.34096469915592204,1.3182594924277753,0.9609383945758498,0.28721555,0.6770117840548944
0.0375,1.76484375,1.0,2733.8960551654227,0.3446613615879743,1.317828385719229,0.9616945750990872,0.2871764375,0.6778862156604242
0.038,1.7639,1.0,2734.814587668703,0.3483372957228005,1.3173938343443634,0.9624237798632002,0.28713679999999997,0.6787664346944604
0.0385,1.76294375,1.0,2735.502523454084,0.351992614592706,1.31695573290091,0.9631272740456291,0.28709663750000003,0.6796526255779559
0.039,1.761975,1.0,2735.9713850894523,0.35562743122999607,1.3165139759866002,0.9638062486906226,0.28705595,0.680544971317455
0.0395,1.7609937500000001,1.0,2736.232726409137,0.3592418586669761,1.316068458199165,0.9644618258484837,0.2870147375,0.6814436534808759
0.04,1.76,1.0,2736.2981279865485,0.3628360099359515,1.3156190741363358,0.9650950633056423,0.286973,0.6823488521725833
0.0405,1.7589937500000001,1.0,2736.1791928545513,0.3664099980692275,1.3151657183958438,0.9657069589421232,0.2869307375,0.683260746007754
0.041,1.757975,1.0,2735.8875424710354,0.36996393609910955,1.3147082855754204,0.9662984547493843,0.28688795,0.6841795120860321
0.0415,1.75694375,1.0,2735.43481293143,0.3734979370579029,1.3142466702727966,0.9668704405382591,0.2868446375,0.6851053259644778
0.042,1.7559,1.0,2734.8326514273353,0.37701211397791295,1.3137807670857038,0.9674237573638811,0.28680079999999997,0.6860383616298065
0.0425,1.75484375,1.0,2734.092712951805,0.38050657989144504,1.3133104706118732,0.967959200691877,0.2867564375,0.6869787914699188
0.043000000000000003,1.753775,1.0,2733.2223948974156,0.38398144071284845,1.3128357141658038,0.9684775253434046,0.28671155,0.6879267089999092
0.043500000000000004,1.75269375,1.0,2732.230883265397,0.38743680923457396,1.3123564148580296,0.9689794458788248,0.28666613750000003,0.6888822388298423
0.044,1.7516,1.0,2731.1310827617904,0.39087280407398245,1.311872456024636,0.9694656375424108,0.2866202,0.6898455713429895
0.0445,1.75049375,1.0,2729.928680483519,0.3942895306061631,1.3113837865715252,0.9699367435941995,0.2865737375,0.6908167648609019
0.045,1.7493750000000001,1.0,2728.6293646025306,0.397687094206205,1.3108903554045994,0.9703933742265596,0.28652675,0.6917958766466896
0.0455,1.74824375,1.0,2727.238823336125,0.40106560024919735,1.3103921114297608,0.9708361085820867,0.2864792375,0.6927829628895886
0.046,1.7471,1.0,2725.762743975293,0.4044251541102291,1.3098890035529112,0.9712654966295267,0.2864312,0.6937780786893617
0.0465,1.7459437500000001,1.0,2724.2068119705395,0.40776586116438956,1.3093809806799528,0.9716820609089899,0.28638263750000004,0.6947812780405316
0.047,1.744775,1.0,2722.5767100757294,0.41108782678676775,1.308867991716788,0.97208629815672,0.28633355,0.6957926138164483
0.0475,1.74359375,1.0,2720.87811755029,0.41439115635245277,1.3083499855693188,0.9724786808187924,0.28628393750000003,0.6968121377531916
0.048,1.7424,1.0,2719.1167094182265,0.4176759552365338,1.3078269111434473,0.9728596584623073,0.2862338,0.6978399004333042
0.0485,1.74119375,1.0,2717.2981557864896,0.4209423288140999,1.3072987173450756,0.9732296590919091,0.2861831375,0.6988759512693601
0.049,1.739975,1.0,2715.4281212194837,0.4241903824602402,1.306765353080106,0.9735890903787978,0.28613195,0.6999203384873658
0.0495,1.73874375,1.0,2713.5095986886868,0.42742019953336907,1.3062267915539623,0.9739383398516974,0.2860802375,0.700973061653591
0.05,1.7375,1.0,2711.551914674877,0.43063191133925494,1.3056829481873875,0.9742777787438158,0.286028,0.7020342321028921
0.0505,1.73624375,1.0,2709.557898746372,0.43382561729388097,1.3051337975597328,0.9746077613330519,0.2859752375,0.7031038443455868
0.051000000000000004,1.734975,1.0,2707.530084942446,0.43700141493103883,1.304579316917344,0.9749286256652463,0.28592195,0.7041818868181253
0.051500000000000004,1.73369375,1.0,2705.471004261906,0.4401594017845201,1.3040194835065677,0.9752406944783226,0.2858681375,0.7052683470931116
0.052000000000000005,1.7324,1.0,2703.383184510099,0.4432996753881164,1.3034542745737496,0.9755442760269443,0.2858138,0.7063632118715542
0.0525,1.73109375,1.0,2701.2691501572167,0.4464223332756191,1.3028836673652358,0.9758396648557947,0.28575893750000003,0.7074664669750804
0.053,1.729775,1.0,2699.131422207545,0.44952747298082,1.3023076391273725,0.9761271425251015,0.28570355000000003,0.7085780973381197
0.0535,1.72844375,1.0,2696.972518081308,0.4526151920375107,1.3017261671065055,0.9764069782917328,0.2856476375,0.7096980870000547
0.054,1.7271,1.0,2694.794951506879,0.45568558797948266,1.3011392285489813,0.9766794297489496,0.2855912,0.7108264190973355
0.0545,1.7257437500000001,1.0,2692.6012324251583,0.4587387583405276,1.3005468007011458,0.9769447434276459,0.2855342375,0.7119630758555668
0.055,1.724375,1.0,2690.393866904905,0.46177480065443693,1.299948860809345,0.9772031553617032,0.28547675,0.7131080385815567
0.0555,1.72299375,1.0,2688.1753570701662,0.4647938124550024,1.2993453861199251,0.977454891619881,0.2854187375,0.7142612876553347
0.056,1.7216,1.0,2685.9482010387346,0.46779589127601545,1.298736353879232,0.9777001688064835,0.2853602,0.7154228025221373
0.0565,1.72019375,1.0,2683.712622536587,0.4707811161278641,1.2981217621453973,0.9779391940475293,0.28530113749999997,0.7165925221151886
0.057,1.718775,1.0,2681.4695315913186,0.4737495755562081,1.2975016026799278,0.9781721664792098,0.28524155,0.7177703966928393
0.0575,1.71734375,1.0,2679.22536136622,0.47670140531985805,1.2968758165588596,0.9783992784158528,0.2851814375,0.7189564717554539
0.058,1.7159,1.0,2676.980839236124,0.4796366938054649,1.2962443971293458,0.9786207131185488,0.2851208,0.720150692504689
0.0585,1.71444375,1.0,2674.736691361947,0.48255552939967983,1.2956073377385398,0.9788366465053724,0.2850596375,0.7213530034283575
0.059000000000000004,1.7129750000000001,1.0,2672.4936426896234,0.48545800048915366,1.2949646317335939,0.9790472475016162,0.28499795,0.72256334829804
0.059500000000000004,1.71149375,1.0,2670.2524169495064,0.48834419546053753,1.2943162724616617,0.9792526783706584,0.2849357375,0.7237816701666866
0.06,1.71,1.0,2668.013736657396,0.4912142027004824,1.2936622532698958,0.979453095026673,0.284873,0.7250079113662231
0.0605,1.7084937500000001,1.0,2665.7783231160647,0.49406811059563926,1.2930025675054493,0.9796486473303142,0.2848097375,0.7262420135051487
0.061,1.7069750000000001,1.0,2663.546896417988,0.49690600753265923,1.2923372085154752,0.9798394793684256,0.28474595,0.7274839174661338
0.0615,1.7054437500000001,1.0,2661.320175448802,0.4997279818981933,1.2916661696471265,0.980025729718749,0.2846816375,0.7287335634036148
0.062,1.7039,1.0,2659.098877892415,0.5025341220788924,1.2909894442475562,0.9802075317005485,0.2846168,0.7299908907413851
0.0625,1.70234375,1.0,2656.883720235943,0.5053245164614076,1.2903070256639175,0.9803850136119977,0.2845514375,0.7312558381701835
0.063,1.7007750000000001,1.0,2654.67541777682,0.5080992534323899,1.2896189072433628,0.980558298955122,0.28448555,0.732528343645282
0.0635,1.69919375,1.0,2652.4746846303683,0.5108584213784904,1.2889250823330458,0.9807275066490373,0.28441913750000003,0.7338083443840648
0.064,1.6976,1.0,2650.282233737842,0.5136021086863599,1.288225544280119,0.980892751232173,0.2843522,0.7350957768636135
0.0645,1.69599375,1.0,2648.098776876607,0.5163304037426497,1.2875202864317354,0.9810541430541293,0.2842847375,0.7363905768182807
0.065,1.694375,1.0,2645.9250246702723,0.5190433949340106,1.2868093021350484,0.9812117884577657,0.28421675,0.7376926792372657
0.0655,1.69274375,1.0,2643.7616866002213,0.5217411706470937,1.2860925847372104,0.9813657899520891,0.2841482375,0.7390020183621877
0.066,1.6911,1.0,2641.609471018256,0.52442381926855,1.285370127585375,0.9815162463764677,0.2840792,0.7403185276846518
0.0665,1.6894437500000001,1.0,2639.468214889285,0.5270913799854493,1.2846419320709064,0.9816632501020298,0.2840096375,0.7416421253410126
0.067,1.687775,1.0,2637.3392595433934,0.5297439910064445,1.2839079856769855,0.9818068962702738,0.28393955,0.7429727540460351
0.0675,1.68609375,1.0,2635.2227222992065,0.5323817421414029,1.2831682871902887,0.981947273966351,0.2838689375,0.7443103352350706
0.068,1.6844000000000001,1.0,2633.118515331053,0.5350047122765149,1.2824228372947455,0.9820844685486191,0.2837978,0.7456547862703626
0.0685,1.68269375,1.0,2631.026551006604,0.537612980297971,1.281671636674285,0.98221856243438,0.2837261375,0.7470060238942269
0.069,1.680975,1.0,2628.9467418856166,0.5402066250919617,1.280914686012837,0.9823496352200153,0.28365395,0.7483639642293021
0.0695,1.67924375,1.0,2626.8790007180824,0.5427857255446774,1.2801519859943304,0.9824777637954102,0.28358123749999997,0.7497285227788026
0.07,1.6775,1.0,2624.8232404426744,0.5453503605423086,1.279383537302695,0.9826030224529736,0.283508,0.7510996144267655
0.07050000000000001,1.67574375,1.0,2622.7793741853025,0.5479006089710459,1.2786093406218597,0.9827254829915432,0.2834342375,0.7524771534383053
0.07100000000000001,1.673975,1.0,2620.747315257321,0.5504365497170794,1.277829396635754,0.9828452148154475,0.28335995,0.7538610534598627
0.07150000000000001,1.67219375,1.0,2618.7269771541373,0.5529582616666,1.277043706028307,0.9829622850289861,0.2832851375,0.7552512275194546
0.07200000000000001,1.6704,1.0,2616.7182735537,0.555465823705798,1.2762522694834488,0.9830767585265595,0.2832098,0.7566475880269259
0.0725,1.66859375,1.0,2614.7211183148693,0.5579593147208637,1.275455087685108,0.9831886980786855,0.2831339375,0.7580500467742011
0.073,1.6667750000000001,1.0,2612.735425475925,0.5604388135979878,1.2746521613172144,0.9832981644141104,0.28305755,0.7594585149355321
0.0735,1.66494375,1.0,2610.761109253087,0.5629043992233607,1.273843491063697,0.9834052162982153,0.2829806375,0.7608729030677515
0.074,1.6631,1.0,2608.798084038886,0.5653561504831728,1.2730290776084856,0.983509910607913,0.2829032,0.7622931211105215
0.0745,1.6612437500000001,1.0,2606.846264400796,0.5677941462636147,1.2722089216355092,0.983612302403206,0.2828252375,0.7637190783865855
0.075,1.659375,1.0,2604.9055650798546,0.5702184654508767,1.2713830238286972,0.983712444995583,0.28274675,0.7651506836020179
0.0755,1.65749375,1.0,2602.9759009888976,0.5726291869311495,1.270551384871979,0.9838103900134059,0.2826677375,0.7665878448464742
