Time [s],Phi [rad],STIM [ ],Fsee [N],Gamma [ ],Lcerel [ ],q [ ],Lmtc [m],fisomrel [ ]
0.0,1.8,1.0,18.37604704874175,0.000650885723701313,1.3792941946931951,0.005109226211423835,0.288653,0.5412497253572723
0.0005,1.79999375,1.0,18.882853010896188,0.006256444078365289,1.3792356100124947,0.014815094679240314,0.2886527375,0.5413914288853667
0.001,1.799975,1.0,22.700268243749818,0.011830559682650468,1.3788291522369227,0.03902604825958095,0.28865195,0.5423739585951992
0.0015,1.79994375,1.0,33.2090311769147,0.01737340890637024,1.3778669357656605,0.07522853000582677,0.2886506375,0.5446957233898921
0.002,1.7999,1.0,57.8129600079388,0.02288516712828648,1.3760988875228646,0.1201645084564872,0.2886488,0.5489465140435703
0.0025,1.79984375,1.0,103.9172342528,0.02836600874381779,1.3736131141569032,0.17047915494359564,0.28864643749999996,0.5548891611287653
0.003,1.7997750000000001,1.0,169.59649986389263,0.03381610717322325,1.3708952283609435,0.22335801486000845,0.28864354999999997,0.5613416121782002
0.0035,1.79969375,1.0,247.3305505528964,0.03923563485950949,1.3682905300047623,0.27664814621018463,0.2886401375,0.5674811400153421
0.004,1.7996,1.0,331.666222388344,0.04462476328054878,1.365888057337975,0.3287527589894784,0.2886362,0.5731056425301106
0.0045000000000000005,1.7994937500000001,1.0,419.78888552815084,0.04998366295256557,1.363677410186724,0.37857054074950575,0.2886317375,0.5782485373720578
0.005,1.799375,1.0,510.1104149727135,0.05531250340301631,1.361632238193995,0.4254237189607824,0.28862675,0.5829787126875055
0.0055,1.79924375,1.0,601.5691070270224,0.060611453347682254,1.3597291974390924,0.46896387447151894,0.2886212375,0.5873562006053141
0.006,1.7991000000000001,1.0,693.2857271238701,0.06588068031971653,1.3579514540295883,0.5090808225569656,0.2886152,0.5914246063715037
0.006500000000000001,1.79894375,1.0,784.567563791849,0.0711203510863681,1.356285456806963,0.5458238546218387,0.2886086375,0.5952189836347375
0.007,1.798775,1.0,874.8359637744811,0.07633063148456122,1.3547204931425434,0.5793425953126637,0.28860155,0.598767129287981
0.0075,1.79859375,1.0,963.5983049823533,0.08151168619111733,1.3532479374217834,0.6098438622191565,0.2885939375,0.6020915009797698
0.008,1.7984,1.0,1050.4942079727537,0.0866636795268006,1.3518597795039835,0.637561258865667,0.2885858,0.6052126771919901
0.0085,1.79819375,1.0,1135.2033074508226,0.09178677412912621,1.350549554700517,0.6627362492939521,0.2885771375,0.6081473523573635
0.009000000000000001,1.797975,1.0,1217.4868856086218,0.09688113203953065,1.3493113030039405,0.6856052513378793,0.28856795,0.6109107576329377
0.0095,1.79774375,1.0,1297.1874131708107,0.10194691492419986,1.3481393444893588,0.7063922997988311,0.2885582375,0.6135172092427282
0.01,1.7975,1.0,1374.1712452707163,0.10698428274149516,1.3470288472199854,0.7253055310276589,0.288548,0.6159788877460716
0.0105,1.79724375,1.0,1448.3509027383188,0.11199339472245433,1.3459753304872628,0.7425352922430031,0.2885372375,0.6183069856321086
0.011,1.796975,1.0,1519.6897823070774,0.11697440940841498,1.3449744812683457,0.7582538504228596,0.28852595000000003,0.6205121405409304
0.0115,1.79669375,1.0,1588.1833400624791,0.121927485109757,1.344022288673889,0.7726161064922874,0.2885141375,0.6226041610190669
0.012,1.7964,1.0,1653.8169539007426,0.1268527777093666,1.343115442973804,0.7857608675446087,0.28850180000000003,0.624591175997737
0.0125,1.79609375,1.0,1716.6161540180049,0.1317504430592363,1.3422506417711466,0.7978118563213491,0.2884889375,0.6264811805077752
0.013000000000000001,1.7957750000000001,1.0,1776.6217691713055,0.13662063595769522,1.3414248286020276,0.8088792357782363,0.28847555,0.6282815255550895
0.0135,1.79544375,1.0,1833.9174660182268,0.14146351203570154,1.3406348308012737,0.8190608634421471,0.2884616375,0.6299997195312107
0.014,1.7951000000000001,1.0,1888.5441622132273,0.14627922338018742,1.3398782713036044,0.8284439660539573,0.2884472,0.6316414562999793
0.0145,1.79474375,1.0,1940.5610112407992,0.1510679218310996,1.3391528272180875,0.8371060580571013,0.2884322375,0.6332122442282465
0.015,1.794375,1.0,1990.0481758947337,0.15582975922838482,1.338456175653791,0.845116044629242,0.28841675,0.634717529214956
0.0155,1.79399375,1.0,2037.0852733018355,0.16056488614856934,1.3377862012220136,0.8525352974072042,0.2884007375,0.6361622521173511
0.016,1.7936,1.0,2081.7767444977067,0.16527345392605589,1.337140702949678,0.8594184505758675,0.2883842,0.6375514872914445
0.0165,1.7931937500000001,1.0,2124.189733859824,0.16995561037707949,1.336518023532178,0.8658143868339578,0.2883671375,0.6388890938711622
0.017,1.792775,1.0,2164.3996126558613,0.17461150306440132,1.3359165447892831,0.8717667651946721,0.28834955,0.6401788103852983
0.0175,1.7923437500000001,1.0,2202.492662147731,0.17924127955078262,1.335334648540762,0.8773146267677169,0.2883314375,0.6414243414797309
0.018000000000000002,1.7919,1.0,2238.551010462106,0.18384508607851158,1.3347708584188807,0.8824929744885215,0.2883128,0.6426290572496358
0.0185,1.79144375,1.0,2272.6746947904376,0.18842307026412697,1.3342236060271917,0.8873331838021209,0.2882936375,0.643796496091137
0.019,1.790975,1.0,2304.9353677735066,0.1929753759579362,1.3336916846302809,0.8918635331060736,0.28827395,0.6449293992621339
0.0195,1.79049375,1.0,2335.404001201382,0.19750214628276586,1.3331739577538977,0.8961094857390003,0.2882537375,0.6460303376103445
0.02,1.79,1.0,2364.157315401511,0.20200352436144256,1.3326692889237919,0.9000939924812663,0.288233,0.647101862904779
0.0205,1.78949375,1.0,2391.2754161539947,0.20647965296940085,1.332176559898428,0.9038377772203924,0.2882117375,0.6481464701978508
0.021,1.788975,1.0,2416.832157942733,0.21093067360277268,1.3316947588595498,0.9073596023281922,0.28818995000000003,0.6491664124525036
0.021500000000000002,1.78844375,1.0,2440.908717683462,0.21535672949872284,1.331222843252819,0.9106764553691986,0.2881676375,0.6501639926897911
0.022,1.7879,1.0,2463.563389019064,0.2197579589755759,1.3307600260450787,0.9138037956045554,0.2881448,0.6511409603656213
0.0225,1.78734375,1.0,2484.8574806621423,0.22413450035165638,1.3303055202031715,0.9167556672207936,0.28812143749999997,0.6520990539646437
0.023,1.786775,1.0,2504.8550659907273,0.2284864919452889,1.3298585386939403,0.9195448484462416,0.28809755,0.6530400014371756
0.0235,1.78619375,1.0,2523.622746377764,0.2328140720747979,1.3294182944842285,0.9221829831912628,0.28807313749999996,0.6539655205966266
0.024,1.7856,1.0,2541.2169362605646,0.23711737605063277,1.3289841182195414,0.9246807172204147,0.2880482,0.6548770725743329
0.0245,1.78499375,1.0,2557.7064794055736,0.2413965444773117,1.328555241994182,0.9270477646604945,0.2880227375,0.655776316830818
0.025,1.784375,1.0,2573.1406205719536,0.24565171182422071,1.3281310990908612,0.9292930471223324,0.28799675,0.6566644828106614
0.025500000000000002,1.78374375,1.0,2587.5647818534912,0.2498830110183795,1.3277111722074473,0.9314247476182153,0.2879702375,0.6575426900842501
0.026000000000000002,1.7831000000000001,1.0,2601.0256740047867,0.25409057498680776,1.3272949440418076,0.933450374802566,0.2879432,0.6584120523108101
0.0265,1.78244375,1.0,2613.57118630581,0.2582745366565251,1.32688189729181,0.9353768276447381,0.2879156375,0.6592736773689625
0.027,1.781775,1.0,2625.2502823605537,0.2624350289545513,1.326471514655322,0.9372104531108678,0.28788755,0.6601286674702163
0.0275,1.7810937500000001,1.0,2636.108557082082,0.2665721833936761,1.3260633190157651,0.9389571031499546,0.2878589375,0.6609780356901256
0.028,1.7804,1.0,2646.18610040376,0.27068613057433377,1.3256568919277048,0.9406221830626503,0.2878298,0.6618226681759797
0.0285,1.77969375,1.0,2655.537366762407,0.27477700578520914,1.3252516892557271,0.9422106675773425,0.2878001375,0.6626637073861478
0.029,1.778975,1.0,2664.193474531612,0.27884493599060095,1.3248473884397747,0.9437271835578303,0.28776995,0.6635018310709763
0.029500000000000002,1.7782437500000001,1.0,2672.186064790187,0.28289004815480795,1.3244436669197899,0.945176012869314,0.2877392375,0.6643377136340576
0.03,1.7775,1.0,2679.547255653431,0.2869124692421288,1.324040202135715,0.946561122514963,0.287708,0.665172026147465
0.0305,1.77674375,1.0,2686.3095989117032,0.29091232621686247,1.3236366715274923,0.9478861917822835,0.2876762375,0.6660054363603509
0.031,1.775975,1.0,2692.506038975356,0.2948897460433076,1.3232327525350644,0.9491546367284515,0.28764395,0.6668386087009113
0.0315,1.7751937500000001,1.0,2698.169874126982,0.29884485568576286,1.3228281225983736,0.9503696322943174,0.2876111375,0.6676722042717139
0.032,1.7744,1.0,2703.3279165883673,0.3027777783433786,1.3224225212971235,0.9515341387310925,0.2875778,0.668506753062519
0.0325,1.77359375,1.0,2708.01345215706,0.3066886428566602,1.322015631505595,0.9526509076741027,0.2875439375,0.6693428988075664
0.033,1.772775,1.0,2712.252476400485,0.3105775732705842,1.3216072048799374,0.9537225107265728,0.28750955,0.6701811408460266
0.0335,1.7719437500000002,1.0,2716.066284064388,0.3144446905701189,1.3211970377519937,0.9547513514803199,0.2874746375,0.6710218843729092
0.034,1.7711000000000001,1.0,2719.4763377156755,0.3182901157402327,1.3207849264536067,0.955739674531671,0.2874392,0.6718655323984508
0.0345,1.7702437500000001,1.0,2722.5042505703636,0.3221139697658939,1.3203706673166198,0.9566895778733188,0.2874032375,0.6727124857241829
0.035,1.7693750000000001,1.0,2725.1717702409196,0.3259163736320709,1.3199540566728762,0.9576030241820239,0.28736675,0.6735631429163581
0.035500000000000004,1.76849375,1.0,2727.500763403784,0.329697448323732,1.319534890854219,0.9584818511120955,0.2873297375,0.6744179002767294
0.036000000000000004,1.7676,1.0,2729.5125195854785,0.33345731400907674,1.3191129723897854,0.959327781142458,0.2872922,0.6752771391982018
0.0365,1.76669375,1.0,2731.220539768377,0.3371960814789984,1.318688175401816,0.9601424348261854,0.2872541375,0.6761410933005783
0.037,1.765775,1.0,2732.6559840483915,0.34091388583802823,1.3182602142246151,0.9609273226620646,0.28721555,0.6770103190105297
0.0375,1.76484375,1.0,2733.8313861409283,0.344610841257323,1.3178289730669082,0.961683875544285,0.2871764375,0.6778850251251103
0.038,1.7639,1.0,2734.7593291778107,0.3482870619080395,1.3173943361374207,0.9624134385334906,0.28713679999999997,0.6787654189664731
0.0385,1.76294375,1.0,2735.452439784587,0.3519426619613344,1.3169561876448779,0.9631172769440056,0.28709663750000003,0.6796517063572225
0.039,1.761975,1.0,2735.9233824537882,0.3555777555883646,1.3165144117980054,0.963796581935672,0.28705595,0.6805440915949064
0.0395,1.7609937500000001,1.0,2736.1848542164694,0.3591924569602868,1.3160688928055286,0.9644524756555236,0.2870147375,0.6814427774256608
0.04,1.76,1.0,2736.2495796103003,0.3627868802482577,1.315619514876173,0.9650860159699725,0.286973,0.6823479650169939
0.0405,1.7589937500000001,1.0,2736.1303059456122,0.3663611396234343,1.3151661622186634,0.9656982008241185,0.2869307375,0.6832598539297166
0.041,1.757975,1.0,2735.8397988677843,0.36991534925697317,1.3147087190417261,0.9662899722611865,0.28688795,0.6841786420890175
0.0415,1.75694375,1.0,2735.3908382176983,0.3734496233200312,1.314247069554086,0.9668622201318666,0.2868446375,0.6851045257546857
0.042,1.7559,1.0,2734.788115060305,0.37696406239641406,1.3137811715112266,0.9674157894179026,0.28680079999999997,0.6860375523119968
0.0425,1.75484375,1.0,2734.047761726615,0.38045879024085427,1.3133108788598846,0.9679514745466957,0.2867564375,0.6869779757271898
0.043000000000000003,1.753775,1.0,2733.1832402083396,0.3839339257186717,1.3128360698259707,0.9684700284783525,0.28671155,0.6879259994127565
0.043500000000000004,1.75269375,1.0,2732.2008321909507,0.3873895749838264,1.312356687875148,0.9689721674333595,0.28666613750000003,0.688881694960674
0.044,1.7516,1.0,2731.1068228081363,0.39082584419027866,1.3118726764730797,0.9694585700366045,0.2866202,0.6898451328747378
0.0445,1.75049375,1.0,2729.9074993337526,0.3942428394919887,1.311383979085429,0.9699298796589163,0.2865737375,0.6908163825539706
0.045,1.7493750000000001,1.0,2728.609149943978,0.3976406670429166,1.3108905391778591,0.9703867065905623,0.28652675,0.6917955122758292
0.0455,1.74824375,1.0,2727.218062550038,0.4010194329970227,1.3103923002160336,0.9708296300602898,0.2864792375,0.6927825891792081
0.046,1.7471,1.0,2725.7405237030753,0.4043792435082671,1.3098892056656153,0.9712592001122802,0.2864312,0.6937776792472385
0.0465,1.7459437500000001,1.0,2724.182817568203,0.40772020473061,1.3093811989922675,0.9716759393522842,0.28638263750000004,0.694780847289882
0.047,1.744775,1.0,2722.5512249704784,0.4110424228180115,1.3088682236616536,0.9720803445732157,0.28633355,0.6957921569263226
0.0475,1.74359375,1.0,2720.852022512061,0.414346003924432,1.3083502231394366,0.9724728882695919,0.28628393750000003,0.6968116705671545
0.048,1.7424,1.0,2719.091481758665,0.4176310542038315,1.3078271408912798,0.9728540200493914,0.2862338,0.6978394493963653
0.0485,1.74119375,1.0,2717.275868498968,0.4208976798101703,1.3072989203828467,0.9732241679511683,0.2861831375,0.698875553353115
0.049,1.739975,1.0,2715.4065505573035,0.4241459706195748,1.306765549657042,0.9735837407682253,0.28613195,0.6999199539018268
0.0495,1.73874375,1.0,2713.4913982272046,0.4273760445394929,1.3062269574762873,0.9739331274066803,0.2860802375,0.7009727376110209
0.05,1.7375,1.0,2711.5361990345154,0.43058801086997633,1.3056830915088156,0.9742726988587269,0.286028,0.7020339526964703
0.0505,1.73624375,1.0,2709.543606595387,0.4337819675244492,1.305133927947344,0.9746028095552056,0.2859752375,0.7031035906104117
0.051000000000000004,1.734975,1.0,2707.516271530079,0.4369580124163357,1.3045794429845894,0.9749237977265853,0.28592195,0.7041816419362157
0.051500000000000004,1.73369375,1.0,2705.4568412856524,0.44011624345905986,1.3040196128132686,0.9752359862837842,0.2858681375,0.7052680963803261
0.052000000000000005,1.7324,1.0,2703.3679599713587,0.44325675856604585,1.3034544136260986,0.9755396836436162,0.2858138,0.7063629427641602
0.0525,1.73109375,1.0,2701.252268206627,0.44637965565071774,1.3028838216157963,0.9758351845028043,0.28575893750000003,0.7074661690159774
0.053,1.729775,1.0,2699.1124029816183,0.4494850326264998,1.3023078129750787,0.9761227705641751,0.28570355000000003,0.7085777621627067
0.0535,1.72844375,1.0,2696.950997530249,0.45257298740681595,1.3017263638966623,0.9764027112183817,0.2856476375,0.709697708321744
0.054,1.7271,1.0,2694.7706812159754,0.45564361790509045,1.301139450573264,0.9766752641842306,0.2855912,0.7108259926927061
0.0545,1.7257437500000001,1.0,2692.5740794297876,0.4586970220347474,1.3005470491976012,0.9769406761104541,0.2855342375,0.7119625995491539
0.055,1.724375,1.0,2690.363813501159,0.4617332977092109,1.2999491359623907,0.9771991831415597,0.28547675,0.7131075122302784
0.0555,1.72299375,1.0,2688.142500621467,0.46475254284190504,1.2993456870603488,0.9774510114501751,0.2854187375,0.7142607131325502
0.056,1.7216,1.0,2685.9127537796867,0.46775485534625394,1.298736678684193,0.9776963777381408,0.2853602,0.7154221837013306
0.0565,1.72019375,1.0,2683.6763778999934,0.4707402958371021,1.2981220943950913,0.9779354867298041,0.28530113749999997,0.7165918904128963
0.057,1.718775,1.0,2681.4371825899075,0.47370900776003144,1.2975018993427565,0.97816854118519,0.28524155,0.7177698338247844
0.0575,1.71734375,1.0,2679.1960446883777,0.4766610812668413,1.2968760855256731,0.9783957322954482,0.2851814375,0.7189559625094171
0.058,1.7159,1.0,2676.9538092513985,0.47959660565516393,1.2962446452207077,0.9786172434651098,0.2851208,0.7201502237820696
0.0585,1.71444375,1.0,2674.7113199287814,0.4825156702226314,1.295607570704726,0.9788332507466565,0.2850596375,0.7213525642284769
0.059000000000000004,1.7129750000000001,1.0,2672.4694189615184,0.4854183642668761,1.2949648542545948,0.9790439231913431,0.28499795,0.7225629297020588
0.059500000000000004,1.71149375,1.0,2670.228947180635,0.48830477708553016,1.29431648814718,0.9792494231806096,0.2849357375,0.7237812653211443
0.06,1.71,1.0,2667.9907440072648,0.4911749979762257,1.2936624646593482,0.9794499067392992,0.284873,0.7250075154661897
0.0605,1.7084937500000001,1.0,2665.7556474542434,0.4940291162365951,1.2930027760679652,0.9796455238318137,0.2848097375,0.7262416237769956
0.061,1.7069750000000001,1.0,2663.5244941286032,0.49686722116427057,1.2923374146498976,0.9798364186422585,0.28474595,0.7274835331499165
0.0615,1.7054437500000001,1.0,2661.2981192357133,0.4996894020568842,1.2916663726820115,0.9800227298395597,0.2846816375,0.7287331857350702
0.062,1.7039,1.0,2659.0773565850345,0.5024957482120683,1.2909896424411733,0.9802045908284671,0.2846168,0.7299905229335399
0.0625,1.70234375,1.0,2656.8630385962256,0.5052863489274552,1.2903072162042493,0.9803821299872929,0.2845514375,0.7312554853945767
0.063,1.7007750000000001,1.0,2654.655996307704,0.5080612935006767,1.2896190862481054,0.980555470893181,0.28448555,0.7325280130127949
0.0635,1.69919375,1.0,2652.457059385817,0.5108206712293655,1.2889252448496085,0.980724732535653,0.28441913750000003,0.733808044925363
0.064,1.6976,1.0,2650.2670561353066,0.5135645714111535,1.2882256842856241,0.9808900295191156,0.2843522,0.7350955195091956
0.0645,1.69599375,1.0,2648.086813511865,0.5162930833436732,1.2875203968330189,0.9810514722549813,0.2842847375,0.7363903743781357
0.065,1.694375,1.0,2645.912678047803,0.5190062648094094,1.2868094161199388,0.9812091669760098,0.28421675,0.7376924707427926
0.0655,1.69274375,1.0,2643.744882385767,0.5217042088899848,1.2860927399384308,0.9813632168238269,0.2841482375,0.7390017351866117
0.066,1.6911,1.0,2641.5897070808787,0.5243870437212651,1.2853703101965506,0.9815137209136539,0.2840792,0.740318195339045
0.0665,1.6894437500000001,1.0,2639.4470928045002,0.5270548490587402,1.2846421273100124,0.9816607743387948,0.2840096375,0.7416417709197408
0.067,1.687775,1.0,2637.3169803783685,0.5297077046579003,1.2839081916945296,0.9818044688470401,0.28393955,0.742972381022775
0.0675,1.68609375,1.0,2635.1993107743097,0.5323456902742351,1.2831685037658167,0.9819448929803596,0.2838689375,0.7443099441168006
0.068,1.6844000000000001,1.0,2633.0940251127995,0.5349688856632346,1.2824230639395875,0.9820821322078083,0.2837978,0.7456543780452031
0.0685,1.68269375,1.0,2631.0010646621035,0.537577370580389,1.2816718726315555,0.9822162690520219,0.2837261375,0.7470056000262526
0.069,1.680975,1.0,2628.920370837363,0.540171224781188,1.280914930257435,0.9823473832096522,0.28365395,0.748363526653254
0.0695,1.67924375,1.0,2626.851885199422,0.5427505280211217,1.2801522372329395,0.9824755516660725,0.28358123749999997,0.7497280738947029
0.07,1.6775,1.0,2624.795549454112,0.5453153600556799,1.2793837939737833,0.9826008488046598,0.283508,0.7510991570944343
0.07050000000000001,1.67574375,1.0,2622.751305451182,0.5478658006403527,1.2786096008956802,0.9827233465109518,0.2834342375,0.7524766909717787
0.07100000000000001,1.673975,1.0,2620.7190951830767,0.55040192953063,1.277829658414344,0.9828431142719404,0.28335995,0.7538605896217121
0.07150000000000001,1.67219375,1.0,2618.6988607843937,0.5529238264820019,1.2770439669454885,0.9829602192707726,0.2832851375,0.7552507665150099
0.07200000000000001,1.6704,1.0,2616.690544530729,0.5554315712499582,1.276252526904828,0.9830747264770889,0.2832098,0.7566471344983972
0.0725,1.66859375,1.0,2614.694088837593,0.5579252435899889,1.275455338708076,0.9831866987332347,0.2831339375,0.7580496057947038
0.073,1.6667750000000001,1.0,2612.70943625975,0.5604049232575838,1.2746524027709465,0.9832961968365544,0.28305755,0.7594580920030158
0.0735,1.66494375,1.0,2610.736529490079,0.5628706900082333,1.2738437195091534,0.9834032796179737,0.2829806375,0.7608725040988269
0.074,1.6631,1.0,2608.775311358467,0.565322623597427,1.2730292893384108,0.9835080040170572,0.2829032,0.7622927524341914
0.0745,1.6612437500000001,1.0,2606.8257248312557,0.567760803780655,1.2722091126744322,0.9836104251537241,0.2828252375,0.7637187467378772
0.075,1.659375,1.0,2604.887713010114,0.5701853103134071,1.271383189932932,0.9837105963967883,0.28274675,0.7651503961155172
0.0755,1.65749375,1.0,2602.9612191310403,0.5725962229511734,1.2705515215296237,0.9838085694294832,0.2826677375,0.7665876090497626
