Time [s],Phi [rad],STIM [ ],Fsee [N],Gamma [ ],Lcerel [ ],q [ ],Lmtc [m],fisomrel [ ]
0.0,1.8,1.0,18.382800289268097,0.0006565408297766474,1.3792934466379827,0.00511112443237486,0.288653,0.5412515348771677
0.0005,1.79999375,1.0,18.891234405365175,0.0062620674637675405,1.3792346941681475,0.014832480387293432,0.2886527375,0.541393643938749
0.001,1.799975,1.0,22.71287798955114,0.011836151525307804,1.3788278955765616,0.03905689239927367,0.28865195,0.5423769946844188
0.0015,1.79994375,1.0,33.23142009356163,0.01737896938320894,1.3778650910935797,0.07526984452963874,0.2886506375,0.5447001687909462
0.002,1.7999,1.0,57.85435826853275,0.02289069641524831,1.376096302412175,0.12021285499617347,0.2886488,0.5489527146425056
0.0025,1.79984375,1.0,103.98093485391527,0.028371507015863887,1.3736101471361826,0.17053138212409752,0.28864643749999996,0.5548962307298471
0.003,1.7997750000000001,1.0,169.67584717238194,0.03382157460430136,1.3708923352815825,0.22341164985920223,0.28864354999999997,0.5613484554508106
0.0035,1.79969375,1.0,247.41827387576032,0.03924107162261702,1.3682878813517565,0.27670131920473345,0.2886401375,0.5674873611270234
0.004,1.7996,1.0,331.758446941804,0.044630169547712595,1.3658856526810177,0.32880412176657503,0.2886362,0.5731112537059493
0.0045000000000000005,1.7994937500000001,1.0,419.88366546402324,0.0499890388948909,1.3636752135218322,0.3786192117518256,0.2886317375,0.5782536322380414
0.005,1.799375,1.0,510.20640656409404,0.05531784919004524,1.3616302199761372,0.42546919883555256,0.28862675,0.5829833673469726
0.0055,1.79924375,1.0,601.6656452927206,0.06061676914968181,1.3597273283642788,0.46900594259010736,0.2886212375,0.5873604886093697
0.006,1.7991000000000001,1.0,693.3819999418866,0.06588596630427658,1.3579497177492132,0.5091194594883955,0.2886152,0.591428570035901
0.006500000000000001,1.79894375,1.0,784.6629194525651,0.07112560742044266,1.3562838401961184,0.545859168339456,0.2886086375,0.5952226569359274
0.007,1.798775,1.0,874.9299477915065,0.0763358583349549,1.3547189842218872,0.5793747694477157,0.28860155,0.5987705428335222
0.0075,1.79859375,1.0,963.6905036756551,0.08151688372306001,1.353246526984621,0.6098731214768763,0.2885939375,0.6020946784862993
0.008,1.7984,1.0,1050.5842703743667,0.08666884790434497,1.3518584599572905,0.6375878442257394,0.2885858,0.6052156382540939
0.0085,1.79819375,1.0,1135.2910551513573,0.09179191351648196,1.350548317961944,0.6627604012393292,0.2885771375,0.6081501172641959
0.009000000000000001,1.797975,1.0,1217.5721410342949,0.09688624259931505,1.349310142705639,0.6856272017195819,0.28856795,0.6109133424839479
0.0095,1.79774375,1.0,1297.2700183735853,0.1019519968172967,1.3481382553423507,0.7064122661030541,0.2885582375,0.6135196274463783
0.01,1.7975,1.0,1374.2511132277289,0.10698933612907177,1.3470278240843412,0.7253237132865241,0.288548,0.6159811521405854
0.0105,1.79724375,1.0,1448.4279772102313,0.11199841976472091,1.3459743687526182,0.7425518724449148,0.2885372375,0.6183091076729189
0.011,1.796975,1.0,1519.7640487714004,0.11697940626401533,1.3449735765834303,0.7582689926643968,0.28852595000000003,0.6205141309286868
0.0115,1.79669375,1.0,1588.2548003252957,0.12193245393726539,1.344021437150103,0.7726299580051744,0.2885141375,0.6226060292767149
0.012,1.7964,1.0,1653.885623048162,0.12685771866576104,1.3431146411096389,0.7857735598930811,0.28850180000000003,0.624592930663915
0.0125,1.79609375,1.0,1716.682068885263,0.13175535630058424,1.3422498862789316,0.7978235067247478,0.2884889375,0.626482829534625
0.013000000000000001,1.7957750000000001,1.0,1776.6849493668394,0.13662552163867234,1.3414241167872614,0.808889948683153,0.28847555,0.6282830754975719
0.0135,1.79544375,1.0,1833.9779915357456,0.14146837031192316,1.340634159631464,0.8190707315172135,0.2884616375,0.6300011775898162
0.014,1.7951000000000001,1.0,1888.6021317907137,0.14628405440641395,1.3398776378415456,0.8284530716517009,0.2884472,0.6316428293853673
0.0145,1.79474375,1.0,1940.6165096055463,0.15107272575991318,1.339152228943151,0.8371144745056002,0.2884322375,0.6332135382745296
0.015,1.794375,1.0,1990.1012696222149,0.1558345362101892,1.3384556104619254,0.8451238372792189,0.28841675,0.6347187491927468
0.0155,1.79399375,1.0,2037.135975757796,0.1605696363351638,1.3377856677531608,0.8525425246778144,0.2884007375,0.6361634013410437
0.016,1.7936,1.0,2081.8251295208306,0.16527817746640702,1.3371401993577836,0.8594251643730921,0.2883842,0.6375525700797
0.0165,1.7931937500000001,1.0,2124.235935405072,0.169960307422622,1.3365175474906232,0.8658206333310189,0.2883671375,0.6388901155321943
0.017,1.792775,1.0,2164.443738734704,0.1746161737642603,1.3359160943753907,0.8717725857672111,0.28834955,0.6401797753175498
0.0175,1.7923437500000001,1.0,2202.5347922316323,0.17924592405177364,1.3353342222357976,0.877320058556595,0.2883314375,0.6414252531808442
0.018000000000000002,1.7919,1.0,2238.591246382606,0.1838497045309485,1.334770454572802,0.8824980507529306,0.2883128,0.6426299194678555
0.0185,1.79144375,1.0,2272.713070754266,0.18842766280897721,1.3342232237519227,0.8873379345922935,0.2882936375,0.6437973109211487
0.019,1.790975,1.0,2304.9719624386535,0.19297994273953492,1.3336913226590488,0.8918679853502613,0.28827395,0.6449301695856333
0.0195,1.79049375,1.0,2335.4389074624078,0.19750668744617006,1.3331736147428743,0.8961136636716964,0.2882537375,0.6460310664514246
0.02,1.79,1.0,2364.1906400493567,0.20200804005243114,1.3326689634520932,0.9000979179473861,0.288233,0.6471025534301973
0.0205,1.78949375,1.0,2391.3020775503614,0.20648414332229284,1.3321763009851881,0.903841481452845,0.2882117375,0.6481470186983345
0.021,1.788975,1.0,2416.8419599453077,0.21093513878227071,1.3316946641751337,0.9073631243225393,0.28818995000000003,0.6491666127479122
0.021500000000000002,1.78844375,1.0,2440.93645061413,0.21536116963590635,1.3312225766859682,0.9106797377301228,0.2881676375,0.6501645557828697
0.022,1.7879,1.0,2463.617474174766,0.21976237420466802,1.3307595085798076,0.9138068395235512,0.2881448,0.6511420519261613
0.0225,1.787345297824002,1.0,2484.9928199327665,0.22413889081002397,1.330304929918767,0.9167585254082585,0.2881215025086081,0.6521002974214235
0.023,1.7867890184027573,1.0,2505.5463549686588,0.22849085777344244,1.3298583107649624,0.9195476189021784,0.2880981387729158,0.653040480928844
0.0235,1.7862327389815127,1.0,2525.3982641274843,0.23281841341639167,1.3294191211805089,0.9221858037167291,0.28807477503722356,0.6539637838031289
0.024,1.7856764595602679,1.0,2544.5851861082606,0.23712169507869976,1.3289869287970577,0.9246837580839741,0.2880514113015312,0.6548711756399225
0.0245,1.7851201801390233,1.0,2563.1186226783016,0.24140083951223634,1.3285615467236254,0.9270512824698174,0.288028047565839,0.655763105913836
0.025,1.7845639007177785,1.0,2581.019181651017,0.24565598130562288,1.3281427085864943,0.9292973285512376,0.2880046838301467,0.656640187504844
0.025500000000000002,1.784007621296534,1.0,2598.3086047999627,0.2498872546966815,1.3277301438636977,0.9314300972639777,0.28798132009445443,0.6575030382751277
0.026000000000000002,1.783451341875289,1.0,2615.006481057148,0.25409479142224534,1.3273236081225541,0.9334571158165397,0.28795795635876215,0.6583522180026551
0.0265,1.7828950624540443,1.0,2631.126166753636,0.2582787167233159,1.326922920048726,0.9353853063924422,0.28793459262306986,0.6591881516161171
0.027,1.7823387830327997,1.0,2646.712883009822,0.262439184241679,1.3265276085552418,0.9372210043150762,0.2879112288873776,0.6600118649591671
0.0275,1.7817825036115549,1.0,2661.782360834539,0.26657632145726096,1.3261374814153482,0.9389700755537813,0.2878878651516853,0.6608237985205786
0.028,1.7812262241903103,1.0,2676.3507513137642,0.2706902558499881,1.3257523464022911,0.9406379295144451,0.287864501415993,0.6616243903488577
0.0285,1.7806699447690655,1.0,2690.4346039246298,0.27478111489978685,1.3253720112893175,0.9422295605645719,0.28784113768030073,0.6624140761146182
0.029,1.780113665347821,1.0,2704.0508456689204,0.2788490260865835,1.3249962838496734,0.9437495852825485,0.2878177739446085,0.6631932891706076
0.029500000000000002,1.779557385926576,1.0,2717.2167610253427,0.2828941168903045,1.3246249718566054,0.9452022759178716,0.28779441020891616,0.663962460609369
0.03,1.7790011065053313,1.0,2729.949972722366,0.2869165147908762,1.32425788308336,0.9465915904890038,0.28777104647322393,0.6647220193185523
0.0305,1.7784448270840867,1.0,2742.2684233282316,0.290916347268225,1.3238948253031835,0.9479211998933418,0.28774768273753165,0.6654723920338657
0.031,1.7778885476628419,1.0,2754.1903576623854,0.29489374180227723,1.3235356062893222,0.9491945123584081,0.28772431900183937,0.6662140033896706
0.0315,1.7773322682415973,1.0,2765.734306024597,0.29884882587295925,1.3231800338150228,0.9504146955238861,0.2877009552661471,0.6669472759672217
0.032,1.7767759888203525,1.0,2776.9190682441968,0.3027817269601974,1.3228279156535316,0.9515846964097197,0.2876775915304548,0.6676726303405494
0.0325,1.776219709399108,1.0,2787.751558224035,0.3066925591694154,1.3224791687699282,0.9527072685793352,0.2876542277947625,0.6683902605531128
0.033,1.775663429977863,1.0,2798.258466005119,0.31058146226423655,1.322133533928242,0.9537849655904941,0.28763086405907023,0.6691007216801725
0.0335,1.7751071505566185,1.0,2808.4523252387967,0.31444855797322835,1.3217908813026675,0.9548201797712694,0.287607500323378,0.6698043007348614
0.034,1.7745508711353737,1.0,2818.3437173697876,0.31829396548337646,1.3214511000167928,0.955815146771415,0.28758413658768567,0.6705012445726846
0.0345,1.7739945917141289,1.0,2827.9433672018367,0.3221178039816664,1.3211140791942069,0.9567719563576712,0.28756077285199344,0.6711917989262011
0.035,1.7734383122928843,1.0,2837.262135974533,0.3259201926550838,1.3207797079584984,0.9576925636460946,0.28753740911630116,0.6718762084249377
0.035500000000000004,1.7728820328716395,1.0,2846.3110147141806,0.32970125069061434,1.3204478754332558,0.9585787993451738,0.2875140453806089,0.6725547166145172
0.036000000000000004,1.772325753450395,1.0,2855.1011178562453,0.33346109727524353,1.3201184707420681,0.9594323791071612,0.2874906816449166,0.673227565974999
0.0365,1.77176947402915,1.0,2863.6436771410017,0.33719985159595706,1.3197913830085237,0.9602549120744838,0.2874673179092243,0.6738949979384429
0.037,1.7712131946079055,1.0,2871.950035781175,0.3409176328397405,1.3194665013562117,0.9610479086988037,0.287443954173532,0.6745572529056811
0.0375,1.7706569151866607,1.0,2880.031642902825,0.34461456019357956,1.3191437149087202,0.9618127879020693,0.28742059043783974,0.6752145702623136
0.038,1.770100635765416,1.0,2887.8988475035553,0.3482907505163129,1.3188229234004973,0.9625508841746637,0.28739722670214746,0.6758671668187519
0.0385,1.7695443563441713,1.0,2895.5556377243483,0.35194631019507444,1.3185040834889603,0.9632634562872529,0.2873738629664552,0.676515142859877
0.039,1.7689880769229265,1.0,2903.020774201626,0.3555813757288601,1.3181870220855136,0.963951683357209,0.2873504992307629,0.6771588615317374
0.0395,1.768431797501682,1.0,2910.3004042856933,0.3591960582501983,1.3178716782205284,0.9646166815586437,0.2873271354950706,0.677798457223421
0.04,1.767875518080437,1.0,2917.400730092051,0.3627904688916173,1.317557990924375,0.9652595032938054,0.2873037717593784,0.6784340637757478
0.0405,1.7673192386591925,1.0,2924.3280062205886,0.36636471878564564,1.3172458992274243,0.9658811415141563,0.2872804080236861,0.6790658144878283
0.041,1.7667629592379477,1.0,2931.0885375578637,0.36991891906481156,1.316935342160047,0.9664825337048848,0.2872570442879938,0.6796938421233865
0.0415,1.766206679816703,1.0,2937.688677161132,0.3734531808616435,1.3166262587526139,0.9670645655623241,0.28723368055230153,0.6803182789168458
0.042,1.7656504003954583,1.0,2944.1348242250933,0.3769676153086698,1.3163185880354955,0.9676280743908869,0.28721031681660925,0.6809392565791789
0.0425,1.7650941209742135,1.0,2950.4334221311246,0.38046233353841885,1.3160122690390628,0.9681738522435861,0.28718695308091696,0.6815569063035173
0.043000000000000003,1.7645378415529689,1.0,2956.5909565787306,0.383937446683419,1.3157072407936863,0.9687026488279125,0.2871635893452247,0.6821713587705274
0.043500000000000004,1.763981562131724,1.0,2962.613953799509,0.3873930658761987,1.315403442329737,0.9692151741968172,0.2871402256095324,0.6827827441535469
0.044,1.7634252827104795,1.0,2968.5089788536766,0.3908293022492862,1.3151008126775852,0.9697121012426804,0.2871168618738401,0.6833911921234865
0.0445,1.7628690032892347,1.0,2974.280863460398,0.3942462607222567,1.314799306284752,0.9701940682867299,0.2870934981381479,0.6839968009012719
0.045,1.76231272386799,1.0,2979.932028398894,0.39764404073269977,1.3144988988239743,0.9706616817881699,0.2870701344024556,0.6845996257605471
0.0455,1.7617564444467453,1.0,2985.474038800448,0.401022775248342,1.3141994866554385,0.9711155162515753,0.2870467706667633,0.6851998806934276
0.046,1.7612001650255005,1.0,2990.910163762251,0.40438256694466673,1.3139010386223802,0.9715561184323163,0.28702340693107103,0.6857976337748437
0.0465,1.7606438856042559,1.0,2996.2436917488085,0.4077235184971572,1.3136035235680354,0.9719840079425413,0.28700004319537875,0.6863929528243389
0.047,1.760087606183011,1.0,3001.47792993672,0.4110457325812967,1.31330691033564,0.9723996788562684,0.28697667945968647,0.6869859054079567
0.0475,1.7595313267617665,1.0,3006.616203580914,0.4143493118725684,1.3130111677684297,0.9728036012049416,0.2869533157239942,0.6875765588400635
0.048,1.7589750473405217,1.0,3011.6618554025363,0.4176343590464557,1.3127162647096404,0.9731962223718789,0.2869299519883019,0.6881649801851089
0.0485,1.758418767919277,1.0,3016.618244998196,0.4209009767784417,1.3124221700025078,0.97357796839334,0.2869065882526096,0.6887512362593243
0.049,1.7578624884980323,1.0,3021.4887482707672,0.42414926774400974,1.3121288524902677,0.9739492451732633,0.28688322451691733,0.6893353936323621
0.0495,1.7573062090767877,1.0,3026.276756881676,0.42737933461864314,1.3118362810161563,0.9743104396181497,0.28685986078122505,0.6899175186288673
0.05,1.7567499296555429,1.0,3030.985677725232,0.43059128007782504,1.311544424423409,0.9746619206980184,0.2868364970455328,0.6904976773299965
0.0505,1.756193650234298,1.0,3035.6189324230995,0.43378520679703875,1.3112532515552617,0.9750040404388776,0.2868131333098405,0.6910759355748628
0.051000000000000004,1.7556373708130535,1.0,3040.179956842466,0.4369612174517675,1.3109627312549506,0.975337134851706,0.28678976957414826,0.6916523589619306
0.051500000000000004,1.7550810913918087,1.0,3044.6722006333903,0.44011941471749466,1.3106728323657109,0.9756615248025388,0.286766405838456,0.6922270128503409
0.052000000000000005,1.754524811970564,1.0,3049.097022420644,0.44325988646231956,1.3103835418284846,0.9759775163978994,0.2867430421027637,0.6927999265370068
0.0525,1.7539685325493193,1.0,3053.456371280057,0.4463827299021302,1.3100948415692715,0.9762854029012935,0.2867196783670714,0.6933711391330626
0.053,1.7534122531280747,1.0,3057.7565737340788,0.449488073764661,1.30980667599298,0.9765854656362324,0.2866963146313791,0.6939407637441986
0.0535,1.7528559737068299,1.0,3061.9992072136038,0.45257601168042233,1.3095190304346893,0.9768779725944134,0.28667295089568684,0.6945088322664856
0.054,1.7522996942855853,1.0,3066.1858557192104,0.4556466372799246,1.3092318902294786,0.9771631802493392,0.28664958715999456,0.6950753764831112
0.0545,1.7517434148643405,1.0,3070.3181096551248,0.4587000441936781,1.3089452407124267,0.9774413341483643,0.28662622342430233,0.695640428064862
0.055,1.7511871354430957,1.0,3074.3975656664584,0.46173632605219317,1.3086590672186131,0.9777126694695167,0.28660285968861,0.6962040185705857
0.0555,1.750630856021851,1.0,3078.425826483163,0.4647555764859802,1.3083733550831167,0.9779774115454589,0.28657949595291776,0.6967661794476467
0.056,1.7500745766006063,1.0,3082.404500766452,0.4677578891255495,1.3080880896410165,0.9782357763567884,0.2865561322172255,0.6973269420323628
0.0565,1.7495182971793617,1.0,3086.3352029620173,0.4707433576014114,1.3078032562273922,0.9784879709967091,0.2865327684815332,0.6978863375504283
0.057,1.7489620177581169,1.0,3090.219553156891,0.4737120755440763,1.3075188401773223,0.9787341941089529,0.2865094047458409,0.6984443971173293
0.0575,1.7484057383368723,1.0,3094.0591769412554,0.4766641365840545,1.3072348268258864,0.9789746363006998,0.28648604101014863,0.6990011517387359
0.058,1.7478494589156275,1.0,3097.855705275265,0.4795996343518563,1.3069512015081637,0.9792094805321104,0.28646267727445635,0.6995566323108887
0.0585,1.7472931794943827,1.0,3101.610774360598,0.4825186624779922,1.3066679495592328,0.9794389024839755,0.28643931353876406,0.7001108696209689
0.059000000000000004,1.746736900073138,1.0,3105.326025516257,0.4854213145929724,1.3063850563141732,0.9796630709048719,0.2864159498030718,0.7006638943474519
0.059500000000000004,1.7461806206518933,1.0,3109.003105060076,0.48830768432730726,1.306102507108064,0.9798821479391224,0.2863925860673795,0.7012157370604515
0.06,1.7456243412306487,1.0,3112.643664194233,0.4911778653115072,1.3058202872759843,0.9800962894367641,0.28636922233168727,0.7017664282220486
0.0605,1.7450680618094039,1.0,3116.24935889542,0.4940319511760825,1.3055383821530133,0.9803056452466409,0.28634585859599493,0.7023159981866045
0.061,1.7445117823881593,1.0,3119.8178477959245,0.49686997365001,1.3052568110994816,0.9805103564890275,0.2863224948603027,0.7028644109610187
0.0615,1.7439555029669145,1.0,3123.354486992662,0.4996920968303848,1.3049755280304378,0.9807105657237316,0.2862991311246104,0.7034117579800881
0.062,1.7433992235456697,1.0,3126.8604266567227,0.5024984121907156,1.3046945226891073,0.980906406422886,0.28627576738891813,0.7039580607246718
0.0625,1.742842944124425,1.0,3130.3363510695485,0.5052890034552957,1.3044137888005223,0.9810980067150632,0.28625240365322585,0.704503332870252
0.063,1.7422866647031803,1.0,3133.782946652354,0.5080639543484186,1.3041333200897156,0.9812854900037943,0.28622903991753357,0.7050475880459395
0.0635,1.7417303852819357,1.0,3137.2009019293564,0.5108233485943774,1.3038531102817195,0.9814689751768402,0.2862056761818413,0.705590839834583
0.064,1.7411741058606909,1.0,3140.5909074908286,0.5135672699174658,1.3035731531015664,0.9816485768047056,0.286182312446149,0.7061331017728729
0.0645,1.7406178264394463,1.0,3143.953655957902,0.5162958020419771,1.3032934422742892,0.9818244053290222,0.2861589487104568,0.7066743873514426
0.065,1.7400615470182015,1.0,3147.2898419473986,0.5190090286922046,1.3030139715249203,0.9819965672413904,0.28613558497476443,0.7072147100149707
0.0655,1.739505267596957,1.0,3150.600162038663,0.5217070335924416,1.3027347345784919,0.9821651652532276,0.2861122212390722,0.7077540831622771
0.066,1.738948988175712,1.0,3153.8853147399273,0.5243899004669816,1.3024557251600366,0.982330298457133,0.2860888575033799,0.7082925201464172
0.0665,1.7383927087544673,1.0,3157.1460004565033,0.5270577130401181,1.3021769369945873,0.9824920624802562,0.28606549376768764,0.7088300342747744
0.067,1.7378364293332227,1.0,3160.3829214597395,0.5297105550361442,1.3018983638071762,0.9826505496301159,0.28604213003199536,0.7093666388091515
0.0675,1.7372801499119779,1.0,3163.596781856394,0.5323485101793534,1.3016199993228357,0.9828058490332894,0.2860187662963031,0.7099023469658565
0.068,1.7367238704907333,1.0,3166.788287559266,0.5349716621940391,1.3013418372665986,0.9829580467673745,0.2859954025606108,0.7104371719157871
0.0685,1.7361675910694885,1.0,3169.9581462585993,0.5375800948044946,1.3010638713634972,0.9831072259865885,0.2859720388249185,0.710971126784514
0.069,1.735611311648244,1.0,3173.107067394389,0.5401738917350135,1.300786095338564,0.9832534670413556,0.2859486750892262,0.7115042246523607
0.0695,1.735055032226999,1.0,3176.235762129388,0.5427531367098889,1.3005085029168317,0.9833968475922124,0.28592531135353394,0.7120364785544788
0.07,1.7344987528057545,1.0,3179.344943323516,0.5453179134534143,1.3002310878233327,0.9835374427183314,0.2859019476178417,0.7125679014809256
