Time [s],Phi [rad],STIM [ ],Fsee [N],Gamma [ ],Lcerel [ ],q [ ],Lmtc [m],fisomrel [ ]
0.0,1.8,1.0,18.422451234345566,0.0006868062528716552,1.3792890572791405,0.005121560003329875,0.288653,0.5412621525137145
0.0005,1.79999375,1.0,18.939347246397485,0.006292163121772089,1.3792294407501593,0.01492576960429921,0.2886527375,0.5414063497076576
0.001,1.799975,1.0,22.78350321036162,0.011866078370473574,1.3788208636569328,0.03922215015116846,0.28865195,0.5423939836040037
0.0015,1.79994375,1.0,33.35451273266464,0.01740872836241983,1.377854960301543,0.07549106676510496,0.2886506375,0.5447245821923448
0.002,1.7999,1.0,58.079350869339976,0.02292028847012393,1.3760822689137264,0.12047164641640998,0.2886488,0.5489863743899988
0.0025,1.79984375,1.0,104.32522385627647,0.028400933082772615,1.3735941266895617,0.17081089425376997,0.28864643749999996,0.5549344021143614
0.003,1.7997750000000001,1.0,170.1034603949841,0.03385083561419084,1.3708767557238701,0.22369866570720923,0.28864354999999997,0.5613853063256913
0.0035,1.79969375,1.0,247.89029109491204,0.039270168501357804,1.368273637667166,0.276985841778244,0.2886401375,0.5675208156868397
0.004,1.7996,1.0,332.25417950236795,0.04465910321596955,1.365872732705749,0.3290789436830352,0.2886362,0.5731414013470268
0.0045000000000000005,1.7994937500000001,1.0,420.392745363876,0.05001781026825994,1.3636634190836094,0.37887962154621785,0.2886317375,0.5782809873100098
0.005,1.799375,1.0,510.7221445265614,0.055346459177638856,1.3616193798629925,0.42571252279315985,0.28862675,0.5830083676897472
0.0055,1.79924375,1.0,602.1837829275203,0.06064521865916411,1.3597172992763522,0.4692310129700014,0.2886212375,0.5873834968154569
0.006,1.7991000000000001,1.0,693.8985478388265,0.065914256234597,1.35794040386504,0.5093261701291885,0.2886152,0.5914498318907273
0.006500000000000001,1.79894375,1.0,785.1745381320845,0.07115373866581923,1.3562751681529637,0.54604809696364,0.2886086375,0.5952423614718669
0.007,1.798775,1.0,875.4341136209956,0.07636383178692757,1.3547108911836192,0.5795469006782794,0.28860155,0.5987888510067687
0.0075,1.79859375,1.0,964.1850498993485,0.08154470026593556,1.3532389626667392,0.6100296577599339,0.2885939375,0.602111719560351
0.008,1.7984,1.0,1051.0674071840629,0.08669650841746177,1.351851382257516,0.6377300745140005,0.2885858,0.6052315204192454
0.0085,1.79819375,1.0,1135.7616873503682,0.09181941887740971,1.350541685566614,0.6628896136306865,0.2885771375,0.6081649447707819
0.009000000000000001,1.797975,1.0,1218.029328737252,0.09691359367770885,1.3493039212242735,0.6857446366090887,0.28856795,0.6109272022236817
0.0095,1.79774375,1.0,1297.7129188681856,0.10197919447546208,1.3481324163045139,0.7065190870343717,0.2885582375,0.6135325915751935
0.01,1.7975,1.0,1374.6792596013954,0.1070163812306316,1.3470223398907455,0.7254209904027796,0.288548,0.6159932895942344
0.0105,1.79724375,1.0,1448.8411278964948,0.1120253131649089,1.3459692138978057,0.7426405789403715,0.2885372375,0.6183204816165
0.011,1.796975,1.0,1520.16196428996,0.11700614880890499,1.3449687297092419,0.7583500073524949,0.28852595000000003,0.6205247943966583
0.0115,1.79669375,1.0,1588.6375546106558,0.12195904648103653,1.3440168765584426,0.7727040680858911,0.2885141375,0.6226160352135628
0.012,1.7964,1.0,1654.2534197995385,0.1268841620515085,1.3431103465524736,0.7858414685093509,0.28850180000000003,0.6246023280887801
0.0125,1.79609375,1.0,1717.0351479747842,0.13178165135730668,1.3422458396618406,0.7978858407556074,0.2884889375,0.6264916620987299
0.013000000000000001,1.7957750000000001,1.0,1777.023125067734,0.13665166919627506,1.3414203069721449,0.808947268244322,0.28847555,0.6282913711321632
0.0135,1.79544375,1.0,1834.301610050912,0.14149437119411673,1.3406305712011086,0.8191235325711584,0.2884616375,0.6300089730969594
0.014,1.7951000000000001,1.0,1888.912088043192,0.14630990945236902,1.3398742509622144,0.8285017931562628,0.2884472,0.6316501707043168
0.0145,1.79474375,1.0,1940.9134240438343,0.15109843578914295,1.3391490283370908,0.8371595081402318,0.2884322375,0.6332204610268086
0.015,1.794375,1.0,1990.3854531658944,0.15586010202254957,1.3384525854073668,0.8451655329017324,0.28841675,0.634725278798052
0.0155,1.79399375,1.0,2037.4074387023766,0.1605950587541379,1.337782811652847,0.8525811951114355,0.2884007375,0.636169554055795
0.016,1.7936,1.0,2082.0840495229704,0.1653034572698749,1.3371375046147749,0.8594610880256738,0.2883842,0.6375583641011564
0.0165,1.7931937500000001,1.0,2124.4830467637103,0.16998544541914798,1.3365150014455895,0.8658540571303222,0.2883671375,0.6388955797260041
0.017,1.792775,1.0,2164.6796555950827,0.17464117075686497,1.335913686348272,0.871803730940379,0.28834955,0.6401849340686059
0.0175,1.7923437500000001,1.0,2202.7599952301684,0.17927078083793366,1.335331943525803,0.8773491236456816,0.2883314375,0.6414301264387998
0.018000000000000002,1.7919,1.0,2238.805870016835,0.18387442191869402,1.3347683004665913,0.882525214814334,0.2883128,0.6426345185035396
0.0185,1.79144375,1.0,2272.917750515014,0.18845224156166931,1.3342211849257684,0.8873633571259197,0.2882936375,0.6438016567181613
0.019,1.790975,1.0,2305.1672265672546,0.19300438359731598,1.3336893912786267,0.891891810131915,0.28827395,0.644934279808991
0.0195,1.79049375,1.0,2335.6254274341213,0.19753099117602507,1.3331717819229707,0.8961360199643048,0.2882537375,0.6460349608745933
0.02,1.79,1.0,2364.3692300871985,0.20203220744818756,1.3326672192566036,0.9001189221408317,0.288233,0.6471062539288228
0.0205,1.78949375,1.0,2391.477739889713,0.20650817505106428,1.3321745951351711,0.9038612294114384,0.2882117375,0.648150632483371
0.021,1.788975,1.0,2417.026830288036,0.21095903592366422,1.3316928784188238,0.9073816881702137,0.28818995000000003,0.6491703903260058
0.021500000000000002,1.78844375,1.0,2441.0962464847316,0.2153849327738509,1.331221040769538,0.910697278218552,0.2881676375,0.650167800228138
0.022,1.7879,1.0,2463.744030276521,0.21978600398986523,1.330758297763527,0.9138234498927174,0.2881448,0.6511446060605037
0.0225,1.78734375,1.0,2485.0312320567286,0.22416238795994825,1.3303038649770056,0.9167742393858952,0.28812143749999997,0.6521025407565436
0.023,1.786775,1.0,2505.0216612840436,0.22851422307234087,1.329856957986187,0.9195624177556913,0.28809755,0.6530433267477643
0.0235,1.78619375,1.0,2523.7816505936967,0.23284164771528407,1.3294167923672853,0.9221996224692898,0.28807313749999996,0.6539686763598498
0.024,1.7856,1.0,2541.366406692039,0.23714479709435948,1.3289827101781888,0.9246964949988554,0.2880482,0.6548800267978757
0.0245,1.78499375,1.0,2557.8492171882067,0.24142381206254648,1.3285539017161074,0.9270627363193852,0.2880227375,0.6557791252140384
0.025,1.784375,1.0,2573.276657381318,0.24567882643527547,1.3281298255692624,0.9293072673949271,0.28799675,0.6566671478695326
0.025500000000000002,1.78374375,1.0,2587.6939120612706,0.24990997329687803,1.3277099667158323,0.9314382671706521,0.2879702375,0.6575452095507273
0.026000000000000002,1.7831000000000001,1.0,2601.147451706108,0.2541173857316858,1.3272938101339955,0.9334632406146532,0.2879432,0.6584144191580743
0.0265,1.78244375,1.0,2613.6849228045007,0.2583011968240303,1.3268808408019304,0.9353890833501777,0.2879156375,0.6592758798361704
0.027,1.781775,1.0,2625.355044060099,0.2624615396582432,1.3264705436978153,0.9372221393017133,0.28788755,0.6601306890869034
0.0275,1.7810987033539396,1.0,2636.447517852067,0.2665985444689742,1.3260624209878629,0.938968253560991,0.28785914554086545,0.6609799031235131
0.028,1.7804223314197414,1.0,2647.3289709939477,0.27071234541806966,1.3256564276947533,0.9406328852796361,0.28783073791962915,0.6618236323376655
0.0285,1.7797459594855434,1.0,2657.9981323703973,0.27480307421081385,1.3252525962023884,0.94222108390811,0.2878023302983928,0.6626618260956826
0.029,1.7790695875513451,1.0,2668.4566761978394,0.27887085809947676,1.3248508981160085,0.9437375056652294,0.2877739226771565,0.6634945599273682
0.029500000000000002,1.778393215617147,1.0,2678.706331471724,0.2829158243363285,1.3244513050408537,0.9451864588007022,0.28774551505592016,0.6643219089836955
0.03,1.7777168436829487,1.0,2688.74888063279,0.2869381001736392,1.3240537885821642,0.946571934045745,0.2877171074346838,0.6651439480406444
0.0305,1.7770404717487507,1.0,2698.5861582505286,0.2909378128636788,1.3236583203451802,0.9478976320398599,0.2876886998134475,0.6659607515029871
0.031,1.7763640998145525,1.0,2708.2200497248023,0.2949150896587175,1.3232648719351416,0.9491669880667125,0.28766029219221123,0.6667723934080245
0.0315,1.7756877278803542,1.0,2717.6526015307977,0.2988700554362082,1.3228734139413572,0.9503831935193978,0.2876318845709749,0.667578949521215
0.032,1.775011355946156,1.0,2726.887525015008,0.3028028280701549,1.3224839022588437,0.9515492131738816,0.28760347694973853,0.668380525458892
0.0325,1.774334984011958,1.0,2735.9284210692363,0.30671355084626617,1.3220962943161758,0.952667815445363,0.28757506932850224,0.6691772231753427
0.033,1.7736586120777598,1.0,2744.779583813554,0.31060234363196,1.3217105417612396,0.953741572955937,0.2875466617072659,0.6699691559939086
0.0335,1.7729822401435615,1.0,2753.445365100116,0.31446932629465435,1.3213265962419218,0.9547728858866269,0.2875182540860296,0.6707564366950923
0.034,1.7723058682093633,1.0,2761.9301725494333,0.3183146187017673,1.320944409406109,0.9557639955953251,0.28748984646479325,0.6715391775222066
0.0345,1.7716294962751653,1.0,2770.238467639809,0.3221383407207168,1.3205639329016874,0.9567169970066035,0.28746143884355696,0.6723174901868701
0.035,1.770953124340967,1.0,2778.374763847114,0.32594061221892096,1.3201851183765436,0.9576338498970491,0.2874330312223206,0.6730914858743583
0.035500000000000004,1.7702767524067688,1.0,2786.3436248378234,0.32972155306379775,1.3198079174785644,0.9585163891861332,0.2874046236010843,0.6738612752488002
0.036000000000000004,1.7696003804725706,1.0,2794.1496627126667,0.3334812831227652,1.319432281855636,0.9593663343305802,0.28737621597984797,0.6746269684582317
0.0365,1.7689240085383726,1.0,2801.797536303104,0.3372199222632413,1.319058163155645,0.9601852979095976,0.2873478083586116,0.6753886751394955
0.037,1.7682476366041744,1.0,2809.2919495191404,0.34093759035264415,1.3186855130264779,0.9609747934789834,0.28731940073737533,0.6761465044229931
0.0375,1.7675712646699762,1.0,2816.6376497485767,0.3446344072583918,1.3183142831160213,0.9617362427638289,0.287290993116139,0.6769005649372879
0.038,1.766894892735778,1.0,2823.8286672301106,0.3483104260114867,1.317944521220747,0.9624709776503706,0.2872625854949027,0.6776507698523915
0.0385,1.76621852080158,1.0,2830.8849402912115,0.35196585244462425,1.3175760437792188,0.9631802606626384,0.28723417787366634,0.6783975013314405
0.039,1.7655421488673817,1.0,2837.8101552187263,0.35560079879072093,1.3172088131305366,0.9638652748100653,0.28720577025243005,0.6791408446183556
0.0395,1.7648657769331835,1.0,2844.607480245597,0.35921537404010706,1.316842796504102,0.9645271345247389,0.2871773626311937,0.6798808746921561
0.04,1.7641894049989852,1.0,2851.280111187076,0.36280968718311307,1.316477961129317,0.9651668905581775,0.2871489550099574,0.6806176661971639
0.0405,1.7635130330647872,1.0,2857.8312705701164,0.3663838472100693,1.316114274235583,0.9657855342965792,0.28712054738872106,0.6813512934455059
0.041,1.762836661130589,1.0,2864.2642067874167,0.3699379631113061,1.3157517030523016,0.9663840017399915,0.2870921397674847,0.6820818304195508
0.0415,1.7621602891963908,1.0,2870.5821932745985,0.37347214387715383,1.3153902148088745,0.9669631771748227,0.2870637321462484,0.682809350774273
0.042,1.7614839172621926,1.0,2876.788527711264,0.3769864984979428,1.3150297767347037,0.9675238965662618,0.28703532452501207,0.6835339278395496
0.0425,1.7608075453279945,1.0,2882.886531246877,0.38048113596400346,1.3146703560591906,0.9680669506946387,0.2870069169037758,0.6842556346223923
0.043000000000000003,1.7601311733937963,1.0,2888.8795477484914,0.3839561652656661,1.314311920011737,0.9685930880574696,0.28697850928253943,0.6849745438091053
0.043500000000000004,1.759454801459598,1.0,2894.770943074593,0.3874116953932611,1.3139544358217445,0.9691030175568907,0.28695010166130314,0.6856907277673792
0.044,1.7587784295253999,1.0,2900.564104370619,0.39084783533711875,1.313597870718615,0.9695974109903519,0.2869216940400668,0.6864042585483129
0.0445,1.7581020575912019,1.0,2906.2624393901133,0.3942646940875695,1.3132421919317496,0.9700769053607919,0.2868932864188305,0.6871152078883703
0.045,1.7574256856570036,1.0,2911.8693758380023,0.3976623806349437,1.3128873666905507,0.970542105021037,0.28686487879759415,0.6878236472112655
0.0455,1.7567493137228054,1.0,2917.3883607393027,0.40104100396957165,1.3125333622244197,0.9709935836658286,0.2868364711763578,0.688529647629782
0.046,1.7560729417886072,1.0,2922.8228598305614,0.40440067308178373,1.3121801457627582,0.9714318861836889,0.2868080635551215,0.6892332799475225
0.0465,1.7553965698544092,1.0,2928.1763569750315,0.4077414969619103,1.3118276845349681,0.9718575303797443,0.2867796559338852,0.689934614660588
0.047,1.754720197920211,1.0,2933.452353602646,0.4110635846002818,1.3114759457704508,0.9722710085796487,0.28675124831264887,0.6906337219591938
0.0475,1.7540438259860127,1.0,2938.6543681727812,0.4143670449872285,1.3111248966986082,0.9726727891238701,0.2867228406914125,0.6913306717292104
0.048,1.7533674540518145,1.0,2943.7808644101287,0.4176519486759546,1.310774548935209,0.9730633160537101,0.2866944330701762,0.6920254455807315
0.0485,1.7526910821176165,1.0,2948.8383434752755,0.4209184381985178,1.3104248437961117,0.9734430163269344,0.2866660254489399,0.6927181643946418
0.049,1.7520147101834183,1.0,2953.829676022028,0.4241666217914526,1.3100757545460084,0.9738122946200256,0.2866376178277036,0.6934088853403174
0.0495,1.75133833824922,1.0,2958.756526032415,0.42739659752699016,1.3097272650972738,0.9741715361722469,0.28660921020646724,0.6940976443091935
0.05,1.7506619663150218,1.0,2963.6205660646383,0.4306084634773619,1.309379359362283,0.974521108384875,0.2865808025852309,0.6947844770426768
0.0505,1.7499855943808238,1.0,2968.4234770415183,0.43380231771479916,1.3090320212534101,0.9748613618071843,0.2865523949639946,0.6954694191327547
0.051000000000000004,1.7493092224466256,1.0,2973.166948045162,0.4369782583115332,1.30868523468303,0.9751926310594318,0.2865239873427583,0.6961525060225852
0.051500000000000004,1.7486328505124273,1.0,2977.8526761172257,0.44013638333979543,1.3083389835635175,0.9755152356973948,0.28649557972152195,0.6968337730070691
0.052000000000000005,1.7479564785782291,1.0,2982.482366065683,0.4432767908718171,1.3079932518072472,0.9758294810226448,0.2864671721002856,0.6975132552334107
0.0525,1.747280106644031,1.0,2987.0577302761135,0.4463995789798295,1.3076480233265937,0.9761356588424073,0.2864387644790493,0.6981909877016571
0.053,1.7466037347098329,1.0,2991.5804885292937,0.4495048457360641,1.3073032820339316,0.9764340481825611,0.28641035685781296,0.6988670052652228
0.0535,1.7459273627756347,1.0,2996.0523678251698,0.45259268921275214,1.3069590118416357,0.9767249159570385,0.28638194923657667,0.6995413426313986
0.054,1.7452509908414364,1.0,3000.475102211129,0.45566320748212497,1.3066151966620807,0.9770085175966515,0.2863535416153403,0.7002140343618417
0.0545,1.7445746189072384,1.0,3004.8504326174875,0.45871649861641395,1.3062718204076411,0.9772850976401213,0.28632513399410403,0.7008851148730537
0.055,1.7438982469730402,1.0,3009.1801066977505,0.4617526606878503,1.3059288669906917,0.9775548902898843,0.2862967263728677,0.7015546184368358
0.0555,1.743221875038842,1.0,3013.465878675097,0.46477179176866545,1.3055863203236069,0.9778181199350546,0.2862683187516314,0.7022225791807333
0.056,1.7425455031046437,1.0,3017.709509194049,0.46777398993109065,1.3052441643187618,0.9780750016437364,0.28623991113039504,0.702889031088459
0.0565,1.7418691311704457,1.0,3021.912765178774,0.4707593532473573,1.3049023828885309,0.9783257416267233,0.2862115035091587,0.7035540080003052
0.057,1.7411927592362475,1.0,3026.073430436629,0.47372792165671274,1.3045609943834398,0.9785705344794359,0.2861830958879224,0.704217476722482
0.0575,1.7405163873020493,1.0,3030.1971929990336,0.47667986279586266,1.304219948923606,0.9788095743389861,0.28615468826668605,0.704879536597317
0.058,1.739840015367851,1.0,3034.2848742190213,0.479615265110356,1.303879238728084,0.9790430429460106,0.28612628064544976,0.7055402049427301
0.0585,1.739163643433653,1.0,3038.3372718870246,0.4825342166268245,1.3035388562464236,0.9792711148043651,0.2860978730242134,0.7061994985606281
0.059000000000000004,1.7384872714994548,1.0,3042.3551868578584,0.48543680537189976,1.3031987939281744,0.9794939575488145,0.2860694654029771,0.7068574341852694
0.059500000000000004,1.7378108995652566,1.0,3046.339422995721,0.4883231193722136,1.3028590442228867,0.9797117322692708,0.28604105778174077,0.707514028483417
0.06,1.7371345276310584,1.0,3050.2907871220687,0.4911932466543976,1.30251959958011,0.9799245938172841,0.2860126501605045,0.708169298054496
0.0605,1.7364581556968604,1.0,3054.2100889630406,0.49404727524508363,1.3021804524493943,0.9801326910958899,0.28598424253926813,0.7088232594307378
0.061,1.7357817837626621,1.0,3058.098141099965,0.4968852931709033,1.301841595280289,0.9803361673338327,0.2859558349180318,0.7094759290773283
0.0615,1.735105411828464,1.0,3061.9557589194187,0.49970738845848833,1.3015030205223446,0.9805351603451291,0.2859274272967955,0.7101273233925468
0.062,1.7344290398942657,1.0,3065.7837605654927,0.5025136491344704,1.3011647206251105,0.9807298027748513,0.28589901967555914,0.7107774587079055
0.0625,1.7337526679600677,1.0,3069.5829668936008,0.5053041632254813,1.3008266880381365,0.980920222331967,0.28587061205432285,0.7114263512882835
0.063,1.7330762960258694,1.0,3073.3542014243294,0.5080790187581526,1.3004889152109729,0.9811065420100068,0.2858422044330865,0.712074017332056
0.0635,1.7323999240916712,1.0,3077.0982903001595,0.5108383037591162,1.3001513945931689,0.9812888802962806,0.2858137968118502,0.712720472971224
0.064,1.731723552157473,1.0,3080.8160622418814,0.5135821062550037,1.2998141186342747,0.9814673513703196,0.28578538919061386,0.713365734271534
0.0645,1.731047180223275,1.0,3084.508348507526,0.5163105142724468,1.2994770797838398,0.9816420652921725,0.28575698156937757,0.714009817232601
0.065,1.7303708082890767,1.0,3088.17598285152,0.5190236158380772,1.2991402704914146,0.981813128181144,0.2857285739481412,0.7146527377880209
0.0655,1.7296944363548785,1.0,3091.819801486356,0.5217214989785266,1.2988036832065484,0.9819806423855295,0.28570016632690487,0.7152945118054869
0.066,1.7290180644206803,1.0,3095.440643044131,0.5244042517204267,1.2984673103787914,0.9821447066438573,0.2856717587056686,0.7159351550868949
0.0665,1.7283416924864823,1.0,3099.0393485403292,0.5270719620904094,1.298131144457693,0.9823054162381238,0.2856433510844323,0.7165746833684508
0.067,1.727665320552284,1.0,3102.6152252330844,0.5297246731667139,1.2977951909889742,0.9824628608332792,0.28561494346319594,0.7172130874484706
0.0675,1.7269889486180858,1.0,3106.1701366183156,0.5323625166104733,1.2974594337271788,0.9826171317210308,0.2855865358419596,0.7178503995111803
0.068,1.7263125766838876,1.0,3109.7047895273313,0.5349855817582742,1.2971238663163058,0.9827683147924198,0.2855581282207233,0.7184866328611289
0.0685,1.7256362047496896,1.0,3113.2195609447535,0.5375939471964999,1.2967884852242235,0.9829164924759782,0.28552972059948695,0.719121795402777
0.069,1.7249598328154914,1.0,3116.714829026527,0.5401876915115336,1.2964532869188004,0.9830617444298823,0.28550131297825065,0.7197558950096921
0.0695,1.7242834608812931,1.0,3120.1909730850443,0.5427668932897586,1.2961182678679048,0.9832041476541372,0.2854729053570143,0.720388939524591
0.07,1.723607088947095,1.0,3123.648373575605,0.5453316311175581,1.295783424539405,0.9833437765974843,0.28544449773577796,0.7210209367593816
0.07050000000000001,1.722930717012897,1.0,3127.0874120819863,0.5478819835813153,1.2954487534011696,0.9834807032593103,0.28541609011454167,0.7216518944952005
