Time [s],Phi [rad],STIM [ ],Fsee [N],Gamma [ ],Lcerel [ ],q [ ],Lmtc [m],fisomrel [ ]
0.0,1.8,1.0,18.49116539297537,0.0007382129553789694,1.3792814617943503,0.005140352963269342,0.288653,0.5412805253161378
0.0005,1.79999375,1.0,19.022502873168385,0.006343281473329533,1.3792203767356381,0.015085192182203215,0.2886527375,0.5414282712642879
0.001,1.799975,1.0,22.905073867842525,0.011916909988513627,1.3788087847479327,0.03950364147612176,0.28865195,0.5424231651715383
0.0015,1.79994375,1.0,33.56575225098263,0.017459274855244,1.3778376182984504,0.07586739405819344,0.2886506375,0.5447663718066151
0.002,1.7999,1.0,58.464272151164955,0.022970551437098405,1.3760583230429801,0.12091156092022817,0.2886488,0.5490438063459873
0.0025,1.79984375,1.0,104.90950325233976,0.028450914114730656,1.3735669993947346,0.17128587000647985,0.28864643749999996,0.5549990336837193
0.003,1.7997750000000001,1.0,170.83045095287275,0.0339005362918743,1.3708503136026067,0.22418621701257826,0.28864354999999997,0.5614478472603581
0.0035,1.79969375,1.0,248.69404333333213,0.039319590397209614,1.368249414651721,0.27746902642984533,0.2886401375,0.5675777060225282
0.004,1.7996,1.0,333.09780873887945,0.044708247894080864,1.3658507678499843,0.3295455826030511,0.2886362,0.5731926519884468
0.0045000000000000005,1.7994937500000001,1.0,421.25884301327153,0.050066679283934726,1.3636433696033186,0.37932173806369773,0.2886317375,0.5783274864271182
0.005,1.799375,1.0,511.5988211660336,0.055395054072596595,1.361600965859706,0.426125604353147,0.28862675,0.5830508338307647
0.0055,1.79924375,1.0,603.0648499942101,0.06069354098015838,1.3597002552165542,0.4696130780225611,0.2886212375,0.587422596929674
0.006,1.7991000000000001,1.0,694.7768420900761,0.06596230750592022,1.3579245752809328,0.5096770539709928,0.2886152,0.5914859643174868
0.006500000000000001,1.79894375,1.0,786.0441004084543,0.07120152040463193,1.3562604353706416,0.5463687905658121,0.2886086375,0.5952758360635234
0.007,1.798775,1.0,876.2908651388651,0.07641134550997827,1.354697143665208,0.5798390777195157,0.28860155,0.5988199498588738
0.0075,1.79859375,1.0,965.0258857538693,0.08159194747501612,1.3532261061372268,0.610295356924988,0.2885939375,0.6021406822166218
0.008,1.7984,1.0,1051.889051618779,0.08674349060326661,1.3518393493338474,0.6379714883194486,0.2885858,0.6052585212383128
0.0085,1.79819375,1.0,1136.56202742175,0.09186613753398942,1.3505304099099398,0.6631089320106883,0.2885771375,0.6081901521950561
0.009000000000000001,1.797975,1.0,1218.80677537401,0.09696005027762013,1.3492933442898858,0.6859439655193965,0.28856795,0.6109507641415413
0.0095,1.79774375,1.0,1298.4658795500711,0.10202539048643446,1.3481224918332226,0.7067004028768027,0.2885582375,0.6135546258923081
0.01,1.7975,1.0,1375.4068760928349,0.10706231812778941,1.3470130216963767,0.7255861099823189,0.288548,0.6160139119041772
0.0105,1.79724375,1.0,1449.5432516311814,0.1120709923892238,1.3459604552302395,0.7427911522118545,0.2885372375,0.618339806814048
0.011,1.796975,1.0,1520.8372877643887,0.11705157177688694,1.3449605052743274,0.7584875310526319,0.28852595000000003,0.6205428883956656
0.0115,1.79669375,1.0,1589.286432852896,0.12200421467780925,1.3440091463031372,0.7728298764685697,0.2885141375,0.6226329950886058
0.012,1.7964,1.0,1654.8768015539815,0.12692907692934863,1.3431030687622076,0.7859567514744793,0.28850180000000003,0.6246182532077673
0.0125,1.79609375,1.0,1717.633528518969,0.13182631428849229,1.3422389826102465,0.7979916616797093,0.2884889375,0.6265066287688246
0.013000000000000001,1.7957750000000001,1.0,1777.596126524177,0.13669608159921878,1.3414138524876953,0.8090445780661869,0.28847555,0.628305425157877
0.0135,1.79544375,1.0,1834.8482299166155,0.14153853440548286,1.3406245107484323,0.8192131796884738,0.2884616375,0.6300221386396402
0.014,1.7951000000000001,1.0,1889.4356971088537,0.14635382497251598,1.3398685301384547,0.8285845144718008,0.2884472,0.6316625708594588
0.0145,1.79474375,1.0,1941.415908806262,0.1511421050303493,1.339143612331715,0.8372359653722494,0.2884322375,0.6332321754291944
0.015,1.794375,1.0,1990.8670908035606,0.1559035263090141,1.3384474590021656,0.8452363211150771,0.28841675,0.6347363440528618
0.0155,1.79399375,1.0,2037.867224980656,0.16063823950613085,1.337777974609932,0.8526468490948595,0.2884007375,0.6361799740701917
0.016,1.7936,1.0,2082.5213860144304,0.16534639574364005,1.3371329533598468,0.859522083079294,0.2883842,0.6375681497412862
0.0165,1.7931937500000001,1.0,2124.900084004729,0.17002814301389188,1.3365107049509881,0.8659108092155511,0.2883671375,0.6389048005528987
0.017,1.792775,1.0,2165.0779238765285,0.17468362885588667,1.3359096214815946,0.8718566140594749,0.28834955,0.6401936422069254
0.0175,1.7923437500000001,1.0,2203.1403630175723,0.17931300080862472,1.3353280950499051,0.8773984747316259,0.2883314375,0.6414383567289599
0.018000000000000002,1.7919,1.0,2239.1678146000986,0.18391640518664246,1.3347646679827652,0.8825713399726259,0.2883128,0.6426422738213935
0.0185,1.79144375,1.0,2273.262750219279,0.18849398936129158,1.3342177485728386,0.8874065258692123,0.2882936375,0.643808981310277
0.019,1.790975,1.0,2305.4963242230783,0.19304589710873943,1.333686136320178,0.8919322660575693,0.28827395,0.6449412067210192
0.0195,1.79049375,1.0,2335.940185225406,0.1975722716998331,1.3331686891528656,0.8961739815047849,0.2882537375,0.6460415324239837
0.02,1.79,1.0,2364.671735065513,0.2020732564054197,1.332664264998984,0.9001545854133911,0.288233,0.6471125216603502
0.0205,1.78949375,1.0,2391.7671189100697,0.2065489935111235,1.3321717851235793,0.9038947780439377,0.2882117375,0.6481565853565521
0.021,1.788975,1.0,2417.3087716921927,0.21099962613176299,1.3316901551354385,0.9074132753470072,0.28818995000000003,0.6491761511040457
0.021500000000000002,1.78844375,1.0,2441.3681659998715,0.21542529536898145,1.3312184272652918,0.910727058772472,0.2881676375,0.6501733209180696
0.022,1.7879,1.0,2464.0047330961233,0.21982613989753128,1.3307558036063094,0.913851561833526,0.2881448,0.6511498672855374
0.0225,1.78734375,1.0,2485.280940804559,0.22420229839216488,1.3303014862516624,0.9168008057035728,0.28812143749999997,0.6521075515942055
0.023,1.786775,1.0,2505.26203963889,0.22855390952763463,1.3298546772945212,0.9195875480141678,0.28809755,0.653048124575661
0.0235,1.78619375,1.0,2524.009179737835,0.23288111064132128,1.329414641623216,0.9222234252383943,0.28807313749999996,0.6539731947839547
0.024,1.7856,1.0,2541.5879563484345,0.2371840400931635,1.3289806232122952,0.9247190533417079,0.2880482,0.6548844054555163
0.0245,1.78499375,1.0,2558.063080882597,0.2414628357467488,1.3285518936505119,0.927084138927903,0.2880227375,0.6557833328401237
0.025,1.784375,1.0,2573.480171610295,0.2457176311133034,1.328127920414195,0.9293275968916173,0.28799675,0.6566711347087237
0.025500000000000002,1.78374375,1.0,2587.8862742334377,0.24994855970405355,1.3277081709796732,0.9314575966275522,0.2879702375,0.6575489626057311
0.026000000000000002,1.7831000000000001,1.0,2601.3297422205983,0.2541557550302256,1.3272921128232757,0.9334816344888998,0.2879432,0.6584179620015183
0.0265,1.78244375,1.0,2613.8601234290436,0.25833935060304564,1.3268792134213319,0.9354065983195654,0.2879156375,0.6592792724268219
0.027,1.781775,1.0,2625.52587086713,0.26249947917313676,1.3264689604739968,0.9372388278063554,0.28788755,0.6601339854815942
0.0275,1.7810937500000001,1.0,2636.36916196967,0.2666362716045212,1.3260609086799386,0.9389841721375792,0.2878589375,0.6609830479298875
0.028,1.7804,1.0,2646.443854605822,0.27074986323475553,1.3256545125008168,0.9406480129019196,0.2878298,0.6618276099740286
0.0285,1.77969375,1.0,2655.7836312415316,0.27484038198960475,1.3252494198984448,0.9422353443339109,0.2878001375,0.6626684147185113
0.029,1.778975,1.0,2664.422775569667,0.2789079557948341,1.3248452788346372,0.9437507831570002,0.28776995,0.6635062015907105
0.029500000000000002,1.7782437500000001,1.0,2672.3961196475007,0.2829527125762084,1.3244417372712074,0.945198601988126,0.2877392375,0.6643417063662016
0.03,1.7775,1.0,2679.738993781512,0.2869747802594929,1.3240384431699697,0.9465827593876942,0.287708,0.6651756611861682
0.0305,1.77674375,1.0,2686.487179160792,0.29097428677045256,1.323635044492738,0.9479069269283305,0.2876762375,0.6660087945669115
0.031,1.775975,1.0,2692.6726278718284,0.29495135740375333,1.3232312279615563,0.9491745176908295,0.28764395,0.6668417515002054
0.0315,1.7751937500000001,1.0,2698.3250367988203,0.2989061183854211,1.3228267040840045,0.9503887071701052,0.2876111375,0.6676751247776103
0.032,1.7744,1.0,2703.4818972302996,0.30283870163230675,1.32242111493243,0.9515524430784267,0.2875778,0.6685096449162268
0.0325,1.77359375,1.0,2708.1655956553736,0.3067492287386261,1.3220142431226587,0.9526684842756403,0.2875439375,0.6693457500833586
0.033,1.772775,1.0,2712.3987318943673,0.3106378212985946,1.3216058712705159,0.9537394024100828,0.28750955,0.6701838761617742
0.0335,1.7719437500000002,1.0,2716.2040985968392,0.31450460090642784,1.321195781991827,0.9547675968703354,0.2874746375,0.671024456730417
0.034,1.7711000000000001,1.0,2719.6046617867155,0.3183496891563415,1.3207837579024173,0.9557553083734923,0.2874392,0.6718679230421025
0.0345,1.7702437500000001,1.0,2722.623542455907,0.32217320764255103,1.3203695816181125,0.9567046313286947,0.2874032375,0.6727147039982002
0.035,1.7693750000000001,1.0,2725.283999204846,0.3259752779592721,1.3199530357547382,0.9576175250991925,0.28736675,0.6735652261203036
0.035500000000000004,1.76849375,1.0,2727.609411931669,0.3297560217007203,1.3195339029281195,0.9584958242725833,0.2873297375,0.6744199135188875
0.036000000000000004,1.7676,1.0,2729.6153641451097,0.3335155547647369,1.3191120375825511,0.9593412541283965,0.2872922,0.6752790416770169
0.0365,1.76669375,1.0,2731.323238768734,0.3372540006815763,1.3186872422095584,0.9601554291741876,0.2872541375,0.6761429899644971
0.037,1.765775,1.0,2732.7566069859404,0.3409714829207089,1.3182593001368603,0.9609398628245323,0.28721555,0.6770121743507521
0.0375,1.76484375,1.0,2733.928445644372,0.3446681161284155,1.3178280915396905,0.9616959842347957,0.2871764375,0.67788681195229
0.038,1.7639,1.0,2734.851781831747,0.34834401495097705,1.3173934965932819,0.9624251368454253,0.28713679999999997,0.6787671183682729
0.0385,1.76294375,1.0,2735.539686716304,0.3519992940346744,1.3169553954728672,0.9631285844598334,0.28709663750000003,0.6796533076550968
0.039,1.761975,1.0,2736.005269704043,0.3556340680257884,1.31651366835368,0.963807516827708,0.28705595,0.6805455923000532
0.0395,1.7609937500000001,1.0,2736.2616729162714,0.3592484515705999,1.3160681954109532,0.9644630547788889,0.2870147375,0.6814441831940801
0.04,1.76,1.0,2736.322065983787,0.36284255931538983,1.3156188568199199,0.9650962549484249,0.286973,0.6823492896035935
0.0405,1.7589937500000001,1.0,2736.1996411604405,0.36641650590643904,1.3151655327558132,0.9657081141293528,0.2869307375,0.6832611191414046
0.041,1.757975,1.0,2735.9076087544854,0.36997040599002845,1.3147081033938661,0.9662995732861522,0.28688795,0.684179877736721
0.0415,1.75694375,1.0,2735.4520885529414,0.37350436777056645,1.3142465134146106,0.9668715256468875,0.2868446375,0.6851056403276816
0.042,1.7559,1.0,2734.84828052791,0.37701850903755,1.3137806251618598,0.9674248102006396,0.28680079999999997,0.6860386456410474
0.0425,1.75484375,1.0,2734.109857431119,0.38051294414603637,1.3133103149062209,0.9679602210366014,0.2867564375,0.6869791025936376
0.043000000000000003,1.753775,1.0,2733.2439211713504,0.3839877809219296,1.3128355186337777,0.9684785134746556,0.28671155,0.6879270991107632
0.043500000000000004,1.75269375,1.0,2732.257578467912,0.3874431271911337,1.3123561723306139,0.9689804027664557,0.28666613750000003,0.6888827219609945
0.044,1.7516,1.0,2731.157939249988,0.3908790907795528,1.3118722119828128,0.9694665666168008,0.2866202,0.6898460567377152
0.0445,1.75049375,1.0,2729.9521151485524,0.394295779513091,1.3113835735764579,0.9699376475222317,0.2865737375,0.6908171878404167
0.045,1.7493750000000001,1.0,2728.6472180777905,0.39769330121765245,1.3108901930976333,0.9703942549417701,0.28652675,0.6917961984557279
0.0455,1.74824375,1.0,2727.2503589081566,0.40107176371914105,1.3103920065324222,0.9708369673133679,0.2864792375,0.6927831705381913
0.046,1.7471,1.0,2725.768646230067,0.404431274843461,1.3098889498669082,0.9712663339284325,0.2864312,0.693778184790768
0.0465,1.7459437500000001,1.0,2724.2091852084022,0.4077719424165163,1.309380959087175,0.9716828766756783,0.28638263750000004,0.6947813206450886
0.047,1.744775,1.0,2722.5743000058537,0.4110938640056192,1.308868013651253,0.9720870934605127,0.28633355,0.6957925706094689
0.0475,1.74359375,1.0,2720.8745466276528,0.41439715595713056,1.3083500180790528,0.9724794549372286,0.28628393750000003,0.6968120738222188
0.048,1.7424,1.0,2719.1166562869175,0.4176819260445089,1.3078269116273122,0.972860410296433,0.2862338,0.6978398994833894
0.0485,1.74119375,1.0,2717.3042242573915,0.4209482751508179,1.3072986620612916,0.9732303883094997,0.2861831375,0.6988760596152426
0.049,1.739975,1.0,2715.4408428437287,0.4241963041591212,1.3067652371462508,0.9735897973937468,0.28613195,0.6999205653016726
0.0495,1.73874375,1.0,2713.530101034623,0.4274261139524825,1.3062266046474498,0.9739390267611272,0.2860802375,0.7009734266775973
0.05,1.7375,1.0,2711.5755841783985,0.43063780541396546,1.3056827323301488,0.9742784474920226,0.286028,0.7020346529182865
0.0505,1.73624375,1.0,2709.5808736817585,0.4338314794266338,1.3051335879596073,0.974608413539667,0.2859752375,0.7031042522286244
0.051000000000000004,1.734975,1.0,2707.549546731641,0.43700723687355114,1.304579139301086,0.974929262670252,0.28592195,0.7041822318323013
0.051500000000000004,1.73369375,1.0,2705.485176040116,0.44016517863778115,1.3040193541198446,0.9752413173433719,0.2858681375,0.7052685979609457
0.052000000000000005,1.7324,1.0,2703.391329612151,0.4433054056023875,1.3034542001811429,0.9755448855370836,0.2858138,0.7063633558431852
0.0525,1.73109375,1.0,2701.271570536811,0.4464280186504339,1.3028836452502413,0.9758402615215216,0.28575893750000003,0.7074665096936417
0.053,1.729775,1.0,2699.1284809962335,0.44953311110607735,1.3023076660118567,0.9761277263607162,0.28570355000000003,0.7085780455053052
0.0535,1.72844375,1.0,2696.9639815152927,0.4526207686191311,1.3017262451672456,0.9764075484432635,0.2856476375,0.7096979367897808
0.054,1.7271,1.0,2694.7850086085505,0.4556911226841487,1.3011393195063556,0.9766799863279971,0.2855912,0.7108262444108707
0.0545,1.7257437500000001,1.0,2692.592979766305,0.45874426603998447,1.3005468762269892,0.9769452866276791,0.2855342375,0.7119629310911954
0.055,1.724375,1.0,2690.3893103174,0.46178029142549293,1.2999489025269477,0.9772036854690652,0.28547675,0.7131079587783151
0.0555,1.72299375,1.0,2688.1754133950044,0.4647992915795285,1.2993453856040336,0.9774554090236287,0.2854187375,0.7142612886402183
0.056,1.7216,1.0,2685.952699905696,0.46780135924094557,1.2987363126560485,0.9777006740071793,0.2853602,0.7154228810608024
0.0565,1.72019375,1.0,2683.7225785024116,0.47078658714859856,1.2981216708807946,0.977939688150439,0.28530113749999997,0.7165926956353419
0.057,1.718775,1.0,2681.4864555610893,0.4737550680413419,1.297501447476074,0.9781726506424884,0.28524155,0.7177706911659465
0.0575,1.71734375,1.0,2679.2457351604967,0.47670689465803,1.2968756296396886,0.9783997525488489,0.2851814375,0.7189568256570104
0.058,1.7159,1.0,2677.001819066273,0.47964215973751734,1.2962442045694402,0.9786211772058501,0.2851208,0.7201510563106495
0.0585,1.71444375,1.0,2674.756106718414,0.4825609560186583,1.295607159463131,0.9788371005927989,0.2850596375,0.7213533395221269
0.059000000000000004,1.7129750000000001,1.0,2672.5099952219607,0.4854633762403073,1.2949644815185632,0.9790476916833714,0.28499795,0.7225636308752716
0.059500000000000004,1.71149375,1.0,2670.2648793421463,0.48834951314131875,1.2943161579335385,0.979253112777536,0.2849357375,0.7237818851378841
0.06,1.71,1.0,2668.022151502288,0.4912194594605471,1.293662175905859,0.9794535198152341,0.284873,0.725008056257131
0.0605,1.7084937500000001,1.0,2665.7832017861315,0.49407330793684684,1.2930025226333266,0.9796490626729517,0.2848097375,0.7262420973549328
0.061,1.7069750000000001,1.0,2663.549417943114,0.49691115130907226,1.2923371853137435,0.9798398854442414,0.28474595,0.7274839607233354
0.0615,1.7054437500000001,1.0,2661.3220281244817,0.4997330808241762,1.29166615259266,0.9800261266651791,0.2846816375,0.7287335951268978
0.062,1.7039,1.0,2659.099506636084,0.5025391828127797,1.2909894384573537,0.9802079205578701,0.2846168,0.7299909014868431
0.0625,1.70234375,1.0,2656.8825127400446,0.5053295450878956,1.2903070367885792,0.9803853953663607,0.2845514375,0.731255817573452
0.063,1.7007750000000001,1.0,2654.6724737486475,0.5081042553679926,1.2896189343779834,0.9805586741701207,0.28448555,0.7325282935260248
0.0635,1.69919375,1.0,2652.4708146064277,0.5108634013715391,1.288925118017213,0.9807278754811712,0.28441913750000003,0.7338082786311848
0.064,1.6976002243578112,1.0,2650.3014379705455,0.5136070683928506,1.2882254684544978,0.9808931078987155,0.2843522094230281,0.7350959162442132
0.0645,1.6960025926790052,1.0,2648.5529381670945,0.5163353420231015,1.2875200889563923,0.9810544872267617,0.28428510889251823,0.7363909389238148
0.065,1.6944049610001992,1.0,2647.335881116912,0.5190483179413039,1.2868098095340255,0.9812121620462552,0.2842180083620084,0.7376917511321941
0.0655,1.6928073293213934,1.0,2646.6190305283267,0.5217460795288239,1.2860949151450431,0.9813662479824361,0.28415090783149854,0.7389977663525209
0.066,1.6912096976425874,1.0,2646.371314504787,0.5244287101670277,1.285375690747092,0.9815168566233188,0.2840838073009887,0.7403084028399878
0.0665,1.6896120659637814,1.0,2646.561797287748,0.5270962932372819,1.2846524212978176,0.9816640956973659,0.2840167067704788,0.7416230837030923
0.067,1.6880144342849754,1.0,2647.159652800559,0.5297489121209524,1.2839253917548668,0.9818080692422148,0.28394960623996895,0.7429412369797368
0.0675,1.6864168026061697,1.0,2648.1341399917546,0.5323866501994057,1.2831948870758851,0.9819488777649581,0.2838825057094591,0.7442622957081526
0.068,1.6848191709273637,1.0,2649.4545799794046,0.5350095908540079,1.2824611922185192,0.982086618394452,0.28381540517894926,0.7455856979926427
0.0685,1.6832215392485577,1.0,2651.0903349954856,0.5376178174661254,1.281724592140415,0.9822213850260978,0.2837483046484394,0.7469108870641481
0.069,1.6816239075697517,1.0,2653.0107891309517,0.5402114134171243,1.2809853717992186,0.9823532684595068,0.2836812041179296,0.7482373113356343
0.0695,1.6800262758909459,1.0,2655.1853308804457,0.542790462088371,1.2802438161525762,0.9824823565294445,0.28361410358741973,0.7495644244522993
0.07,1.6784286442121399,1.0,2657.588040791056,0.5453550459598129,1.2795001668323251,0.982608732162155,0.2835470030569099,0.7508917625660154
0.07050000000000001,1.6768310125333339,1.0,2660.2105856546536,0.5479052430426837,1.2787545034027903,0.9827324678643283,0.28347990252640004,0.7522191544408922
0.07100000000000001,1.6752333808545279,1.0,2663.034987614138,0.5504411337092122,1.2780069942798309,0.9828536380074949,0.28341280199589014,0.7535462727407337
0.07150000000000001,1.673635749175722,1.0,2666.0322917960552,0.552962803881065,1.2772579087013134,0.9829723195225968,0.2833457014653803,0.7548726149954534
0.07200000000000001,1.672038117496916,1.0,2669.1913848241265,0.5554703314184243,1.2765073514760248,0.9830885790150762,0.28327860093487045,0.7561979737873537
0.0725,1.67044048581811,1.0,2672.501141437246,0.5579637941814722,1.275755427412752,0.9832024809904778,0.2832115004043606,0.7575221436620231
0.073,1.6688428541393043,1.0,2675.950421191295,0.5604432700303911,1.2750022413202822,0.9833140879370503,0.28314439987385076,0.758844921137823
0.0735,1.6672452224604983,1.0,2679.5280654048597,0.5629088368253632,1.2742478980074021,0.9834234604046104,0.2830772993433409,0.7601661047146734
0.074,1.6656475907816923,1.0,2683.222894348187,0.5653605724265708,1.2734925022828991,0.9835306570798584,0.28301019881283107,0.7614854948821379
