Time [s],Phi [rad],STIM [ ],Fsee [N],Gamma [ ],Lcerel [ ],q [ ],Lmtc [m],fisomrel [ ]
0.0,1.8,1.0,18.042040131867015,0.00027861321856166766,1.3793313656583144,0.005020151560401431,0.288653,0.5411598055733362
0.0005,1.79999375,1.0,18.438264608800253,0.005886259727579238,1.3792844854759818,0.013703043376576154,0.2886527375,0.5412732113431753
0.001,1.799975,1.0,21.979319457387696,0.011462451773347579,1.378901590219837,0.03702204452555237,0.28865195,0.5421989315334146
0.0015,1.79994375,1.0,31.86282504376137,0.01700736579152687,1.3779790189809986,0.0725275617597478,0.2886506375,0.5444255778385265
0.002,1.7999,1.0,55.235744592234816,0.022521177225913805,1.3762616853187555,0.11699290258681143,0.2886488,0.5485559443912305
0.0025,1.79984375,1.0,99.85075986004242,0.02800406053746963,1.3738044401851042,0.1670461148630797,0.28864643749999996,0.5544331648530003
0.003,1.7997750000000001,1.0,164.482436298971,0.033456189209839046,1.371083141294709,0.21982755653864006,0.28864354999999997,0.5608970097157238
0.0035,1.79969375,1.0,241.64865064624834,0.038877735750843474,1.3684630971408684,0.273144641376429,0.2886401375,0.5670757208079048
0.004,1.7996,1.0,325.67572151104724,0.04426887170259158,1.3660449759103475,0.3253660792427568,0.2886362,0.5727393992691109
0.0045000000000000005,1.7994937500000001,1.0,413.6196954106495,0.04962976764689936,1.3638209275744884,0.3753596643121356,0.2886317375,0.5779156015906852
0.005,1.799375,1.0,503.8488662161103,0.05496059319703599,1.3617642996117492,0.42242228239726765,0.28862675,0.5826740801225146
0.0055,1.79924375,1.0,595.2612630321189,0.06026151703556215,1.3598516501846931,0.4661868924248543,0.2886212375,0.5870752227657949
0.006,1.7991000000000001,1.0,686.9901977229043,0.06553270688249271,1.3580652567922986,0.5065298600332419,0.2886152,0.5911647700199785
0.006500000000000001,1.79894375,1.0,778.3226837044764,0.07077432950136074,1.3563915440359255,0.5434920732970994,0.2886086375,0.5949778933025796
0.007,1.798775,1.0,868.6731801974105,0.07598655081923819,1.3548196146403642,0.5772180090549196,0.28860155,0.5985428605435698
0.0075,1.79859375,1.0,957.5501986024059,0.08116953557451494,1.3533406079987316,0.6079116818203643,0.2885939375,0.6018827000608633
0.008,1.7984,1.0,1044.5793771945027,0.08632344805287367,1.351946564668692,0.6358056768358605,0.2885858,0.6050179069448542
0.0085,1.79819375,1.0,1129.4398067589543,0.09144845110079271,1.350630891895583,0.6611413679294408,0.2885771375,0.6079654899505996
0.009000000000000001,1.797975,1.0,1211.8873446165755,0.09654470671993774,1.349387600077831,0.6841557759133726,0.28856795,0.6107407682138188
0.0095,1.79774375,1.0,1291.7597218124572,0.10161237668239531,1.348210984586676,0.7050738981405408,0.2885582375,0.6133581320573266
0.01,1.7975,1.0,1368.9208649839215,0.10665162104643292,1.3470961717204806,0.7241049979667117,0.288548,0.6158298711000851
0.0105,1.79724375,1.0,1443.2821190544153,0.11166259898210443,1.3460386350061468,0.7414406036508574,0.2885372375,0.6181672929945239
0.011,1.796975,1.0,1514.7996104804179,0.11664546903257493,1.345034100149877,0.7572541881052718,0.28852595000000003,0.6203809621612395
0.0115,1.79669375,1.0,1583.4734338811122,0.12160038985188053,1.3440784544365296,0.7717017303586676,0.2885141375,0.6224809221701819
0.012,1.7964,1.0,1649.2902884165965,0.12652751737921464,1.3431683385731679,0.7849230623123555,0.28850180000000003,0.6244754190080728
0.0125,1.79609375,1.0,1712.2694492477585,0.13142700719852649,1.342300494175487,0.7970428802992071,0.2884889375,0.626372358696484
0.013000000000000001,1.7957750000000001,1.0,1772.4580541226608,0.13629901442163297,1.341471766708644,0.8081721672713161,0.28847555,0.6281793129492265
0.0135,1.79544375,1.0,1829.9229248519946,0.14114369414783384,1.3406791509356595,0.8184096166442629,0.2884616375,0.6299034314979532
0.014,1.7951000000000001,1.0,1884.7201218935295,0.1459611994391623,1.3399200799668463,0.827843065976535,0.2884472,0.6315508266432808
0.0145,1.79474375,1.0,1936.9050333553787,0.15075168191953525,1.3391922576907012,0.8365506486533204,0.2884322375,0.6331269525595822
0.015,1.794375,1.0,1986.55403301553,0.15551529321286953,1.338493387995721,0.8446018163774497,0.28841675,0.634637201158094
0.0155,1.79399375,1.0,2033.7469572499176,0.16025218395148813,1.3378213401300125,0.8520584093519515,0.2884007375,0.636086550232023
0.016,1.7936,1.0,2078.5854757499505,0.16496250558854836,1.3371739306446513,0.858975485413867,0.2883842,0.6374800398394002
0.0165,1.7931937500000001,1.0,2121.142532316945,0.16964640634787162,1.3365494320715352,0.8654022745366635,0.2883671375,0.6388216829474718
0.017,1.792775,1.0,2161.491562244863,0.17430403360999216,1.335946238641055,0.8713827659441753,0.28834955,0.6401151936955591
0.0175,1.7923437500000001,1.0,2199.716926412315,0.17893553475544427,1.3353627445836014,0.8769562919632483,0.2883314375,0.6413642523767671
0.018000000000000002,1.7919,1.0,2235.9055981236806,0.18354105634220758,1.3347974182689595,0.8821580947875758,0.2883128,0.6425723492360951
0.0185,1.79144375,1.0,2270.1503963972323,0.1881207454030747,1.3342487584645222,0.8870197927912329,0.2882936375,0.6437428809468289
0.019,1.790975,1.0,2302.5311800151007,0.19267474694003295,1.3337154716305124,0.891569841893491,0.28827395,0.6448787754924257
0.0195,1.79049375,1.0,2333.1165290354616,0.19720320382722387,1.333196441494735,0.8958338879738363,0.2882537375,0.6459825617833087
0.02,1.79,1.0,2361.9807460026136,0.20170625893878902,1.3326905517849958,0.8998350436875077,0.288233,0.6470567498501116
0.0205,1.78949375,1.0,2389.2033772006794,0.20618405514886995,1.3321966862291,0.9035941728020708,0.2882117375,0.6481038318188933
0.021,1.788975,1.0,2414.8551384782636,0.21063673335313163,1.3317138602033083,0.9071301672040897,0.28818995000000003,0.6491260043017222
0.021500000000000002,1.78844375,1.0,2439.024952547717,0.21506443743983186,1.3312409534083187,0.9104601082757496,0.2881676375,0.6501257359220282
0.022,1.7879,1.0,2461.7750908447824,0.21946730662483047,1.3307771389712004,0.9135995473951554,0.2881448,0.6511048607590153
0.0225,1.78734375,1.0,2483.1628066881703,0.22384547885524025,1.330321667389682,0.9165626258620291,0.28812143749999997,0.6520650384339932
0.023,1.786775,1.0,2503.2480603221297,0.22819909207817393,1.3298737891614925,0.9193622087606292,0.28809755,0.6530079184446405
0.0235,1.78619375,1.0,2522.0932926966025,0.2325282842407443,1.3294327547843603,0.922010017793682,0.28807313749999996,0.6539351405458786
0.024,1.7856,1.0,2539.7577244855315,0.23683319282113346,1.328997866462278,0.9245167579180652,0.2880482,0.6548482266048123
0.0245,1.78499375,1.0,2556.288754127409,0.24111395333366534,1.3285685561704874,0.9268922330728734,0.2880227375,0.6557484180358459
0.025,1.784375,1.0,2571.7925045318884,0.24537070495820454,1.3281437214283702,0.9291453233719337,0.28799675,0.6566380678799113
0.025500000000000002,1.78374375,1.0,2586.2990988828633,0.24960358032835545,1.3277229895497804,0.9312842874169641,0.2879702375,0.6575179914558499
0.026000000000000002,1.7831000000000001,1.0,2599.839757184569,0.25381271207772244,1.3273059878485725,0.9333167019015524,0.2879432,0.6583889997400196
0.0265,1.78244375,1.0,2612.446717253274,0.2579982328399099,1.3268923436386002,0.9352495271042605,0.2879156375,0.6592518994593857
0.027,1.7817808557523342,1.0,2624.4384366407976,0.2621602752485222,1.326481684233718,0.9370891652958623,0.287887795941598,0.6601074931757491
0.0275,1.7811179550832397,1.0,2636.1748760665755,0.2662989719371638,1.32607363694778,0.9388415129031079,0.2878599541134961,0.6609565793611207
0.028,1.7804550544141449,1.0,2647.6744071420576,0.2704144538072077,1.3256680176838018,0.9405120342638901,0.28783211228539407,0.6617995607713743
0.0285,1.7797921537450503,1.0,2658.918786280615,0.2745068523426294,1.3252649786534112,0.9421058222579001,0.2878042704572921,0.6626361405025382
0.029,1.7791292530759555,1.0,2669.911202456415,0.2785762959097107,1.3248644741973155,0.9436275537511912,0.2877764286291901,0.6634664330500695
0.029500000000000002,1.778466352406861,1.0,2680.655539920844,0.28262291259080446,1.3244664530513708,0.9450815549219574,0.28774858680108817,0.6642905639166536
0.03,1.777803451737766,1.0,2691.1557693626155,0.2866468304682636,1.3240708639514327,0.9464718328607244,0.28772074497298616,0.6651086579648342
0.0305,1.7771405510686715,1.0,2701.415560341337,0.29064816847648095,1.3236776591489359,0.9478021005139863,0.2876929031448842,0.6659208321679378
0.031,1.7764776503995767,1.0,2711.4399381423887,0.29462705647502874,1.3232867792431644,0.9490758066933168,0.2876650613167822,0.6667272269342522
0.0315,1.7758147497304821,1.0,2721.2352377371544,0.2985836382555228,1.3228981536825535,0.9502961590235328,0.28763721948868026,0.6675280049374939
0.032,1.7751518490613873,1.0,2730.8068127120064,0.3025180346275436,1.3225117216549904,0.9514661349683923,0.28760937766057826,0.6683233080201977
0.0325,1.7744889483922928,1.0,2740.1600962090656,0.3064303664006714,1.3221274223483628,0.9525885069464631,0.2875815358324763,0.6691132773316311
0.033,1.773826047723198,1.0,2749.300598009145,0.3103207543844866,1.3217451949505576,0.9536658589456929,0.2875536940043743,0.6698980533361851
0.0335,1.7731631470541034,1.0,2758.233901697763,0.31418931938856953,1.3213649786494628,0.9547006016025942,0.28752585217627236,0.6706777758215253
0.034,1.7725002463850086,1.0,2766.9656619120015,0.31803618222250063,1.320986712632965,0.9556949859042342,0.28749801034817035,0.6714525839065124
0.0345,1.771837345715914,1.0,2775.5016016705717,0.3218614636958602,1.3206103360889523,0.9566511156533646,0.2874701685200684,0.6722226160488809
0.035,1.7711744450468192,1.0,2783.847509784527,0.3256652846182286,1.3202357882053117,0.9575709588213556,0.2874423266919664,0.6729880100526873
0.035500000000000004,1.7705115443777246,1.0,2792.009238351447,0.3294477657991862,1.3198630081699305,0.9584563578998013,0.28741448486386445,0.6737489030755197
0.036000000000000004,1.7698486437086298,1.0,2799.9927003302964,0.3332090280483134,1.3194919351706962,0.9593090393495367,0.28738664303576245,0.6745054316354708
0.0365,1.7691857430395352,1.0,2807.803867199105,0.3369491921751905,1.319122508395496,0.9601306222351038,0.2873588012076605,0.675257731617878
0.037,1.7685228423704404,1.0,2815.4487666941714,0.3406683789893979,1.3187546670322177,0.9609226261232634,0.2873309593795585,0.6760059382818242
0.0375,1.7678599417013459,1.0,2822.9232011091044,0.3443666604799716,1.3183884421465093,0.9616864768799543,0.28730311755145654,0.6767499997050985
0.038,1.7671970410322513,1.0,2830.243040075065,0.34804420022628485,1.3180236856637297,0.9624235170709695,0.28727527572335454,0.6774902275409989
0.0385,1.7665341403631565,1.0,2837.4183076660097,0.351701137655624,1.3176603025252187,0.9631350093922124,0.28724743389525254,0.6782268246160286
0.039,1.7658712396940617,1.0,2844.45258200158,0.35533758225586415,1.3172982556649544,0.9638221418882308,0.2872195920671506,0.6789598754846213
0.0395,1.765208339024967,1.0,2851.349473902894,0.3589536435148801,1.3169375080169152,0.964486033877904,0.28719175023904864,0.6796894643240683
0.04,1.7645454383558725,1.0,2858.112625809978,0.36254943092054703,1.3165780225150787,0.9651277406670218,0.28716390841094663,0.6804156749376349
0.0405,1.7638825376867777,1.0,2864.745710728993,0.3661250539607398,1.3162197620934237,0.9657482578896177,0.28713606658284463,0.6811385907575845
0.041,1.7632196370176831,1.0,2871.2524312106552,0.3696806221233334,1.3158626896859278,0.9663485255109141,0.2871082247547427,0.6818582948481228
0.0415,1.7625567363485883,1.0,2877.636518357979,0.37321624489620275,1.3155067682265695,0.9669294315215254,0.28708038292664073,0.6825748699082453
0.042,1.7618938356794938,1.0,2883.901730865759,0.3767320317672229,1.3151519606493267,0.9674918153496873,0.2870525410985387,0.6832883982745065
0.0425,1.761230935010399,1.0,2890.051854089836,0.38022809222426884,1.3147982298881777,0.968036471015725,0.2870246992704367,0.6839989619236926
0.043000000000000003,1.7605680343413044,1.0,2896.0906991468996,0.3837045357552155,1.3144455388771008,0.968564150050669,0.2869968574423348,0.6847066424754136
0.043500000000000004,1.7599051336722096,1.0,2902.0221020446097,0.38716147184793787,1.3140938505500737,0.9690755641988634,0.2869690156142328,0.6854115211946046
0.044,1.759242233003115,1.0,2907.8499228424503,0.39059900999031083,1.3137431278410747,0.969571387922572,0.2869411737861308,0.6861136789939384
0.0445,1.7585793323340202,1.0,2913.5780448431174,0.3940172596702095,1.3133933336840822,0.9700522607249169,0.2869133319580288,0.6868131964361528
0.045,1.7579164316649256,1.0,2919.2103738141586,0.3974163303755088,1.313044431013074,0.970518789305999,0.28688549012992687,0.6875101537362907
0.0455,1.7572535309958308,1.0,2924.750837239673,0.4007963315940837,1.3126963827620286,0.9709715495657018,0.2868576483018249,0.6882046307638485
0.046,1.7565906303267362,1.0,2930.2033836034134,0.4041573728138091,1.3123491518649237,0.9714110884654679,0.2868298064737229,0.6888967070448432
0.0465,1.7559277296576414,1.0,2935.5719817018203,0.4074995635225601,1.3120027012557378,0.9718379257602475,0.2868019646456209,0.6895864617637846
0.047,1.7552648289885469,1.0,2940.860619987298,0.4108230132082116,1.3116569938684488,0.972252555610834,0.28677412281751896,0.6902739737655665
0.0475,1.754601928319452,1.0,2946.0698532081037,0.4141278087301012,1.3113120228455144,0.9726554473297039,0.286746280989417,0.6909592615811031
0.048,1.7539390276503575,1.0,2951.2033948752533,0.4174140677144721,1.310967753772908,0.973047049597784,0.286718439161315,0.6916423983208929
0.0485,1.7532761269812627,1.0,2956.2656832118514,0.4206819082645335,1.31062414605619,0.973427789237648,0.286690597333213,0.6923234690269857
0.049,1.752613226312168,1.0,2961.25858598885,0.4239314293304477,1.3102811816978661,0.9737980720663185,0.28666275550511106,0.6930025136612749
0.0495,1.7519503256430733,1.0,2966.1839807397564,0.42716272986237724,1.3099388427004417,0.9741582849123723,0.2866349136770091,0.6936795720201239
0.05,1.7512874249739787,1.0,2971.0437545075374,0.4303759088104845,1.309597111066423,0.9745087966762221,0.2866070718489071,0.6943546837350922
0.0505,1.750624524304884,1.0,2975.839803598946,0.4335710651249318,1.3092559687983154,0.974849959321976,0.2865792300208051,0.695027888273646
0.051000000000000004,1.7499616236357893,1.0,2980.574033345482,0.4367482977558817,1.308915397898625,0.9751821088058679,0.28655138819270315,0.6956992249398413
0.051500000000000004,1.7492987229666945,1.0,2985.2483578718734,0.4399077056534965,1.3085753803698572,0.975505565945839,0.2865235463646012,0.6963687328749935
0.052000000000000005,1.7486358222976,1.0,2989.8646998715376,0.44304938776793873,1.3082358982145177,0.9758206372364936,0.2864957045364992,0.6970364510583211
0.0525,1.7479729216285051,1.0,2994.4249903896343,0.4461734430493707,1.3078969334351127,0.9761276156133033,0.2864678627083972,0.6977024183075695
0.053,1.7473100209594106,1.0,2998.931168612956,0.44927997044795487,1.3075584680341474,0.9764267811696402,0.28644002088029524,0.6983666732796183
0.0535,1.7466471202903158,1.0,3003.385181666794,0.4523690689138537,1.307220484014128,0.9767184018299306,0.28641217905219324,0.6990292544710618
0.054,1.7459842196212212,1.0,3007.7889844197102,0.4554408373972295,1.3068829633775598,0.9770027339819669,0.2863843372240913,0.6996902002187733
0.0545,1.7453213189521264,1.0,3012.144539294524,0.4584953748482449,1.306545888126949,0.9772800230711832,0.2863564953959893,0.7003495487004467
0.055,1.7446584182830318,1.0,3016.4538160875495,0.461532780217062,1.3062092402648011,0.9775505041594864,0.28632865356788734,0.7010073379351189
0.0555,1.743995517613937,1.0,3020.718707641991,0.4645531513076857,1.3058730025207257,0.9778144023865576,0.28630081173978533,0.7016636043652938
0.056,1.7433326169448424,1.0,3024.9370675708974,0.46755653467679964,1.305537192559101,0.9780719308543812,0.2862729699116834,0.7023183162088737
0.0565,1.7426697162757476,1.0,3029.1151819572638,0.4705430949744507,1.3052017552466306,0.9783233004887264,0.2862451280835814,0.702971583527984
0.057,1.742006815606653,1.0,3033.2539509896437,0.4735129213959418,1.3048666820506998,0.9785687093856396,0.28621728625547943,0.7036234253042013
0.0575,1.7413439149375582,1.0,3037.3542784536853,0.4764661031365762,1.3045319644386932,0.9788083476374212,0.2861894444273774,0.7042738604435921
0.058,1.7406810142684637,1.0,3041.4170716643666,0.479402729391657,1.304197593877996,0.9790423977200996,0.2861616025992755,0.7049229077769065
0.0585,1.740018113599369,1.0,3045.4432413991176,0.4823228893564872,1.303863561835993,0.9792710348591636,0.2861337607711735,0.7055705860597692
0.059000000000000004,1.7393552129302743,1.0,3049.4337018333185,0.48522667222636995,1.3035298597800697,0.9794944273749353,0.2861059189430715,0.7062169139728673
0.059500000000000004,1.7386923122611795,1.0,3053.3893704767183,0.48811416719660833,1.3031964791776107,0.9797127370088707,0.2860780771149695,0.7068619101221323
0.06,1.738029411592085,1.0,3057.311168112439,0.4909854634625054,1.3028634114960012,0.9799261192319808,0.28605023528686757,0.7075055930389154
0.0605,1.7373665109229903,1.0,3061.200018736,0.4938406502193643,1.302530648202626,0.9801347235364817,0.28602239345876557,0.7081479811801625
0.061,1.7367036102538955,1.0,3065.056849498034,0.49667981666248817,1.3021981807648704,0.9803386937117139,0.2859945516306636,0.7087890929285802
0.0615,1.736040709584801,1.0,3068.882590646506,0.4995030519871801,1.3018660006501193,0.9805381681052864,0.28596670980256167,0.7094289465928003
0.062,1.7353778089157061,1.0,3072.6781754722083,0.502310445388743,1.3015340993257576,0.9807332798703494,0.28593886797445967,0.7100675604075388
0.0625,1.7347149082466116,1.0,3076.444540255003,0.5051020860624803,1.3012024682591705,0.9809241571998256,0.28591102614635766,0.7107049525337481
0.063,1.7340520075775168,1.0,3080.1826242119596,0.5078780632036949,1.300871098917743,0.9811109235483868,0.2858831843182557,0.7113411410587682
0.0635,1.7333891069084222,1.0,3083.893369446786,0.5106384660076898,1.30053998276886,0.9812936978428974,0.28585534249015376,0.7119761439964711
0.064,1.7327262062393274,1.0,3087.5777209013345,0.5133833836697682,1.3002091112799063,0.9814725946820102,0.28582750066205176,0.7126099792874006
0.0645,1.7320633055702328,1.0,3091.2366263085446,0.5161129053852334,1.2998784759182676,0.981647724525546,0.28579965883394975,0.7132426647989063
0.065,1.731400404901138,1.0,3094.8710361469984,0.518827120349388,1.2995480681513283,0.9818191938742517,0.2857718170058478,0.713874218325278
0.0655,1.7307375042320434,1.0,3098.481356977933,0.5215261028438145,1.299217884109817,0.9819871046542391,0.2857439751777458,0.7145046486889163
0.066,1.7300746035629486,1.0,3102.0675742989324,0.5242099240113702,1.2988879235264759,0.982151555174581,0.28571613334964385,0.7151339578126006
0.0665,1.729411702893854,1.0,3105.6317122205533,0.5268787109217178,1.2985581687655963,0.9823126431872939,0.28568829152154185,0.715762180686651
0.067,1.7287488022247592,1.0,3109.174195837967,0.5295325433921122,1.2982286158526117,0.9824704605631793,0.2856604496934399,0.7163893261691179
0.0675,1.7280859015556647,1.0,3112.6954515844445,0.5321715012398083,1.2978992608129554,0.982625096013499,0.2856326078653379,0.7170154030838483
0.068,1.7274230008865699,1.0,3116.195907214128,0.534795664282061,1.2975700996720607,0.982776635220793,0.28560476603723595,0.7176404202205353
0.0685,1.7267601002174753,1.0,3119.675991784527,0.5374051123361254,1.297241128455361,0.9829251609634045,0.28557692420913394,0.7182643863347689
0.069,1.7260971995483805,1.0,3123.1361356398475,0.5399999252192562,1.2969123431882899,0.9830707532340563,0.285549082381032,0.7188873101480842
0.0695,1.725434298879286,1.0,3126.5767703940487,0.5425801827487086,1.2965837398962803,0.9832134893528014,0.28552124055293,0.7195092003480088
0.07,1.724771398210191,1.0,3129.998328915228,0.5451459647417372,1.296255314604766,0.9833534440746514,0.28549339872482804,0.7201300655881095
0.07050000000000001,1.7241084975410965,1.0,3133.4012453090545,0.5476973510155969,1.2959270633391797,0.9834906896921689,0.28546555689672604,0.7207499144880393
