Time [s],Phi [rad],STIM [ ],Fsee [N],Gamma [ ],Lcerel [ ],q [ ],Lmtc [m],fisomrel [ ]
0.0,1.8,1.0,17.964966186733125,1.0005861002803368e-05,1.3793399918023728,0.005000026682916295,0.288653,0.5411389369240299
0.0005,1.79999375,1.0,18.274502765376155,0.005619159044830794,1.3793026367709038,0.01294053521334515,0.2886527375,0.5412293040135199
0.001,1.799975,1.0,21.61624574994355,0.01119684931421833,1.3789385202604227,0.03560862326884785,0.28865195,0.5421096870626314
0.0015,1.79994375,1.0,31.0670317430537,0.016743253152102407,1.378046391527793,0.0706017745431404,0.2886506375,0.5442631564184142
0.002,1.7999,1.0,53.5798977504247,0.0222585460497636,1.3763682932329842,0.11471792028433067,0.2886488,0.5483000888038598
0.0025,1.79984375,1.0,97.11613274116513,0.02774290251439989,1.37393530242223,0.16457476213305278,0.28864643749999996,0.5541211403137607
0.003,1.7997750000000001,1.0,160.95539132927615,0.033196496076835114,1.3712144476460113,0.21728031387620178,0.28864354999999997,0.5605862049071006
0.0035,1.79969375,1.0,237.68069345130397,0.038619499291115626,1.3685848154935816,0.27061274437579946,0.2886401375,0.5667896485572781
0.004,1.7996,1.0,321.4643147170257,0.04401208374529149,1.3661561574628203,0.322915658619045,0.2886362,0.5724798097961172
0.0045000000000000005,1.7994937500000001,1.0,409.26548403964074,0.04937442006660084,1.3639228673759058,0.3730343694977583,0.2886317375,0.5776790389059274
0.005,1.799375,1.0,499.41140810577446,0.054706677912571694,1.3618583868880032,0.42024733010599713,0.28862675,0.5824569765268246
0.0055,1.79924375,1.0,590.7884659317202,0.0600090260184068,1.3599388731598652,0.4641735766324935,0.2886212375,0.5868750241977247
0.006,1.7991000000000001,1.0,682.516305442672,0.06528163214031918,1.358146447519077,0.5046798499209274,0.2886152,0.5909793435250799
0.006500000000000001,1.79894375,1.0,773.8634012582999,0.07052466288063568,1.3564675584429593,0.5418008326463407,0.2886086375,0.5948051013320006
0.007,1.798775,1.0,864.2917728285222,0.07573828489403453,1.3548902986971905,0.5756766121419448,0.28860155,0.5983828950593716
0.0075,1.79859375,1.0,953.2560689246662,0.08092266240529786,1.3534065814914822,0.6065096976289249,0.2885939375,0.6017340183625777
0.008,1.7984,1.0,1040.3585462011283,0.0860779594020632,1.3520086449958315,0.6345319708356689,0.2885858,0.604878551811858
0.0085,1.79819375,1.0,1125.3182680008601,0.09120433941735447,1.350689184300106,0.6599843264145259,0.2885771375,0.6078351275986168
0.009000000000000001,1.797975,1.0,1207.8840044579936,0.09630196449426448,1.3494422560788137,0.6831042485868283,0.28856795,0.6106189721509846
0.0095,1.79774375,1.0,1287.872333408585,0.10137099581322748,1.3482623867682646,0.7041175579533993,0.2885582375,0.6132439730946164
0.01,1.7975,1.0,1365.1608667550602,0.10641159403075923,1.347144464741321,0.7232342140351806,0.288548,0.6157229610952222
0.0105,1.79724375,1.0,1439.661943927372,0.11142391863696689,1.3460839157897275,0.740646596301963,0.2885372375,0.618067357243778
0.011,1.796975,1.0,1511.3155719056601,0.11640812778044701,1.3450766347814547,0.7565291222483882,0.28852595000000003,0.6202873601017429
0.0115,1.79669375,1.0,1580.1028051531518,0.1213643790425911,1.3441187005736939,0.7710386675821482,0.2885141375,0.6223926017712769
0.012,1.7964,1.0,1646.0529005761302,0.1262928304021561,1.343206213066725,0.7843155742671083,0.28850180000000003,0.6243925233175949
0.0125,1.79609375,1.0,1709.1778997340225,0.1311936372622537,1.3423359897080103,0.7964852751032743,0.2884889375,0.6262948665517765
0.013000000000000001,1.7957750000000001,1.0,1769.5014648564425,0.13606695400590613,1.341505130209327,0.8076594860549011,0.28847555,0.6281066519155312
0.0135,1.79544375,1.0,1827.0789985706501,0.14091293501613586,1.3407107342824531,0.8179374925839693,0.2884616375,0.629834807221657
0.014,1.7951000000000001,1.0,1881.9752388596567,0.14573173367599473,1.3399501162368033,0.82740757566669,0.2884472,0.6314857094087498
0.0145,1.79474375,1.0,1934.2810731377576,0.1505235036365067,1.3392205805843729,0.83614816610305,0.2884322375,0.6330656814668398
0.015,1.794375,1.0,1984.0539621431894,0.15528839549716378,1.338520033639116,0.8442291852995123,0.28841675,0.6345796773755477
0.0155,1.79399375,1.0,2031.3643020794934,0.16002655957521203,1.3378464374512762,0.8517128506991491,0.2884007375,0.6360324767266612
0.016,1.7936,1.0,2076.2978096730317,0.16473814607725004,1.3371977656695693,0.8586545707234894,0.2883842,0.6374287845263082
0.0165,1.7931937500000001,1.0,2118.943016852906,0.1694233040841103,1.3365721172447984,0.8651037851048585,0.2883671375,0.6387729907313574
0.017,1.792775,1.0,2159.397183768068,0.17408218325344624,1.3359676365341118,0.8711046488331085,0.28834955,0.6400693469441421
0.0175,1.7923437500000001,1.0,2197.7283391026094,0.17871492967752423,1.3353828839975863,0.8766967556873366,0.2883314375,0.641321177045477
0.018000000000000002,1.7919,1.0,2234.0139392942697,0.1833216894486106,1.3348164200952992,0.8819155584224502,0.2883128,0.6425317756204341
0.0185,1.79144375,1.0,2268.3400816721814,0.1879026086589716,1.3342668052873277,0.8867928524250724,0.2882936375,0.6437044097034559
0.019,1.790975,1.0,2300.7848972338466,0.1924578315807539,1.333732757115034,0.8913572373689483,0.28827395,0.6448419860599419
0.0195,1.79049375,1.0,2331.4491089313433,0.1969875051328348,1.3332128376420616,0.8956344094771977,0.2882537375,0.6459477194850929
0.02,1.79,1.0,2360.400222019818,0.20149177142827523,1.3327059980315286,0.8996476152126403,0.288233,0.6470239760007798
0.0205,1.78949375,1.0,2387.704837620516,0.20597077184452695,1.3322112474285677,0.9034178496728071,0.2882117375,0.6480729817664381
0.021,1.788975,1.0,2413.4340673807374,0.21042464775904168,1.3317275949783116,0.9069640936412281,0.28818995000000003,0.6490969474805652
0.021500000000000002,1.78844375,1.0,2437.663154760343,0.21485354054927117,1.331254049825893,0.9103035344786365,0.2881676375,0.6500980691133447
0.022,1.7879,1.0,2460.4608704431243,0.2192575897758814,1.3307897192240505,0.9134517793991396,0.2881448,0.6510783216061027
0.0225,1.78734375,1.0,2481.9046976382656,0.22363693735677512,1.330333658463789,0.9164229962539575,0.28812143749999997,0.6520397770597219
0.023,1.786775,1.0,2502.0559106620667,0.22799172160939504,1.3298851058126742,0.9192301076494334,0.28809755,0.652984110213523
0.0235,1.78619375,1.0,2520.9679819869366,0.23232207880957007,1.3294433968934927,0.921884904077286,0.28807313749999996,0.6539127813879996
0.024,1.7856,1.0,2538.6965152169605,0.23662814523312908,1.3290078673290302,0.9243981429239838,0.2880482,0.6548272424604696
0.0245,1.78499375,1.0,2555.2990660162527,0.24091005715590097,1.3285778527420737,0.9267796532228773,0.2880227375,0.6557289371409698
0.025,1.784375,1.0,2570.8349728244043,0.24516795085371465,1.3281526887554094,0.9290384285158441,0.28799675,0.656619301220011
0.025500000000000002,1.78374375,1.0,2585.3542795420626,0.2494019591029954,1.327731812959531,0.9311827247048372,0.2879702375,0.6574995496628157
0.026000000000000002,1.7831000000000001,1.0,2598.920538519597,0.2536122209134184,1.32731454977152,0.9332201008624644,0.2879432,0.6583711272572295
0.0265,1.78244375,1.0,2611.575941296304,0.25779886808438807,1.326900434714602,0.9351575319812448,0.2879156375,0.6592350311970798
0.027,1.781775,1.0,2623.3607826095777,0.2619620314005125,1.3264890303362817,0.9370014376177358,0.28788755,0.6600921972897784
0.0275,1.7810937500000001,1.0,2634.316262616473,0.2661018416463997,1.3260798991840634,0.9387577300661557,0.2878589375,0.6609435565947418
0.028,1.7804,1.0,2644.4844079715976,0.2702184296066578,1.3256726038054518,0.9404318611502914,0.2878298,0.661790035492912
0.0285,1.77969375,1.0,2653.907997148884,0.2743119260658948,1.325266706747951,0.942028864132436,0.2878001375,0.6626325557440765
0.029,1.778975,1.0,2662.627963914708,0.27838246064615696,1.3248617938068157,0.943553394124783,0.28776995,0.6634719863667665
0.029500000000000002,1.7782437500000001,1.0,2670.678467512,0.2824301603934481,1.3244575185421734,0.9450097671279618,0.2877392375,0.6643090518541301
0.03,1.7775,1.0,2678.1088700857554,0.2864551605578099,1.3240533995934207,0.9464019661686498,0.287708,0.665144751951361
0.0305,1.77674375,1.0,2684.945851660251,0.29045758580461406,1.3236491683143883,0.9477337093717333,0.2876762375,0.6659796423769285
0.031,1.775975,1.0,2691.2164520082047,0.2944375607992323,1.323244556058906,0.9490084483596907,0.28764395,0.6668142760787017
0.0315,1.7751937500000001,1.0,2696.9480384952353,0.2983952102070363,1.322839294180804,0.9502293906774965,0.2876111375,0.6676492032297203
0.032,1.7744,1.0,2702.1682755251413,0.30233065869339776,1.322433114033913,0.9513995200691452,0.2875778,0.6684849712193677
0.0325,1.77359375,1.0,2706.905095585215,0.30624403092368835,1.3220257469720629,0.9525216148347468,0.2875439375,0.6693221246399392
0.033,1.772775,1.0,2711.1866718913057,0.3101354515632799,1.3216169243490836,0.9535982644704977,0.28750955,0.6701612052686091
0.0335,1.7719437500000002,1.0,2715.040900374429,0.31400504476646995,1.3212063820051534,0.9546318851438548,0.2874746375,0.6710027428544626
0.034,1.7711000000000001,1.0,2718.491210642521,0.31785292970851303,1.3207938981863159,0.9556247364515108,0.2874392,0.6718471775715167
0.0345,1.7702437500000001,1.0,2721.567265353054,0.32167923585410096,1.3203791958274598,0.956578926824497,0.2874032375,0.6726950602071116
0.035,1.7693750000000001,1.0,2724.2863937593524,0.3254840816630375,1.3199621114531437,0.9574964379872959,0.28736675,0.6735467067424938
0.035500000000000004,1.76849375,1.0,2726.666034241284,0.32926758559512664,1.3195424815879253,0.9583791252256515,0.2873297375,0.6744024313157858
0.036000000000000004,1.7676,1.0,2728.7237227739242,0.33302986611017227,1.319120142756363,0.959228726904265,0.2872922,0.6752625461962962
0.0365,1.76669375,1.0,2730.4770819895325,0.33677104166797817,1.3186949314830148,0.9600468731642154,0.2872541375,0.6761273617571318
0.037,1.765775,1.0,2731.943810831049,0.3404912307283484,1.3182666842924387,0.9608350938792146,0.28721555,0.6769971864461007
0.0375,1.76484375,1.0,2733.141674799103,0.3441905517510868,1.3178352377091929,0.9615948259414233,0.2871764375,0.6778723267549135
0.038,1.7639,1.0,2734.0884967907746,0.3478691231959972,1.3174004282578355,0.9623274199401132,0.28713679999999997,0.6787530871866791
0.0385,1.76294375,1.0,2734.7861905668456,0.35152704551940916,1.3169622373743246,0.963034156337585,0.28709663750000003,0.6796394772916527
0.039,1.761975,1.0,2735.273852129544,0.3551644611565256,1.3165203091985096,0.9637162174469719,0.28705595,0.6805321870691323
0.0395,1.7609937500000001,1.0,2735.561237483602,0.35878148148054223,1.3160745546399972,0.9643747353361678,0.2870147375,0.681431364506146
0.04,1.76,1.0,2735.657812615216,0.362378217519429,1.3156248874667567,0.9650107773358378,0.286973,0.6823371505471849
0.0405,1.7589937500000001,1.0,2735.5730648258855,0.36595478030115575,1.3151712214467575,0.9656253502457031,0.2869307375,0.6832496848589253
0.041,1.757975,1.0,2735.316499502435,0.36951128085369245,1.314713470347969,0.9662194043998191,0.28688795,0.6841691058084758
0.0415,1.75694375,1.0,2734.897637051899,0.37304783020500887,1.3142515479383603,0.9667938374179648,0.2868446375,0.6850955504411493
0.042,1.7559,1.0,2734.3260100011785,0.376564539383075,1.3137853679859008,0.9673494976703861,0.28680079999999997,0.6860291544577577
0.0425,1.75484375,1.0,2733.6111602617902,0.3800615194158607,1.3133148442585598,0.9678871874805175,0.2867564375,0.6869700521914364
0.043000000000000003,1.753775,1.0,2732.7626365589613,0.38353888133133585,1.3128398905243066,0.9684076660879676,0.28671155,0.6879183765839919
0.043500000000000004,1.75269375,1.0,2731.7899920264076,0.3869967361574703,1.3123604205511106,0.9689116523919622,0.28666613750000003,0.6888742591617772
0.044,1.7516,1.0,2730.7027819650275,0.39043519492223394,1.311876348106941,0.9693998274935509,0.2866202,0.6898378300110909
0.0445,1.75049375,1.0,2729.510561767482,0.3938543686535968,1.3113875869597673,0.969872837053199,0.2865737375,0.6908092177531038
0.045,1.7493750000000001,1.0,2728.215937215723,0.39725435293669403,1.3108941140451733,0.9703312960912688,0.28652675,0.6917884242731721
0.0455,1.74824375,1.0,2726.8335168963704,0.40063527329775744,1.3103957971760194,0.9707757843146602,0.2864792375,0.6927756667584931
0.046,1.7471,1.0,2725.3698005933816,0.40399723712681185,1.3098925778363082,0.9712068550980206,0.2864312,0.6937710146746419
0.0465,1.7459437500000001,1.0,2723.829423340899,0.40734034752300713,1.3093844144498863,0.9716250348414471,0.28638263750000004,0.6947745028555516
0.047,1.744775,1.0,2722.217018408436,0.41066470758549317,1.3088712654405998,0.9720308239270856,0.28633355,0.6957861651311305
0.0475,1.74359375,1.0,2720.537216674038,0.4139704204134198,1.3083530892322954,0.9724246982468523,0.28628393750000003,0.6968060343140946
0.048,1.7424,1.0,2718.7946460348285,0.41725758910593685,1.307829844248819,0.9728071106266244,0.2862338,0.697834142186696
0.0485,1.74119375,1.0,2716.993930857344,0.42052631676219426,1.307301488914017,0.9731784921548186,0.2861831375,0.6988705194873349
0.049,1.739975,1.0,2715.139691464632,0.4237767064813418,1.306767981651736,0.9735392534225971,0.28613195,0.6999151958970671
0.0495,1.73874375,1.0,2713.236543662813,0.4270088613625294,1.306229280885822,0.973889785682338,0.2860802375,0.7009682000259959
0.05,1.7375,1.0,2711.28909830574,0.4302228845049069,1.3056853450401213,0.9742304619304519,0.286028,0.7020295593995598
0.0505,1.73624375,1.0,2709.3019608972336,0.43341887900762416,1.3051361325384805,0.9745616379201202,0.2859752375,0.703099300444703
0.051000000000000004,1.734975,1.0,2707.2797312329135,0.436596947969831,1.3045816018047456,0.9748836531090843,0.28592195,0.704177448475942
0.051500000000000004,1.73369375,1.0,2705.220347276579,0.43975717514407925,1.3040217720323408,0.9751968333587652,0.2858681375,0.7052639098543221
0.052000000000000005,1.7324,1.0,2703.1326122949395,0.4428996792953598,1.3034565632088284,0.9755014873527149,0.2858138,0.706358782670556
0.0525,1.73109375,1.0,2701.0225758302277,0.446024568665324,1.3028859203653622,0.975797910436731,0.28575893750000003,0.7074621149375876
0.053,1.729775,1.0,2698.891956424632,0.44913193818846997,1.3023098280401764,0.9760863859822189,0.28570355000000003,0.7085738771374968
0.0535,1.72844375,1.0,2696.7424702189,0.45222188279929576,1.3017282707715045,0.9763671849727329,0.2856476375,0.7096940389580282
0.054,1.7271,1.0,2694.5758308880654,0.4552944974322994,1.3011412330975807,0.9766405666485072,0.2855912,0.7108225692872085
0.0545,1.7257437500000001,1.0,2692.393749581961,0.4583498770219789,1.3005486995566384,0.9769067791121767,0.2855342375,0.7119594362079512
0.055,1.724375,1.0,2690.1979348714885,0.4613881165028324,1.299950654686912,0.9771660598983345,0.28547675,0.7131046069926432
0.0555,1.72299375,1.0,2687.990092700282,0.4644093108093578,1.2993470830266347,0.9774186365093653,0.2854187375,0.7142580480977203
0.056,1.7216,1.0,2685.7719263413187,0.46741355487605335,1.2987379691140408,0.977664726919817,0.2853602,0.7154197251582219
0.0565,1.72019375,1.0,2683.5451363588886,0.47040094363741697,1.2981232974873642,0.9779045400513956,0.28530113749999997,0.716589602982336
0.057,1.718775,1.0,2681.3114205764923,0.4733715720279468,1.2975030526848383,0.9781382762205294,0.28524155,0.7177676455459256
0.0575,1.71734375,1.0,2679.0724740485975,0.47632553498214075,1.2968772192446976,0.9783661275602841,0.2851814375,0.7189538159870401
0.058,1.7159,1.0,2676.8299890393973,0.47926292743449694,1.2962457817051753,0.9785882784183029,0.2851208,0.7201480766004134
0.0585,1.71444375,1.0,2674.585655005949,0.4821838443195135,1.2956087246045056,0.9788049057323097,0.2850596375,0.7213503888319438
0.059000000000000004,1.7129750000000001,1.0,2672.3411585863273,0.48508838057168835,1.2949660324809222,0.9790161793846074,0.28499795,0.7225607132731617
0.059500000000000004,1.71149375,1.0,2670.0598370486837,0.4879766255755491,1.2943180422853715,0.9792222813745479,0.2849357375,0.7237783481674307
0.06,1.71,1.0,2667.835895288069,0.490848672252885,1.293663888328707,0.9794233216540025,0.284873,0.7250048491443389
0.0605,1.7084937500000001,1.0,2665.638564313168,0.49370461001359023,1.2930038529703602,0.979619467210053,0.2848097375,0.7262396114302409
0.061,1.7069761603635234,1.0,2663.490624877767,0.49654452809770255,1.292338250334226,0.9798108803147901,0.28474599873526796,0.727481975100521
0.0615,1.7054565463720714,1.0,2661.8149243663993,0.4993685157452597,1.2916673945441994,0.9799977170895314,0.284682174947627,0.7287312849483365
0.062,1.7039369323806197,1.0,2660.676200101202,0.5021766621962995,1.2909915997241759,0.9801801277937492,0.284618351159986,0.7299868905930007
0.0625,1.7024173183891678,1.0,2660.0399916392244,0.5049690566908597,1.2903111799980502,0.9803582570984338,0.28455452737234505,0.7312481465820782
0.063,1.700897704397716,1.0,2659.873982014879,0.5077457879670753,1.2896264312745709,0.9805322433685465,0.2844907035847041,0.7325144461325137
0.0635,1.699378090406264,1.0,2660.1407083413596,0.5105069433450896,1.288937698081522,0.9807022222973987,0.2844268797970631,0.7337850976637478
0.064,1.6978584764148124,1.0,2660.7894765841047,0.5132526130098424,1.2882454477171523,0.9808683311166615,0.28436305600942213,0.7350591896375587
0.0645,1.6963388624233606,1.0,2661.794876074872,0.5159828823613778,1.2875499153595298,0.9810306901558562,0.28429923222178116,0.7363362441859925
0.065,1.6948192484319087,1.0,2663.131552033414,0.5186978367997401,1.286851336186722,0.9811894154669923,0.2842354084341402,0.7376157873976155
0.0655,1.693299634440457,1.0,2664.7741890672855,0.5213975617249738,1.2861499453767973,0.9813446190139331,0.28417158464649916,0.7388973493649743
0.066,1.691780020449005,1.0,2666.697495898502,0.5240821425371227,1.2854459781078231,0.9814964088521226,0.2841077608588582,0.7401804642285337
0.0665,1.6902604064575533,1.0,2668.8761913156413,0.5267516646362312,1.2847396695578674,0.9816448892992349,0.2840439370712172,0.7414646702170806
0.067,1.6887407924661013,1.0,2671.2876480806826,0.5294062123759129,1.284031230494636,0.9817901598443732,0.28398011328357625,0.7427495539021141
0.0675,1.6872211784746496,1.0,2673.910878327996,0.5320458704677917,1.2833208565464849,0.9819323158882597,0.2839162894959353,0.7440347329265502
0.068,1.6857015644831979,1.0,2676.724856599606,0.5346707239691356,1.282608743547841,0.9820714496438806,0.2838524657082943,0.7453198280303273
0.0685,1.684181950491746,1.0,2679.71629922052,0.53728085460523,1.2818950161000806,0.9822076466452526,0.28378864192065334,0.7466045915112733
0.069,1.6826623365002942,1.0,2682.8719104454663,0.5398763441013603,1.2811797988045797,0.9823409895743251,0.28372481813301237,0.7478887778833422
0.0695,1.6811427225088422,1.0,2686.178378170571,0.5424572741828119,1.2804632162627145,0.982471558378833,0.2836609943453714,0.7491721438889472
0.07,1.6796231085173905,1.0,2689.6223699898405,0.5450237265748701,1.2797453930758613,0.9825994303845399,0.28359717055773037,0.7504544485103056
0.07050000000000001,1.6781034945259388,1.0,2693.1905295959073,0.5475757830028205,1.2790264538453961,0.9827246804021703,0.28353334677008946,0.7517354529797928
0.07100000000000001,1.6765838805344868,1.0,2696.875024447468,0.5501135205616857,1.2783064724125992,0.9828473782194239,0.28346952298244843,0.7530150108841045
0.07150000000000001,1.675064266543035,1.0,2700.660585956432,0.5526370241401604,1.2775855904370506,0.9829675949404199,0.28340569919480746,0.7542928570845473
0.07200000000000001,1.6735446525515831,1.0,2704.5339123356775,0.5551463774443619,1.2768639312763614,0.9830853985163629,0.2833418754071665,0.7555687613462954
0.0725,1.6720250385601314,1.0,2708.4891419901332,0.5576416577343861,1.276141550085402,0.9832008513101461,0.2832780516195255,0.7568426158049469
0.073,1.6705054245686797,1.0,2712.520399315246,0.5601229422703292,1.2754185020190438,0.9833140137215299,0.28321422783188455,0.7581143136019961
0.0735,1.6689858105772277,1.0,2716.6217938482523,0.5625903083122871,1.2746948422321573,0.9834249442631766,0.2831504040442436,0.7593837488872774
0.074,1.667466196585776,1.0,2720.7874194860747,0.5650438331203557,1.2739706258796135,0.9835336996332813,0.2830865802566026,0.7606508168212145
