Time [s],Phi [rad],STIM [ ],Fsee [N],Gamma [ ],Lcerel [ ],q [ ],Lmtc [m],fisomrel [ ]
0.0,1.8,1.0,17.967958364710924,1.0104856416247491e-05,1.3793396565718796,0.0050000272113786505,0.288653,0.5411397479334452
0.0005,1.79999375,1.0,18.277251602623032,0.005619257484957198,1.37930233142135,0.012940804004715274,0.2886527375,0.541230042660486
0.001,1.799975,1.0,21.618905311135723,0.011196947202174333,1.378938248620328,0.03560911945096718,0.28865195,0.5421103435349439
0.0015,1.79994375,1.0,31.069828943410325,0.01674335049098336,1.3780461532128379,0.07060244704296911,0.2886506375,0.5442637309980087
0.002,1.7999,1.0,53.58305657784929,0.02225864284265132,1.3763680883027969,0.1147187149701952,0.2886488,0.5483005806992924
0.0025,1.79984375,1.0,97.11964420175686,0.027742998764355545,1.3739351332124108,0.16457563026728708,0.28864643749999996,0.554121543843803
0.003,1.7997750000000001,1.0,160.95900866143947,0.03319659178690486,1.3712143122454192,0.21728121517453194,0.28864354999999997,0.5605865254596951
0.0035,1.79969375,1.0,237.6842321933456,0.03861959446432833,1.3685847064907666,0.27061364589019044,0.2886401375,0.5667899047867202
0.004,1.7996,1.0,321.4677124854836,0.044012178384658124,1.3661560674688058,0.32291653537304194,0.2886362,0.5724800199482759
0.0045000000000000005,1.7994937500000001,1.0,409.26873273369404,0.049374514175113925,1.3639227911166136,0.3730352045890048,0.2886317375,0.5776792158988955
0.005,1.799375,1.0,499.4145007735547,0.054706771493189324,1.3618583211690336,0.42024811367444664,0.28862675,0.5824571281910986
0.0055,1.79924375,1.0,590.7914284611828,0.060009119074144426,1.3599388152792007,0.4641743036176436,0.2886212375,0.5868751570644306
0.006,1.7991000000000001,1.0,682.5191189527666,0.0652817246741009,1.3581463963769376,0.5046805194873206,0.2886152,0.5909794603386911
0.006500000000000001,1.79894375,1.0,773.882341839203,0.07052475512570067,1.3564672351130642,0.5418012703098393,0.2886086375,0.5948058363866306
0.007,1.798775,1.0,864.2868320794709,0.07573837632168576,1.3548903785059583,0.5756772476103038,0.28860155,0.5983827144256941
0.0075,1.79859375,1.0,953.2443067994565,0.08092275322463857,1.3534067624044617,0.6065103408489032,0.2885939375,0.6017336106084068
0.008,1.7984,1.0,1040.345212406107,0.08607804943924219,1.3520088413097193,0.6345325702613808,0.2885858,0.6048781110962654
0.0085,1.79819375,1.0,1125.3150862706877,0.09120442911821568,1.3506892293416581,0.6599847910874467,0.2885771375,0.6078350268614602
0.009000000000000001,1.797975,1.0,1207.901629400671,0.096302054219464,1.3494420152541893,0.6831045144568465,0.28856795,0.6106195088491421
0.0095,1.79774375,1.0,1287.8944249900383,0.10137108522085604,1.3482620944365624,0.7041177653777354,0.2885582375,0.6132446223809276
0.01,1.7975,1.0,1365.1688388687114,0.10641168260026068,1.347144362278028,0.7232344920831355,0.288548,0.6157231879419047
0.0105,1.79724375,1.0,1439.6595452228125,0.11142400635217871,1.346083945811343,0.7406469119854252,0.2885372375,0.6180672909810314
0.011,1.796975,1.0,1511.3219591626787,0.11640821527064464,1.3450765567582592,0.7565293602351296,0.28852595000000003,0.6202875318107905
0.0115,1.79669375,1.0,1580.1213325851224,0.12136446653431907,1.3441184792343286,0.7710388191111669,0.2885141375,0.6223930875301434
0.012,1.7964,1.0,1646.0585694851382,0.12629291681783253,1.343206146713109,0.7843157753232226,0.28850180000000003,0.62439266855338
0.0125,1.79609375,1.0,1709.1749510868337,0.1311937228040503,1.3423360235781305,0.7964854996797464,0.2884889375,0.6262947926043165
0.013000000000000001,1.7957750000000001,1.0,1769.507116454761,0.1360670394472957,1.341505066407538,0.8076596543176568,0.28847555,0.6281067908736704
0.0135,1.79544375,1.0,1827.0914171804443,0.14091302025551955,1.3407105963136305,0.8179376182576014,0.2884616375,0.6298351070140634
0.014,1.7951000000000001,1.0,1881.9918493144503,0.14573181873667276,1.3399499344087071,0.8274076737904922,0.2884472,0.6314861036209047
0.0145,1.79474375,1.0,1934.281653687214,0.15052358722263448,1.3392205743158272,0.8361483152692213,0.2884322375,0.6330656950281899
0.015,1.794375,1.0,1984.0563788982165,0.15528847875878662,1.3385200078733455,0.8442293167830726,0.28841675,0.6345797330020093
0.0155,1.79399375,1.0,2031.375232275336,0.1600266429049395,1.3378463222861923,0.8517129435881642,0.2884007375,0.6360327248650967
0.016,1.7936,1.0,2076.3121884418247,0.16473822914831654,1.3371976158172378,0.858654644990219,0.2883842,0.6374291067830691
0.0165,1.7931937500000001,1.0,2118.9556479593853,0.16942338697410086,1.3365719869375758,0.8651038589780062,0.2883671375,0.6387732704365188
0.017,1.792775,1.0,2159.389722228311,0.17408226412794353,1.3359677127858844,0.8711047750756468,0.28834955,0.6400691835632062
0.0175,1.7923437500000001,1.0,2197.7208675613706,0.17871501026873454,1.3353829596827824,0.8766968741479982,0.2883314375,0.641321015160769
0.018000000000000002,1.7919,1.0,2234.0153141734554,0.183321770437328,1.3348164062816346,0.8819156462453082,0.2883128,0.6425318051168731
0.0185,1.79144375,1.0,2268.347508460492,0.18790268967457793,1.3342667312358065,0.8867929191185892,0.2882936375,0.6437045675667382
0.019,1.790975,1.0,2300.7994337895334,0.1924579130213385,1.333732613198663,0.8913572824224436,0.28827395,0.6448422923711464
0.0195,1.79049375,1.0,2331.4525298473454,0.1969875845319909,1.3332128039973616,0.8956344762416896,0.2882537375,0.6459477909828313
0.02,1.79,1.0,2360.3944370858567,0.20149184888643817,1.332706054576401,0.8996476977036152,0.288233,0.6470238560210617
0.0205,1.78949375,1.0,2387.70437892961,0.20597084930399537,1.332211251886333,0.9034179160266357,0.2882117375,0.6480729723217968
0.021,1.788975,1.0,2413.4440009936434,0.21042472599014478,1.331727498955052,0.9069641348344504,0.28818995000000003,0.6490971506282716
0.021500000000000002,1.78844375,1.0,2437.6788555509243,0.2148536191503687,1.3312538988104525,0.9103035615775698,0.2881676375,0.6500983881469212
0.022,1.7879,1.0,2460.478078436166,0.21925766899014948,1.330789554480429,0.9134518020608898,0.2881448,0.6510786691538245
0.0225,1.78734375,1.0,2481.9123132642753,0.22363701542570982,1.3303335858698933,0.9164230348839227,0.28812143749999997,0.6520399299946998
0.023,1.786775,1.0,2502.041285832243,0.2279917962255222,1.3298852446577012,0.9192301831288947,0.28809755,0.6529838181030887
0.0235,1.78619375,1.0,2520.94911382075,0.23232215272108064,1.3294435753507519,0.921884983485792,0.28807313749999996,0.6539124064416884
0.024,1.7856,1.0,2538.6840980206703,0.2366282199571279,1.329007984361417,0.9243982083802409,0.2880482,0.6548269968955278
0.0245,1.78499375,1.0,2555.2963665212583,0.24091013297840663,1.3285778781020683,0.9267797002797946,0.2880227375,0.6557288839985407
0.025,1.784375,1.0,2570.8377243265336,0.24516802682965957,1.3281526629850773,0.929038464728295,0.28799675,0.6566193551524309
0.025500000000000002,1.78374375,1.0,2585.361510784022,0.2494020365556294,1.3277317454228157,0.9311827529423341,0.2879702375,0.6574996908230699
0.026000000000000002,1.7831000000000001,1.0,2598.9215576402694,0.25361229701234606,1.3273145402782365,0.9332201365434185,0.2879432,0.6583711470741286
0.0265,1.78244375,1.0,2611.570572401916,0.2577989416895055,1.3269004846054782,0.9351575744265075,0.2879156375,0.659234927183366
0.027,1.781775,1.0,2623.3552722770646,0.26196210322751334,1.3264890814263404,0.9370014777950446,0.28788755,0.6600920909100272
0.0275,1.7810937500000001,1.0,2634.310719631238,0.2661019124662645,1.3260799504698915,0.9387577683070496,0.2878589375,0.660943449941177
0.028,1.780400804913659,1.0,2644.512113668957,0.27021850024565425,1.3256727114651994,0.9404319062123048,0.28782983380637367,0.6617898118842633
0.0285,1.7797052907626838,1.0,2654.4426312038727,0.2743119952427252,1.3252669906088914,0.942028932433545,0.28780062221203273,0.6626319669012607
0.029,1.7790097766117088,1.0,2664.2237139910526,0.2783825295998456,1.324862815793436,0.9435535639599544,0.28777141061769174,0.6634698689883933
0.029500000000000002,1.7783142624607335,1.0,2673.8453605770264,0.2824302345242641,1.3244602703630586,0.9450101715625435,0.2877421990233508,0.6643033576400859
0.03,1.7776187483097585,1.0,2683.307279949586,0.28645523592485295,1.3240593481983847,0.9464027890319837,0.28771298742900986,0.6651324580524174
0.0305,1.7769232341587833,1.0,2692.609203378835,0.29045765971048443,1.32366004318004,0.947735156398803,0.28768377583466886,0.6659571953083374
0.031,1.7762277200078083,1.0,2701.750884197695,0.2944376317900307,1.3232623491886497,0.949010745021789,0.2876545642403279,0.6667775943783021
0.0315,1.775532205856833,1.0,2710.7320975823222,0.29839527807236393,1.3228662601048395,0.9502327802411275,0.287625352645987,0.6675936801208996
0.032,1.774836691705858,1.0,2719.5526403344074,0.3023307244663565,1.3224717698092348,0.9514042618588543,0.28759614105164605,0.6684054772834819
0.0325,1.7741411775548828,1.0,2728.212807012761,0.30624409408007003,1.3220788678516047,0.9525279813371762,0.28756692945730505,0.669213019398688
0.033,1.7734456634039077,1.0,2736.7148488094817,0.31013550659081407,1.32168752623941,0.9536065370725335,0.2875377178629641,0.6700163758353599
0.0335,1.7727501492529325,1.0,2745.0589226635943,0.31400509993142256,1.3212977362844003,0.9546423601775738,0.2875085062686232,0.6708155760794643
0.034,1.7720546351019575,1.0,2753.248033748159,0.31785299295535857,1.3209094637191012,0.9556377122869638,0.28747929467428224,0.6716107018352004
0.0345,1.7713591209509822,1.0,2761.285225324384,0.32167930451608506,1.3205226742760392,0.956594707035191,0.28745008307994124,0.6724018344226279
0.035,1.7706636068000072,1.0,2769.1735776022856,0.3254841534670651,1.3201373336877407,0.957515321479577,0.2874208714856003,0.6731890547809445
0.035500000000000004,1.769968092649032,1.0,2776.916206626487,0.3292676586617617,1.3197534076867319,0.9584014065153712,0.28739165989125937,0.673972443471692
0.036000000000000004,1.769272578498057,1.0,2784.5162631885873,0.33302993895363797,1.3193708620055389,0.9592546963823292,0.28736244829691837,0.6747520806818847
0.0365,1.7685770643470817,1.0,2791.9769317654936,0.3367711131961567,1.318989662376688,0.9600768173514189,0.28733323670257743,0.6755280462270621
0.037,1.7678815501961067,1.0,2799.301429483594,0.34049130024278124,1.3186097745327054,0.9608692956707859,0.2873040251082365,0.6763004195542686
0.0375,1.7671860360451315,1.0,2806.493005109093,0.3441906189469744,1.3182311642061175,0.9616335648417063,0.2872748135138955,0.6770692797449588
0.038,1.7664905218941565,1.0,2813.5549380647217,0.34786918816219925,1.3178537971294504,0.9623709722878252,0.28724560191955456,0.677834705517826
0.0385,1.7657950077431812,1.0,2820.48648383535,0.3515270894099811,1.3174776752820565,0.9630827813700058,0.2872163903252136,0.6785967018415213
0.039,1.7650994935922062,1.0,2827.2948285239613,0.35516446652453665,1.317102729896897,0.9637701873628325,0.2871871787308726,0.6793554167472438
0.0395,1.764403979441231,1.0,2833.9869489866,0.3587814654041417,1.3167288944899347,0.9644343166112214,0.2871579671365317,0.6801109929693362
0.04,1.763708465290256,1.0,2840.565506724802,0.3623781944694934,1.3163561414173996,0.9650762271998545,0.28712875554219075,0.680863494220326
0.0405,1.7630129511392807,1.0,2847.033185545073,0.36595476214128897,1.3159844430355212,0.9656969173535174,0.28709954394784976,0.6816129839270774
0.041,1.7623174369883055,1.0,2853.392690903995,0.3695112768402255,1.3156137717005296,0.9662973294545437,0.2870703323535088,0.6823595252326722
0.0415,1.7616219228373304,1.0,2859.646749270107,0.3730478469870003,1.3152440997686543,0.9668783537502851,0.2870411207591679,0.6831031809982485
0.042,1.7609264086863552,1.0,2865.7981075029597,0.37656458100231033,1.3148753995961253,0.9674408317774892,0.2870119091648269,0.6838440138047845
0.0425,1.7602308945353802,1.0,2871.8495322492854,0.38006158730685297,1.3145076435391723,0.9679855595279023,0.28698269757048595,0.6845820859548373
0.043000000000000003,1.759535380384405,1.0,2877.803809355504,0.3835389743213253,1.314140803954025,0.9685132903770934,0.286953485976145,0.6853174594742311
0.043500000000000004,1.75883986623343,1.0,2883.6637432977127,0.3869968504664244,1.3137748531969133,0.9690247377964362,0.28692427438180407,0.6860501961136973
0.044,1.7581443520824547,1.0,2889.432156628376,0.39043532416284754,1.3134097636240674,0.9695205778663247,0.2868950627874631,0.6867803573504663
0.0445,1.7574488379314797,1.0,2895.1118894404053,0.3938545038312919,1.3130455075917165,0.9700014516070264,0.28686585119312213,0.6875080043898105
0.045,1.7567533237805044,1.0,2900.705798847199,0.39725449789245465,1.3126820574560905,0.9704679671420873,0.2868366395987812,0.6882331981665375
0.0455,1.7560578096295294,1.0,2906.216758480673,0.4006354147670329,1.3123193855734194,0.970920701707837,0.28680742800444026,0.6889559993464343
0.046,1.7553622954785542,1.0,2911.6476580055223,0.40399736287572385,1.311957464299933,0.9713602035213456,0.28677821641009926,0.6896764683276659
0.0465,1.7546667813275791,1.0,2917.001402651073,0.40734045063922464,1.311596265991861,0.9717869935180684,0.2867490048157583,0.690394665242122
0.047,1.753971267176604,1.0,2922.280912759261,0.4106647864782325,1.3112357630054332,0.9722015669694375,0.2867197932214174,0.691110649956715
0.0475,1.7532757530256289,1.0,2927.489123350231,0.41397047881344456,1.3108759276968796,0.9726043949897539,0.2866905816270764,0.6918244820746318
0.048,1.7525802388746536,1.0,2932.6289524962326,0.41725763575283786,1.3105167326961025,0.9729959259208607,0.28666137003273545,0.6925362203945704
0.0485,1.7518847247236786,1.0,2937.69712544583,0.42052630655908574,1.3101582050125626,0.973376583195696,0.2866321584383945,0.6932458158908966
0.049,1.7511892105727034,1.0,2942.7028109905477,0.42377666782503515,1.3098002626550038,0.9737467783158,0.2866029468440535,0.6939534351367687
0.0495,1.7504936964217284,1.0,2947.6474491349836,0.4270088166834631,1.3094428915350946,0.9741068984107947,0.2865737352497126,0.6946591099438765
0.05,1.7497981822707531,1.0,2952.5324874964786,0.4302228502671463,1.3090860775645035,0.9744573126693457,0.28654452365537164,0.6953628719891256
0.0505,1.749102668119778,1.0,2957.3593811285123,0.4334188657088618,1.308729806654899,0.9747983733316694,0.28651531206103065,0.6960647528151427
0.051000000000000004,1.7484071539688029,1.0,2962.129592349485,0.4365969601413863,1.3083740647179494,0.9751304166185738,0.2864861004666897,0.6967647838307716
0.051500000000000004,1.7477116398178278,1.0,2966.844590574744,0.43975723069749684,1.3080188376653232,0.9754537636016214,0.28645688887234877,0.6974629963115537
0.052000000000000005,1.7470161256668526,1.0,2971.5058521537208,0.44289977450997026,1.3076641114086893,0.9757687210186339,0.2864276772780078,0.6981594214001965
0.0525,1.7463206115158776,1.0,2976.114860211477,0.4460246887115833,1.307309871859716,0.9760755820384187,0.28639846568366684,0.698854090107031
0.053,1.7456250973649023,1.0,2980.67310449434,0.449132070435113,1.3069561049300715,0.9763746269782956,0.2863692540893259,0.6995470333104558
0.0535,1.7449295832139273,1.0,2985.1820812198657,0.4522220168133362,1.3066027965314246,0.9766661239777178,0.28634004249498496,0.7002382817573656
0.054,1.744234069062952,1.0,2989.6432929317575,0.45529462497902967,1.306249932575444,0.9769503296310296,0.28631083090064396,0.7009278660635716
0.0545,1.743538554911977,1.0,2994.0582483589083,0.45834999206497046,1.3058974989737975,0.9772274895821615,0.286281619306303,0.7016158167142079
0.055,1.7428430407610018,1.0,2998.428462278226,0.4613882152039353,1.3055454816381542,0.9774978390838607,0.2862524077119621,0.7023021640641212
0.0555,1.7421475266100268,1.0,3002.755455382854,0.46440939152870114,1.3051938664801825,0.9777616035238459,0.28622319611762115,0.7029869383382542
0.056,1.7414520124590516,1.0,3007.040754154313,0.4674136181720448,1.3048426394115507,0.9780189989201062,0.28619398452328015,0.7036701696320131
0.0565,1.7407564983080765,1.0,3011.285890739077,0.4704009922667432,1.3044917863439274,0.9782702323873893,0.2861647729289392,0.7043518879116202
0.057,1.7400609841571013,1.0,3015.4924028293444,0.47337161094557323,1.304141293188981,0.9785155025767803,0.2861355613345983,0.7050321230144587
0.0575,1.7393654700061263,1.0,3019.661833548449,0.47632557134131176,1.3037911458583802,0.9787550000901304,0.2861063497402573,0.7057109046494017
0.058,1.738669955855151,1.0,3023.7940186400765,0.4792629398465405,1.3034413450546307,0.9789889060569679,0.28607713814591634,0.7063882337737135
0.0585,1.737974441704176,1.0,3027.890262968216,0.4821838187313844,1.303091878806501,0.9792173967842965,0.2860479265515754,0.7070641358467646
0.059000000000000004,1.7372789275532008,1.0,3031.9534411738537,0.485088336608131,1.3027427216434146,0.9794406430490952,0.2860187149572344,0.7077386622829654
0.059500000000000004,1.7365834134022258,1.0,3035.984241404613,0.4879765801828442,1.3023938670133801,0.9796588064680648,0.28598950336289347,0.7084118277828259
0.06,1.7358878992512505,1.0,3039.983354444674,0.49084863616158775,1.3020453083644064,0.9798720423969937,0.28596029176855253,0.7090836469867687
0.0605,1.7351923851002753,1.0,3043.951473671958,0.49370459125042554,1.3016970391445015,0.9800805002217404,0.28593108017421154,0.7097541344752587
0.061,1.7344968709493003,1.0,3047.889295015365,0.4965445321554214,1.3013490528016742,0.9802843236335311,0.2859018685798706,0.7104233047689215
0.0615,1.7338013567983253,1.0,3051.7975169130996,0.49936854558263905,1.3010013427839329,0.9804836508895306,0.28587265698552966,0.711091172328665
0.062,1.73310584264735,1.0,3055.676840272159,0.5021767182381424,1.3006539025392863,0.9806786150595802,0.28584344539118867,0.7117577515557951
0.0625,1.7324103284963748,1.0,3059.527968428878,0.5049691368279952,1.3003067255157426,0.9808693442599364,0.2858142337968477,0.7124230567921316
0.063,1.7317148143453998,1.0,3063.351607109796,0.5077458880582612,1.2999598051613104,0.9810559618747865,0.2857850222025068,0.7130871023201171
0.0635,1.7310193001944245,1.0,3067.148464394034,0.5105070586350043,1.299613134923998,0.981238586766269,0.2857558106081658,0.7137499023629277
0.064,1.7303237860434495,1.0,3070.9192506768354,0.5132527352642884,1.2992667082518148,0.9814173334736702,0.28572659901382486,0.7144114710845765
0.0645,1.7296282718924743,1.0,3074.66467863322,0.5159830046521772,1.2989205185927684,0.9815923124024387,0.2856973874194839,0.7150718225900206
0.065,1.7289327577414992,1.0,3078.38546318332,0.5186979535047344,1.2985745593948674,0.9817636300036018,0.285668175825143,0.7157309709252576
0.0655,1.728237243590524,1.0,3082.0823214584257,0.521397668528024,1.2982288241061208,0.9819313889441389,0.28563896423080204,0.7163889300774249
0.066,1.727541729439549,1.0,3085.7559727678463,0.5240822364281098,1.2978833061745367,0.9820956882688322,0.28560975263646105,0.7170457139748955
0.0665,1.7268462152885737,1.0,3089.407138567239,0.5267517439110555,1.2975379990481237,0.982256623554076,0.2855805410421201,0.7177013364873683
0.067,1.7261507011375987,1.0,3093.0365424268844,0.529406277682925,1.2971928961748904,0.9824142870540984,0.28555132944777917,0.7183558114259592
0.0675,1.7254551869866235,1.0,3096.644910002027,0.5320459244497822,1.2968479910028454,0.9825687678400243,0.2855221178534382,0.7190091525432865
0.068,1.7247596728356485,1.0,3100.2329690037136,0.5346707709176908,1.296503276979997,0.9827201519321727,0.28549290625909723,0.7196613735335562
0.0685,1.7240641586846732,1.0,3103.800057432352,0.5372808561787239,1.2961587594174453,0.9828685199906212,0.2854636946647563,0.7203124656260196
0.069,1.7233686445336982,1.0,3107.347850578793,0.5398763133825193,1.295814423704678,0.9830139549090361,0.2854344830704153,0.7209624576794299
0.0695,1.722673130382723,1.0,3110.876965306927,0.5424572307100114,1.295470264278217,0.9831565344168302,0.28540527147607436,0.7216113613755122
0.07,1.721977616231748,1.0,3114.3877296512014,0.5450236853681488,1.2951262780467754,0.9832963331059292,0.2853760598817334,0.7222591836934229
0.07050000000000001,1.7212821020807727,1.0,3117.8804726672356,0.5475757545638802,1.2947824619190667,0.9834334231142855,0.28534684828739243,0.722905931584611
