Time [s],Phi [rad],STIM [ ],Fsee [N],Gamma [ ],Lcerel [ ],q [ ],Lmtc [m],fisomrel [ ]
0.0,1.8,1.0,17.982176906784545,0.0001253299203835878,1.379338063970134,0.005004103618768005,0.288653,0.5411436008398932
0.0005,1.79999375,1.0,18.329575065592586,0.005733836227468038,1.379296523537467,0.013263793452579168,0.2886527375,0.5412440919400248
0.001,1.799975,1.0,21.756913916644837,0.011310883248538477,1.3789241756669814,0.03621208307464268,0.28865195,0.5421443529818195
0.0015,1.79994375,1.0,31.391508056144566,0.016856647446257443,1.3780188180893684,0.07142618216259053,0.2886506375,0.544329633833919
0.002,1.7999,1.0,54.270827423975035,0.022371304291495045,1.3763236118184152,0.11569324025001279,0.2886488,0.5484073315942053
0.0025,1.79984375,1.0,98.27086664981536,0.027855028271622395,1.3738798221786184,0.16563518860085594,0.28864643749999996,0.5542534393102192
0.003,1.7997750000000001,1.0,162.45366946307888,0.03330799289719781,1.37115849509513,0.2183739102992649,0.28864354999999997,0.5607186591795865
0.0035,1.79969375,1.0,239.37120554239144,0.03873037070240771,1.3685328352243682,0.27170018283342745,0.2886401375,0.5669118283210737
0.004,1.7996,1.0,323.26139744819517,0.044122333255593435,1.366108625759983,0.3239684109109992,0.2886362,0.5725907976534972
0.0045000000000000005,1.7994937500000001,1.0,411.12537919919623,0.049484051164513945,1.363879257915645,0.3740335795462059,0.2886317375,0.5777802476363507
0.005,1.799375,1.0,501.30841010413127,0.05481569406804,1.361818113876231,0.4211820788288322,0.28862675,0.5825499122163478
0.0055,1.79924375,1.0,592.7014759889692,0.06011743067733792,1.3599015277280615,0.4650389545145942,0.2886212375,0.5869607472544878
0.006,1.7991000000000001,1.0,684.4304717066094,0.06538942873414079,1.3581116773872373,0.5054750965253081,0.2886152,0.5910587580322044
0.006500000000000001,1.79894375,1.0,775.7817771796539,0.07063185503976493,1.356434830399806,0.542527761135722,0.2886086375,0.5948795015237933
0.007,1.798775,1.0,866.1666546177729,0.07584487551251617,1.3548600298594504,0.5763392597163209,0.28860155,0.5984514005361925
0.0075,1.79859375,1.0,955.0907527245103,0.08102865502861423,1.3533783759137807,0.607112451389422,0.2885939375,0.6017975874889626
0.008,1.7984,1.0,1042.168036070724,0.08618335759929985,1.351982015478418,0.6350795256581541,0.2885858,0.604938331568083
0.0085,1.79819375,1.0,1127.088930825669,0.09130914654798995,1.3506641281221177,0.6604816980763962,0.2885771375,0.6078911646950098
0.009000000000000001,1.797975,1.0,1209.6004944788422,0.09640618367148594,1.3494188104525853,0.683556286247483,0.28856795,0.6106712209882025
0.0095,1.79774375,1.0,1289.5270755323943,0.10147463012249094,1.3482404969649875,0.7045287551304446,0.2885582375,0.6132925901580949
0.01,1.7975,1.0,1366.7686487499507,0.10651464738362526,1.3471238064303606,0.723608570637529,0.288548,0.6157686958204642
0.0105,1.79724375,1.0,1441.215091127851,0.11152639402217432,1.34606448221704,0.740987907791618,0.2885372375,0.6181102491959567
0.011,1.796975,1.0,1512.8094684208727,0.11651002827856874,1.3450583906567883,0.7568407971187949,0.28852595000000003,0.6203275096854186
0.0115,1.79669375,1.0,1581.544099772153,0.1214657080983686,1.3441014859129066,0.771323704691986,0.2885141375,0.622430380715975
0.012,1.7964,1.0,1647.436819686838,0.12639359094284677,1.3431900179181744,0.7845767162077002,0.28850180000000003,0.6244279706674846
0.0125,1.79609375,1.0,1710.5033758024028,0.1312938324470729,1.3423207673665443,0.796724948993969,0.2884889375,0.6263281002218759
0.013000000000000001,1.7957750000000001,1.0,1770.7712730200888,0.13616658710809623,1.3414907977031594,0.8078798353548658,0.28847555,0.6281378669772317
0.0135,1.79544375,1.0,1828.2960775672957,0.14101200912149628,1.340697214952221,0.8181404238065886,0.2884616375,0.62986418279273
0.014,1.7951000000000001,1.0,1883.1519589652978,0.1458302524265699,1.3399372371304707,0.8275947478030226,0.2884472,0.631513631416142
0.0145,1.79474375,1.0,1935.4093176547651,0.1506214698860782,1.339208400017439,0.8363211349977521,0.2884322375,0.6330920323903353
0.015,1.794375,1.0,1985.128357847887,0.15538581208250354,1.338508580721963,0.8443893242336731,0.28841675,0.6346044029898033
0.0155,1.79399375,1.0,2032.3876521552945,0.1601234295983285,1.3378356563528806,0.8518613542374848,0.2884007375,0.6360557056652372
0.016,1.7936,1.0,2077.273471097291,0.16483447224417735,1.3371875987197717,0.8587925021519552,0.2883842,0.6374506481811041
0.0165,1.7931937500000001,1.0,2119.8817318165347,0.1695190903517633,1.3365624341677245,0.8652320727580997,0.2883671375,0.6387937752139545
0.017,1.792775,1.0,2160.2972507409804,0.17417743249683415,1.335958439438724,0.8712241597226033,0.28834955,0.6400890528376824
0.0175,1.7923437500000001,1.0,2198.5889105337947,0.1788096447662991,1.3353741674442863,0.8768082634618821,0.2883314375,0.6413398208260581
0.018000000000000002,1.7919,1.0,2234.8350405796873,0.18341587324706735,1.3348081710959272,0.8820197543509742,0.2883128,0.6425493895644143
0.0185,1.79144375,1.0,2269.122626292239,0.18799626402604805,1.334259003305163,0.8868903550194707,0.2882936375,0.6437210418030583
0.019,1.790975,1.0,2301.5339380792407,0.19255096174024378,1.3337253419721005,0.8914485930154779,0.28827395,0.6448577682576677
0.0195,1.79049375,1.0,2332.163121199892,0.19708011263011607,1.3332058158682605,0.8957201259465691,0.2882537375,0.6459626411720882
0.02,1.79,1.0,2361.082063691203,0.20158385940683735,1.3326993338512856,0.8997281410149411,0.288233,0.6470381162465269
0.0205,1.78949375,1.0,2388.3565625831234,0.20606234334075813,1.332204914103462,0.9034935919612103,0.2882117375,0.6480864000175748
0.021,1.788975,1.0,2414.056894052209,0.21051570570222886,1.3317215748070759,0.9070354227465589,0.28818995000000003,0.6491096836974285
0.021500000000000002,1.78844375,1.0,2438.257438645716,0.21494408776160007,1.331248334144414,0.9103707878927744,0.2881676375,0.6501101438984398
0.022,1.7879,1.0,2461.027833565369,0.21934762914477982,1.3307842916102042,0.9135152619050818,0.2881448,0.6510897717599982
0.0225,1.78734375,1.0,2482.4438694587643,0.22372647149277164,1.3303285192293595,0.9164829881176239,0.28812143749999997,0.652050603902228
0.023,1.786775,1.0,2502.5684000109286,0.22808075350562196,1.3298802406039183,0.9192868614332095,0.28809755,0.6529943458517251
0.0235,1.78619375,1.0,2521.455023294639,0.23241061137579586,1.3294387906325653,0.921938649864842,0.28807313749999996,0.6539224592683444
0.024,1.7856,1.0,2539.1594656318903,0.23671618129575833,1.3290035042139856,0.9244490906215528,0.2880482,0.6548363973689986
0.0245,1.78499375,1.0,2555.7394025550398,0.24099759945797444,1.3285737162468634,0.9268279945972501,0.2880227375,0.655737605203207
0.025,1.784375,1.0,2571.2542895759266,0.2452550020549092,1.3281487616298835,0.9290843390018473,0.28799675,0.656627519900427
0.025500000000000002,1.78374375,1.0,2585.752927525319,0.24948852195667326,1.3277280898983181,0.931226367228602,0.2879702375,0.6575073312869895
0.026000000000000002,1.7831000000000001,1.0,2599.299707495364,0.25369829786809933,1.3273110178761174,0.9332616236315546,0.2879432,0.6583784999263392
0.0265,1.78244375,1.0,2611.9388328542905,0.2578844622112898,1.3268970626349255,0.9351970685974694,0.2879156375,0.6592420613541379
0.027,1.781775,1.0,2623.709587393285,0.26204714561743114,1.3264857964379357,0.937039112489876,0.28788755,0.6600989308810166
0.0275,1.7810937500000001,1.0,2634.652147552,0.26618647871770984,1.3260767915483422,0.9387936592551055,0.2878589375,0.6609500191758257
0.028,1.7804,1.0,2644.807505409021,0.2703025921433124,1.3256696202293383,0.9404661531249786,0.2878298,0.6617962323331588
0.0285,1.77969375,1.0,2654.2173957284895,0.2743956165254253,1.325263854744118,0.94206162044708,0.2878001375,0.6626384719292007
0.029,1.778975,1.0,2662.9242270632553,0.278465682495235,1.3248590673558749,0.9435847072039236,0.28776995,0.6634776350659157
0.029500000000000002,1.7782437500000001,1.0,2670.961828076183,0.2825129153408698,1.3244549147611058,0.9450397223258022,0.2877392375,0.6643144396918481
0.03,1.7775,1.0,2678.378173694181,0.2865374506068453,1.3240509284126305,0.9464306444462591,0.287708,0.6651498590398988
0.0305,1.77674375,1.0,2685.2015974900814,0.2905394137829132,1.323646824529058,0.9477611841698806,0.2876762375,0.6659844801411261
0.031,1.775975,1.0,2691.459286538412,0.294518929491788,1.3232423331907266,0.9490347877169887,0.28764395,0.6668188585249213
0.0315,1.7751937500000001,1.0,2697.178755436089,0.2984761223561845,1.322837184477975,0.9502546576839329,0.2876111375,0.667653546933463
0.032,1.7744,1.0,2702.387815645304,0.3024111169988173,1.3224311084711418,0.9514237732763122,0.2875778,0.6684890953127258
0.0325,1.77359375,1.0,2707.114546451717,0.3063240380424011,1.3220238352505653,0.9525449086273625,0.2875439375,0.6693260507988417
0.033,1.772775,1.0,2711.3872675376692,0.31021501010965064,1.3216150948965844,0.9536206494032686,0.28750955,0.6701649576998121
0.0335,1.7719437500000002,1.0,2715.231945152335,0.314084155408634,1.321204640893103,0.9546534098899139,0.2874746375,0.6710063095303976
0.034,1.7711000000000001,1.0,2718.6699116028017,0.31793159249108016,1.3207922706032569,0.9556454484855915,0.2874392,0.6718505074018075
0.0345,1.7702437500000001,1.0,2721.7367757523825,0.32175745633491193,1.3203776528221292,0.9565988660472018,0.2874032375,0.6726982129215029
0.035,1.7693750000000001,1.0,2724.449117889464,0.3255618645936694,1.3199606309597598,0.9575156422438403,0.28736675,0.673549727792833
0.035500000000000004,1.76849375,1.0,2726.8236247565865,0.3293449349208927,1.3195410484261887,0.9583976304714411,0.2873297375,0.6744053519473601
0.036000000000000004,1.7676,1.0,2728.877078569409,0.3331067849701218,1.3191187486314562,0.9592465673553007,0.2872922,0.6752653835200686
0.0365,1.76669375,1.0,2730.6263465803218,0.3368475323948967,1.3186935749856021,0.9600640814338967,0.2872541375,0.6761301188230115
0.037,1.765775,1.0,2732.088371184327,0.3405672948487576,1.3182653708986667,0.9608517011029506,0.28721555,0.676999852317392
0.0375,1.76484375,1.0,2733.2801605700906,0.3442661899852445,1.3178339797806897,0.9616108618902864,0.2871764375,0.6778748765840821
0.038,1.7639,1.0,2734.218779913263,0.3479443354578975,1.3173992450417114,0.9623429131246419,0.28713679999999997,0.6787554822925754
0.0385,1.76294375,1.0,2734.9213431146122,0.35160184892025653,1.3169610100917717,0.9630491240550275,0.28709663750000003,0.6796419581683795
0.039,1.761975,1.0,2735.405005080621,0.3552388480258618,1.3165191183409106,0.9637306894713937,0.28705595,0.6805345909588413
0.0395,1.7609937500000001,1.0,2735.677661131642,0.35885543922619306,1.3160734975773174,0.9643887404253894,0.2870147375,0.6814334953100815
0.04,1.76,1.0,2735.761764963324,0.36245175120119355,1.3156239436522037,0.9650243354470497,0.286973,0.6823390503617046
0.0405,1.7589937500000001,1.0,2735.6673377821244,0.36602789563329297,1.3151703655002915,0.9656384798803966,0.2869307375,0.6832514053265709
0.041,1.757975,1.0,2735.403498416703,0.3695839829649119,1.3147126804082248,0.9662321232025984,0.28688795,0.6841706912955057
0.0415,1.75694375,1.0,2734.9793802558365,0.3731201236384711,1.3142508056626472,0.9668061622385227,0.2868446375,0.6850970380751823
0.042,1.7559,1.0,2734.404128503553,0.3766364280963912,1.3137846585502027,0.9673614446204697,0.28680079999999997,0.6860305741662396
0.0425,1.75484375,1.0,2733.6868975857437,0.3801330067810928,1.313314156357535,0.9678987719863406,0.2867564375,0.6869714267409635
0.043000000000000003,1.753775,1.0,2732.8368487082053,0.3836099701349966,1.312839216371288,0.968418902938486,0.28671155,0.6879197216205306
0.043500000000000004,1.75269375,1.0,2731.863147567154,0.38706742860052323,1.3123597558781057,0.9689225557833857,0.28666613750000003,0.6888755832518183
0.044,1.7516,1.0,2730.7749622101483,0.3905054926200934,1.3118756921646317,0.9694104110704278,0.2866202,0.6898391346837751
0.0445,1.75049375,1.0,2729.581461050235,0.39392427263612767,1.31138694251751,0.969883113946375,0.2865737375,0.6908104975433575
0.045,1.7493750000000001,1.0,2728.2848434644393,0.3973238624257852,1.310893487569989,0.9703412787898895,0.28652675,0.6917896664112537
0.0455,1.74824375,1.0,2726.8993368327265,0.40070438780651263,1.3103951986088351,0.9707854849936183,0.2864792375,0.6927768516600186
0.046,1.7471,1.0,2725.4335434854884,0.40406596162468617,1.3098919980020336,0.9712162846651544,0.2864312,0.6937721606323585
0.0465,1.7459437500000001,1.0,2723.8918753634175,0.40740868644840905,1.3093838461972713,0.9716342037301178,0.28638263750000004,0.6947756240822167
0.047,1.744775,1.0,2722.278742815417,0.41073266484578436,1.308870703642236,0.9720397421272756,0.28633355,0.6957872717842795
0.0475,1.74359375,1.0,2720.5985540081674,0.4140379993849153,1.308352530784615,0.9724333753340182,0.28628393750000003,0.6968071325214381
0.048,1.7424,1.0,2718.8557143688727,0.41732479263390515,1.307829288072096,0.9728155557884878,0.2862338,0.6978352340721508
0.0485,1.74119375,1.0,2717.054626064005,0.420593147160857,1.3073009359523662,0.9731867142162619,0.2861831375,0.6988716031977033
0.049,1.739975,1.0,2715.1996875117115,0.4238431655338741,1.3067674348731129,0.97354726086882,0.28613195,0.69991626562937
0.0495,1.73874375,1.0,2713.2952929295657,0.4270749503210595,1.3062287452820234,0.9738975866804127,0.2860802375,0.7009692460554773
0.05,1.7375,1.0,2711.345831916645,0.4302886040905165,1.3056848276267856,0.9742380643494022,0.286028,0.7020305681083622
0.0505,1.73624375,1.0,2709.3556890705468,0.43348422941034825,1.3051356423550864,0.9745690493496457,0.2859752375,0.7031002543512399
0.051000000000000004,1.734975,1.0,2707.329243638938,0.43666192884865795,1.3045811499146136,0.9748908808770301,0.28592195,0.7041783262649608
0.051500000000000004,1.73369375,1.0,2705.2708692057126,0.4398218049735487,1.3040213107530545,0.9752038827358557,0.2858681375,0.705264804234677
0.052000000000000005,1.7324,1.0,2703.183744855421,0.4429639524062313,1.3034560961740858,0.9755083640095585,0.2858138,0.7063596865267348
0.0525,1.73109375,1.0,2701.069480072898,0.4460884614376409,1.3028854917837702,0.9758046204787134,0.28575893750000003,0.7074629428153816
0.053,1.729775,1.0,2698.9345323708667,0.44919545892478335,1.3023094388541625,0.976092935908005,0.28570355000000003,0.7085746274862289
0.0535,1.72844375,1.0,2696.780695468257,0.4522850389398752,1.3017279212157722,0.9763735808615008,0.2856476375,0.7096947116033443
0.054,1.7271,1.0,2694.6097604902543,0.45535729555513327,1.3011409226991093,0.976646814183495,0.2855912,0.7108231654206922
0.0545,1.7257437500000001,1.0,2692.4235159065706,0.45841232284277417,1.3005484271346839,0.9769128836026771,0.2855342375,0.7119599583764911
0.055,1.724375,1.0,2690.2237474751873,0.46145021487501475,1.2999504183530057,0.9771720263002491,0.28547675,0.7131050590875537
0.0555,1.72299375,1.0,2688.0122381925453,0.46447106572407165,1.299346880184585,0.977424469444418,0.2854187375,0.7142584353436086
0.056,1.7216,1.0,2685.7907682488153,0.46747496946216155,1.2987377964599316,0.9776704306935231,0.2853602,0.7154200541016087
0.0565,1.72019375,1.0,2683.5611149894535,0.4704620201615013,1.2981231510095554,0.9779101186698778,0.28530113749999997,0.7165898814800185
0.057,1.718775,1.0,2681.3250528824897,0.4734323118943075,1.2975029276639667,0.9781437334062527,0.28524155,0.7177678827530887
0.0575,1.71734375,1.0,2679.0843534911214,0.4763859387327969,1.2968771102536751,0.9783714667667929,0.2851814375,0.7189540223451123
0.058,1.7159,1.0,2676.8407854529564,0.47932299474918627,1.2962456826091908,0.978593502844023,0.2851208,0.7201482638246639
0.0585,1.71444375,1.0,2674.5961144643934,0.4822435740156923,1.2956086285610235,0.9788100183334824,0.2850596375,0.7213505698988227
0.059000000000000004,1.7129750000000001,1.0,2672.352103270872,0.4851477706045317,1.2949659319396836,0.979021182887411,0.28499795,0.7225609024073787
0.059500000000000004,1.71149375,1.0,2670.11051166337,0.48803567858792113,1.2943175765756805,0.9792271594488233,0.2849357375,0.7237792223170232
0.06,1.71,1.0,2667.871382974664,0.490907378527317,1.2936635620535053,0.9794281043173235,0.284873,0.7250054602106093
0.0605,1.7084937500000001,1.0,2665.6325012772963,0.4937629424155905,1.293003908737341,0.9796241681608663,0.2848097375,0.7262395072214283
0.061,1.7069750000000001,1.0,2663.4005163677175,0.4966025103898955,1.2923385554455904,0.9798154969290886,0.28474595,0.7274814062499537
0.0615,1.7054437500000001,1.0,2661.1757357036317,0.4994261673308762,1.291667499279012,0.9800022296513881,0.2846816375,0.7287310901285954
0.062,1.7039,1.0,2658.95846623785,0.5022339981191767,1.2909907373383653,0.9801845000846907,0.2846168,0.7299884910180947
0.0625,1.70234375,1.0,2656.7490144217386,0.5050260876354412,1.290308266724409,0.9803624369513299,0.2845514375,0.7312535404064713
0.063,1.7007750000000001,1.0,2654.5476862094342,0.507802520760314,1.2896200845379022,0.9805361641644654,0.28448555,0.7325261691079668
0.0635,1.69919375,1.0,2652.354787062149,0.5105633823744391,1.2889261878796041,0.9807058010417841,0.28441913750000003,0.7338063072619889
0.064,1.6976,1.0,2650.170621952081,0.5133087573584607,1.2882265738502736,0.9808714625081707,0.2843522,0.735093884332056
0.0645,1.69599375,1.0,2647.995495367544,0.5160387305930232,1.2875212395506699,0.981033259287996,0.2842847375,0.7363888291047396
0.065,1.694375,1.0,2645.829711317314,0.5187533869587704,1.2868101820815516,0.9811912980876245,0.28421675,0.7376910696886072
0.0655,1.69274375,1.0,2643.6735733355517,0.5214528113363468,1.2860933985436782,0.9813456817687075,0.2841482375,0.7390005335131636
0.066,1.6911,1.0,2641.5273844870694,0.5241370886063964,1.2853708860378086,0.9814965095127876,0.2840792,0.7403171473277936
0.0665,1.6894437500000001,1.0,2639.3914473726604,0.5268063036495635,1.2846426416647017,0.9816438769777086,0.2840096375,0.7416408372007024
0.067,1.687775,1.0,2637.2660641342864,0.5294605413464921,1.2839086625251166,0.9817878764462984,0.28393955,0.7429715285178554
0.0675,1.68609375,1.0,2635.151536461099,0.5320998865778266,1.2831689457198125,0.9819285969677488,0.2838689375,0.7443091459819192
0.068,1.6844000000000001,1.0,2633.0481655951344,0.534724424224211,1.2824234883495482,0.9820661244921098,0.2837978,0.7456536136112009
0.0685,1.68269375,1.0,2630.9562523371546,0.5373342391662895,1.2816722875150828,0.982200541998272,0.2837261375,0.7470048547385859
0.069,1.680975,1.0,2628.8760970533617,0.5399294162847064,1.2809153403171754,0.9823319296157963,0.28365395,0.748362792010477
0.0695,1.67924375,1.0,2626.8079996812585,0.5425100404601058,1.280152643856585,0.9824603647409295,0.28358123749999997,0.7497273473857319
0.07,1.6775,1.0,2624.74164230495,0.5450761954383576,1.279384293649487,0.9825859266526791,0.283508,0.7510982667792641
0.07050000000000001,1.67574375,1.0,2622.6980991320597,0.547627958250175,1.278610094267386,0.9827086781405574,0.2834342375,0.7524758143249948
0.07100000000000001,1.6739764302354405,1.0,2620.742159776994,0.5501654081841666,1.2778300903723407,0.9828286909887369,0.2833600100698885,0.7538598242464827
0.07150000000000001,1.6722074098580049,1.0,2619.2884644653436,0.552688624860033,1.2770446647419595,0.9829460500631065,0.28328571121403623,0.7552495336033649
0.07200000000000001,1.670438389480569,1.0,2618.378106393464,0.5551976878974751,1.2762542001538506,0.9830608375804112,0.2832114123581839,0.756644186534937
0.0725,1.6686693691031333,1.0,2617.969560094126,0.5576926769161934,1.2754590793856218,0.9831731332193421,0.2831371135023316,0.7580430343878372
0.073,1.6669003487256977,1.0,2618.024242778587,0.5601736707660917,1.2746596594377109,0.9832830130263124,0.2830628146464793,0.7594453809871196
0.0735,1.665131328348262,1.0,2618.496483878712,0.5626407489570232,1.2738563642789063,0.9833905537665265,0.282988515790627,0.7608504201018463
0.074,1.6633623079708264,1.0,2619.3542632163512,0.5650939889824319,1.2730494920642643,0.9834958242390639,0.2829142169347747,0.7622575729701763
0.0745,1.6615932875933908,1.0,2620.5677667373393,0.5675334679785394,1.2722393211234295,0.9835988902955726,0.2828399180789224,0.7636663011296372
0.075,1.659824267215955,1.0,2622.1072292184363,0.5699592630815671,1.2714261297860463,0.9836998158362559,0.2827656192230701,0.7650760716497715
