Time [s],Phi [rad],STIM [ ],Fsee [N],Gamma [ ],Lcerel [ ],q [ ],Lmtc [m],fisomrel [ ]
0.0,1.8,1.0,17.966156580122043,1.017444010299297e-05,1.3793398584325762,0.005000027585953184,0.288653,0.5411392595802074
0.0005,1.79999375,1.0,18.275639864419333,0.005619326678335175,1.379302510455553,0.01294100082621296,0.2886527375,0.5412296095730712
0.001,1.799975,1.0,21.617443610922056,0.011197016007431632,1.3789383979122056,0.03560949389287857,0.28865195,0.5421099827414889
0.0015,1.79994375,1.0,31.068488712541033,0.016743418910298243,1.3780462673960476,0.07060296367643881,0.2886506375,0.544263455701263
0.002,1.7999,1.0,53.58190664037833,0.02225871087818727,1.376368162904749,0.11471932794171581,0.2886488,0.5483004016317101
0.0025,1.79984375,1.0,97.11880204527411,0.02774306641826632,1.373935173793862,0.1645762950287326,0.28864643749999996,0.5541214470655426
0.003,1.7997750000000001,1.0,160.9584907690321,0.03319665906133053,1.3712143316305896,0.21728189761369962,0.28864354999999997,0.5605864795665008
0.0035,1.79969375,1.0,237.6839799425216,0.03861966136139711,1.3685847142607466,0.2706143216544829,0.2886401375,0.5667898865220784
0.004,1.7996,1.0,321.46766671637465,0.044012244906486954,1.366156068681053,0.3229171874291306,0.2886362,0.5724800171174618
0.0045000000000000005,1.7994937500000001,1.0,409.2688487813067,0.049374580323809064,1.3639227883925373,0.37303582189448814,0.2886317375,0.5776792222213026
0.005,1.799375,1.0,499.41475360784756,0.05470683727085649,1.361858315796332,0.4202486898605352,0.28862675,0.5824571405900576
0.0055,1.79924375,1.0,590.7917793200401,0.060009184482828784,1.3599388084242763,0.46417483616908584,0.2886212375,0.5868751728001025
0.006,1.7991000000000001,1.0,682.5195629329746,0.06528178971588547,1.3581463883065665,0.5046810080140567,0.2886152,0.5909794787722005
0.006500000000000001,1.79894375,1.0,773.882975483687,0.0705248198036016,1.3564672242963467,0.5418017150216449,0.2886086375,0.594805860977226
0.007,1.798775,1.0,864.28752218849,0.07573844063464877,1.354890367358495,0.5756776522748499,0.28860155,0.5983827396560982
0.0075,1.79859375,1.0,953.2444337998958,0.08092281717458387,1.353406760451065,0.6065107141322761,0.2885939375,0.6017336150111086
0.008,1.7984,1.0,1040.3606052336293,0.08607811346699482,1.3520086146807426,0.63453277713287,0.2885858,0.6048786198678077
0.0085,1.79819375,1.0,1125.3235818140065,0.09120449262634846,1.3506891090762732,0.6599850317660519,0.2885771375,0.6078352958395721
0.009000000000000001,1.797975,1.0,1207.8871672273006,0.09630211679217343,1.3494422128630696,0.683104904759742,0.28856795,0.610619068460973
0.0095,1.79774375,1.0,1287.851345625394,0.10137114641461102,1.3482626644960365,0.7041183231999295,0.2885582375,0.6132433562440087
0.01,1.7975,1.0,1365.1595022567483,0.10641174451052736,1.3471444822788572,0.7232347859460055,0.288548,0.6157229222683169
0.0105,1.79724375,1.0,1439.6792302104761,0.11142406889802506,1.3460836994394616,0.7406470035252648,0.2885372375,0.6180678347649758
0.011,1.796975,1.0,1511.3389502145067,0.11640827739520677,1.3450763492057798,0.7565294563952946,0.28852595000000003,0.6202879885803914
0.0115,1.79669375,1.0,1580.1225403481408,0.12136452782017523,1.3441184648057416,0.7710389898121821,0.2885141375,0.6223931191955983
0.012,1.7964,1.0,1646.057619878344,0.12629297775448928,1.3432061578280872,0.784315942592493,0.28850180000000003,0.6243926442247517
0.0125,1.79609375,1.0,1709.1724006849984,0.13119378343976099,1.3423360528737642,0.7964856611009745,0.2884889375,0.6262947286441687
0.013000000000000001,1.7957750000000001,1.0,1769.4953569827908,0.13606709946183315,1.341505199162195,0.8076598443924095,0.28847555,0.6281065017384873
0.0135,1.79544375,1.0,1827.0748676436374,0.1409130798321009,1.3407107801765137,0.8179378149371659,0.2884616375,0.6298347074984418
0.014,1.7951000000000001,1.0,1881.9737871238892,0.145731877711961,1.3399501321284202,0.8274078624641437,0.2884472,0.6314856749549416
0.0145,1.79474375,1.0,1934.2802232194642,0.15052364688616235,1.339220589761459,0.8361484288680883,0.2884322375,0.6330656616131629
0.015,1.794375,1.0,1984.0514172744884,0.15528853790078154,1.338520060770763,0.8442294346337849,0.28841675,0.6345796188002517
0.0155,1.79399375,1.0,2031.360391589794,0.16002670114488432,1.3378464786538955,0.8517130866840195,0.2884007375,0.636032387950137
0.016,1.7936,1.0,2076.293284729587,0.16473828668388965,1.337197812827631,0.8586547918763411,0.2883842,0.6374286831130802
0.0165,1.7931937500000001,1.0,2118.940560777665,0.16942344397972106,1.336572142582635,0.8651039846492645,0.2883671375,0.638772936343541
0.017,1.792775,1.0,2159.3965770613313,0.17408232247685027,1.3359676427342297,0.8711048294085987,0.28834955,0.6400693336594546
0.0175,1.7923437500000001,1.0,2197.7291946076284,0.17871506821889183,1.3353828753315022,0.876696920054782,0.2883314375,0.6413211955815499
0.018000000000000002,1.7919,1.0,2234.015698171236,0.18332182724946025,1.334816402423539,0.8819157094420943,0.2883128,0.6425318133550983
0.0185,1.79144375,1.0,2268.342010079067,0.18790274561217005,1.3342667860594266,0.8867929930371281,0.2882936375,0.6437044506935635
0.019,1.790975,1.0,2300.7891236145833,0.19245796785780533,1.3337327152725185,0.8913573632648943,0.28827395,0.6448420751174494
0.0195,1.79049375,1.0,2331.4530088366464,0.19698764039043484,1.333212799286505,0.8956345278581852,0.2882537375,0.645947800993786
0.02,1.79,1.0,2360.4053147245336,0.20149190589012503,1.3327059482529129,0.8996477233772239,0.288233,0.6470240816235014
0.0205,1.78949375,1.0,2387.711746121043,0.20597090563359852,1.332211180288691,0.9034179471451311,0.2882117375,0.6480731240152899
0.021,1.788975,1.0,2413.4424952004592,0.21042478089757785,1.3317275135107876,0.9069641818977384,0.28818995000000003,0.6490971198340252
0.021500000000000002,1.78844375,1.0,2437.6718662155095,0.2148536729587856,1.3312539660361515,0.9103036167068497,0.2881676375,0.6500982461266587
0.022,1.7879,1.0,2460.470070556187,0.2192577215385938,1.330789631145146,0.913451855708115,0.2881448,0.6510785074198289
0.0225,1.78734375,1.0,2481.9120019460606,0.22363706811757444,1.3303335888374477,0.9164230714143646,0.28812143749999997,0.6520399237428955
0.023,1.786775,1.0,2502.061234215861,0.2279918515896923,1.3298850552720864,0.9192301820723097,0.28809755,0.6529842165437898
0.0235,1.78619375,1.0,2520.9714369666963,0.23232220814187599,1.329443364215974,0.9218849777184805,0.28807313749999996,0.6539128500448378
0.024,1.7856,1.0,2538.6984136770798,0.2366282739610542,1.3290078494360211,0.9243982153416134,0.2880482,0.6548272800047337
0.0245,1.78499375,1.0,2555.299922162646,0.24091018523415567,1.3285778446991399,0.9267797236275029,0.2880227375,0.6557289539951145
0.025,1.784375,1.0,2570.835504877866,0.24516807814810904,1.3281526837722413,0.9290384958143063,0.28799675,0.6566193116488375
0.025500000000000002,1.78374375,1.0,2585.3539929582807,0.2494020856144744,1.3277318156361033,0.9311827898875588,0.2879702375,0.6574995440684412
0.026000000000000002,1.7831000000000001,1.0,2598.9193719434365,0.2536123462681566,1.3273145606383787,0.9332201639875012,0.2879432,0.6583711045730393
0.0265,1.78244375,1.0,2611.576547253975,0.2577989927261606,1.3269004290836954,0.935157589465201,0.2879156375,0.6592350429365301
0.027,1.781775,1.0,2623.364758400428,0.2619621555995515,1.326488993474041,0.9370014876185937,0.28788755,0.6600922740443484
0.0275,1.7810937500000001,1.0,2634.324138721997,0.26610196549939447,1.3260798263114033,0.9387577723139419,0.2878589375,0.6609437081400671
0.028,1.7804,1.0,2644.49563835315,0.27021855303675474,1.3256725000977707,0.940431896794906,0.2878298,0.6617902508930725
0.0285,1.77969375,1.0,2653.9209512427165,0.27431204882269744,1.3252665873351308,0.942028895606894,0.2878001375,0.6626328034545845
0.029,1.778975,1.0,2662.6424462240852,0.27838258346828776,1.3248616605254717,0.9435534221995366,0.28776995,0.6634722625020191
0.029500000000000002,1.7782437500000001,1.0,2670.6937168908303,0.28243028258871816,1.3244573784131453,0.9450097926929905,0.2877392375,0.6643093418152712
0.03,1.7775,1.0,2678.1221762024115,0.28645528113952823,1.3240532774910623,0.9464019923482287,0.287708,0.6651450042962392
0.0305,1.77674375,1.0,2684.957203640028,0.29045770512663815,1.3236490642766836,0.9477337362946546,0.2876762375,0.6659798571199844
0.031,1.775975,1.0,2691.225967791953,0.29443767915230384,1.3232444689510663,0.9490084759687927,0.28764395,0.6668144556522422
0.0315,1.7751937500000001,1.0,2696.9559653443425,0.298395327818781,1.322839221695267,0.9502294187477611,0.2876111375,0.6676493524719207
0.032,1.7744,1.0,2702.17499040339,0.30233077572832534,1.3224330526903418,0.9513995482239046,0.2875778,0.6684850973622043
0.0325,1.77359375,1.0,2706.9111054311293,0.30624414748319273,1.322025692117348,0.9525216425602059,0.2875439375,0.6693222372970119
0.033,1.772775,1.0,2711.192613795961,0.310135567685639,1.321616870157342,0.9535982911287504,0.28750955,0.6701613164228168
0.0335,1.7719437500000002,1.0,2715.047944143895,0.3140051607316555,1.3212063178097337,0.9546319096482536,0.2874746375,0.6710028743594143
0.034,1.7711000000000001,1.0,2718.502809812372,0.3178530489962675,1.3207937925410949,0.9556247562991655,0.2874392,0.671847393708868
0.0345,1.7702437500000001,1.0,2721.5780913749427,0.3216793545790942,1.320379097279801,0.9565789465275837,0.2874032375,0.6726952615630732
0.035,1.7693750000000001,1.0,2724.293274647561,0.3254841974836564,1.3199620488486907,0.9574964600876685,0.28736675,0.6735468344915435
0.035500000000000004,1.76849375,1.0,2726.6679604193178,0.3292676977134751,1.3195424640706015,0.958379150427747,0.2873297375,0.6744024670143124
0.036000000000000004,1.7676,1.0,2728.721851454507,0.33302997527207095,1.3191201597683715,0.9592287541978693,0.2872922,0.6752625115733708
0.0365,1.76669375,1.0,2730.4641004527098,0.3367711493447102,1.3186950494593048,0.9600469095753874,0.2872541375,0.6761271219710818
0.037,1.7657760078639804,1.0,2731.984334581138,0.34049133912145607,1.3182667712773921,0.9608351264109863,0.28721559233028715,0.676997009887322
0.0375,1.764856027485431,1.0,2733.722878890409,0.3441906615533761,1.3178355032558,0.9615948753947747,0.28717695315438807,0.6778717884889425
0.038,1.7639360471068817,1.0,2735.7644830822665,0.3478692333204213,1.3174014886349996,0.9623275447023706,0.28713831397848905,0.6787509407279535
0.0385,1.7630160667283323,1.0,2738.0827647167052,0.3515271710721167,1.3169649699184727,0.9630344396016995,0.28709967480258997,0.6796339535860387
0.039,1.762096086349783,1.0,2740.652503457382,0.35516459059445876,1.3165261790615381,0.9637167872370666,0.2870610356266909,0.6805203379104053
0.0395,1.7611761059712336,1.0,2743.447555062865,0.3587816077605802,1.3160853562948294,0.9643757440102375,0.2870223964507918,0.6814095903570496
0.04,1.7602561255926843,1.0,2746.448582811217,0.36237833616068427,1.315642679942646,0.9650123937246623,0.2869837572748927,0.6823013348170421
0.0405,1.759336145214135,1.0,2749.6362313509185,0.3659548893849742,1.3151983283292878,0.9656277585234216,0.28694511809899365,0.6831951971250716
0.041,1.7584161648355856,1.0,2752.9916054098026,0.36951138077328854,1.3147524753832407,0.9662228026256432,0.2869064789230946,0.6840908139034518
0.0415,1.7574961844570363,1.0,2756.496989618668,0.3730479233667197,1.3143052840836178,0.9667984356349844,0.28686783974719554,0.6849878456540699
0.042,1.7565762040784871,1.0,2760.1370737338407,0.3765646291810887,1.3138568953721095,0.9673555151111475,0.28682920057129646,0.6858859988118008
0.0425,1.7556562236999378,1.0,2763.8991611069973,0.3800616087986689,1.3134074263037885,0.9678948497856542,0.2867905613953974,0.686785029137868
0.043000000000000003,1.7547362433213884,1.0,2767.7705281545987,0.38353897280173405,1.3129569939337276,0.9684172049257833,0.2867519222194983,0.6876846937116226
0.043500000000000004,1.753816262942839,1.0,2771.743870533817,0.3869968261934653,1.3125056661680619,0.9689233003116086,0.2867132830435992,0.6885848488930353
0.044,1.7528962825642898,1.0,2775.8022550531728,0.3904352844546614,1.3120535975583814,0.9694138263481292,0.28667464386770014,0.6894851793714023
0.0445,1.7519763021857404,1.0,2779.931265782026,0.3938544615987142,1.3116009195699898,0.9698894354423687,0.28663600469180106,0.6903854174844922
0.045,1.751056321807191,1.0,2784.125021861295,0.39725446298121403,1.3111476864877902,0.970350739213762,0.28659736551590204,0.6912854502337238
0.0455,1.7501363414286417,1.0,2788.3776264433773,0.4006353939577515,1.3106939525966868,0.9707983181730732,0.28655872634000296,0.6921851652418616
0.046,1.7492163610500924,1.0,2792.683166057378,0.40399735988391705,1.3102397721815824,0.9712327236070971,0.2865200871641039,0.6930844507548465
0.0465,1.748296380671543,1.0,2797.0357100383885,0.4073404661153012,1.309785199527381,0.9716544793317714,0.2864814479882048,0.6939831956434335
0.047,1.7473764002929937,1.0,2801.42931002289,0.41066481800749455,1.3093302889189864,0.9720640833240576,0.2864428088123057,0.6948812894046441
0.0475,1.7464564199144443,1.0,2805.8579995097352,0.41397052091608744,1.3088750946413015,0.9724620092420443,0.2864041696364067,0.6957786221630327
0.048,1.745536439535895,1.0,2810.3157934852916,0.41725768019667053,1.3084196709792304,0.972848707841908,0.2863655304605076,0.6966750846717579
0.0485,1.7446164591573456,1.0,2814.796688115427,0.4205264012048342,1.3079640722176762,0.973224608299627,0.28632689128460853,0.6975705683134756
0.049,1.7436964787787963,1.0,2819.296999891037,0.4237767829110123,1.3075083317187541,0.9735901172375152,0.28628825210870945,0.6984650061337649
0.0495,1.742776498400247,1.0,2823.813871530632,0.42700892667468693,1.307052475355902,0.9739456219962533,0.28624961293281037,0.6993583462302715
0.05,1.7418565180216976,1.0,2828.3387457083,0.4302229508240501,1.3065965798186256,0.9742914972948692,0.2862109737569113,0.700250437638779
0.0505,1.7409365376431483,1.0,2832.869927904853,0.4334189534582905,1.306140660319807,0.9746280941767674,0.2861723345810122,0.7011412503155376
0.051000000000000004,1.7400165572645991,1.0,2837.4057181503363,0.4365970326765967,1.3056847320723282,0.9749557477079225,0.28613369540511313,0.7020307543937148
0.051500000000000004,1.7390965768860498,1.0,2841.944411018576,0.4397572865781574,1.305228810289071,0.9752747778460596,0.2860950562292141,0.702918920183413
0.052000000000000005,1.7381765965075004,1.0,2846.484295626761,0.4428998132621611,1.3047729101829177,0.9755854902551768,0.286056417053315,0.7038057181716683
0.0525,1.737256616128951,1.0,2851.0236556402256,0.4460247108277964,1.3043170469667507,0.9758881770692917,0.28601777787741595,0.7046911190224379
0.053,1.7363366357504018,1.0,2855.560769282388,0.449132077374252,1.3038612358534516,0.9761831176089948,0.28597913870151687,0.7055750935765723
0.0535,1.7354166553718524,1.0,2860.0939093496286,0.4522220110007165,1.3034054920559026,0.9764705790541072,0.2859404995256178,0.7064576128517718
0.054,1.734496674993303,1.0,2864.6213432315635,0.4552946098063785,1.3029498307869858,0.9767508170754826,0.2859018603497187,0.7073386480425277
0.0545,1.7335766946147537,1.0,2869.141332936314,0.4583499718904266,1.3024942672595832,0.9770240764287674,0.2858632211738197,0.7082181705200505
0.055,1.7326567142362044,1.0,2873.6521351204715,0.46138819535204945,1.302038816686577,0.9772905915127041,0.2858245819979206,0.7090961518321821
0.0555,1.731736733857655,1.0,2878.1520011254383,0.4644093782904356,1.3015834942808493,0.977550586894381,0.2857859428220215,0.7099725637032939
0.056,1.7308167534791057,1.0,2882.6413187448597,0.4674135980791074,1.301128296311951,0.9778042747851327,0.28574730364612244,0.7108474144141002
0.0565,1.7298967731005563,1.0,2887.118146709662,0.47040096739358495,1.3006732396462812,0.9780518630971596,0.28570866447022336,0.7117206727060266
0.057,1.728976792722007,1.0,2891.5807119463498,0.47337159370149023,1.3002183396136693,0.9782935506555643,0.2856700252943243,0.712592310457945
0.0575,1.7280568123434576,1.0,2896.0288122090165,0.4763255669137865,1.2997635976363582,0.9785295258806893,0.2856313861184252,0.7134623263141185
0.058,1.7271368319649083,1.0,2900.462244921707,0.47926297694143705,1.2993090151365918,0.9787599696427294,0.2855927469425261,0.7143307189348325
0.0585,1.726216851586359,1.0,2904.8808071832896,0.48218391369540503,1.2988545935366131,0.9789850556246501,0.28555410776662704,0.7151974869963831
0.059000000000000004,1.7252968712078096,1.0,2909.2842957727435,0.4850884670866538,1.2984003342586659,0.9792049506648814,0.285515468590728,0.7160626291910603
0.059500000000000004,1.7243768908292605,1.0,2913.672507153747,0.4879767270261466,1.2979462387249936,0.9794198150810705,0.28547682941482894,0.7169261442271337
0.06,1.7234569104507111,1.0,2918.045237480429,0.4908487834248466,1.2974923083578394,0.979629802976077,0.28543819023892986,0.71778803082884
0.0605,1.7225369300721618,1.0,2922.402282602283,0.4937047261937172,1.2970385445794466,0.9798350625273182,0.2853995510630308,0.7186482877363654
0.061,1.7216169496936125,1.0,2926.743438069364,0.49654464524372155,1.2965849488120589,0.9800357362604883,0.28536091188713175,0.7195069137058304
0.0615,1.720696969315063,1.0,2931.0684991374633,0.499368630485823,1.2961315224779197,0.9802319613086128,0.28532227271123267,0.7203639075092771
0.062,1.7197769889365138,1.0,2935.3772607736637,0.5021767718309847,1.2956782669992724,0.9804238696573254,0.2852836335353336,0.7212192679346525
0.0625,1.7188570085579644,1.0,2939.6695176616736,0.50496915919017,1.2952251837983602,0.9806115883772043,0.2852449943594345,0.7220729937857924
0.063,1.717937028179415,1.0,2943.945064207101,0.5077458824743422,1.2947722742974268,0.980795239843935,0.28520635518353543,0.7229250838824062
0.0635,1.7170170478008657,1.0,2948.2036945429054,0.5105070315944644,1.2943195399187155,0.9809749419470325,0.28516771600763635,0.7237755370600627
0.064,1.7160970674223164,1.0,2952.4452025351393,0.5132526964615,1.2938669820844697,0.9811508082877907,0.28512907683173727,0.7246243521701721
0.0645,1.715177087043767,1.0,2956.6702046264277,0.5159829013177712,1.293414595030714,0.9813229433660036,0.2850904376558382,0.7254715415273025
0.065,1.7142571066652177,1.0,2960.8782505342497,0.5186978099607131,1.2929623823212417,0.9814914582244489,0.2850517984799391,0.7263170999510925
0.0655,1.7133371262866683,1.0,2965.0693771349497,0.5213975138405639,1.292510343262912,0.9816564546694858,0.2850131593040401,0.7271610302430276
0.066,1.712417145908119,1.0,2969.243725399212,0.5240820932240946,1.2920584762591174,0.981818030111888,0.284974520128141,0.7280033368788348
0.0665,1.7114971655295697,1.0,2973.401437011281,0.5267516283780764,1.2916067797132504,0.9819762785646283,0.2849358809522419,0.7288440243152674
0.067,1.7105771851510203,1.0,2977.5426543628314,0.5294061995692806,1.2911552520287033,0.9821312907856125,0.28489724177634285,0.729683096990122
0.0675,1.709657204772471,1.0,2981.6675205468955,0.532045887064478,1.290703891608868,0.9822831544134516,0.28485860260044377,0.7305205593222561
0.068,1.7087372243939216,1.0,2985.776179351773,0.5346707711304399,1.2902526968571373,0.9824319540966546,0.2848199634245447,0.7313564157116033
0.0685,1.7078172440153723,1.0,2989.868775255416,0.5372809320339375,1.2898016661769034,0.9825777716166018,0.28478132424864566,0.7321906705391921
0.069,1.7068972636368231,1.0,2993.9454534193865,0.5398764500417417,1.2893507979715584,0.9827206860046448,0.2847426850727466,0.7330233281671633
0.0695,1.7059772832582738,1.0,2998.0063596830732,0.5424574054206236,1.288900090644495,0.982860773653648,0.2847040458968475,0.7338543929387839
0.07,1.7050573028797245,1.0,3002.0516405582484,0.5450238784373546,1.2884495425991052,0.9829981084242712,0.2846654067209484,0.7346838691784663
0.07050000000000001,1.7041373225011751,1.0,3006.081443222984,0.5475759493587056,1.2879991522387815,0.9831327617462783,0.28462676754504934,0.7355117611917831
0.07100000000000001,1.7032173421226258,1.0,3010.095915516389,0.5501136984514476,1.2875489179669162,0.9832648027151345,0.28458812836915026,0.7363380732654838
0.07150000000000001,1.7022973617440764,1.0,3014.095205932846,0.5526372059823521,1.2870988381869013,0.9833942981841414,0.2845494891932512,0.7371628096675111
