Time [s],Phi [rad],STIM [ ],Fsee [N],Gamma [ ],Lcerel [ ],q [ ],Lmtc [m],fisomrel [ ]
0.0,1.8,1.0,18.353194474564944,0.0006331861819425192,1.3792967270887595,0.005103390363860432,0.288653,0.5412435995527906
0.0005,1.79999375,1.0,18.85506966370485,0.006238843817039462,1.379238647384433,0.014760780310077961,0.2886527375,0.5413840826850311
0.001,1.799975,1.0,22.6593617766686,0.01181305814487164,1.3788332312926745,0.0389296031165386,0.28865195,0.5423641035342824
0.0015,1.79994375,1.0,33.13757533510823,0.017356005538388765,1.3778728273326688,0.07509930104236692,0.2886506375,0.5446815253941808
0.002,1.7999,1.0,57.682031809512566,0.022867861379433065,1.3761070694208728,0.12001325285628195,0.2886488,0.5489268888126364
0.0025,1.79984375,1.0,103.7166441037831,0.02834880006648258,1.3736224631086769,0.170315733146076,0.28864643749999996,0.5548668847595836
0.003,1.7997750000000001,1.0,169.34690491109959,0.03379899502299789,1.3709043332489972,0.22319017186289988,0.28864354999999997,0.5613200751821328
0.0035,1.79969375,1.0,247.05489091553932,0.03921861869494047,1.3682988561261187,0.2764817351055242,0.2886401375,0.5674615834700016
0.004,1.7996,1.0,331.37658417032384,0.0446078425632259,1.3658956115204162,0.3285920037138482,0.2886362,0.5730880148919028
0.0045000000000000005,1.7994937500000001,1.0,419.49124988927315,0.04996683714677208,1.3636843099444758,0.37841820491857425,0.2886317375,0.5782325341205692
0.005,1.799375,1.0,509.81037320880637,0.055295771985652616,1.3616385477800605,0.4252813494661906,0.28862675,0.5829641605852324
0.0055,1.79924375,1.0,601.2657377821592,0.06059481577062132,1.3597350719393821,0.4688322025351334,0.2886212375,0.5873427232677537
0.006,1.7991000000000001,1.0,692.980791819531,0.06586413606125298,1.357956954333921,0.5089599165853607,0.2886152,0.5914120498851507
0.006500000000000001,1.79894375,1.0,784.2677758013521,0.07110389964267856,1.3562905398984584,0.5457133233032437,0.2886086375,0.5952074336060748
0.007,1.798775,1.0,874.5406339467622,0.07631427231142611,1.3547252352133377,0.5792418888770887,0.28860155,0.5987564014759001
0.0075,1.79859375,1.0,963.3087610581305,0.08149541876948231,1.3532523672455474,0.6097522775382639,0.2885939375,0.6020815211588549
0.008,1.7984,1.0,1050.2130823948476,0.08664750337154815,1.351863898771212,0.6374780288226516,0.2885858,0.6052034334869972
0.0085,1.79819375,1.0,1134.9293779453785,0.09177068870808264,1.3505534158406982,0.662660637725681,0.2885771375,0.6081387201607733
0.009000000000000001,1.797975,1.0,1217.220875006941,0.09686513683253227,1.3493149235818895,0.6855365311142829,0.28856795,0.610902691846233
0.0095,1.79774375,1.0,1296.9292124781093,0.10193100943100254,1.3481427490810187,0.7063297945185046,0.2885582375,0.6135096500711443
0.01,1.7975,1.0,1373.9208986168196,0.10696846648986542,1.3470320544382914,0.725248615666145,0.288548,0.6159717895163863
0.0105,1.79724375,1.0,1448.1091894747544,0.11197766717956868,1.3459783467494097,0.7424833926143646,0.2885372375,0.6183003302951058
0.011,1.796975,1.0,1519.4542626724533,0.11695877000773648,1.3449773504223024,0.7582064669647308,0.28852595000000003,0.6205058281109949
0.0115,1.79669375,1.0,1587.9544222918103,0.12191193346309367,1.3440250165975853,0.7725727745433169,0.2885141375,0.6225981758770126
0.012,1.7964,1.0,1653.596273367735,0.1268373133912076,1.343118020019805,0.7857211654454542,0.28850180000000003,0.6245855367910993
0.0125,1.79609375,1.0,1716.403695798928,0.13173506547234975,1.3422530769886436,0.7977754161659969,0.2884889375,0.6264758650886658
0.013000000000000001,1.7957750000000001,1.0,1776.4193391180656,0.13660534463413976,1.3414271093497472,0.8088457220782035,0.28847555,0.6282765593146549
0.0135,1.79544375,1.0,1833.7211559223745,0.1414483062927204,1.340637007767756,0.8190300022469053,0.2884616375,0.6299949902392529
0.014,1.7951000000000001,1.0,1888.3587192052794,0.1462641029858573,1.3398802977957756,0.8284154786818176,0.2884472,0.6316370636806599
0.0145,1.79474375,1.0,1940.38641034476,0.15105288637070308,1.3391547094796106,0.8370797154813542,0.2884322375,0.6332081729521715
0.015,1.7943750108688508,1.0,1989.879812914292,0.15581480810441042,1.3384579728650665,0.8450916610006198,0.28841675045649173,0.634713649885427
0.0155,1.794000532137751,1.0,2037.2073786308374,0.16055001891706314,1.3377879793958378,0.8525127096965979,0.28840102234978554,0.636158421478562
0.016,1.793626053406651,1.0,2082.6774893142724,0.1652586699466542,1.3371430950009704,0.8593976921531078,0.28838529424307935,0.6375463440470877
0.0165,1.7932515746755513,1.0,2126.336692700537,0.1699409093290718,1.3365220219951344,0.8657955959579644,0.28836956613637316,0.6388805124754666
0.017,1.7928770959444515,1.0,2168.236254655015,0.1745968845382848,1.3359235075177749,0.8717501700022128,0.28835383802966696,0.6401638938040671
0.0175,1.7925026172133518,1.0,2208.43572574919,0.1792267430482622,1.3353462987083375,0.8773005312168016,0.2883381099229608,0.6413994258374314
0.018000000000000002,1.792128138482252,1.0,2246.9895343471308,0.18383063037575076,1.3347892709150417,0.8824817418536783,0.2883223818162546,0.6425897451536187
0.0185,1.791753659751152,1.0,2283.9772617809595,0.1884086954419842,1.334251115940004,0.8873252051551845,0.2883066537095484,0.6437378555257082
0.019,1.7913791810200523,1.0,2319.4525614413074,0.19296108233967002,1.3337308479391077,0.8918592108846198,0.2882909256028422,0.644846049533942
0.0195,1.7910047022889526,1.0,2353.4645180520456,0.19748793364467426,1.333227577461508,0.8961092364144525,0.288275197496136,0.6459163954691793
0.02,1.7906302235578528,1.0,2386.0668426866505,0.20198939193286297,1.3327404150563604,0.9000982434113586,0.2882594693894298,0.6469509444774266
0.0205,1.790255744826753,1.0,2417.317546339112,0.20646559978010226,1.3322684712728199,0.9038469601528876,0.2882437412827236,0.6479517314987987
0.021,1.7898812660956533,1.0,2447.2784983985116,0.2109166997334867,1.3318108579332826,0.9073741294843854,0.28822801317601743,0.6489207734616677
0.021500000000000002,1.7895067873645534,1.0,2475.996996544367,0.21534283091603462,1.331366861205091,0.9106967607265459,0.28821228506931124,0.6498597043848403
0.022,1.7891323086334536,1.0,2503.5452981452177,0.21974413801813975,1.3309355590044123,0.9138302430427927,0.28819655696260504,0.6507705860536899
0.0225,1.7887578299023539,1.0,2529.963763532125,0.2241207581482248,1.330516361264813,0.9167886193373952,0.28818082885589885,0.6516547670161597
0.023,1.7883833511712541,1.0,2555.295068713158,0.22847282841471225,1.3301086779198605,0.9195846661359162,0.28816510074919266,0.6525135866135261
0.0235,1.7880088724401544,1.0,2579.584050875136,0.23280048592602476,1.3297119189031212,0.9222300253292746,0.28814937264248647,0.6533483754248138
0.024,1.7876343937090546,1.0,2602.8775616039325,0.23710386779058487,1.3293254941481623,0.9247353206379934,0.2881336445357803,0.6541604556889948
0.0245,1.7872599149779547,1.0,2625.2243278252704,0.24138311111681518,1.3289488135885505,0.927110260717527,0.2881179164290741,0.6549511417049905
0.025,1.786885436246855,1.0,2646.6608648235333,0.24563834900930204,1.3285814159790883,0.9293637506877216,0.2881021883223679,0.6557214702588563
0.025500000000000002,1.7865109575157552,1.0,2667.244046235771,0.24986972173406757,1.3282226657846314,0.9315039254640372,0.2880864602156617,0.6564728369426982
0.026000000000000002,1.7861364787846554,1.0,2687.0071151758943,0.2540773615136929,1.3278721585334825,0.9335382841567165,0.2880707321089555,0.6572061468705195
0.0265,1.7857620000535557,1.0,2705.981773710622,0.25826139972821077,1.3275295140261347,0.9354737205423769,0.2880550040022493,0.6579222494955486
0.027,1.785387521322456,1.0,2724.200733792591,0.26242196775765414,1.3271943520630811,0.9373165768653291,0.2880392758955431,0.6586219897258307
0.0275,1.785013042591356,1.0,2741.6976525832606,0.26655919698205566,1.3268662924448151,0.9390726953266387,0.28802354778883693,0.6593062081102699
0.028,1.7846385638602562,1.0,2758.50707098051,0.2706732187814483,1.3265449549718296,0.9407474641407633,0.28800781968213074,0.6599757410154522
0.0285,1.7842640851291565,1.0,2774.664355351173,0.2747641645358647,1.3262299594446179,0.9423458587919872,0.2879920915754246,0.6606314207932493
0.029,1.7838896063980567,1.0,2790.1918219970535,0.27883215954280216,1.3259210499126037,0.943872494090604,0.28797636346871835,0.6612738176781443
0.029500000000000002,1.783515127666957,1.0,2805.134478650796,0.2828773411716089,1.325617772085241,0.9453316184098435,0.2879606353620122,0.6619039110403193
0.03,1.783140648935857,1.0,2819.514087557345,0.2868998348626318,1.3253198863902906,0.946727192637554,0.28794490725530597,0.662522230609083
0.0305,1.7827661702047573,1.0,2833.3525176709786,0.29089976587715827,1.3250271565218865,0.9480628909789736,0.28792917914859983,0.6631292969492892
0.031,1.7823916914736575,1.0,2846.6720793349828,0.2948772594764755,1.3247393461741623,0.9493421249872356,0.2879134510418936,0.6637256283366632
0.0315,1.7820172127425578,1.0,2859.495497889393,0.29883244092187083,1.3244562190412514,0.9505680656258516,0.28789772293518745,0.6643117408337229
0.032,1.781642734011458,1.0,2871.8458885138466,0.30276543547463164,1.324177538817288,0.9517436632206572,0.2878819948284812,0.6648881483621356
0.0325,1.7812682552803583,1.0,2883.7467323117257,0.30667636839604523,1.3239030691964053,0.9528716655259065,0.28786626672177507,0.6654553627715201
0.033,1.7808937765492583,1.0,2895.220418461875,0.3105653638070777,1.323632586539014,0.9539546352505378,0.2878505386150688,0.6660138677616954
0.0335,1.7805192978181585,1.0,2906.281863429602,0.3144325408171329,1.3233659357694962,0.9549949701117184,0.2878348105083627,0.6665640037752489
0.034,1.7801448190870588,1.0,2916.961985642791,0.3182780322325016,1.3231028231734645,0.9559948976657685,0.28781908240165643,0.6671063955909979
0.0345,1.779770340355959,1.0,2927.2745679191153,0.3221019567218758,1.3228431083608228,0.9569565133268467,0.2878033542949503,0.6676413500762821
0.035,1.7793958616248593,1.0,2937.2335848225,0.32590443295394717,1.322586650941475,0.9578817775675333,0.2877876261882441,0.6681691729412085
0.035500000000000004,1.7790213828937596,1.0,2946.853192305981,0.3296855795974075,1.322333310525325,0.9587725261787724,0.2877718980815379,0.6686901687684452
0.036000000000000004,1.7786469041626596,1.0,2956.147717790802,0.3334455153209487,1.3220829467222766,0.95963047963699,0.28775616997483167,0.6692046410417576
0.0365,1.7782724254315598,1.0,2965.131650682905,0.33718435879326236,1.3218354191422335,0.9604572516653249,0.28774044186812553,0.6697128921732873
0.037,1.77789794670046,1.0,2973.8196333257265,0.3409022286830405,1.3215905873951,0.96125435706659,0.28772471376141934,0.6702152235295746
0.0375,1.7775234679693603,1.0,2982.2264523912104,0.34459924365897476,1.3213483110907798,0.9620232188973591,0.28770898565471315,0.6707119354563247
0.038,1.7771489892382606,1.0,2990.36703070661,0.34827552238975695,1.3211084498391767,0.9627651750452941,0.28769325754800695,0.6712033273019162
0.0385,1.7767745105071606,1.0,2998.24600942626,0.35193117060000256,1.320870953533607,0.9634814900893136,0.28767752944130076,0.6716895126863325
0.039,1.7764000317760609,1.0,3005.8874657644533,0.35556632216809675,1.320635604308627,0.9641733448234489,0.28766180133459457,0.6721709478623776
0.0395,1.7760255530449611,1.0,3013.2996464303733,0.35918108873083515,1.3204023226394388,0.9648418599720004,0.2876460732278884,0.6726478049976179
0.04,1.7756510743138614,1.0,3020.490793349316,0.36277558181715447,1.3201710296856963,0.965488092272131,0.2876303451211822,0.67312025430485
0.0405,1.7752765955827616,1.0,3027.469218933866,0.36634991295599134,1.3199416466070533,0.9661130387689719,0.287614617014476,0.6735884654539779
0.041,1.7749021168516619,1.0,3034.2433026768213,0.3699041936762825,1.3197140945631631,0.9667176408156906,0.2875988889077698,0.6740526075818137
0.0415,1.774527638120562,1.0,3040.8214878813446,0.3734385355069647,1.3194882947136797,0.9673027877653139,0.2875831608010636,0.6745128493014827
0.042,1.7741531593894622,1.0,3047.212278529307,0.3769530499769746,1.3192641682182564,0.9678693203810189,0.2875674326943574,0.6749693587114314
0.0425,1.7737786806583624,1.0,3053.424236287377,0.3804478486152489,1.3190416362365474,0.9684180339890364,0.2875517045876512,0.675422303404039
0.043000000000000003,1.7734042019272627,1.0,3059.4659776508215,0.3839230429507242,1.318820619928206,0.9689496813960278,0.28753597648094503,0.6758718504738344
0.043500000000000004,1.773029723196163,1.0,3065.346171225289,0.38737874451233734,1.318601040452886,0.9694649755907425,0.28752024837423884,0.676318166525314
0.044,1.7726552444650632,1.0,3071.0704091298594,0.3908150571621375,1.3183828457578293,0.9699645931770311,0.28750452026753265,0.6767613632880941
0.0445,1.7722807657339632,1.0,3076.6453619563918,0.39423209027469935,1.318165974862907,0.9704491758694278,0.28748879216082646,0.6772015702791325
0.045,1.7719062870028635,1.0,3082.083004269641,0.39762996694106867,1.3179503217419475,0.9709193310623316,0.28747306405412026,0.6776390079853064
0.0455,1.7715318082717637,1.0,3087.387794156221,0.4010087909258697,1.317735845072207,0.9713756373863928,0.28745733594741407,0.6780737651666151
0.046,1.771157329540664,1.0,3092.5642157501866,0.40436866599372684,1.3175225035309424,0.9718186444404702,0.2874416078407079,0.6785059303298555
0.0465,1.7707828508095642,1.0,3097.61677817422,0.4077096959092644,1.3173102557954106,0.9722488745258248,0.2874258797340017,0.678935591731668
0.047,1.7704083720784642,1.0,3102.550014518466,0.41103198443710676,1.3170990605428685,0.9726668242608021,0.2874101516272955,0.679362837381474
0.0475,1.7700338933473645,1.0,3107.3684808575013,0.41433563534187823,1.3168888764505726,0.9730729660852966,0.2873944235205893,0.6797877550443039
0.048,1.7696594146162647,1.0,3112.076755304858,0.4176207523882032,1.31667966219578,0.9734677496634901,0.2873786954138831,0.6802104322435163
0.0485,1.769284935885165,1.0,3116.679437105571,0.42088743934070594,1.3164713764557472,0.9738516031926204,0.2873629673071769,0.6806309562634081
0.049,1.7689104571540653,1.0,3121.181145766487,0.4241357999640108,1.3162639779077312,0.9742249346248976,0.2873472392004707,0.6810494141517159
0.0495,1.7685359784229655,1.0,3125.586520224641,0.42736593802274214,1.3160574252289887,0.974588132809068,0.28733151109376454,0.6814658927220096
0.05,1.7681614996918655,1.0,3129.9002180533494,0.43057795728152437,1.3158516770967765,0.9749415685576005,0.28731578298705834,0.6818804785559746
0.0505,1.7677870209607658,1.0,3134.1269147058865,0.4337719615049817,1.3156466921883514,0.9752855956449668,0.28730005488035215,0.6822932580055872
0.051000000000000004,1.767412542229666,1.0,3138.265518483233,0.4369480259392703,1.3154424782146215,0.9756205517457154,0.28728432677364596,0.6827042185517158
0.051500000000000004,1.7670380634985663,1.0,3142.3248853531313,0.44010628138127444,1.3152389586274091,0.9759467600457773,0.28726859866693977,0.6831135171030186
0.052000000000000005,1.7666635847674665,1.0,3146.3098345376916,0.44324683671433,1.3150360912812453,0.976264529035159,0.2872528705602336,0.6835212410402898
0.0525,1.7662891060363668,1.0,3150.222513970244,0.44636978688086415,1.3148338567639055,0.9765741534844189,0.2872371424535274,0.6839274318723362
0.053,1.7659146273052668,1.0,3154.0650800041867,0.44947522682330426,1.3146322356631657,0.9768759152530895,0.2872214143468212,0.6843321309999942
0.0535,1.765540148574167,1.0,3157.83969714483,0.45256325148407744,1.3144312085668013,0.977170083965441,0.287205686240115,0.6847353797169028
0.054,1.7651656698430673,1.0,3161.548537789596,0.455633955805611,1.3142307560625879,0.9774569176453192,0.2871899581334088,0.6851372192102501
0.0545,1.7647911911119676,1.0,3165.1937819764325,0.4586874347303321,1.3140308587383014,0.9777366633128605,0.2871742300267026,0.6855376905614956
0.055,1.7644167123808678,1.0,3168.7776171410023,0.461723783200668,1.313831497181717,0.978009557545678,0.2871585019199965,0.6859368347470723
0.0555,1.764042233649768,1.0,3172.3022378811033,0.46474309615904585,1.313632651980611,0.9782758270069087,0.28714277381329023,0.6863346926390592
0.056,1.7636677549186681,1.0,3175.7698457314855,0.467745468547893,1.3134343037227587,0.9785356889423429,0.28712704570658404,0.6867313050058337
0.0565,1.7632932761875684,1.0,3179.182648944768,0.4707309953096367,1.3132364329959356,0.9787893516486786,0.28711131759987785,0.6871267125127001
0.057,1.7629187974564686,1.0,3182.542862282156,0.473699771386704,1.3130390203879174,0.9790370149148092,0.2870955894931717,0.6875209557224905
0.0575,1.7625443187253689,1.0,3185.852706811805,0.4766518917215223,1.31284204648648,0.9792788704378947,0.28707986138646546,0.687914075096145
0.058,1.7621698399942691,1.0,3189.1144097165366,0.47958745125651875,1.3126454918793988,0.9795151022158558,0.2870641332797593,0.6883061109932678
0.0585,1.7617953612631692,1.0,3192.330204108026,0.4825065449341206,1.3124493371544497,0.9797458869178006,0.2870484051730531,0.6886971036726564
0.059000000000000004,1.7614208825320694,1.0,3195.5023288519674,0.4854092676967551,1.312253562899408,0.979971394233793,0.28703267706634694,0.6890870932928106
0.059500000000000004,1.7610464038009697,1.0,3198.6309469677917,0.48829569140280904,1.312058167179063,0.9801917862797094,0.2870169489596407,0.6894760851302423
0.06,1.76067192506987,1.0,3201.717794011923,0.4911659137745978,1.3118631348723644,0.9804072202581553,0.28700122085293456,0.6898641106746859
0.0605,1.7602974463387702,1.0,3204.766777275829,0.4940200555578147,1.3116684326771804,0.9806178481485284,0.2869854927462283,0.6902512374762433
0.061,1.7599229676076704,1.0,3207.778851352265,0.4968582023562949,1.3114740521185935,0.9808238146606252,0.2869697646395222,0.6906374835995654
0.0615,1.7595484888765704,1.0,3210.7549734324016,0.49968043977387366,1.311279984721687,0.9810252590310423,0.2869540365328159,0.6910228670652626
0.062,1.7591740101454707,1.0,3213.6961032474296,0.502486853414386,1.3110862220115433,0.9812223152715167,0.2869383084261098,0.691407405850079
0.0625,1.758799531414371,1.0,3216.6032030093024,0.5052775288816673,1.3108927555132457,0.9814151124041923,0.2869225803194036,0.6917911178870575
0.063,1.7584250526832712,1.0,3219.4772373549927,0.5080525517795527,1.3106995767518772,0.9816037746845983,0.2869068522126974,0.6921740210657028
0.0635,1.7580505739521715,1.0,3222.319173291523,0.5108120077118772,1.3105066772525202,0.9817884218130623,0.2868911241059912,0.6925561332321404
0.064,1.7576760952210717,1.0,3225.1299801425903,0.5135559822824762,1.310314048540258,0.9819691691352438,0.286875395999285,0.6929374721892678
0.0645,1.7573016164899717,1.0,3227.910629496816,0.5162845610951848,1.310121682140173,0.9821461278324201,0.28685966789257883,0.6933180556969052
0.065,1.756927137758872,1.0,3230.6620951579453,0.5189978297538383,1.309929569577349,0.9823194051021203,0.28684393978587264,0.6936979014719362
0.0655,1.7565526590277722,1.0,3233.3853530960346,0.5216958738622718,1.309737702376868,0.982489104329663,0.28682821167916644,0.6940770271884529
0.066,1.7561781802966725,1.0,3236.0813814006947,0.5243787790243204,1.3095460720638132,0.9826553252511183,0.28681248357246025,0.6944554504778844
0.0665,1.7558037015655727,1.0,3238.7511602359236,0.5270466308438194,1.3093546701632677,0.9828181641081797,0.28679675546575406,0.6948331889291323
0.067,1.755429222834473,1.0,3241.3956717960364,0.5296995149246041,1.3091634882003143,0.9829777137954036,0.28678102735904787,0.6952102600886931
0.0675,1.755054744103373,1.0,3244.015900264005,0.5323375168705095,1.3089725177000358,0.983134064000242,0.2867652992523417,0.6955866814607816
0.068,1.7546802653722733,1.0,3246.6128317704997,0.5349607222853707,1.3087817501875147,0.9832873013362703,0.2867495711456355,0.6959624705074465
0.0685,1.7543057866411735,1.0,3249.18745435513,0.5375692167730232,1.3085911771878347,0.9834375094699852,0.2867338430389293,0.6963376446486812
0.069,1.7539313079100738,1.0,3251.7399680788794,0.5401630644567216,1.308400796803781,0.9835847682457977,0.2867181149322231,0.6967122083252328
0.0695,1.753556829178974,1.0,3254.270033349062,0.5427423231725587,1.3082106116355567,0.9837291546780951,0.2867023868255169,0.6970861571276659
