Time [s],Phi [rad],STIM [ ],Fsee [N],Gamma [ ],Lcerel [ ],q [ ],Lmtc [m],fisomrel [ ]
0.0,1.8,1.0,17.966742938644252,2.0264012808865982e-05,1.3793397927395172,0.005000108831992981,0.288653,0.5411394185087377
0.0005,1.79999375,1.0,18.279574801092267,0.005629359656520717,1.379302073371004,0.012969035141268497,0.2886527375,0.5412306668892141
0.001,1.799975,1.0,21.62886974315231,0.011206992708542012,1.3789372310298313,0.0356620864334962,0.28865195,0.5421128027405747
0.0015,1.79994375,1.0,31.095880681444072,0.01675333965000805,1.3780439341804547,0.07067494440180302,0.2886506375,0.5442690810885333
0.002,1.7999,1.0,53.641190470766,0.022268575970382915,1.3763643179212992,0.11480457108965952,0.2886488,0.5483096307258777
0.0025,1.79984375,1.0,97.21869558756092,0.027752876175101072,1.37393036139627,0.1646690320208781,0.28864643749999996,0.5541329235524712
0.003,1.7997750000000001,1.0,161.08863558707628,0.03320641379318463,1.3712094611754093,0.21737757200204655,0.28864354999999997,0.5605980099931833
0.0035,1.79969375,1.0,237.83111601908948,0.03862936137691212,1.3685801827877333,0.27070948326130506,0.2886401375,0.5668005384443913
0.004,1.7996,1.0,321.62424783657434,0.044021890512581,1.3661519219559084,0.3230093321962807,0.2886362,0.5724897004081454
0.0045000000000000005,1.7994937500000001,1.0,409.43101455646837,0.04938417182569762,1.3639189821257849,0.3731232931677011,0.2886317375,0.5776880562772089
0.005,1.799375,1.0,499.58022529411073,0.05471637497209037,1.3618547998323507,0.420330527062874,0.28862675,0.5824652545863821
0.0055,1.79924375,1.0,590.9587549816004,0.06001866868495155,1.359935546359009,0.4642506051499168,0.2886212375,0.5868826609287043
0.006,1.7991000000000001,1.0,682.6867663165389,0.0652912207190738,1.3581433491834645,0.504750639313417,0.2886152,0.5909864203942954
0.006500000000000001,1.79894375,1.0,774.0511223058136,0.07053419790342824,1.3564643540788546,0.5418653606369634,0.2886086375,0.5948123860687022
0.007,1.798775,1.0,864.4564161036454,0.07574776613872301,1.3548876393165439,0.5757356251626826,0.28860155,0.5983889140954421
0.0075,1.79859375,1.0,953.4121011693985,0.08093209036584012,1.353404181668686,0.6065634251264309,0.2885939375,0.6017394272292298
0.008,1.7984,1.0,1040.526044012505,0.08608733464500014,1.3520061790273814,0.6345806598982174,0.2885858,0.6048840877759666
0.0085,1.79819375,1.0,1125.4844337923419,0.0912136620747193,1.3506868320944885,0.6600285343275792,0.2885771375,0.6078403883786099
0.009000000000000001,1.797975,1.0,1208.040625936705,0.09631123468529329,1.3494401160875256,0.6831444606667375,0.28856795,0.6106237412906144
0.0095,1.79774375,1.0,1288.0160215003937,0.1013802136942076,1.3482604854289186,0.7041541879557783,0.2885582375,0.6132481960740241
0.01,1.7975,1.0,1365.316501484231,0.10642076081050231,1.3471424644668155,0.7232674569960825,0.288548,0.6157273895532709
0.0105,1.79724375,1.0,1439.8189825722748,0.11143303422962712,1.3460819503858341,0.7406768641439142,0.2885372375,0.6180716952077074
0.011,1.796975,1.0,1511.4624721922826,0.11641719214703182,1.345074840370592,0.7565567869073192,0.28852595000000003,0.6202913091301352
0.0115,1.79669375,1.0,1580.2421771556292,0.12137339273747692,1.3441170355873737,0.7710639816148513,0.2885141375,0.6223962557989737
0.012,1.7964,1.0,1646.1783433600579,0.12630179308088987,1.3432047448069746,0.7843388086751695,0.28850180000000003,0.6243957370598834
0.0125,1.79609375,1.0,1709.2959200637376,0.13120254953799873,1.3423346340720816,0.7965066093284594,0.2884889375,0.626297826258718
0.013000000000000001,1.7957750000000001,1.0,1769.6156134711832,0.13607581634586277,1.3415038415872829,0.8076790950023109,0.28847555,0.6281094584857398
0.0135,1.79544375,1.0,1827.189597940621,0.1409217477415413,1.3407095055571663,0.8179555463784627,0.2884616375,0.6298374771141304
0.014,1.7951000000000001,1.0,1882.0774264841966,0.14574049674173398,1.339948997641906,0.8274242461074406,0.2884472,0.6314881345735442
0.0145,1.79474375,1.0,1934.3806012009866,0.15053221766996003,1.3392195059331098,0.8361635653432289,0.2884322375,0.6330680063600029
0.015,1.794375,1.0,1984.1530137248922,0.1552970608705477,1.3385189776325157,0.8442434267491358,0.28841675,0.6345819572150393
0.0155,1.79399375,1.0,2031.4626790397951,0.16003517646624518,1.3378454009219087,0.8517260436757075,0.2884007375,0.6360347100635038
0.016,1.7936,1.0,2076.3939253633685,0.1647467145798006,1.337196763983074,0.8586668171647359,0.2883842,0.6374309386458645
0.0165,1.7931937500000001,1.0,2119.032346211346,0.16943182428197162,1.3365711956980373,0.8651151850967909,0.2883671375,0.638774968834163
0.017,1.792775,1.0,2159.477557172923,0.17409065535780338,1.3359668151818858,0.8711152844950596,0.28834955,0.6400711068129484
0.0175,1.7923437500000001,1.0,2197.8050227727167,0.17872335447163548,1.3353821072150094,0.8767066797174967,0.2883314375,0.6413228385204718
0.018000000000000002,1.7919,1.0,2234.0885775190013,0.18333006730946189,1.3348156701974423,0.8819248279278926,0.2883128,0.6425333768821351
0.0185,1.79144375,1.0,2268.410563302982,0.18791093955727656,1.334266102529219,0.886801528222055,0.2882936375,0.6437059078441505
0.019,1.790975,1.0,2300.856037973405,0.19246611625229285,1.3337320528041696,0.891365357406143,0.28827395,0.6448434851119736
0.0195,1.79049375,1.0,2331.511184871485,0.19699574234425138,1.3332122271291922,0.895642041379288,0.2882537375,0.6459490168737361
0.02,1.79,1.0,2360.4597704085027,0.2014999622264305,1.3327054159794696,0.8996547839882402,0.288233,0.6470252110265565
0.0205,1.78949375,1.0,2387.7652868866435,0.20597891693402953,1.3322106599590426,0.9034245848029127,0.2882117375,0.6480742264336012
0.021,1.788975,1.0,2413.4956521947033,0.21043274750224775,1.331726999671952,0.9069704284919933,0.28818995000000003,0.6490982069153213
0.021500000000000002,1.78844375,1.0,2437.722843504061,0.21486159496628449,1.3312534757222385,0.9103095057808551,0.2881676375,0.6500992819577052
0.022,1.7879,1.0,2460.5181169102634,0.21926559953692337,1.3307891711675783,0.9134574159431862,0.2881448,0.6510794778005949
0.0225,1.78734375,1.0,2481.9512838172004,0.22364490114259256,1.3303332143953785,0.9164283375476,0.28812143749999997,0.6520407125867885
0.023,1.786775,1.0,2502.096650155434,0.22799964047380936,1.32988471904272,0.9192351669208418,0.28809755,0.6529849239225307
0.0235,1.78619375,1.0,2521.00623415201,0.23232995349512833,1.3294430351022195,0.9218896958786589,0.28807313749999996,0.6539135415262685
0.024,1.7856,1.0,2538.7341558897438,0.236635976171104,1.3290075125664933,0.9244026829827432,0.2880482,0.6548279868456912
0.0245,1.78499375,1.0,2555.336462471002,0.24091784446629091,1.3285775014281578,0.926783958307136,0.2880227375,0.655729673326623
0.025,1.784375,1.0,2570.8709625497318,0.2451756943452436,1.3281523516798293,0.9290425163131508,0.28799675,0.656620006654967
0.025500000000000002,1.78374375,1.0,2585.3892318394483,0.24940965993968342,1.3277314865208572,0.9311866097139224,0.2879702375,0.6575002319605524
0.026000000000000002,1.7831000000000001,1.0,2598.94752234647,0.2536198771893511,1.327314298413184,0.9332238060365768,0.2879432,0.6583716519588174
0.0265,1.78244375,1.0,2611.600384552194,0.25780648094591724,1.3269002075743586,0.9351610614940159,0.2879156375,0.6592355047443919
0.027,1.781775,1.0,2623.386442294017,0.2619696016964307,1.3264887924285174,0.9370047976127213,0.28788755,0.6600926926612516
0.0275,1.7810937500000001,1.0,2634.345204902306,0.2661093699279402,1.3260796313997965,0.9387609284640527,0.2878589375,0.6609441134763165
0.028,1.7804,1.0,2644.5169913957957,0.2702259161274947,1.325672302912332,0.9404349074751214,0.2878298,0.6617906604457214
0.0285,1.77969375,1.0,2653.9428586173453,0.2743193707821429,1.3252663853902609,0.9420317693549063,0.2878001375,0.6626332223697522
0.029,1.778975,1.0,2662.664533310673,0.2783898643789337,1.3248614572577189,0.943556167698433,0.28776995,0.663472683636452
0.029500000000000002,1.7782437500000001,1.0,2670.7182198472065,0.28243752420716933,1.3244571532523228,0.9450124153101278,0.2877392375,0.6643098077276745
0.03,1.7775,1.0,2678.1459541257777,0.2864624824407929,1.3240530592958868,0.9464045026678031,0.287708,0.6651454552327056
0.0305,1.77674375,1.0,2684.9780529043273,0.2904648654590991,1.323648873199608,0.9477361431562065,0.2876762375,0.6659802515198474
0.031,1.775975,1.0,2691.2427218092716,0.29444479826561176,1.3232443155845404,0.9490107865120059,0.28764395,0.6668147718185016
0.0315,1.7751937500000001,1.0,2696.9685003295963,0.2984024058638549,1.3228391070717387,0.9502316385526203,0.2876111375,0.667649588472967
0.032,1.7744,1.0,2702.1842300162116,0.30233781325735254,1.322432968282257,0.9514016814381318,0.2875778,0.6684852709333322
0.0325,1.77359375,1.0,2706.919024411528,0.3062511454496286,1.3220256198371505,0.9525236920151803,0.2875439375,0.6693223857413872
0.033,1.772775,1.0,2711.200402655596,0.3101425259357316,1.3216167991209726,0.953600259977016,0.28750955,0.6701614621274871
0.0335,1.7719437500000002,1.0,2715.05118339497,0.31401207439800005,1.321206288287915,0.9546338053945301,0.2874746375,0.6710029348351431
0.034,1.7711000000000001,1.0,2718.5079314809295,0.31785992425099074,1.3207937458930172,0.9556265778592427,0.2874392,0.6718474891451731
0.0345,1.7702437500000001,1.0,2721.588267623977,0.3216861941601719,1.3203790046471064,0.9565806951976772,0.2874032375,0.6726954508333207
0.035,1.7693750000000001,1.0,2724.3099357650317,0.32549100279101173,1.3199618972610088,0.9574981384263922,0.28736675,0.673547143817397
0.035500000000000004,1.76849375,1.0,2726.6907906031606,0.32927446880897837,1.3195422564455515,0.9583807621740319,0.2873297375,0.6744028901329255
0.036000000000000004,1.7676,1.0,2728.7487857435895,0.33303671087954007,1.3191199149115607,0.959230304194876,0.2872922,0.6752630099070098
0.0365,1.76669375,1.0,2730.501962466531,0.33677784766816493,1.3186947053698632,0.9600483940624728,0.2872541375,0.6761278213304085
0.037,1.765775,1.0,2731.9684391161654,0.3404979978403213,1.318266460531286,0.9608365611224325,0.28721555,0.6769976406278297
0.0375,1.76484375,1.0,2733.1664011105377,0.3441972800614773,1.3178350131066554,0.961596241775072,0.2871764375,0.677872782026442
0.038,1.7639,1.0,2734.1140915713745,0.3478758129971012,1.3174001958067982,0.9623287861511821,0.28713679999999997,0.678753557722596
0.0385,1.76294375,1.0,2734.817181248716,0.3515337021895889,1.3169619559539152,0.9630354724092512,0.28709663750000003,0.679640046166672
0.039,1.761975,1.0,2735.30482681903,0.3551710800811692,1.3165200279483982,0.9637174892560598,0.28705595,0.6805327548072233
0.0395,1.7609937500000001,1.0,2735.591007752169,0.3587880624597309,1.316074284340195,0.9643759658189832,0.2870147375,0.6814319093712807
0.04,1.76,1.0,2735.685460898928,0.3623847604786856,1.3156246364379443,0.9650119690724479,0.286973,0.6823376558463505
0.0405,1.7589937500000001,1.0,2735.5979446448937,0.3659612852914453,1.3151709955502855,0.965626505482655,0.2869307375,0.6832501389153123
0.041,1.757975,1.0,2735.3382355742333,0.3695177480514217,1.3147132729858577,0.9662205250711456,0.28688795,0.6841695019340849
0.0415,1.75694375,1.0,2734.916125307862,0.3730542599120266,1.3142513800533,0.966794925164615,0.2868446375,0.6850958869087895
0.042,1.7559,1.0,2734.3414175165353,0.3765709320266719,1.313785228061251,0.9673505538582066,0.28680079999999997,0.6860294344724129
0.0425,1.75484375,1.0,2733.623925107823,0.38006787554876936,1.3133147283183502,0.9678882132168972,0.2867564375,0.6869702838609644
0.043000000000000003,1.753775,1.0,2732.7734675872907,0.3835452016317308,1.3128397921332364,0.9684086622372521,0.28671155,0.6879185728891373
0.043500000000000004,1.75269375,1.0,2731.7998685952653,0.38700302142896803,1.3123603308145486,0.9689126195897313,0.28666613750000003,0.6888744379254648
0.044,1.7516,1.0,2730.7129536161397,0.39044144609389275,1.311876255670926,0.9694007661598489,0.2866202,0.6898380138669744
0.0445,1.75049375,1.0,2729.520952324589,0.3938605812181197,1.311387492513802,0.9698737477107775,0.2865737375,0.6908094053123944
0.045,1.7493750000000001,1.0,2728.230176243031,0.39726053347779117,1.31089398458751,0.9703321782682965,0.28652675,0.6917886809544039
0.0455,1.74824375,1.0,2726.8501709990906,0.4006414237871955,1.310395645722754,0.9707766403529299,0.2864792375,0.6927759665700084
0.046,1.7471,1.0,2725.3861367122754,0.40400335564037904,1.3098924292349108,0.9712076875706631,0.2864312,0.6937713083637941
0.0465,1.7459437500000001,1.0,2723.8432720713536,0.407346432531388,1.3093842884393574,0.971625845892764,0.28638263750000004,0.6947747514887517
0.047,1.744775,1.0,2722.2267735635733,0.41067075795426883,1.3088711766514707,0.972031615294178,0.28633355,0.6957863400316837
0.0475,1.74359375,1.0,2720.541834753473,0.41397643540306783,1.3083530471866274,0.9724254712798435,0.28628393750000003,0.6968061169984744
0.048,1.7424,1.0,2718.7936456082844,0.41726356837183126,1.3078298533602044,0.9728078663075661,0.2862338,0.697834124299219
0.0485,1.74119375,1.0,2716.9873918735516,0.4205322603546055,1.307301548487579,0.9731792311153709,0.2861831375,0.6988704027332149
0.049,1.739975,1.0,2715.1282544952733,0.42378261484543694,1.3067680858841277,0.9735399759605596,0.28613195,0.6999149919738152
0.0495,1.73874375,1.0,2713.221409091875,0.4270147353383718,1.3062294188652275,0.9738904917771094,0.2860802375,0.7009679305531411
0.05,1.7375,1.0,2711.2720254734504,0.4302287253274565,1.3056855007462553,0.9742311512574838,0.286028,0.7020292558466554
0.0505,1.73624375,1.0,2709.2852672099175,0.43342468830673725,1.305136284842588,0.9745623098644348,0.2859752375,0.7030990040575988
0.051000000000000004,1.734975,1.0,2707.2604802133624,0.43660270823096303,1.3045817775061848,0.9748843080670406,0.28592195,0.7041771071784853
0.051500000000000004,1.73369375,1.0,2705.201619451439,0.4397628957169304,1.3040219430236955,0.9751974711424582,0.2858681375,0.7052635783166354
0.052000000000000005,1.7324,1.0,2703.1177478018485,0.44290537357360354,1.3034566989790113,0.9755021080330591,0.2858138,0.7063585199131432
0.0525,1.73109375,1.0,2701.010691812402,0.4460302366454004,1.3028860289546647,0.9757985150690239,0.28575893750000003,0.7074619051788076
0.053,1.729775,1.0,2698.8822755643037,0.4491375797767388,1.302309916533187,0.9760869755122678,0.28570355000000003,0.70857370652327
0.0535,1.72844375,1.0,2696.7343205953516,0.4522274978120365,1.301728345297111,0.9763677602422703,0.2856476375,0.7096938955493222
0.054,1.7271,1.0,2694.5686458291248,0.45530008559571145,1.3011412988289677,0.9766411284002576,0.2855912,0.7108224430472015
0.0545,1.7257437500000001,1.0,2692.3870675101703,0.45835543797218137,1.30054876071129,0.9769073279946032,0.2855342375,0.711959318988864
0.055,1.724375,1.0,2690.191399145072,0.4613936497858641,1.2999507145266092,0.9771665964700806,0.28547675,0.713104492522247
0.0555,1.72299375,1.0,2687.98345144953,0.46441481588117756,1.2993471438574578,0.9774191612434173,0.2854187375,0.7142579319655055
0.056,1.7216,1.0,2685.765032301638,0.4674190311025395,1.2987380322863673,0.9776652402073998,0.2853602,0.7154196048012416
0.0565,1.72019375,1.0,2683.5379467006237,0.4704063902943678,1.29812336339587,0.9779050422056267,0.28530113749999997,0.7165894776707081
0.057,1.718775,1.0,2681.3039967324034,0.47337698830108027,1.297503120768498,0.9781387674798376,0.28524155,0.7177675163679992
0.0575,1.71734375,1.0,2679.0649815399465,0.4763309199670947,1.2968772879867827,0.9783666080916166,0.2851814375,0.7189536858342248
0.058,1.7159,1.0,2676.8226973007204,0.47926828013682904,1.2962458486332569,0.9785887483201285,0.2851208,0.7201479501516628
0.0585,1.71444375,1.0,2674.57893720959,0.482189163654701,1.2956087862904517,0.9788053650374328,0.2850596375,0.721350272537902
0.059000000000000004,1.7129750000000001,1.0,2672.3354914674687,0.4850936653651285,1.2949660845409,0.9790166280628058,0.28499795,0.7225606153399576
0.059500000000000004,1.71149375,1.0,2670.093950682591,0.48798187485574224,1.2943177287738699,0.9792227001597673,0.2849357375,0.7237789366370879
0.06,1.71,1.0,2667.855178731606,0.49085385873952914,1.293663711035691,0.9794237361953835,0.284873,0.7250051811886039
0.0605,1.7084937500000001,1.0,2665.62178534889,0.49370975078307494,1.2930040073011502,0.9796198896003493,0.2848097375,0.726239323040394
0.061,1.7069750000000001,1.0,2663.3941736341753,0.4965496368539267,1.2923386138097002,0.9798113050863472,0.28474595,0.72748129743566
0.0615,1.7054437500000001,1.0,2661.172746015775,0.4993736028196315,1.291667526800795,0.979998121832365,0.2846816375,0.728731038934654
0.062,1.7039,1.0,2658.9579042556293,0.5021817345477363,1.2909907425138878,0.9801804737363892,0.2846168,0.7299884814133172
0.0625,1.70234375,1.0,2656.7500494521964,0.5049741179057881,1.290308257188432,0.9803584896538051,0.2845514375,0.7312535580619111
0.063,1.7007750000000001,1.0,2654.5495820456676,0.5077508387613341,1.2896200670638809,0.9805322936233033,0.28448555,0.7325262013836515
0.0635,1.69919375,1.0,2652.356901822978,0.5105119829819211,1.2889261683796882,0.980702005081035,0.28441913750000003,0.733806343193342
0.064,1.6976,1.0,2650.1724079220276,0.5132576364350964,1.2882265573753073,0.9808677390637071,0.2843522,0.7350939146160034
0.0645,1.69599375,1.0,2647.9964988382894,0.5159878849884069,1.2875212302901915,0.9810296064012664,0.2842847375,0.7363888460855059
0.065,1.694375,1.0,2645.829572429629,0.5187028145093997,1.2868101833637942,0.981187713899779,0.28421675,0.7376910673431977
0.0655,1.69274375,1.0,2643.6720259228264,0.5214025108656217,1.286093412835569,0.9813421645150672,0.2841482375,0.7390005074365329
0.066,1.6911,1.0,2641.5242559198286,0.5240870599246201,1.2853709149449692,0.9814930575176393,0.2840792,0.7403170947177014
0.0665,1.6894437500000001,1.0,2639.3866584046755,0.5267565475539419,1.2846426859314484,0.9816404886494029,0.2840096375,0.7416407568422541
0.067,1.687775,1.0,2637.2596287499573,0.5294110596211341,1.2839087220344598,0.9817845502726278,0.28393955,0.7429714207677292
0.0675,1.68609375,1.0,2635.1435617248226,0.5320506819937438,1.283169019493457,0.9819253315115951,0.2838689375,0.7443090127522772
0.068,1.6844000000000001,1.0,2633.0388515021564,0.534675500539318,1.2824235745478934,0.9820629183873371,0.2837978,0.7456534583532861
0.0685,1.68269375,1.0,2630.946259784788,0.5372856008320954,1.2816723800290726,0.9821973937651196,0.2837261375,0.7470046885483346
0.069,1.680975,1.0,2628.8671755019254,0.5398810627293009,1.2809154229481872,0.9823288370220582,0.28365395,0.7483626439727077
0.0695,1.67924375,1.0,2626.7999906907617,0.5424619663753234,1.2801527180646866,0.9824573261453956,0.28358123749999997,0.749727214799006
0.07,1.6775,1.0,2624.744211644739,0.5450283930071687,1.2793842698336675,0.9825829360784119,0.283508,0.7510983092139939
0.07050000000000001,1.67574375,1.0,2622.699345476055,0.5475804238618422,1.2786100827102267,0.9827057392463282,0.2834342375,0.7524758348603338
0.07100000000000001,1.673975,1.0,2620.662323815172,0.550118139768033,1.2778301850482932,0.9828258067291105,0.28335995,0.7538596564924464
0.07150000000000001,1.67219375,1.0,2618.642994001894,0.5526416214816559,1.2770444853879628,0.9829432017866648,0.2832851375,0.7552498504978281
0.07200000000000001,1.6704,1.0,2616.6342027498663,0.5551509483910874,1.2762530499559082,0.9830579926274067,0.2832098,0.756646212978503
0.0725,1.6685951051979813,1.0,2614.692657647151,0.5576461997449977,1.2754559640244838,0.9831702461011946,0.2831339944183152,0.758048507281066
0.073,1.66678842584653,1.0,2613.262553451769,0.5601274545890835,1.2746533275608034,0.983280027562635,0.28305811388555424,0.7594564721293943
0.0735,1.664981746495079,1.0,2612.381016474191,0.5625947918422489,1.2738455976484826,0.9833874161982841,0.2829822333527933,0.7608692240068411
0.074,1.6631750671436278,1.0,2611.999991203726,0.56504828940118,1.2730332182305346,0.9834924882002105,0.28290635282003235,0.7622859111692515
0.0745,1.6613683877921765,1.0,2612.079925330732,0.5674880245748773,1.2722165557955825,0.9835953140747504,0.28283047228727143,0.7637058250981842
0.075,1.6595617084407255,1.0,2612.581393405384,0.5699140746723418,1.2713959768322494,0.9836959622571521,0.28275459175451045,0.7651282645384859
