Time [s],Phi [rad],STIM [ ],Fsee [N],Gamma [ ],Lcerel [ ],q [ ],Lmtc [m],fisomrel [ ]
0.0,1.8,1.0,18.136690457654268,0.00041786015369253026,1.379320797527065,0.0050451809631822326,0.288653,0.5411853716946156
0.0005,1.79999375,1.0,18.575491392630628,0.0060247255975272715,1.3792693372969886,0.014111513772227018,0.2886527375,0.541309852634895
0.001,1.799975,1.0,22.21975680811494,0.011600140959257467,1.3788773017967193,0.037765541811620146,0.28865195,0.5422576217577733
0.0015,1.79994375,1.0,32.332500075885854,0.01714428264991897,1.3779396502827987,0.07353355848840287,0.2886506375,0.5445204743115937
0.002,1.7999,1.0,56.16099227110987,0.022657326088909066,1.376202810729432,0.11817673917744814,0.2886488,0.5486972104568726
0.0025,1.79984375,1.0,101.33230341021977,0.02813944571341627,1.373734290773303,0.16832921545072643,0.28864643749999996,0.5546003823347456
0.003,1.7997750000000001,1.0,166.3665507553442,0.0335908149814401,1.37101357537781,0.22114808233899497,0.28864354999999997,0.5610616290987692
0.0035,1.79969375,1.0,243.74820715032718,0.0390116063789967,1.3683990967718167,0.2744558965286625,0.2886401375,0.5672261017146353
0.004,1.7996,1.0,327.89479453959666,0.04440199142244501,1.36598668130445,0.32663415851324135,0.2886362,0.5728754754711577
0.0045000000000000005,1.7994937500000001,1.0,415.90836544933825,0.049762140667053395,1.3637675608641593,0.3765623024978116,0.2886317375,0.5780394185680491
0.005,1.799375,1.0,506.1756589380966,0.055092223700607165,1.3617151302692327,0.42354671692530277,0.28862675,0.5827875144589031
0.0055,1.79924375,1.0,597.6094714773837,0.06039240921937722,1.3598059894873398,0.46722738135210595,0.2886212375,0.587180006151264
0.006,1.7991000000000001,1.0,689.3330455717254,0.06566286485340732,1.3580228450224254,0.5074857967445456,0.2886152,0.5912616149300012
0.006500000000000001,1.79894375,1.0,780.6511246256139,0.07090375740741701,1.3563519391915817,0.5443659042749242,0.2886086375,0.5950679063596915
0.007,1.798775,1.0,870.9741858741311,0.07611525271738744,1.3547825645263272,0.5780142063594864,0.28860155,0.5986266961355948
0.0075,1.79859375,1.0,959.8075268104632,0.08129751551707218,1.3533059865221762,0.6086358048943924,0.2885939375,0.60196071392727
0.008,1.7984,1.0,1046.7893969561835,0.08645071019647589,1.3519141095438567,0.6364636036456303,0.2885858,0.6050907509692425
0.0085,1.79819375,1.0,1131.5934472322585,0.09157499939074724,1.350600474490986,0.6617390682215827,0.2885771375,0.6080335053784931
0.009000000000000001,1.797975,1.0,1213.979916718148,0.09667054518259008,1.3493590669533873,0.6846989760208834,0.28856795,0.6108043441883249
0.0095,1.79774375,1.0,1293.7883404327783,0.10173750928061583,1.3481841912680226,0.7055679661697116,0.2885582375,0.6134176305836514
0.01,1.7975,1.0,1370.8837088273797,0.10677605171863108,1.3470709875088207,0.7245548805317171,0.288548,0.6158856174414924
0.0105,1.79724375,1.0,1445.177748083063,0.11178633170568752,1.3460149473232257,0.7418508065019159,0.2885372375,0.6182195670564584
0.011,1.796975,1.0,1516.6297600058297,0.11676850777944074,1.3450117764979548,0.7576287631103186,0.28852595000000003,0.6204300831560119
0.0115,1.79669375,1.0,1585.237007744179,0.12172273845778996,1.3440574139988835,0.7720443322379479,0.2885141375,0.6225270914298499
0.012,1.7964,1.0,1650.9849376980308,0.12664917961265829,1.3431485275392123,0.7852369650358297,0.28850180000000003,0.6245187756622144
0.0125,1.79609375,1.0,1713.8969955147857,0.13154798697321984,1.3422818204270994,0.7973309830916553,0.2884889375,0.6264131231030321
0.013000000000000001,1.7957750000000001,1.0,1774.0156197096278,0.13641931549078132,1.3414542016194495,0.8084370730835986,0.28847555,0.6282175644018633
0.0135,1.79544375,1.0,1831.4172241930103,0.1412633206420478,1.3406625657647644,0.8186535999762464,0.2884616375,0.629939465199514
0.014,1.7951000000000001,1.0,1886.1512362800916,0.1460801549601155,1.3399044284701873,0.828068177064057,0.2884472,0.6315847560789392
0.0145,1.79474375,1.0,1938.2739954391134,0.15086997014304926,1.3391774887986327,0.8367587077993155,0.2884322375,0.6331589001666242
0.015,1.794375,1.0,1987.8628083305307,0.1556329178889139,1.3384794458130151,0.844794440774987,0.28841675,0.6346672983485783
0.0155,1.79399375,1.0,2034.9975246304086,0.16036914893074064,1.337808173359414,0.8522370401400593,0.2884007375,0.6361149171287502
0.016,1.7936,1.0,2079.780096799804,0.16507881450548872,1.3371614891885926,0.8591414069332984,0.2883842,0.6375067927555185
0.0165,1.7931937500000001,1.0,2122.2829677707846,0.16976206276634367,1.3365376745766344,0.8655566353286863,0.2883671375,0.6388469183372172
0.017,1.792775,1.0,2162.5802567122546,0.17441904118814847,1.3359351197379417,0.8715265912033887,0.28834955,0.6401390157099962
0.0175,1.7923437500000001,1.0,2200.756997941552,0.17904989724574613,1.3353522148869164,0.877090498098943,0.2883314375,0.6413867728649219
0.018000000000000002,1.7919,1.0,2236.8977751131165,0.1836547773415353,1.334787455005241,0.8822835102221305,0.2883128,0.6425936223568678
0.0185,1.79144375,1.0,2271.097657619208,0.18823382886420267,1.3342393181921492,0.8871371561564508,0.2882936375,0.6437630043828036
0.019,1.790975,1.0,2303.4309104554986,0.1927871960261228,1.333706568256604,0.8916798310243044,0.28827395,0.6448977241785729
0.0195,1.79049375,1.0,2333.9687080983576,0.19731502192729186,1.3331880640731537,0.8959371074236222,0.2882537375,0.6460003633902551
0.02,1.79,1.0,2362.788008049834,0.20181744966770618,1.3326826645163463,0.8999320330950453,0.288233,0.6470734844716333
0.0205,1.78949375,1.0,2389.969374753812,0.20629462207929347,1.3321892448506016,0.9036854177502242,0.2882117375,0.6481195969565914
0.021,1.788975,1.0,2415.583897881033,0.21074668033360386,1.331706818248305,0.9072161068386537,0.28818995000000003,0.6491409015548023
0.021500000000000002,1.78844375,1.0,2439.719348261797,0.21517376828030935,1.33123427680798,0.9105411432610333,0.2881676375,0.6501398401386944
0.022,1.7879,1.0,2462.4326680717522,0.21957602416004537,1.3307708456346505,0.9136760514957422,0.2881448,0.6511181367287571
0.0225,1.78734375,1.0,2483.7837969223656,0.2239535862134475,1.3303157498333407,0.9166349339973633,0.28812143749999997,0.6520775045026719
0.023,1.786775,1.0,2503.8354250105235,0.22830659268115117,1.329868214509075,0.919430621130729,0.28809755,0.6530196462263868
0.0235,1.78619375,1.0,2522.6527595813177,0.23263518180379186,1.329427464766877,0.922074803525577,0.28807313749999996,0.6539462546469008
0.024,1.7856,1.0,2540.294668226894,0.23693948976414253,1.3289928070850066,0.9245781627952115,0.2880482,0.6548588421120143
0.0245,1.78499375,1.0,2556.8259879518305,0.24121965550840602,1.3285635104527111,0.9269504547739803,0.2880227375,0.6557589910682117
0.025,1.784375,1.0,2572.3008332531313,0.245475814766679,1.3281389615856232,0.9292006257777623,0.28799675,0.6566480289844034
0.025500000000000002,1.78374375,1.0,2586.7645314216716,0.24970810046249278,1.327718643594951,0.9313368884206615,0.2879702375,0.6575270747458082
0.026000000000000002,1.7831000000000001,1.0,2600.2637016730346,0.25391664551937865,1.327302039591903,0.9333667781012518,0.2879432,0.658397241323279
0.0265,1.78244375,1.0,2612.8461449275796,0.2581015828608678,1.3268886326876879,0.9352972179859764,0.2879156375,0.6592596359042535
0.027,1.781775,1.0,2624.560739514954,0.2622630454104917,1.326477905993514,0.9371345769645387,0.28788755,0.6601153600066656
0.0275,1.7810937500000001,1.0,2635.45116430007,0.2664011643764199,1.3260693997740836,0.9388847293194814,0.2878589375,0.6609653907237528
0.028,1.7804,1.0,2645.5593155860715,0.27051607144160084,1.3256626784998715,0.9405530961259451,0.2878298,0.6618106499754124
0.0285,1.77969375,1.0,2654.938715599681,0.2746079007329848,1.325257206338228,0.9421446691994061,0.2878001375,0.6626522631538629
0.029,1.778975,1.0,2663.620827649879,0.2786767793722984,1.3248526572764572,0.9436640898713547,0.28776995,0.663490915371252
0.029500000000000002,1.7782437500000001,1.0,2671.6376428981316,0.28272283448126806,1.3244487053018628,0.9451156532014956,0.2877392375,0.6643272883544165
0.03,1.7775,1.0,2679.0216340599086,0.2867461931816203,1.324045024401749,0.9465033382418213,0.287708,0.6651620604606822
0.0305,1.77674375,1.0,2685.8057114630333,0.2907469825950817,1.3236412885634192,0.9478308352962924,0.2876762375,0.6659959066868929
0.031,1.775975,1.0,2692.023181462039,0.29472532984337874,1.323237171774178,0.9491015705070034,0.28764395,0.6668294986716536
0.0315,1.7751937500000001,1.0,2697.707707209288,0.2986813620482379,1.3228323480213284,0.9503187280580425,0.2876111375,0.6676635046908033
0.032,1.7744,1.0,2702.886920833133,0.30261520158111993,1.3224265493033707,0.9514852758851082,0.2875778,0.6684984703581667
0.0325,1.77359375,1.0,2707.595608456592,0.30652697904101167,1.3220194447319167,0.9526039727194026,0.2875439375,0.6693350676484313
0.033,1.772775,1.0,2711.8562680966934,0.3104168165203319,1.3216108178283088,0.9536774009514181,0.28750955,0.6701737304075459
0.0335,1.7719437500000002,1.0,2715.6905307720585,0.314284835281679,1.321200461761894,0.9547079707290346,0.2874746375,0.6710148704207465
0.034,1.7711000000000001,1.0,2719.1201973019297,0.31813115658765156,1.3207881697020192,0.9556979326872675,0.2874392,0.6718588972551931
0.0345,1.7702437500000001,1.0,2722.167220822886,0.321955901700848,1.320373734818031,0.9566493903868091,0.2874032375,0.6727062182357968
0.035,1.7693750000000001,1.0,2724.8536902532505,0.32575919188386676,1.3199569502792767,0.9575643116436965,0.28736675,0.6735572384183177
0.035500000000000004,1.76849375,1.0,2727.201814707113,0.32954114839930637,1.319537609255103,0.9584445388605555,0.2873297375,0.6744123605597356
0.036000000000000004,1.7676,1.0,2729.2432396893214,0.33330188418776147,1.3191154200970436,0.9592917877457308,0.2872922,0.675272157704998
0.0365,1.7666949605631062,1.0,2731.0459839189484,0.33704152582452296,1.3186903082799537,0.960107692653333,0.28725418834365046,0.6761367583176916
0.037,1.765787961842744,1.0,2733.0467495645667,0.3407601991503526,1.3182625182277357,0.9608938188570786,0.28721609439739526,0.6770056425106512
0.0375,1.7648809631223816,1.0,2735.3238125106636,0.34445801835701273,1.3178322260015143,0.9616516268136593,0.28717800045114006,0.6778784314889106
0.038,1.7639739644020194,1.0,2737.858117801005,0.3481350976362656,1.3173996076624148,0.9623824890067607,0.2871399065048848,0.6787547482644936
0.0385,1.763066965681657,1.0,2740.6306124322496,0.3517915511798735,1.316964839271562,0.9630876962159235,0.2871018125586296,0.6796342176835231
0.039,1.762159966961295,1.0,2743.6222366166785,0.35542749317959876,1.316528096890081,0.9637684632737725,0.2870637186123744,0.6805164664513504
0.0395,1.7612529682409328,1.0,2746.8139157335386,0.3590430378272037,1.3160895565790969,0.9644259343583975,0.2870256246661192,0.6814011231557077
0.04,1.7603459695205705,1.0,2750.186552966989,0.3626382993144506,1.3156493943997345,0.9650611878629582,0.28698753071986394,0.6822878182878854
0.0405,1.7594389708002083,1.0,2753.721022631508,0.36621339183310175,1.3152077864131189,0.9656752408803837,0.28694943677360873,0.6831761842619313
0.041,1.758531972079846,1.0,2757.3981641843598,0.36976842957491945,1.314764908680375,0.9662690533373006,0.28691134282735353,0.6840658554318724
0.0415,1.7576249733594838,1.0,2761.198776925526,0.3733035267316661,1.314320937262628,0.9668435318079796,0.28687324888109833,0.6849564681069611
0.042,1.7567179746391215,1.0,2765.1089101560074,0.37681879252390327,1.3138760004044059,0.9673995282004595,0.28683515493484313,0.6858477562823131
0.0425,1.7558109759187592,1.0,2769.120961257766,0.3803143357069196,1.313430168761501,0.9679378433552236,0.28679706098858787,0.6867395705042633
0.043000000000000003,1.754903977198397,1.0,2773.2118560289127,0.3837902807848064,1.3129836523536258,0.9684592489696805,0.28675896704233267,0.6876314839266094
0.043500000000000004,1.753996978478035,1.0,2777.3755128546395,0.3872467342094767,1.3125365074964268,0.968964460506847,0.28672087309607747,0.6885233784500508
0.044,1.7530899797576727,1.0,2781.605834166062,0.3906838024328433,1.3120887905055505,0.9694541558971975,0.28668277914982226,0.6894151366096385
0.0445,1.7521829810373104,1.0,2785.8967056900633,0.39410159190681926,1.3116405576966437,0.9699289778811337,0.286644685203567,0.690306641576929
0.045,1.7512759823169481,1.0,2790.2419957709167,0.3975002090833175,1.311191865385353,0.970389536183117,0.2866065912573118,0.69119777716194
0.0455,1.7503689835965859,1.0,2794.6355547605926,0.40087976041425094,1.310742769887325,0.970836409531086,0.2865684973110566,0.692088427814901
0.046,1.7494619848762236,1.0,2799.0712144805802,0.4042403523515325,1.3102933275182067,0.9712701475335687,0.2865304033648014,0.6929784786278026
0.0465,1.7485549861558614,1.0,2803.5427877535576,0.4075820913470751,1.3098435945936446,0.9716912724257827,0.2864923094185462,0.6938678153357436
0.047,1.747647987435499,1.0,2808.044068005514,0.4109050838527918,1.3093936274292852,0.9721002806950426,0.28645421547229094,0.6947563243180761
0.0475,1.7467409887151368,1.0,2812.5688289380496,0.41420943632059537,1.3089434823407753,0.9724976445948713,0.28641612152603574,0.6956438925993466
0.048,1.7458339899947746,1.0,2817.1108242709656,0.41749525520239883,1.3084932156437614,0.972883813556419,0.28637802757978054,0.6965304078500374
0.0485,1.7449269912744125,1.0,2821.6680349740604,0.4207626367240777,1.3080428456822248,0.9732592116091583,0.28633993363352533,0.6974158329846845
0.049,1.7440199925540503,1.0,2826.2348239572657,0.4240116938454629,1.3075924230607014,0.9736242469768205,0.2863018396872701,0.6983000678432605
0.0495,1.743112993833688,1.0,2830.8068004990696,0.4272425336120419,1.3071419870961207,0.9739793072365196,0.2862637457410149,0.6991830349574184
0.05,1.7422059951133257,1.0,2835.382255380373,0.43045525516723127,1.3066915530641032,0.9743247594336624,0.2862256517947597,0.7000647043339552
0.0505,1.7412989963929635,1.0,2839.9594738521614,0.4336499576544476,1.3062411362402693,0.9746609537561289,0.28618755784850447,0.700945046155194
0.051000000000000004,1.7403919976726012,1.0,2844.53673563902,0.4368267402171074,1.3057907519002396,0.9749882244594043,0.28614946390224927,0.7018240307789736
0.051500000000000004,1.739484998952239,1.0,2849.112314947077,0.43998570199862713,1.3053404153196346,0.9753068907330286,0.28611136995599407,0.7027016287386258
0.052000000000000005,1.7385780002318767,1.0,2853.6844804781267,0.44312694214242343,1.3048901417740746,0.975617257512578,0.2860732760097388,0.7035778107429359
0.0525,1.7376710015115144,1.0,2858.251495448026,0.44625055979191275,1.3044399465391803,0.975919616241041,0.2860351820634836,0.7044525476760876
0.053,1.7367640027911524,1.0,2862.811617610664,0.44935665409051173,1.303989844890572,0.9762142455831648,0.2859970881172284,0.7053258105975956
0.0535,1.7358570040707901,1.0,2867.363099287268,0.4524453241816368,1.3035398521038701,0.9765014120960502,0.2859589941709732,0.7061975707422214
0.054,1.7349500053504279,1.0,2871.9041874003224,0.4555166692087046,1.3030899834546954,0.976781370859034,0.28592090022471794,0.707067799519874
0.0545,1.7340430066300656,1.0,2876.4331235135596,0.45857078831513154,1.3026402542186681,0.9770543660656491,0.28588280627846274,0.7079364685154972
0.055,1.7331360079097033,1.0,2880.9517017014155,0.4616077497805397,1.3021906481936256,0.9773206267600805,0.28584471233220754,0.7088036101540702
0.0555,1.732229009189341,1.0,2885.455364583251,0.46462769154816164,1.3017412053796285,0.9775803823152969,0.28580661838595234,0.7096691485205641
0.056,1.7313220104689788,1.0,2889.9438017270872,0.46763070583100885,1.301291928136974,0.9778338460555104,0.28576852443969714,0.710533080483114
0.0565,1.7304150117486166,1.0,2894.4168082720344,0.4706168837706276,1.3008428178883618,0.978081222383358,0.2857304304934419,0.7113954047352997
0.057,1.7295080130282543,1.0,2898.8741790435215,0.4735863165085642,1.3003938760564921,0.9783227073720913,0.2856923365471867,0.7122561199864695
0.0575,1.728601014307892,1.0,2903.315708557977,0.4765390951863647,1.299945104064065,0.9785584891725237,0.2856542426009315,0.7131152249617257
0.058,1.72769401558753,1.0,2907.7411910287697,0.4794753109455755,1.2994965033337804,0.9787887483969406,0.28561614865467627,0.7139727184019096
0.0585,1.7267870168671677,1.0,2912.150420371253,0.4823950549277427,1.2990480752883384,0.9790136584814437,0.285578054708421,0.7148285990635851
0.059000000000000004,1.7258800181468055,1.0,2916.543190208392,0.48529841827441256,1.298599821350439,0.9792333860281105,0.2855399607621658,0.715682865719024
0.059500000000000004,1.7249730194264432,1.0,2920.919293875994,0.4881854921271313,1.2981517429427825,0.9794480911282396,0.2855018668159106,0.7165355171561893
0.06,1.724066020706081,1.0,2925.278524428531,0.4910563676274451,1.2977038414880684,0.9796579276678669,0.2854637728696554,0.7173865521787215
0.0605,1.7231590219857187,1.0,2929.620674644357,0.49391113591690033,1.2972561184089968,0.9798630436166579,0.2854256789234002,0.71823596960592
0.061,1.7222520232653564,1.0,2933.9455370315186,0.49674988813704307,1.296808575128268,0.9800635813011999,0.28538758497714495,0.7190837682727271
0.0615,1.7213450245449942,1.0,2938.252903833537,0.4995727154294196,1.296361213068582,0.980259677663651,0.28534949103088975,0.7199299470297148
0.062,1.720438025824632,1.0,2942.5425670346954,0.5023797089355762,1.2959140336526387,0.9804514645066359,0.28531139708463454,0.7207745047430645
0.0625,1.7195310271042699,1.0,2946.8143183661873,0.5051709597970588,1.2954670383031381,0.9806390687252168,0.28527330313837934,0.7216174402945532
0.063,1.7186240283839076,1.0,2951.068336999122,0.5079465244750332,1.2950202250537175,0.9808226097971273,0.2852352091921241,0.72245875895808
0.0635,1.7177170296635453,1.0,2955.3048267159,0.510706499497883,1.2945735917306322,0.9810022057776809,0.2851971152458689,0.7232984663740906
0.064,1.716810030943183,1.0,2959.5234900532223,0.5134510192130443,1.2941271405437564,0.9811779733458269,0.2851590212996137,0.7241365599348002
0.0645,1.7159030322228208,1.0,2963.724484064796,0.5161801650678424,1.2936808697337991,0.9813500209723187,0.2851209273533585,0.7249730444910691
0.065,1.7149960335024586,1.0,2967.9079665940485,0.5188940185096033,1.2932347775414708,0.9815184532576197,0.2850828334071033,0.7258079248731
0.0655,1.7140890347820963,1.0,2972.0740962672594,0.5215926609856524,1.2927888622074803,0.9816833710980832,0.2850447394608481,0.7266412058904627
0.066,1.713182036061734,1.0,2976.2230324865277,0.5242761739433157,1.2923431219725379,0.9818448718438483,0.2850066455145928,0.7274728923321105
0.0665,1.7122750373413718,1.0,2980.3549354229735,0.5269446388299188,1.2918975550773533,0.9820030494489157,0.2849685515683376,0.7283029889664016
0.067,1.7113680386210097,1.0,2984.469966009979,0.5295981370927876,1.2914521597626356,0.9821579946138502,0.2849304576220824,0.7291315005411196
0.0675,1.7104610399006475,1.0,2988.568285936185,0.5322367501792474,1.2910069342690953,0.9823097949215149,0.2848923636758272,0.72995843178349
0.068,1.7095540411802852,1.0,2992.6500576391772,0.5348605595366243,1.2905618768374414,0.9824585349662279,0.28485426972957195,0.7307837874002026
0.0685,1.708647042459923,1.0,2996.715444298862,0.5374696466122438,1.2901169857083838,0.9826042964767021,0.28481617578331675,0.731607572077428
0.069,1.7077400437395607,1.0,3000.7646098306004,0.5400640928534317,1.2896722591226326,0.9827471584331096,0.28477808183706155,0.7324297904808368
0.0695,1.7068330450191984,1.0,3004.797718879205,0.5426439797075137,1.2892276953208968,0.982887197178587,0.28473998789080635,0.7332504472556203
0.07,1.7059260462988362,1.0,3008.8149368121744,0.5452093886218154,1.2887832925438867,0.9830244865254865,0.28470189394455114,0.7340695470265051
0.07050000000000001,1.705019047578474,1.0,3012.8164297136564,0.5477604010436627,1.2883390490323114,0.9831590978566481,0.2846637999982959,0.7348870943977752
0.07100000000000001,1.7041120488581116,1.0,3016.8023643781644,0.5502970984203813,1.287894963026881,0.983291100221965,0.2846257060520407,0.7357030939532871
0.07150000000000001,1.7032050501377494,1.0,3020.772908304195,0.5528195621992967,1.287451032768305,0.9834205604304851,0.2845876121057855,0.7365175502564886
