Time [s],Phi [rad],STIM [ ],Fsee [N],Gamma [ ],Lcerel [ ],q [ ],Lmtc [m],fisomrel [ ]
0.0,1.8,1.0,17.967597314989263,1.018410743117936e-05,1.3793396970208254,0.005000027638181654,0.288653,0.5411396500770039
0.0005,1.79999375,1.0,18.276950632826306,0.005619336291436772,1.3793023648529092,0.012941024755946533,0.2886527375,0.5412299617888728
0.001,1.799975,1.0,21.618683075472138,0.011197025566611757,1.3789382713182137,0.035609534796275946,0.28865195,0.5421102886810074
0.0015,1.79994375,1.0,31.069734344801233,0.016743428415858415,1.3780461612722437,0.07060301642769094,0.2886506375,0.5442637115667115
0.002,1.7999,1.0,53.58320638057431,0.022258720330429246,1.3763680785844354,0.1147193895500509,0.2886488,0.5483006040263401
0.0025,1.79984375,1.0,97.12011860037315,0.027743075817488423,1.373935110352385,0.16457636376134963,0.28864643749999996,0.5541215983601713
0.003,1.7997750000000001,1.0,160.95974417483373,0.03319666840783055,1.371214284714556,0.21728197124161847,0.28864354999999997,0.5605865906373103
0.0035,1.79969375,1.0,237.68513129231442,0.038619670655471054,1.3685846787962186,0.2706143973112691,0.2886401375,0.5667899698873993
0.004,1.7996,1.0,321.4687144241705,0.0440122541484287,1.3661560409313365,0.32291726252203146,0.2886362,0.5724800819180149
0.0045000000000000005,1.7994937500000001,1.0,409.2698035205641,0.049374589513910015,1.363922765981211,0.3730358945263855,0.2886317375,0.5776792742365586
0.005,1.799375,1.0,499.4156206187768,0.05470684640939772,1.3618582973724527,0.4202487589034175,0.28862675,0.5824571831081302
0.0055,1.79924375,1.0,590.7925778913337,0.060009193570126663,1.3599387928221531,0.464174900822288,0.2886212375,0.5868752086152141
0.006,1.7991000000000001,1.0,682.5202887454161,0.0652817987522174,1.3581463751132459,0.5046810681381864,0.2886152,0.5909795089070222
0.006500000000000001,1.79894375,1.0,773.8835230128188,0.07052482878829738,1.3564672149496775,0.5418017717900889,0.2886086375,0.5948058822258305
0.007,1.798775,1.0,864.2880011860336,0.07573844957109835,1.3548903596211586,0.5756777046097769,0.28860155,0.598382757168255
0.0075,1.79859375,1.0,953.2454580473926,0.08092282606318864,1.3534067446970943,0.6065107564835442,0.2885939375,0.6017336505185038
0.008,1.7984,1.0,1040.3472155661939,0.0860781219085589,1.3520088118170495,0.6345329404029338,0.2885858,0.60487817730596
0.0085,1.79819375,1.0,1125.317330801053,0.09120450119133772,1.3506891975673885,0.6599851249979386,0.2885771375,0.6078350979258329
0.009000000000000001,1.797975,1.0,1207.9024125855226,0.09630212583298928,1.3494420045529074,0.6831048283939773,0.28856795,0.6106195326978503
0.0095,1.79774375,1.0,1287.8937206532764,0.10137115638372217,1.3482621037568148,0.7041180611460294,0.2885582375,0.6132446016800943
0.01,1.7975,1.0,1365.1685366525785,0.10641175339374503,1.34714436616232,0.723234758872097,0.288548,0.6157231793423507
0.0105,1.79724375,1.0,1439.6618642621142,0.1114240767864641,1.3460839167867984,0.7406471389748333,0.2885372375,0.6180673550430753
0.011,1.796975,1.0,1511.3246945670533,0.11640828531408769,1.3450765233441242,0.7565295646688548,0.28852595000000003,0.6202876053467223
0.0115,1.79669375,1.0,1580.1227737460056,0.12136453615673992,1.3441184620174458,0.7710390126531552,0.2885141375,0.6223931253148844
0.012,1.7964,1.0,1646.0576639698763,0.12629298591358346,1.3432061573120035,0.7843159641065195,0.28850180000000003,0.6243926453543631
0.0125,1.79609375,1.0,1709.174973914806,0.13119379158246883,1.3423360233159132,0.7964856686392919,0.2884889375,0.6262947931768066
0.013000000000000001,1.7957750000000001,1.0,1769.5083125112742,0.1360671079627498,1.3415050529050796,0.8076598044935295,0.28847555,0.6281068202815651
0.0135,1.79544375,1.0,1827.093674562459,0.14091308845928976,1.3407105712345178,0.8179377519438651,0.2884616375,0.6298351615084459
0.014,1.7951000000000001,1.0,1881.9946766334497,0.14573188647695218,1.3399499034592417,0.827407794355276,0.2884472,0.6314861707208299
0.0145,1.79474375,1.0,1934.28185787013,0.15052365450345181,1.3392205721111403,0.8361484363532397,0.2884322375,0.6330656997978019
0.015,1.794375,1.0,1984.0526850269534,0.1552885455148138,1.3385200472548524,0.8442294428243331,0.28841675,0.6345796479801419
0.0155,1.79399375,1.0,2031.3736028982928,0.16002670941828742,1.337846339453966,0.8517130537374082,0.2884007375,0.6360326878748586
0.016,1.7936,1.0,2076.315124882262,0.16473829544987845,1.3371975852143725,0.8586547325055233,0.2883842,0.637429172594375
0.0165,1.7931937500000001,1.0,2118.9620354513886,0.1694234528455927,1.336571921041965,0.8651039291790321,0.2883671375,0.6387734118817641
0.017,1.792775,1.0,2159.3983753090283,0.1740823297864095,1.3359676243573997,0.8711048333939486,0.28834955,0.6400693730345828
0.0175,1.7923437500000001,1.0,2197.7253611600886,0.17871507525255895,1.3353829141635243,0.8766969395138313,0.2883314375,0.6413211125229021
0.018000000000000002,1.7919,1.0,2234.0177398524006,0.18332183498043753,1.3348163819104015,0.8819157125900512,0.2883128,0.6425318571569776
0.0185,1.79144375,1.0,2268.3492955182296,0.18790275391208466,1.334266713417309,0.8867929827575743,0.2882936375,0.6437046055522662
0.019,1.790975,1.0,2300.801322132125,0.19245797698953998,1.333732594503524,0.8913573417577905,0.28827395,0.6448423321618187
0.0195,1.79049375,1.0,2331.455407265363,0.19698764827777532,1.3332127756979821,0.8956345295280518,0.2882537375,0.645947851121321
0.02,1.79,1.0,2360.398419550099,0.20149191242224235,1.3327060156497723,0.899647745165196,0.288233,0.6470239386175174
0.0205,1.78949375,1.0,2387.707553957083,0.2059709123838624,1.3322112210299908,0.9034179621665807,0.2882117375,0.648073037696947
0.021,1.788975,1.0,2413.4458063481793,0.21042478850999496,1.3317274815036155,0.9069641808863634,0.28818995000000003,0.6490971875486876
0.021500000000000002,1.78844375,1.0,2437.680110950268,0.21485368114799946,1.331253886735624,0.9103036059015704,0.2881676375,0.6500984136560661
0.022,1.7879,1.0,2460.4810124725764,0.21925773064523532,1.3307895263909943,0.9134518404932513,0.2881448,0.6510787284120589
0.0225,1.78734375,1.0,2481.916140212619,0.2236370760359647,1.3303335493905852,0.9164230688758057,0.28812143749999997,0.6520400068463578
0.023,1.786775,1.0,2502.056303982768,0.22799185748232115,1.3298851020785767,0.9192301950273604,0.28809755,0.6529841180695377
0.0235,1.78619375,1.0,2520.9671335502185,0.23232221399120898,1.3294434049180892,0.921884989035139,0.28807313749999996,0.6539127645279844
0.024,1.7856,1.0,2538.6996442966283,0.23662828082116621,1.3290078378374208,0.9243982172443274,0.2880482,0.6548273043416627
0.0245,1.78499375,1.0,2555.3067277805317,0.24091019323073098,1.32857778076487,0.9267797166993371,0.2880227375,0.6557290879707687
0.025,1.784375,1.0,2570.8429941146474,0.24516808647844132,1.328152613628734,0.9290384881061021,0.28799675,0.6566194584458891
0.025500000000000002,1.78374375,1.0,2585.364622867576,0.24940209582283532,1.3277317163573117,0.9311827783643621,0.2879702375,0.6574997515736307
0.026000000000000002,1.7831000000000001,1.0,2598.9205598811873,0.2536123543331155,1.327314549572533,0.9332201661182326,0.2879432,0.6583711276726081
0.0265,1.78244375,1.0,2611.5648114032865,0.25779899763042585,1.3269005381400714,0.9351576091796155,0.2879156375,0.6592348155731242
0.027,1.781775,1.0,2623.3493598699224,0.2619621599295666,1.3264891362443678,0.9370015117648618,0.28788755,0.6600919767678783
0.0275,1.7810937500000001,1.0,2634.3112141545585,0.2661019708682912,1.3260799458943695,0.9387577927416546,0.2878589375,0.6609434594563937
0.028,1.7804,1.0,2644.488166286759,0.2702185600843528,1.325672569099024,0.940431909893979,0.2878298,0.6617901075779381
0.0285,1.77969375,1.0,2653.9187238801633,0.27431205721550495,1.3252666078672792,0.942028901890916,0.2878001375,0.6626327608626073
0.029,1.778975,1.0,2662.6420460722597,0.27838259189950093,1.3248616642080822,0.9435534259292854,0.28776995,0.6634722548723064
0.029500000000000002,1.7782437500000001,1.0,2670.6978829758364,0.28243029377409407,1.324457340130381,0.9450097915431674,0.2877392375,0.6643094210316272
0.03,1.7775,1.0,2678.1201787723253,0.2864552901151153,1.324053295820277,0.9464019979671472,0.287708,0.6651449664158673
0.0305,1.77674375,1.0,2684.946909072915,0.29045771074839777,1.3236491586234893,0.9477337505403911,0.2876762375,0.665979662379807
0.031,1.775975,1.0,2691.2129394822714,0.29443768349472366,1.3232445882127384,0.9490084926286002,0.28764395,0.6668142097932946
0.0315,1.7751937500000001,1.0,2696.944251798565,0.29839533232108445,1.3228393288075564,0.9502294335481787,0.2876111375,0.6676491319358626
0.032,1.7744,1.0,2702.167115918144,0.3023307811944717,1.322433124627476,0.951399558676412,0.2875778,0.6684849494354671
0.0325,1.77359375,1.0,2706.9080624547178,0.30624415408187705,1.3220257198920298,0.9525216478202657,0.2875439375,0.6693221802551658
0.033,1.772775,1.0,2711.193856808153,0.31013557495029204,1.3216168588207498,0.9535982918670654,0.28750955,0.6701613396756183
0.0335,1.7719437500000002,1.0,2715.0514746844483,0.31400516776670817,1.321206285633168,0.9546319078961168,0.2874746375,0.6710029402734172
0.034,1.7711000000000001,1.0,2718.4978011837893,0.31785305230736083,1.3207938381596485,0.9556247622953465,0.2874392,0.6718473003788306
0.0345,1.7702437500000001,1.0,2721.5639740650704,0.3216793549537324,1.3203792257876013,0.9565789607449184,0.2874032375,0.672694998991509
0.035,1.7693750000000001,1.0,2724.2784951796357,0.32548419917537547,1.3199621833169668,0.9574964749906248,0.28736675,0.6735465600989787
0.035500000000000004,1.76849375,1.0,2726.6575731050502,0.32926770288343954,1.319542558536473,0.9583791616494449,0.2873297375,0.6744022745024385
0.036000000000000004,1.7676,1.0,2728.7175101481516,0.3330299839890741,1.3191201992348478,0.9592287603235311,0.2872922,0.6752624312509918
0.0365,1.76669375,1.0,2730.4746922656846,0.3367711604034286,1.3186949532008192,0.9600469023051416,0.2872541375,0.6761273176158408
0.037,1.765775,1.0,2731.9455794984447,0.34049135003765263,1.318266668223115,0.9608351185397989,0.28721555,0.6769972190630027
0.0375,1.76484375,1.0,2733.1466969190665,0.3441906708028956,1.3178351920904634,0.9615948469184394,0.2871764375,0.677872419224548
0.038,1.7639,1.0,2734.094626093386,0.3478692406103071,1.3174003725915922,0.9623274389619033,0.28713679999999997,0.6787531998683625
0.0385,1.76294375,1.0,2734.8059970560416,0.35152717737103656,1.3169620575152294,0.9630341659545123,0.28709663750000003,0.6796398408664298
0.039,1.761975,1.0,2735.2980917576115,0.3551645918549387,1.3165200891026054,0.9637162226627837,0.28705595,0.6805326313599449
0.0395,1.7609937500000001,1.0,2735.5855204072345,0.35878160848397955,1.3160743341625525,0.9643747394615704,0.2870147375,0.681431808940367
0.04,1.76,1.0,2735.6788600027025,0.3623783392701115,1.315624696369764,0.9650107828061429,0.286973,0.6823375352088467
0.0405,1.7589937500000001,1.0,2735.588690444444,0.3659548959598396,1.3151710795737364,0.9656253586383229,0.2869307375,0.6832499700265483
0.041,1.757975,1.0,2735.32561013051,0.3695113902996687,1.3147133876239658,0.9662194164848842,0.28688795,0.6841692718439012
0.0415,1.75694375,1.0,2734.9002325073016,0.3730479340361037,1.314251524369949,0.9667938532053135,0.2868446375,0.6850955976759034
0.042,1.7559,1.0,2734.323182825017,0.37656463891564956,1.3137853936611823,0.9673495164531826,0.28680079999999997,0.6860291030768395
0.0425,1.75484375,1.0,2733.6050950984613,0.3800616166848112,1.313314899347162,0.967887207875743,0.2867564375,0.6869699421144062
0.043000000000000003,1.753775,1.0,2732.7566092718803,0.3835389790900935,1.3128399452773847,0.9684076860740076,0.28671155,0.6879182673432493
0.043500000000000004,1.75269375,1.0,2731.7855247256307,0.3869968317746966,1.31236046114018,0.9689116704674257,0.28666613750000003,0.6888741783045093
0.044,1.7516,1.0,2730.7008031171767,0.3904352882323036,1.3118763660899617,0.9693998430333508,0.2866202,0.6898377942427302
0.0445,1.75049375,1.0,2729.512774962888,0.39385446468604723,1.3113875668427002,0.9698728496793456,0.2865737375,0.6908092577033894
0.045,1.7493750000000001,1.0,2728.227269095094,0.3972544662411979,1.310894011018542,0.9703313045495306,0.28652675,0.6917886285484778
0.0455,1.74824375,1.0,2726.8501143816807,0.4006353980030263,1.3103956462376347,0.9707757904994786,0.2864792375,0.6927759655507689
0.046,1.7471,1.0,2725.3871387248537,0.4039973650768029,1.3098924201201247,0.9712068609887412,0.2864312,0.6937713263778447
0.0465,1.7459437500000001,1.0,2723.844168120235,0.4073404725677984,1.3093842802861593,0.9716250418413551,0.28638263750000004,0.6947747675759415
0.047,1.744775,1.0,2722.2270257770265,0.4106648255812832,1.3088711743558852,0.9720308328847161,0.28633355,0.6957863445536236
0.0475,1.74359375,1.0,2720.5415312992013,0.413970529222528,1.3083530499494493,0.9724247094762901,0.28628393750000003,0.6968061115652819
0.048,1.7424,1.0,2718.7934999267954,0.4172576885968034,1.3078298546869989,0.9728071239268248,0.2862338,0.6978341216944552
0.0485,1.74119375,1.0,2716.9887418391563,0.4205264088093799,1.3073015361886804,0.9731785068279752,0.2861831375,0.6988704268369808
0.049,1.739975,1.0,2715.1330615177367,0.4237767949655281,1.3067680420746413,0.9735392682915893,0.28613195,0.6999150776839641
0.0495,1.73874375,1.0,2713.229320113995,0.42700894348217255,1.306229346741686,0.9738897998950837,0.2860802375,0.70096807140995
0.05,1.7375,1.0,2711.2824264481205,0.43022296517348996,1.3056854058881482,0.974230475387882,0.286028,0.7020294407748664
0.0505,1.73624375,1.0,2709.297016134988,0.433418965022468,1.305136177651748,0.9745616507089326,0.2859752375,0.7030992126533191
0.051000000000000004,1.734975,1.0,2707.276047424159,0.43659704130953897,1.3045816354263189,0.9748836657368067,0.28592195,0.7041773831665465
0.051500000000000004,1.73369375,1.0,2705.2224749838515,0.43975729231513505,1.304021752605694,0.9751968449390847,0.2858681375,0.7052639475209252
0.052000000000000005,1.7324,1.0,2703.13924971317,0.44289981631968867,1.3034565025837073,0.9755014982035543,0.2858138,0.7063588999989301
0.0525,1.73109375,1.0,2701.029318571005,0.4460247116036319,1.3028858587541914,0.9757979216175579,0.28575893750000003,0.7074622339500511
0.053,1.729775,1.0,2698.8956244190026,0.4491320764473972,1.30230979451098,0.9760863981991462,0.28570355000000003,0.7085739417816614
0.0535,1.72844375,1.0,2696.7411058818534,0.4522220091314168,1.3017282832479067,0.9763671985834079,0.2856476375,0.7096940149498437
0.054,1.7271,1.0,2694.5686972223007,0.4552946079361229,1.3011412983588049,0.9766405816670783,0.2855912,0.7108224439501698
0.0545,1.7257437500000001,1.0,2692.381328232107,0.45834997114194787,1.3005488132375076,0.9769067952143027,0.2855342375,0.7119592183084369
0.055,1.724375,1.0,2690.181924138515,0.4613881970293239,1.2999508012778487,0.9771660764261941,0.28547675,0.7131043265713537
0.0555,1.72299375,1.0,2687.9718172476496,0.4644093760214751,1.2993472504216135,0.977418652594222,0.2854187375,0.7142577285236602
0.056,1.7216,1.0,2685.752401713223,0.4674136110055523,1.2987381480247646,0.9776647426277206,0.2853602,0.7154193842944319
0.0565,1.72019375,1.0,2683.525839641965,0.4704010005465026,1.2981234743830057,0.9779045555202437,0.28530113749999997,0.7165892666511651
0.057,1.718775,1.0,2681.2935254792965,0.4733716364968414,1.2975032167999359,0.9781382914473725,0.28524155,0.7177673341635535
0.0575,1.71734375,1.0,2679.0568513941457,0.4763256107090842,1.296877362579155,0.9783661424147614,0.2851814375,0.7189535446047353
0.058,1.7159,1.0,2676.8172072642114,0.4792630150357464,1.296245899024263,0.9785882926550168,0.2851208,0.7201478549467673
0.0585,1.71444375,1.0,2674.575980664063,0.4821839413293436,1.295608813438859,0.9788049190022295,0.2850596375,0.7213502213560901
0.059000000000000004,1.7129750000000001,1.0,2672.334556856449,0.48508848144239114,1.2949660931265432,0.9790161912455777,0.28499795,0.7225605991889779
0.059500000000000004,1.71149375,1.0,2670.0943187878984,0.4879767272274045,1.2943177253909153,0.9792222724633313,0.2849357375,0.7237789429869828
0.06,1.71,1.0,2667.8566470874744,0.49084877053689907,1.2936636975355746,0.9794233193384854,0.284873,0.7250052064723678
0.0605,1.7084937500000001,1.0,2665.6229200692273,0.49370470322339044,1.2930039968641212,0.9796194824571677,0.2848097375,0.7262393425435271
0.061,1.7069750000000001,1.0,2663.3945137381,0.496544617139394,1.2923386106801544,0.979810906590886,0.28474595,0.727481303270399
0.0615,1.7054437500000001,1.0,2661.170883162108,0.49936857297818016,1.2916675439494345,0.9799977294607164,0.2846816375,0.7287310070360482
0.062,1.7039,1.0,2658.953346380087,0.5021766848583527,1.290990784489235,0.9801800868206205,0.2846168,0.7299884035151136
0.0625,1.70234375,1.0,2656.7436426658196,0.5049690649481575,1.2903083162156794,0.9803581089148525,0.2845514375,0.7312534487755646
0.063,1.7007750000000001,1.0,2654.542060486665,0.5077457968831184,1.2896201363905178,0.9805319196287778,0.28448555,0.7325260733327101
0.0635,1.69919375,1.0,2652.3488878458625,0.5105069642987594,1.2889262422754995,0.9807016382550438,0.28441913750000003,0.733806207029845
0.064,1.6976,1.0,2650.164412286416,0.5132526508306045,1.288226631132374,0.9808673796960191,0.2843522,0.7350937790372526
0.0645,1.69599375,1.0,2647.9889208956697,0.5159829401141774,1.2875213002228916,0.9810292546558653,0.2842847375,0.736388717851205
0.065,1.694375,1.0,2645.822700309814,0.5186979157850024,1.2868102468088014,0.9811873698228464,0.28421675,0.7376909512929669
0.0655,1.69274375,1.0,2643.6660367180493,0.5213976614786029,1.2860934681518532,0.9813418280424353,0.2841482375,0.7390004065077951
0.066,1.6911,1.0,2641.5192158678155,0.5240822608305031,1.2853709615137967,0.9814927284817498,0.2840792,0.7403170099639387
0.0665,1.6894437500000001,1.0,2639.3825230696716,0.526751797476227,1.2846427241563818,0.9816401667858039,0.2840096375,0.7416406874516388
0.067,1.687775,1.0,2637.2562432020536,0.5294063550512984,1.2839087533413578,0.9817842352260416,0.28393955,0.7429713640821303
0.0675,1.68609375,1.0,2635.140660717066,0.5320460171912413,1.2831690463304746,0.9819250228415852,0.2838689375,0.7443089642866376
0.068,1.6844000000000001,1.0,2633.036059645509,0.5346708675315796,1.2824236003854819,0.9820626155735998,0.2837978,0.7456534118153753
0.0685,1.68269375,1.0,2630.9427236026468,0.537280989707837,1.2816724127681292,0.9821970963931616,0.2837261375,0.7470046297365456
0.069,1.680975,1.0,2628.8609357941473,0.5398764673555377,1.2809154807401661,0.9823285454229789,0.28365395,0.748362540435336
0.0695,1.67924375,1.0,2626.790979021668,0.5424573841102056,1.2801528015633425,0.9824570400533074,0.28358123749999997,0.7497270656129158
0.07,1.6775,1.0,2624.7331356892255,0.5450238236073645,1.279384372499408,0.9825826550523711,0.283508,0.7510981262854337
0.07050000000000001,1.67574375,1.0,2622.687687809529,0.5475758694825382,1.2786101908101122,0.982705462671583,0.2834342375,0.752475642783013
0.07100000000000001,1.673975,1.0,2620.6549170100748,0.550113605371251,1.2778302537572048,0.9828255327458503,0.28335995,0.7538595347487473
0.07150000000000001,1.67219375,1.0,2618.6339803576475,0.5526370644959561,1.277044569034895,0.9829429302187218,0.2832851375,0.7552497027049403
0.07200000000000001,1.6704,1.0,2616.6255477707828,0.5551463761480326,1.276253130305237,0.9830577230325465,0.2832098,0.7566460714175951
0.0725,1.66859375,1.0,2614.6297634897196,0.557641633906659,1.2754559361033055,0.9831699749758024,0.2831339375,0.7580485563311596
0.073,1.6667750000000001,1.0,2612.646406873657,0.5601229120343255,1.2746529883526756,0.9832797467730631,0.28305755,0.7594570662912788
0.0735,1.66494375,1.0,2610.6752576750914,0.5625902847935226,1.273844288976922,0.9833870971881369,0.2829806375,0.7608715095495028
0.074,1.6631,1.0,2608.716096035299,0.5650438264467407,1.2730298398996192,0.9834920830986792,0.2829032,0.7622917937639935
0.0745,1.6612437500000001,1.0,2606.768702479743,0.5674836112564703,1.2722096430443424,0.9835947595674915,0.2828252375,0.7637178260002286
0.075,1.659375,1.0,2604.832857913941,0.5699097134852016,1.2713837003346664,0.9836951799106716,0.28274675,0.7651495127317092
0.0755,1.65749375,1.0,2602.9083436189076,0.5723222073954252,1.2705520136941657,0.9837933957627746,0.2826677375,0.7665867598406632
