Time [s],Phi [rad],STIM [ ],Fsee [N],Gamma [ ],Lcerel [ ],q [ ],Lmtc [m],fisomrel [ ]
0.0,1.8,1.0,17.968386301429497,3.0906488851009205e-05,1.3793396086300087,0.005000252323733876,0.288653,0.5411398639171934
0.0005,1.79999375,1.0,18.284665894927397,0.005639942436691714,1.379301507932734,0.012998655601180034,0.2886527375,0.5412320346937314
0.001,1.799975,1.0,21.641816567352507,0.011217516127683853,1.3789359092207238,0.03571759800933175,0.28865195,0.5421159971398704
0.0015,1.79994375,1.0,31.12568685569675,0.016763804041093226,1.3780413964928964,0.07075089071012779,0.2886506375,0.5442751994186885
0.002,1.7999,1.0,53.70468508284891,0.022278981664499493,1.3763602021940347,0.11489449200401247,0.2886488,0.5483195095805655
0.0025,1.79984375,1.0,97.32500618883019,0.02776322350150762,1.3739252425701323,0.16476684738803565,0.28864643749999996,0.5541451306405223
0.003,1.7997750000000001,1.0,161.22676123158845,0.033216703079270216,1.371204294202585,0.21747847954630037,0.28864354999999997,0.5606102422371195
0.0035,1.79969375,1.0,237.9870593703181,0.038639592948232014,1.368575381599522,0.2708098459576687,0.2886401375,0.5668118242307612
0.004,1.7996,1.0,321.79006323499704,0.04403206469287216,1.3661475317804255,0.32310651035510973,0.2886362,0.5724999520762192
0.0045000000000000005,1.7994937500000001,1.0,409.60264513282806,0.04939428893690019,1.3639149545273441,0.37321554062323475,0.2886317375,0.5776974039265341
0.005,1.799375,1.0,499.7552783248187,0.054726435334393274,1.3618510809164857,0.42041683157644477,0.28862675,0.5824738368608768
0.0055,1.79924375,1.0,591.1353325024264,0.060028672616419414,1.3599320972114892,0.4643305095268152,0.2886212375,0.586890578434117
0.006,1.7991000000000001,1.0,682.8635274468076,0.06530116853633869,1.358140136741454,0.5048240707187259,0.2886152,0.5909937578278464
0.006500000000000001,1.79894375,1.0,774.2153851205259,0.07054408978278288,1.3564615504612567,0.5419326251560816,0.2886086375,0.5948187597026688
0.007,1.798775,1.0,864.6359954425212,0.07575760275219183,1.354884738971667,0.5757967509043763,0.28860155,0.5983954784598591
0.0075,1.79859375,1.0,953.5883316832944,0.08094187180478071,1.3534014714265796,0.6066190218093069,0.2885939375,0.6017455356936494
0.008,1.7984,1.0,1040.6886247287534,0.0860970611035211,1.3520037856401508,0.6346312631097482,0.2885858,0.6048894607621262
0.0085,1.79819375,1.0,1125.642824572662,0.09122333402356393,1.3506845901118192,0.6600745058371364,0.2885771375,0.6078454026087544
0.009000000000000001,1.797975,1.0,1208.1980528376548,0.09632085253993264,1.3494379652311745,0.6831862126366184,0.28856795,0.6106285346144658
0.0095,1.79774375,1.0,1288.1780871082094,0.10138977794303088,1.3482583410380604,0.7041920953189234,0.2885582375,0.6132529588565625
0.01,1.7975,1.0,1365.4595640353439,0.10643027093545822,1.3471406258751064,0.72330206221552,0.288548,0.6157314600352022
0.0105,1.79724375,1.0,1439.943652742265,0.11144249052207265,1.346080390163173,0.7407084968363791,0.2885372375,0.6180751388536541
0.011,1.796975,1.0,1511.577480926828,0.11642659501991678,1.345073435581076,0.7565856986396426,0.28852595000000003,0.6202944006896459
0.0115,1.79669375,1.0,1580.3727928385133,0.1213827434876345,1.344115475273734,0.7710903147415215,0.2885141375,0.6223996800928957
0.012,1.7964,1.0,1646.3196508892343,0.12631109211554706,1.343203090923457,0.7843628538756676,0.28850180000000003,0.6243993570809483
0.0125,1.79609375,1.0,1709.4245084523732,0.1312117961099878,1.3423331570998287,0.7965287107117007,0.2884889375,0.6263010508611735
0.013000000000000001,1.7957750000000001,1.0,1769.7301726267651,0.13608501067728995,1.3415025483724339,0.8076994532069752,0.28847555,0.6281122750482573
0.0135,1.79544375,1.0,1827.2926164661599,0.1409308902250898,1.340708361086201,0.8179743235868366,0.2884616375,0.6298399639220502
0.014,1.7951000000000001,1.0,1882.1938356896858,0.1457495890369291,1.3399477234077417,0.827441498102216,0.2884472,0.6314908971616504
0.0145,1.79474375,1.0,1934.4891982454826,0.15054125874132984,1.3392183333913348,0.8361795197397998,0.2884322375,0.6330705430204249
0.015,1.794375,1.0,1984.2447439585299,0.15530605050691437,1.338517999703622,0.8442582395255804,0.28841675,0.6345840684842428
0.0155,1.79399375,1.0,2031.5432609379777,0.16004411527415313,1.3378445519053888,0.851739802391184,0.2884007375,0.6360365393745124
0.016,1.7936,1.0,2076.474585108155,0.16475560338046114,1.3371959233913124,0.858679582752751,0.2883842,0.6374327463274241
0.0165,1.7931937500000001,1.0,2119.1238590493867,0.1694406646005693,1.3365702516460294,0.8651270156281854,0.2883671375,0.6387769952389301
0.017,1.792775,1.0,2159.562715942429,0.17409944607345704,1.3359659449437191,0.871126313496776,0.28834955,0.6400729714224296
0.0175,1.7923437500000001,1.0,2197.8736988388596,0.17873209493810369,1.3353814115585616,0.8767170055572648,0.2883314375,0.6413243264699833
0.018000000000000002,1.7919,1.0,2234.144516607926,0.18333875773252564,1.3348151081799222,0.8819345010061993,0.2883128,0.6425345769593973
0.0185,1.79144375,1.0,2268.4617754116066,0.18791958066817932,1.3342655919104736,0.8868105834627317,0.2882936375,0.6437069963799131
0.019,1.790975,1.0,2300.9190295392236,0.19247471071387762,1.3337314291812237,0.8913738072993715,0.28827395,0.6448448124255672
0.0195,1.79049375,1.0,2331.581115378021,0.19700429026180594,1.3332115393769044,0.8956499470050201,0.2882537375,0.6459504783994696
0.02,1.79,1.0,2360.5185056921237,0.2015084617041496,1.332704841882248,0.8996622292101704,0.288233,0.6470264291712639
0.0205,1.78949375,1.0,2387.8068453528113,0.20598736743309404,1.3322102560819868,0.9034316188163232,0.2882117375,0.6480750821235355
0.021,1.788975,1.0,2413.5265129594195,0.21044114984082457,1.3317267013608527,0.9069770700312385,0.28818995000000003,0.6490988380237489
0.021500000000000002,1.78844375,1.0,2437.7455787707563,0.21486994893732583,1.3312532570496958,0.9103157793157027,0.2881676375,0.6500997439220924
0.022,1.7879,1.0,2460.5499041753246,0.21927390813117092,1.3307888668508299,0.9134633170599225,0.2881448,0.6510801197944641
0.0225,1.78734375,1.0,2481.9979558651457,0.223653165608246,1.3303327695126272,0.9164338831840989,0.28812143749999997,0.6520416498281807
0.023,1.786775,1.0,2502.144876275156,0.22800785855451447,1.329884261200789,0.9192404058479254,0.28809755,0.6529858871556429
0.0235,1.78619375,1.0,2521.0482115089803,0.23233812415593977,1.3294426380810167,0.9218946632295066,0.28807313749999996,0.6539143756831003
0.024,1.7856,1.0,2538.767710310472,0.2366440995984853,1.3290071963190118,0.9244074017028007,0.2880482,0.6548286504155079
0.0245,1.78499375,1.0,2555.3649090787967,0.24092592200388022,1.3285772341936064,0.926788440788589,0.2880227375,0.6557302333216835
0.025,1.784375,1.0,2570.8916471652524,0.24518372504640665,1.3281521579511943,0.9290467823954431,0.28799675,0.6566204120917551
0.025500000000000002,1.78374375,1.0,2585.41788327935,0.24941764830146013,1.3277312189309927,0.9311906514152888,0.2879702375,0.6575007912563959
0.026000000000000002,1.7831000000000001,1.0,2598.98509056519,0.2536278235768636,1.3273139484618472,0.9332276366717938,0.2879432,0.6583723824691174
0.0265,1.78244375,1.0,2611.635864969404,0.2578143826804398,1.3268998778726033,0.9351647096332423,0.2879156375,0.659236192113766
0.027,1.781775,1.0,2623.4138308961446,0.26197745742001183,1.3264885384921066,0.9370082829136517,0.28788755,0.6600932214071692
0.0275,1.7810937500000001,1.0,2634.3635517317293,0.2661171796034024,1.3260794616492024,0.9387642625183689,0.2878589375,0.6609444664877753
0.028,1.7804,1.0,2644.53044523966,0.27023368103843454,1.3256721786727368,0.9404380945705271,0.2878298,0.6617909184902838
0.0285,1.77969375,1.0,2653.947855265406,0.2743270886784587,1.325266339330662,0.942034822289935,0.2878001375,0.662633317915914
0.029,1.778975,1.0,2662.669532630197,0.2783975386533337,1.3248614112490316,0.9435590849445563,0.28776995,0.6634727789581875
0.029500000000000002,1.7782437500000001,1.0,2670.732598375778,0.2824451601061222,1.3244570211266526,0.9450151949526725,0.2877392375,0.6643100811276113
0.03,1.7775,1.0,2678.166111803828,0.2864700787284803,1.3240528743222035,0.9464071565359066,0.287708,0.6651458375112187
0.0305,1.77674375,1.0,2684.999549102164,0.2904724202120644,1.3236486761943629,0.9477386830201292,0.2876762375,0.6659806581557285
0.031,1.775975,1.0,2691.262765840068,0.2944523102485305,1.323244132101809,0.9490132216281203,0.28764395,0.6668151500693504
0.0315,1.7751937500000001,1.0,2696.9859613876756,0.29840987452953516,1.3228389474032205,0.950233975868169,0.2876111375,0.6676499172180506
0.032,1.7744,1.0,2702.1996452608755,0.30234523874673436,1.3224328274572756,0.9514039257777126,0.2875778,0.6684855605162843
0.0325,1.77359375,1.0,2706.9346053907957,0.30625852859178443,1.3220254776226532,0.952525846250632,0.2875439375,0.6693226778121878
0.033,1.772775,1.0,2711.2110750935417,0.3101498656751477,1.3216167017858054,0.9536023340138742,0.28750955,0.6701616617742996
0.0335,1.7719437500000002,1.0,2715.0601828962385,0.3140193768323172,1.321206206268541,0.9546358017936065,0.2874746375,0.6710031028525877
0.034,1.7711000000000001,1.0,2718.5142226484104,0.3178671873811545,1.3207936885932219,0.9556285011649734,0.2874392,0.671847606373581
0.0345,1.7702437500000001,1.0,2721.591192518262,0.32169341653017874,1.3203789780223143,0.9565825494438481,0.2874032375,0.6726955052339842
0.035,1.7693750000000001,1.0,2724.3092150488883,0.32549818348790904,1.3199619038182842,0.9574999271680706,0.28736675,0.6735471304367956
0.035500000000000004,1.76849375,1.0,2726.686524412655,0.32928160746286456,1.3195422952435971,0.9583824885172901,0.2873297375,0.6744028110664981
0.036000000000000004,1.7676,1.0,2728.7414543120467,0.3330438076635644,1.3191199815607197,0.9592319708244571,0.2872922,0.6752628742623913
0.0365,1.76669375,1.0,2730.492426527365,0.3367849032985276,1.3186947920321177,0.9600500032675323,0.2872541375,0.6761276451900677
0.037,1.765775,1.0,2731.957940109571,0.3405050135762735,1.318266555920257,0.9608381148204859,0.28721555,0.6769974470110264
0.0375,1.76484375,1.0,2733.156561220974,0.3442042577053211,1.3178351024876036,0.9615977415342744,0.2871764375,0.677872600850429
0.038,1.7639,1.0,2734.0988777997777,0.34788274802108204,1.317400333977689,0.9623302387976822,0.28713679999999997,0.678753278032052
0.0385,1.76294375,1.0,2734.815434598812,0.3515406097780712,1.3169619718148637,0.9630368670762265,0.28709663750000003,0.6796400141046988
0.039,1.761975,1.0,2735.3166310896427,0.3551779567763006,1.3165199207660665,0.9637188276830203,0.28705595,0.6805329711678667
0.0395,1.7609937500000001,1.0,2735.6116312010868,0.35879490197920477,1.3160740970900033,0.9643772531123967,0.2870147375,0.6814322868263366
0.04,1.76,1.0,2735.7096248845405,0.36239155835021836,1.315624417045379,0.9650132108853489,0.286973,0.6823380974641731
0.0405,1.7589937500000001,1.0,2735.619824715235,0.365968038852776,1.3151707968908994,0.9656277079628277,0.2869307375,0.6832505382243477
0.041,1.757975,1.0,2735.351462648648,0.36952445645031234,1.31471315288527,0.9662216948145488,0.28688795,0.684169742987923
0.0415,1.75694375,1.0,2734.913786932523,0.373060924106262,1.314251401287196,0.9667960691735212,0.2868446375,0.6850958443527861
0.042,1.7559013669211354,1.0,2734.384034215343,0.37657755478405963,1.3137854583553832,0.9673516795035825,0.28680085741068767,0.6860289736119327
0.0425,1.7548572126912627,1.0,2734.249186814295,0.3800744560143124,1.3133151294640877,0.9678893181593808,0.286757002933033,0.6869694822987946
0.043000000000000003,1.75381305846139,1.0,2734.5482368018734,0.38355174017467814,1.31284086012552,0.9684097878872296,0.2867131484553784,0.6879164420788421
0.043500000000000004,1.7527689042315173,1.0,2735.2097049373965,0.3870095272475779,1.3123633000225556,0.9689138659879319,0.2866692939777237,0.6888685229560552
0.044,1.7517247500016448,1.0,2736.2121434789633,0.39044792339790857,1.3118826450609984,0.9694022505354057,0.2866254395000691,0.6898253051969239
0.0445,1.7506805957717722,1.0,2737.534155354086,0.3938670347905671,1.311399091146651,0.9698756032028192,0.28658158502241443,0.6907863712788256
0.045,1.7496364415418995,1.0,2739.1543811424185,0.3972669675904504,1.310912834185317,0.9703345515230675,0.2865377305447598,0.6917513059274669
0.0455,1.7485922873120268,1.0,2741.0514869094736,0.4006478279624553,1.3104240700827994,0.9707796909878547,0.28649387606710514,0.6927196961518791
0.046,1.7475481330821543,1.0,2743.2041528914215,0.40400972207147867,1.3099329947449014,0.9712115869983439,0.2864500215894505,0.6936911312769671
0.0465,1.7465039788522816,1.0,2745.591063030716,0.4073527560824175,1.3094398040774262,0.9716307766791884,0.28640616711179584,0.69466520297361
0.047,1.745459824622409,1.0,2748.1908953624784,0.4106770361601687,1.3089446939861773,0.9720377705667131,0.28636231263414114,0.6956415052863114
0.0475,1.7444156703925362,1.0,2750.9823132524257,0.41398266846962906,1.3084478603769574,0.9724330541810736,0.2863184581564865,0.6966196346584088
0.048,1.7433715161626637,1.0,2753.943957484474,0.41726975917569553,1.3079494991555702,0.9728170894913751,0.28627460367883184,0.6975991899548261
0.0485,1.742327361932791,1.0,2757.0572296488995,0.4205384127028958,1.3074497809907717,0.973190314309846,0.2862307492011772,0.6985798219666024
0.049,1.7412832077029183,1.0,2760.3106239334334,0.4237887323030311,1.306948812178302,0.9735531410808655,0.28618689472352254,0.6995613096375304
0.0495,1.7402390534730456,1.0,2763.689618574273,0.4270208229808907,1.3064467261066999,0.9739059649118733,0.2861430402458679,0.7005433802885372
0.05,1.7391948992431732,1.0,2767.1849996189994,0.43023478515613367,1.3059436080033364,0.9742491587481985,0.28609918576821325,0.7015258568938164
0.0505,1.7381507450133005,1.0,2770.7875367477695,0.433430719248419,1.3054395430955827,0.9745830783604469,0.2860553312905586,0.7025085634998778
0.051000000000000004,1.7371065907834278,1.0,2774.487981403625,0.43660872567740583,1.3049346166108098,0.9749080632908894,0.28601147681290395,0.7034913252309262
0.051500000000000004,1.736062436553555,1.0,2778.277065083853,0.4397689048627531,1.304428913776389,0.9752244377396482,0.2859676223352493,0.7044739682937754
0.052000000000000005,1.7350182823236824,1.0,2782.1454977925196,0.44291135722411995,1.3039225198196913,0.9755325113950014,0.28592376785759466,0.7054563199823003
0.0525,1.73397412809381,1.0,2786.0839666540905,0.44603618318116534,1.3034155199680877,0.9758325802117914,0.28587991337994,0.7064382086814254
0.053,1.7329299738639372,1.0,2790.0911265975947,0.44914347142987066,1.30290792759857,0.9761249214483256,0.28583605890228536,0.7074196026720009
0.0535,1.7318858196340645,1.0,2794.150119292581,0.4522333371573693,1.302399895439626,0.9764098116181019,0.2857922044246307,0.7084002016521149
0.054,1.730841665404192,1.0,2798.255821867796,0.4553058771227763,1.3018914704385185,0.9766875069677801,0.28574834994697607,0.7093799109581286
0.0545,1.7297975111743193,1.0,2802.4045579425424,0.45836118579494095,1.301382686438878,0.9769582517898933,0.2857044954693214,0.7103586617183831
0.055,1.7287533569444467,1.0,2806.5926408751748,0.46139935764271245,1.300873577284335,0.9772222800475597,0.28566064099166677,0.7113363854978549
0.0555,1.727709202714574,1.0,2810.816373506485,0.4644204871349401,1.30036417681852,0.9774798158982455,0.2856167865140121,0.7123130142988932
0.056,1.7266650484847013,1.0,2815.0720479283127,0.4674246687404732,1.2998545188850639,0.9777310741867908,0.2855729320363575,0.7132884805618842
0.0565,1.7256208942548288,1.0,2819.355945277823,0.470411996928161,1.299344637327597,0.9779762609097484,0.2855290775587028,0.7142627171658464
0.057,1.724576740024956,1.0,2823.664335556808,0.4733825661668527,1.2988345659897502,0.978215573652916,0.2854852230810482,0.7152356574289465
0.0575,1.7235325857950834,1.0,2827.993477476751,0.47633647092539766,1.298324338715154,0.978449202003823,0.28544136860339353,0.7162072351089481
0.058,1.7224884315652107,1.0,2832.3396183289524,0.4792738056726451,1.297813989347439,0.9786773279407928,0.2853975141257388,0.7171773844035827
0.0585,1.7214442773353382,1.0,2836.6989938806214,0.4821946648774443,1.2973035517302356,0.9789001262000846,0.28535365964808423,0.7181460399508519
0.059000000000000004,1.7204001231054655,1.0,2841.070280926498,0.48509913198681304,1.2967930378558001,0.9791177624966171,0.28530980517042953,0.7191131781898138
0.059500000000000004,1.7193559688755928,1.0,2845.4511793910656,0.48798730116472383,1.296282468376471,0.97933039743886,0.2852659506927749,0.7200787593518667
0.06,1.7183118146457201,1.0,2849.8360455949064,0.49085928223549086,1.2957718936247575,0.9795381882748875,0.28522209621512024,0.7210426879516108
0.0605,1.7172676604158477,1.0,2854.2238879647753,0.49371516231463974,1.2952613224267224,0.9797412821368815,0.2851782417374656,0.7220049473176756
0.061,1.716223506185975,1.0,2858.6137118735064,0.4965550285176959,1.2947507636084294,0.9799398205528064,0.28513438725981094,0.7229655208936472
0.0615,1.7151793519561023,1.0,2863.004519641577,0.49937896796018477,1.2942402259959416,0.9801339397030651,0.2850905327821563,0.7239243922380652
0.062,1.7141351977262296,1.0,2867.3953105401565,0.5021870677576318,1.293729718415322,0.9803237706635218,0.28504667830450164,0.7248815450244122
0.0625,1.713091043496357,1.0,2871.7850807964874,0.5049794150255627,1.293219249692634,0.9805094396357149,0.285002823826847,0.7258369630410993
0.063,1.7120468892664844,1.0,2876.172823600326,0.5077560968795026,1.2927088286539405,0.9806910681650215,0.28495896934919235,0.726790630191448
0.0635,1.7110027350366117,1.0,2880.557529112442,0.5105172004349772,1.2921984641253053,0.9808687733474963,0.2849151148715377,0.7277425304936629
0.064,1.709958580806739,1.0,2884.938184474949,0.513262812807512,1.2916881649327914,0.9810426680260457,0.28487126039388305,0.7286926480808058
0.0645,1.7089144265768665,1.0,2889.3137738232253,0.5159930211126322,1.2911779399024617,0.9812128609765657,0.2848274059162284,0.7296409672007603
0.065,1.7078702723469938,1.0,2893.683278299395,0.5187079124658637,1.2906677978603796,0.9813794570846247,0.28478355143857376,0.7305874722161911
0.0655,1.7068261181171211,1.0,2898.0456760678044,0.5214075739827317,1.2901577476326085,0.9815425575132368,0.28473969696091905,0.7315321476045009
0.066,1.7057819638872485,1.0,2902.399942332262,0.5240920927787618,1.2896477980452112,0.9817022598622365,0.2846958424832644,0.7324749779577824
0.0665,1.704737809657376,1.0,2906.7450493545634,0.5267615559694794,1.2891379579242515,0.9818586583197312,0.28465198800560976,0.7334159479827609
0.067,1.7036936554275033,1.0,2911.081735852278,0.5294160195623762,1.2886282205224935,0.9820118409953791,0.2846081335279551,0.734355071167152
0.0675,1.7026495011976306,1.0,2915.4084972258916,0.5320555967675898,1.2881185988434949,0.9821618976869361,0.28456427905030046,0.7352923246188179
0.068,1.701605346967758,1.0,2919.724337944655,0.5346803845281021,1.28760910137899,0.9823089138269441,0.2845204245726458,0.7362276938902099
0.0685,1.7005611927378852,1.0,2924.029142369574,0.5372904616790432,1.287099728869214,0.9824529704195335,0.28447657009499117,0.7371611788368104
0.069,1.6995170385080127,1.0,2928.322794716824,0.5398859070555435,1.2865904820544019,0.9825941457486896,0.2844327156173365,0.7380927793234233
0.0695,1.69847288427814,1.0,2932.6051790598713,0.5424667994927335,1.2860813616747884,0.9827325154884802,0.28438886113968187,0.7390224952241675
0.07,1.6974287300482673,1.0,2936.876179331446,0.5450332178257432,1.2855723684706086,0.9828681528080928,0.2843450066620272,0.7399503264224712
0.07050000000000001,1.6963845758183946,1.0,2941.135679325584,0.5475852408897033,1.2850635031820978,0.9830011284719604,0.2843011521843726,0.7408762728110654
0.07100000000000001,1.6953404215885222,1.0,2945.383562699892,0.550122947519744,1.2845547665494907,0.9831315109352341,0.2842572977067179,0.7418003342919797
0.07150000000000001,1.6942962673586495,1.0,2949.6197129775196,0.5526464165509956,1.2840461593130224,0.9832593664348523,0.2842134432290633,0.7427225107765343
0.07200000000000001,1.6932521131287768,1.0,2953.8440135492365,0.5551557268185884,1.283537682212928,0.983384759076434,0.28416958875140863,0.7436428021853336
