Time [s],Phi [rad],STIM [ ],Fsee [N],Gamma [ ],Lcerel [ ],q [ ],Lmtc [m],fisomrel [ ]
0.0,1.8,1.0,19.87260368537405,0.0014107313745105104,1.3791316508102753,0.0055095663508355755,0.288653,0.541642829572307
0.0005,1.79999375,1.0,20.57474413485864,0.00701202759587237,1.3790546805260557,0.01728138779205093,0.2886527375,0.5418289195513069
0.001,1.799975,1.0,24.966179552706674,0.01258190497452372,1.3786086760612102,0.04327495185133443,0.28865195,0.5429064745254388
0.0015,1.79994375,1.0,36.862918641911875,0.01812053974473876,1.3775736890186707,0.08085219852857238,0.2886506375,0.545402134441429
0.002,1.7999,1.0,64.09712416879952,0.023628107153576394,1.3757165257435364,0.126701720891167,0.2886488,0.5498631769234903
0.0025,1.79984375,1.0,113.15001589042475,0.029104781463676677,1.3731921587733595,0.17751317198311575,0.28864643749999996,0.5558916219071417
0.003,1.7997750000000001,1.0,180.8054937069218,0.034550735961600916,1.3704930290752264,0.2305631556591272,0.28864354999999997,0.5622924598426768
0.0035,1.79969375,1.0,259.56955478786,0.03996614296035285,1.3679254240427745,0.28377793698476256,0.2886401375,0.5683382727772468
0.004,1.7996,1.0,344.4401962853608,0.0453511738064065,1.3655581133254178,0.3356304076579909,0.2886362,0.5738752097639064
0.0045000000000000005,1.7994937500000001,1.0,432.8484431118332,0.050705998880651894,1.3633770368311244,0.3850813010475363,0.2886317375,0.578944926989259
0.005,1.799375,1.0,523.3197801602809,0.056030787647222594,1.3613562740744554,0.4315028319516904,0.28862675,0.5836149336321018
0.0055,1.79924375,1.0,614.7938635329739,0.061325708540191426,1.3594745350068596,0.4745843681743116,0.2886212375,0.5879402381428639
0.006,1.7991000000000001,1.0,706.4409489990235,0.06659092909174617,1.3577153063248628,0.5142411513689062,0.2886152,0.5919635191993291
0.006500000000000001,1.79894375,1.0,797.5830303755924,0.07182661597333381,1.3560657002298557,0.5505391868861844,0.2886086375,0.5957181668361687
0.007,1.798775,1.0,887.6338129648185,0.07703293467092354,1.3545157631892804,0.5836382595980998,0.28860155,0.5992301455686291
0.0075,1.79859375,1.0,976.1513318243018,0.08221005022689482,1.3530565205267324,0.6137499901659571,0.2885939375,0.6025226189845567
0.008,1.7984,1.0,1062.7457078422208,0.08735812615079903,1.3516807935059705,0.6411103759653882,0.2885858,0.6056142202774584
0.0085,1.79819375,1.0,1147.116961034354,0.0924773253118173,1.3503820756348321,0.6659607122119137,0.2885771375,0.608521687097662
0.009000000000000001,1.797975,1.0,1229.05855241999,0.09756781009645796,1.3491541861162488,0.6885359333485459,0.28856795,0.6112606961654972
0.0095,1.79774375,1.0,1308.389564863376,0.10262974115085272,1.3479919596289283,0.7090583206183966,0.2885582375,0.6138443751072015
0.01,1.7975,1.0,1384.9881694893463,0.10766327854669651,1.3468905483598166,0.7277336277193311,0.288548,0.6162849089879647
0.0105,1.79724375,1.0,1458.7912886413792,0.11266858210287192,1.3458452876337499,0.7447496491645097,0.2885372375,0.6185938680533445
0.011,1.796975,1.0,1529.749496488284,0.11764580993784567,1.3448521384126972,0.7602763783142689,0.28852595000000003,0.6207812583934628
0.0115,1.79669375,1.0,1597.8426387000245,0.12259511917134001,1.343907361212984,0.774466549324586,0.2885141375,0.6228562720137825
0.012,1.7964,1.0,1663.0805440324261,0.12751666629433694,1.3430074200058648,0.7874567438883104,0.28850180000000003,0.6248275185616079
0.0125,1.79609375,1.0,1725.5153636965354,0.13241060824105788,1.3421487731451807,0.7993686632945401,0.2884889375,0.6267034981991317
0.013000000000000001,1.7957750000000001,1.0,1785.1762937777,0.1372770991878097,1.341328564597925,0.8103108294256097,0.28847555,0.6284911064716843
0.0135,1.79544375,1.0,1842.1036822619753,0.1421162924893181,1.3405441538610272,0.8203797546298688,0.2884616375,0.6301966813490977
0.014,1.7951000000000001,1.0,1896.3646676468957,0.1469283415003088,1.3397929004314173,0.8296611729988054,0.2884472,0.6318264821951688
0.0145,1.79474375,1.0,1948.033410471959,0.1517133984805349,1.3390723512297498,0.8382313267605891,0.2884322375,0.633386290279111
0.015,1.794375,1.0,1997.2047281576083,0.15647161606155313,1.3383800607844056,0.84615800234876,0.28841675,0.6348818063250701
0.0155,1.79399375,1.0,2043.940884335109,0.16120314371288325,1.3377141296476753,0.8535016933983782,0.2884007375,0.6363174956515087
0.016,1.7936,1.0,2088.316631029913,0.16590813071860713,1.3370726887122864,0.8603162932688331,0.2883842,0.6376977121309634
0.0165,1.7931937500000001,1.0,2130.4194411651415,0.17058672623159746,1.3364538818569462,0.8666498719858523,0.2883671375,0.6390267391052042
0.017,1.792775,1.0,2170.336850433868,0.17523907818650533,1.3358559820416203,0.8725453984540096,0.28834955,0.6403085437718714
0.0175,1.7923437500000001,1.0,2208.168816633126,0.1798653355269565,1.3352772494769007,0.8780413034619098,0.2883314375,0.6415470854056252
0.018000000000000002,1.7919,1.0,2243.9826986102257,0.18446564318993422,1.3347163736013026,0.8831721263463375,0.2883128,0.6427453738622233
0.0185,1.79144375,1.0,2277.853859162834,0.18904014611242184,1.3341720438533407,0.8879688545722358,0.2882936375,0.6439063938357175
0.019,1.790975,1.0,2309.8650011830127,0.1935889892314027,1.3336429496715296,0.8924593342160281,0.28827395,0.6450331062961772
0.0195,1.79049375,1.0,2340.0949870697004,0.19811231611118413,1.333127884108922,0.8966686533869171,0.2882537375,0.6461282296846704
0.02,1.79,1.0,2368.6355687751775,0.20261027196974057,1.3326255717239828,0.9006194156075803,0.288233,0.6471946078931556
0.0205,1.78949375,1.0,2395.55974980507,0.20708299900488805,1.3321349725273095,0.9043320837574164,0.2882117375,0.6482345664039648
0.021,1.788975,1.0,2420.9297155431686,0.2115306373368263,1.3316551943999346,0.9078251960492286,0.28818995000000003,0.6492501021286403
0.021500000000000002,1.78844375,1.0,2444.811464120352,0.21595332708575507,1.3311853452228908,0.9111155451474696,0.2881676375,0.6502431986913095
0.022,1.7879,1.0,2467.274489541725,0.22035120837187405,1.3307245328772106,0.9142183666143008,0.2881448,0.651215827018976
0.0225,1.78734375,1.0,2488.3873475596442,0.22472442055719966,1.3302719046073805,0.9171475121990467,0.28812143749999997,0.6521698629687925
0.023,1.786775,1.0,2508.215434720977,0.22907310232230807,1.3298266646307801,0.9199155985507411,0.28809755,0.6531070513346138
0.0235,1.78619375,1.0,2526.8327855086986,0.23339739371509144,1.3293879592432971,0.9225341146327689,0.28807313749999996,0.6540292484232655
0.024,1.7856,1.0,2544.2884287079537,0.23769742968209914,1.3289551924588385,0.9250135913895373,0.2880482,0.6549377594208179
0.0245,1.78499375,1.0,2560.633187138673,0.24197334516988056,1.3285277682913121,0.9273636540925151,0.2880227375,0.6558338822115113
0.025,1.784375,1.0,2575.919528526488,0.24622527512498502,1.3281050907546252,0.9295931126380632,0.28799675,0.6567189075921529
0.025500000000000002,1.78374375,1.0,2590.201424248997,0.2504533544939619,1.3276865638626851,0.9317100417438708,0.2879702375,0.6575941194638597
0.026000000000000002,1.7831000000000001,1.0,2603.528840018335,0.25465771694658745,1.327271641662829,0.9337218598143512,0.2879432,0.6584606905718013
0.0265,1.78244375,1.0,2615.95101447858,0.2588384962641475,1.3268597960343838,0.935635387061056,0.2879156375,0.6593197504348247
0.027,1.781775,1.0,2627.5252493198072,0.2629958274870938,1.3264504340509187,0.9374568896256547,0.28788755,0.660172557742241
0.0275,1.7810937500000001,1.0,2638.2879408930007,0.26712984010023316,1.326043165551089,0.9391921688604545,0.2878589375,0.6610199432315855
0.028,1.7804,1.0,2648.2762422676496,0.271240663588372,1.3256376003735502,0.9408465757775831,0.2878298,0.661862733491569
0.0285,1.77969375,1.0,2657.5279979766633,0.2753284274363171,1.3252333483569574,0.9424250519048374,0.2878001375,0.6627017510093176
0.029,1.778975,1.0,2666.081682135945,0.27939326112887497,1.3248300193399662,0.9439321659429077,0.28776995,0.6635378142078991
0.029500000000000002,1.7782437500000001,1.0,2673.976339939297,0.2834352941508524,1.3244272231612315,0.9453721467011704,0.2877392375,0.664371737474147
0.03,1.7775,1.0,2681.245270475861,0.28745465326706016,1.3240246270889755,0.9467489194211564,0.287708,0.6652042124995229
0.0305,1.77674375,1.0,2687.928617096846,0.29145146904485925,1.3236218396663375,0.9480661188627538,0.2876762375,0.6660360487594877
0.031,1.775975,1.0,2694.0566978510615,0.29542586768256757,1.323218563175681,0.9493271307914607,0.28764395,0.6668678584778327
0.0315,1.7751937500000001,1.0,2699.65544340544,0.29937797323027726,1.3228145430327973,0.9505351070688639,0.2876111375,0.6677001620106067
0.032,1.7744,1.0,2704.751065497922,0.30330790973808053,1.3224095246534777,0.9516929803478721,0.2875778,0.6685334770813729
0.0325,1.77359375,1.0,2709.3700299893426,0.30721580125606957,1.3220032534535133,0.9528034819974268,0.2875439375,0.6693683187670678
0.033,1.772775,1.0,2713.5390313521284,0.3111017718343365,1.321595474848695,0.9538691583555413,0.28750955,0.6702051994797268
0.0335,1.7719437500000002,1.0,2717.2847722978927,0.31496594528745275,1.3211859360431,0.9548923856239493,0.2874746375,0.6710446252809876
0.034,1.7711000000000001,1.0,2720.62850596254,0.3188084367682026,1.3207744355077504,0.9558753865680921,0.2874392,0.6718869946577937
0.0345,1.7702437500000001,1.0,2723.6051676860293,0.32262938207609415,1.3203606485601422,0.9568202309207358,0.2874032375,0.6727329555297354
0.035,1.7693750000000001,1.0,2726.2314170220075,0.32642889889112087,1.3199444181751496,0.9577288685929497,0.28736675,0.6735828101995057
0.035500000000000004,1.76849375,1.0,2728.524017263913,0.33020710489327626,1.3195255873276468,0.9586031254711769,0.2873297375,0.6744368591929923
0.036000000000000004,1.7676,1.0,2730.4998245714,0.3339641177625537,1.3191039989925082,0.9594447127252412,0.2872922,0.6752954012340222
0.0365,1.76669375,1.0,2732.1757776438394,0.3377000551789466,1.3186794961446078,0.9602552353164812,0.2872541375,0.6761587332175348
0.037,1.765775,1.0,2733.568887939876,0.34141503482244856,1.31825192175882,0.9610361997829455,0.28721555,0.6770271501811795
0.0375,1.76484375,1.0,2734.696230444549,0.3451091743730529,1.3178211188100186,0.9617890213704385,0.2871764375,0.6779009452753445
0.038,1.7639,1.0,2735.5749349820503,0.34878259151075314,1.3173869302730785,0.962515030570997,0.28713679999999997,0.6787804097316071
0.0385,1.76294375,1.0,2736.2221780763693,0.3524354039155427,1.3169491991228732,0.9632154791240025,0.28709663750000003,0.6796658328296215
0.039,1.761975,1.0,2736.648635279882,0.3560677202016386,1.316507827703379,0.9638915492452279,0.28705595,0.6805573820232402
0.0395,1.7609937500000001,1.0,2736.870746687463,0.3596796617434725,1.316062666312842,0.9645443524922692,0.2870147375,0.681455328326585
0.04,1.76,1.0,2736.906614690756,0.3632713521969301,1.3156135504040436,0.9651749359023312,0.286973,0.6823599706675837
0.0405,1.7589937500000001,1.0,2736.7653278299745,0.3668429016048106,1.3151603974420119,0.9657842920024498,0.2869307375,0.6832714409572485
0.041,1.757975,1.0,2736.455991510974,0.37039442000991335,1.3147031248917742,0.9663733578141285,0.28688795,0.6841898698448736
0.0415,1.75694375,1.0,2735.987725137894,0.37392601745503745,1.314241650218358,0.9669430185305837,0.2868446375,0.6851153866965661
0.042,1.7559,1.0,2735.3696593971154,0.37743780398298227,1.3137758908867916,0.967494110913785,0.28680079999999997,0.6860481195733428
0.0425,1.75484375,1.0,2734.610933692458,0.38092988963654695,1.313305764362102,0.9680274264352973,0.2867564375,0.686988195208798
0.043000000000000003,1.753775,1.0,2733.7206937301894,0.3844023844585307,1.312831188109317,0.9685437141826575,0.28671155,0.6879357389863299
0.043500000000000004,1.75269375,1.0,2732.7080892570752,0.3878553984917328,1.3123520795934647,0.9690436835509827,0.28666613750000003,0.6888908749159373
0.044,1.7516,1.0,2731.582271947321,0.3912890417789524,1.311868356279572,0.9695280067376694,0.2866202,0.68985372561058
0.0445,1.75049375,1.0,2730.3523934422915,0.3947034243629889,1.3113799356326674,0.9699973210564051,0.2865737375,0.6908244122621043
0.045,1.7493750000000001,1.0,2729.027603540314,0.3980986562866414,1.310886735117778,0.9704522310852323,0.28652675,0.6918030546167365
0.0455,1.74824375,1.0,2727.6111772492823,0.4014748340351938,1.310388725586169,0.9708933127792283,0.2864792375,0.6927896652710264
0.046,1.7471,1.0,2726.1130399472777,0.40483207685081946,1.3098858174151962,0.9713211117861815,0.2864312,0.6937843755258792
0.0465,1.7459437500000001,1.0,2724.5415783029903,0.408170497820827,1.3093779349192876,0.971736146707957,0.28638263750000004,0.6947872875799652
0.047,1.744775,1.0,2722.900980682987,0.4114901989674551,1.308865040562132,0.9721389118410474,0.28633355,0.6957984270362008
0.0475,1.74359375,1.0,2721.1954332609316,0.4147912823129424,1.3083470968074185,0.9725298773527423,0.28628393750000003,0.6968178185281777
0.048,1.7424,1.0,2719.4291195053547,0.41807384987952767,1.3078240661188356,0.9729094906807607,0.2862338,0.6978454857081209
0.0485,1.74119375,1.0,2717.6062197001843,0.4213380036894495,1.3072959109600724,0.9732781778391614,0.2861831375,0.6988814512347554
0.049,1.739975,1.0,2715.7309104952606,0.4245838457649467,1.3067625937948175,0.973636344637608,0.28613195,0.6999257367610835
0.0495,1.73874375,1.0,2713.8073644888486,0.42781147812825787,1.3062240770867597,0.9739843778204815,0.2860802375,0.7009783629220736
0.05,1.7375,1.0,2711.839749841189,0.43102100280162176,1.305680323299588,0.974322646131789,0.286028,0.7020393493222558
0.0505,1.73624375,1.0,2709.8322299191286,0.434212521807277,1.3051312948969909,0.9746515013113237,0.2859752375,0.7031087145232322
0.051000000000000004,1.734975,1.0,2707.7889629722476,0.43738613716746233,1.3045769543426575,0.9749712790270938,0.28592195,0.7041864760310929
0.051500000000000004,1.73369375,1.0,2705.71410183997,0.4405419509044164,1.3040172641002765,0.9752822997486236,0.2858681375,0.7052726502837459
0.052000000000000005,1.7324,1.0,2703.61179369007,0.4436800650403779,1.303452186633537,0.9755848695653643,0.2858138,0.706367252638154
0.0525,1.73109375,1.0,2701.4809555012553,0.4468005577852159,1.3028817321385266,0.9758792814624795,0.28575893750000003,0.7074702051555032
0.053,1.729775,1.0,2699.3295378198864,0.44990355415945105,1.3023058282622901,0.9761658152610198,0.28570355000000003,0.7085815886436568
0.0535,1.72844375,1.0,2697.161155669696,0.45298915761620634,1.301724442183322,0.976444738739816,0.2856476375,0.7097014062154436
0.054,1.7271,1.0,2694.9773911445977,0.45605746181622847,1.301137559625726,0.9767163082315993,0.2855912,0.710829624306959
0.0545,1.7257437500000001,1.0,2692.779823966675,0.4591085604202642,1.300545166313606,0.976980769084089,0.2855342375,0.7119662085635423
0.055,1.724375,1.0,2690.5700314413816,0.4621425470890602,1.2999472479710665,0.9772383562203233,0.28547675,0.7131111238347689
0.0555,1.72299375,1.0,2688.349588417584,0.46515951548336326,1.2993437903222111,0.9774892946658927,0.2854187375,0.7142643341694264
0.056,1.7216,1.0,2686.120067251405,0.4681595592639201,1.2987347790911439,0.9777338000452952,0.2853602,0.7154258028104766
0.0565,1.72019375,1.0,2683.883037775142,0.47114277209147737,1.2981202000019687,0.977972079049457,0.28530113749999997,0.716595492190007
0.057,1.718775,1.0,2681.640067270703,0.4741092476267818,1.2975000387787898,0.9782043298763151,0.28524155,0.7177733639241664
0.0575,1.71734375,1.0,2679.392720447071,0.47705907953058024,1.2968742811457112,0.9784307426462172,0.2851814375,0.7189593788080906
0.058,1.7159,1.0,2677.142559422714,0.47999236146361923,1.2962429128268367,0.9786514997937728,0.2851208,0.7201534968108139
0.0585,1.71444375,1.0,2674.8911437127676,0.48290918708664565,1.2956059195462704,0.9788667764376618,0.2850596375,0.7213556770701657
0.059000000000000004,1.7129750000000001,1.0,2672.6400302197685,0.48580965006040616,1.294963287028116,0.979076740729811,0.28499795,0.722565877887657
0.059500000000000004,1.71149375,1.0,2670.3907732300386,0.4886938440456475,1.2943150009964781,0.9792815541852363,0.2849357375,0.7237840567233517
0.06,1.71,1.0,2668.1449244138416,0.49156186270311625,1.2936610471754602,0.9794813719937668,0.284873,0.7250101701907277
0.0605,1.7084937500000001,1.0,2665.900483310828,0.4944137696567714,1.293001443935531,0.9796763426563465,0.2848097375,0.7262441130474931
0.061,1.7069750000000001,1.0,2663.6608676568835,0.4972496807825992,1.2923361598237826,0.9798666104842682,0.28474595,0.7274858726386603
0.0615,1.7054437500000001,1.0,2661.4287078501925,0.5000697018975767,1.2916651705820006,0.9800523138219025,0.2846816375,0.7287354217773359
0.062,1.7039,1.0,2659.204292935273,0.5028739177722586,1.2909884734729213,0.9802335852478454,0.2846168,0.7299926923019737
0.0625,1.70234375,1.0,2656.987911484587,0.5056624131772002,1.2903060657592813,0.9804105523592266,0.2845514375,0.7312576153806373
0.063,1.7007750000000001,1.0,2654.7798516027538,0.5084352728829558,1.2896179447038172,0.9805833379943554,0.28448555,0.7325301215100022
0.0635,1.69919375,1.0,2652.5804009308936,0.5111925816600805,1.288924107569265,0.9807520604438117,0.28441913750000003,0.7338101405143616
0.064,1.6976,1.0,2650.3898466499127,0.5139344242791292,1.2882245516183617,0.9809168336506625,0.2843522,0.7350976015446249
0.0645,1.69599375,1.0,2648.2084754861503,0.5166608855106566,1.2875192741138433,0.9810777674004373,0.2842847375,0.7363924330773235
0.065,1.694375,1.0,2646.036573714865,0.5193720501252176,1.2868082723184466,0.9812349675014586,0.28421675,0.7376945629136089
0.0655,1.69274375,1.0,2643.8744271655037,0.522068002893367,1.2860915434949078,0.9813885359560808,0.2841482375,0.7390039181782566
0.066,1.6911,1.0,2641.722321226458,0.5247488285856596,1.2853690849059636,0.981538571123362,0.2840792,0.7403204253186637
0.0665,1.6894437500000001,1.0,2639.5805408502442,0.5274146119726504,1.2846408938143505,0.981685167873647,0.2840096375,0.7416440101038508
0.067,1.687775,1.0,2637.4493705582377,0.5300654378248941,1.2839069674828048,0.9818284177355266,0.28393955,0.7429745976234619
0.0675,1.68609375,1.0,2635.32909444683,0.5327013909129455,1.283167303174063,0.981968409035595,0.2838689375,0.7443121122867613
0.068,1.6844000000000001,1.0,2633.2199961923016,0.5353225560073597,1.2824218981508615,0.9821052270314045,0.2837978,0.745656477821634
0.0685,1.68269375,1.0,2631.122359056829,0.5379290178786913,1.281670749675937,0.9822389540379993,0.2837261375,0.7470076172735831
0.069,1.680975,1.0,2629.0364658943977,0.5405208612974951,1.2809138550120258,0.9823696695483739,0.28365395,0.7483654530047275
0.0695,1.67924375,1.0,2626.962599156755,0.5430981710343261,1.2801512114218643,0.9824974503481917,0.28358123749999997,0.7497299066927994
0.07,1.6775,1.0,2624.9020983422897,0.5456609847067782,1.2793828063667991,0.9826223672309647,0.283508,0.7511009167940422
0.07050000000000001,1.67574375,1.0,2622.854383815508,0.5482094334115101,1.2786086450845717,0.9827444952229148,0.2834342375,0.7524783892989131
0.07100000000000001,1.673975,1.0,2620.8190738461794,0.5507436066321552,1.2778287309860854,0.9828639041925882,0.28335995,0.7538622329038948
0.07150000000000001,1.67219375,1.0,2618.796034690279,0.5532635800564468,1.277043065187021,0.9829806607532074,0.2832851375,0.7552523597952169
0.07200000000000001,1.6704,1.0,2616.7851328657202,0.555769429372118,1.2762516488030597,0.9830948293289912,0.2832098,0.7566486815484406
0.0725,1.66859375,1.0,2614.7862351493463,0.5582612302669023,1.2754544829498822,0.9832064722400891,0.2831339375,0.7580511091288682
0.073,1.6667750000000001,1.0,2612.7992085746596,0.5607390584285328,1.2746515687431699,0.9833156497836723,0.28305755,0.759459552891951
0.0735,1.66494375,1.0,2610.8239204290285,0.5632029895447428,1.2738429072986033,0.9834224203113783,0.2829806375,0.7608739225837008
0.074,1.6631,1.0,2608.8602382512786,0.5656530993032656,1.2730284997318635,0.9835268403032948,0.2829032,0.7622941273410964
0.0745,1.6612437500000001,1.0,2606.9080298291165,0.5680894633918342,1.2722083471586318,0.9836289644386587,0.2828252375,0.7637200756924929
0.075,1.659375,1.0,2604.967163196774,0.5705121574981821,1.271382450694589,0.9837288456634369,0.28274675,0.7651516755580324
0.0755,1.65749375,1.0,2603.037506632426,0.5729212573100424,1.2705508114554158,0.9838265352549439,0.2826677375,0.7665888342500512
