Time [s],Phi [rad],STIM [ ],Fsee [N],Gamma [ ],Lcerel [ ],q [ ],Lmtc [m],fisomrel [ ]
0.0,1.8,1.0,17.9678572949941,2.8949966161110375e-05,1.3793396678948318,0.005000221502731602,0.288653,0.5411397205403021
0.0005,1.79999375,1.0,18.283523181548883,0.005637996888546356,1.3793016348404303,0.012993206608764279,0.2886527375,0.5412317277020946
0.001,1.799975,1.0,21.63924121522255,0.011215581492525214,1.3789361721204063,0.03570739083855154,0.28865195,0.5421153617944319
0.0015,1.79994375,1.0,31.120011541944574,0.016761880257707487,1.3780418795934999,0.07073692871657294,0.2886506375,0.5442740346728755
0.002,1.7999,1.0,53.69281027247218,0.022277068672018948,1.3763609717354242,0.11487796242397634,0.2886488,0.5483176624820385
0.0025,1.79984375,1.0,97.30526383202834,0.027761321239401195,1.373926192947708,0.16474886726294188,0.28864643749999996,0.5541428642462802
0.003,1.7997750000000001,1.0,161.2011867084051,0.033214811487350344,1.3712052507215429,0.21745993121470147,0.28864354999999997,0.5606079777957798
0.0035,1.79969375,1.0,237.9582294606527,0.03863771196664825,1.3685762690970285,0.27079139783782197,0.2886401375,0.5668097380692438
0.004,1.7996,1.0,321.75943699124815,0.04403019426210845,1.366148342564355,0.3230886476277109,0.2886362,0.5724980587926523
0.0045000000000000005,1.7994937500000001,1.0,409.5709657265665,0.04939242899777093,1.3639156978740696,0.3731985842389408,0.2886317375,0.5776956787016228
0.005,1.799375,1.0,499.722981841716,0.054724585828028596,1.3618517669904404,0.4204009676011206,0.28862675,0.5824722535902297
0.0055,1.79924375,1.0,591.1027717927938,0.060026833484360324,1.3599327331919324,0.46431582191186904,0.2886212375,0.5868891185490599
0.006,1.7991000000000001,1.0,682.8309426127722,0.06529933972036597,1.358140728904244,0.5048105729084285,0.2886152,0.5909924052931659
0.006500000000000001,1.79894375,1.0,774.1791165313495,0.07054227117517078,1.3564621694635068,0.5419203256290267,0.2886086375,0.594817352491614
0.007,1.798775,1.0,864.6035856262178,0.07575579439420647,1.3548852623929308,0.5757855082105872,0.28860155,0.5983942938019791
0.0075,1.79859375,1.0,953.5600319433993,0.08094007364092778,1.3534019066302807,0.6066087631507875,0.2885939375,0.6017445548153137
0.008,1.7984,1.0,1040.6573075542528,0.08609527299787882,1.3520042466527702,0.6346219734982744,0.2885858,0.6048884258240298
0.0085,1.79819375,1.0,1125.613279455608,0.09122155591586467,1.350685008303741,0.6600660584510301,0.2885771375,0.6078444673182563
0.009000000000000001,1.797975,1.0,1208.1723424771255,0.09631908442132113,1.3494383164912493,0.6831785128759084,0.28856795,0.6106277518104639
0.0095,1.79774375,1.0,1288.1384646706038,0.10138801937569102,1.348258865294718,0.7041851959938655,0.2885582375,0.6132517944631233
0.01,1.7975,1.0,1365.425238360601,0.10642852246511983,1.347141067008331,0.7232957538928392,0.288548,0.6157304834066244
0.0105,1.79724375,1.0,1439.9215866515242,0.1114407522727303,1.3460806663110398,0.7407026772180805,0.2885372375,0.6180745293549321
0.011,1.796975,1.0,1511.5646076205173,0.11642486694693532,1.3450735928211355,0.7565803372486734,0.28852595000000003,0.6202940546476825
0.0115,1.79669375,1.0,1580.3447498033888,0.12138102449032165,1.3441158102658208,0.7710854962049728,0.2885141375,0.6223989449142143
0.012,1.7964,1.0,1646.281142147133,0.12630938219545432,1.3432035416282422,0.7843584972186808,0.28850180000000003,0.6243983705798197
0.0125,1.79609375,1.0,1709.3947314921777,0.13121009605714307,1.342333499114445,0.7965246771993303,0.2884889375,0.6263003041583552
0.013000000000000001,1.7957750000000001,1.0,1769.709170439975,0.13608332046449592,1.3415027854550199,0.8076957106814786,0.28847555,0.6281117586940774
0.0135,1.79544375,1.0,1827.2776115005631,0.14092920964102754,1.3407085277799153,0.817970855179574,0.2884616375,0.6298396017156973
0.014,1.7951000000000001,1.0,1882.1715025995452,0.14574791713093999,1.3399479678663369,0.8274383297441438,0.2884472,0.6314903671669261
0.0145,1.79474375,1.0,1934.4725305084787,0.15053959646739862,1.3392185133537438,0.8361765738249446,0.2884322375,0.6330701536928444
0.015,1.794375,1.0,1984.2360771773863,0.1553043980583332,1.3385180920985353,0.8442554868315706,0.28841675,0.6345838690113761
0.0155,1.79399375,1.0,2031.535662996732,0.16004247231167357,1.3378446319571107,0.8517372485824115,0.2884007375,0.6360363668933815
0.016,1.7936,1.0,2076.4597261861627,0.16475396947819998,1.337196078241647,0.8586772364672275,0.2883842,0.6374324133241489
0.0165,1.7931937500000001,1.0,2119.0946912786835,0.16943903852074835,1.3365705525403144,0.865124878481976,0.2883671375,0.6387763493708783
0.017,1.792775,1.0,2159.5425527904677,0.1740978295376117,1.3359661509895846,0.8711242989819983,0.28834955,0.6400725299401901
0.0175,1.7923437500000001,1.0,2197.869465511803,0.1787304884277736,1.3353814544398714,0.8767150837001146,0.2883314375,0.6413242347506265
0.018000000000000002,1.7919,1.0,2234.1509303702514,0.18333716109021764,1.3348150437415893,0.8819326781788529,0.2883128,0.6425347145545843
0.0185,1.79144375,1.0,2268.471019122209,0.18791799342392737,1.3342654997451517,0.8868088713195996,0.2882936375,0.6437071928575382
0.019,1.790975,1.0,2300.913347362921,0.19247313030037314,1.333731485435,0.8913722387145935,0.28827395,0.6448446926956264
0.0195,1.79049375,1.0,2331.568688922965,0.1970027173318334,1.3332116615878051,0.8956484912665078,0.2882537375,0.6459502186922641
0.02,1.79,1.0,2360.515965709077,0.20150689820278717,1.332704866708697,0.899660840574862,0.288233,0.6470263764934574
0.0205,1.78949375,1.0,2387.8191877703316,0.20598581400582652,1.3322101361355216,0.9034302813773705,0.2882117375,0.648075336252609
0.021,1.788975,1.0,2413.546805590028,0.21043960583354365,1.3317265052061258,0.9069757940572319,0.28818995000000003,0.6490992530093438
0.021500000000000002,1.78844375,1.0,2437.7713416312836,0.21486841477853064,1.3312530092583557,0.910314565535864,0.2881676375,0.6501002674020528
0.022,1.7879,1.0,2460.5644018679295,0.2192723810351011,1.330788728057199,0.9134621920636611,0.2881448,0.6510804125966212
0.0225,1.78734375,1.0,2481.9964702120437,0.223651644706238,1.3303327836739607,0.9164328490415506,0.28812143749999997,0.6520416199942994
0.023,1.786775,1.0,2502.1397091839867,0.2280063462324898,1.3298843102551363,0.9192394349303707,0.28809755,0.6529857839524649
0.0235,1.78619375,1.0,2521.0465559257455,0.23233662160974744,1.3294426537394348,0.9218937389344697,0.28807313749999996,0.65391434278418
0.024,1.7856,1.0,2538.7715568798426,0.2366426068339018,1.329007160065565,0.924406517278609,0.2880482,0.6548287264846673
0.0245,1.78499375,1.0,2555.3711918123854,0.24092443790084375,1.3285771751722357,0.9267875979433314,0.2880227375,0.6557303570020214
0.025,1.784375,1.0,2570.903707321641,0.24518225080646427,1.3281520449981552,0.9290459735125428,0.28799675,0.6566206484806401
0.025500000000000002,1.78374375,1.0,2585.420094027085,0.2494161794301389,1.3277311982837958,0.9311898964866974,0.2879702375,0.6575008344115667
0.026000000000000002,1.7831000000000001,1.0,2598.9779800589495,0.2536263602394846,1.3273140146966587,0.9332269315737465,0.2879432,0.6583722442064908
0.0265,1.78244375,1.0,2611.630047162629,0.2578129277278991,1.326899931934416,0.9351640368599924,0.2879156375,0.6592360794045735
0.027,1.781775,1.0,2623.41502305417,0.2619760123822395,1.3264885274389138,0.9370076328415156,0.28788755,0.660093244422097
0.0275,1.7810937500000001,1.0,2634.3725221833597,0.26611574468936283,1.3260793786519984,0.9387636326560445,0.2878589375,0.6609446390877762
0.028,1.7804,1.0,2644.5429697331115,0.2702322551361261,1.3256720630155168,0.9404374888837086,0.2878298,0.6617911587092389
0.0285,1.77969375,1.0,2653.9675295778566,0.27432567420938625,1.3252661579713145,0.9420342354641857,0.2878001375,0.6626336941281246
0.029,1.778975,1.0,2662.6880362001943,0.2783961323960005,1.3248612409612386,0.9435585252929274,0.28776995,0.6634731317637885
0.029500000000000002,1.7782437500000001,1.0,2670.738401693926,0.2824437561831153,1.3244569677995095,0.9450146732673849,0.2877392375,0.6643101914743241
0.03,1.7775,1.0,2678.1642328879307,0.28646867897543116,1.3240528915637428,0.9464066652730055,0.287708,0.6651458018787536
0.0305,1.77674375,1.0,2684.9967886480617,0.2904710275396656,1.3236487014929292,0.9477382133849992,0.2876762375,0.6659806059373112
0.031,1.775975,1.0,2691.263401832432,0.29445092653620747,1.3232441262799564,0.9490127680291565,0.28764395,0.666815162071134
0.0315,1.7751937500000001,1.0,2696.991733927137,0.29840850062544577,1.3228388946177116,0.9502335356563584,0.2876111375,0.6676500258992796
0.032,1.7744,1.0,2702.2097442217173,0.30234387446776934,1.3224327351990826,0.951403499009217,0.2875778,0.668485750229714
0.0325,1.77359375,1.0,2706.9456606169747,0.3062571727235672,1.3220253767169565,0.9525254354703253,0.2875439375,0.6693228850456067
0.033,1.772775,1.0,2711.227952063895,0.3101485200532281,1.3216165478642212,0.9536019336942962,0.28750955,0.6701619774869296
0.0335,1.7719437500000002,1.0,2715.0793701406274,0.3140180369512113,1.3212060314008855,0.9546354137491964,0.2874746375,0.6710034610704507
0.034,1.7711000000000001,1.0,2718.5260257461464,0.31786584762652753,1.320793581091083,0.9556281331604752,0.2874392,0.6718478263098177
0.0345,1.7702437500000001,1.0,2721.6006067820613,0.3216920815731458,1.320378892326044,0.9565821967637224,0.2874032375,0.6726956803314321
0.035,1.7693750000000001,1.0,2724.3199449198796,0.32549685675818446,1.3199618061950364,0.9574995863001161,0.28736675,0.6735473296441643
0.035500000000000004,1.76849375,1.0,2726.700979213244,0.329280291148762,1.3195421637873281,0.9583821570768274,0.2873297375,0.6744030789608175
0.036000000000000004,1.7676,1.0,2728.7607449350458,0.33304250271199676,1.3191198061921867,0.9592316474837955,0.2872922,0.6752632311730268
0.0365,1.76669375,1.0,2730.5163629743033,0.33678360941500723,1.3186945744988798,0.9600496876903887,0.2872541375,0.676128087324547
0.037,1.765775,1.0,2731.9850297930175,0.34050372922491184,1.3182663097966751,0.9608378076010324,0.28721555,0.6769979465829299
0.0375,1.76484375,1.0,2733.184007942661,0.34420298010882905,1.3178348531748405,0.9615974441405073,0.2871764375,0.6778731062095905
0.038,1.7639,1.0,2734.130617141012,0.3478814800338772,1.3174000457226436,0.9623299479321966,0.28713679999999997,0.6787538615282647
0.0385,1.76294375,1.0,2734.842225908418,0.35153934696717476,1.316961728529352,0.9630365894259758,0.28709663750000003,0.6796405058918539
0.039,1.761975,1.0,2735.32744325549,0.35517669245243144,1.3165198225922117,0.9637185706779232,0.28705595,0.6805331693437335
0.0395,1.7609937500000001,1.0,2735.6058871673595,0.3587936376282055,1.3160741492427714,0.9643770167475958,0.2870147375,0.6814321816978899
0.04,1.76,1.0,2735.6949435468314,0.36239029995422384,1.315624550341831,0.9650129893157003,0.286973,0.6823378291502458
0.0405,1.7589937500000001,1.0,2735.604022846077,0.3659667904625899,1.315170940363376,0.965627495096469,0.2869307375,0.683250249842045
0.041,1.757975,1.0,2735.342553287843,0.36952322018540723,1.3147132337813934,0.9662214843447501,0.28688795,0.6841695806213586
0.0415,1.75694375,1.0,2734.9199778480856,0.37305970015477935,1.314251345069869,0.9667958546068793,0.2868446375,0.6850959570209763
0.042,1.7559,1.0,2734.345751400558,0.3765763414028098,1.313785188702789,0.9673514541849546,0.28680079999999997,0.6860295132358264
0.0425,1.75484375,1.0,2733.6293380238335,0.38007325496160205,1.3133146791541397,0.9678890853391314,0.2867564375,0.6869703820999316
0.043000000000000003,1.753775,1.0,2732.780208469886,0.3835505518632596,1.3128397308979072,0.9684095072502268,0.28671155,0.6879186950628987
0.043500000000000004,1.75269375,1.0,2731.807837795833,0.387008343139886,1.3123602584080778,0.968913438762813,0.28666613750000003,0.6888745821659403
0.044,1.7516,1.0,2730.7217031567075,0.39044673982358474,1.3118761761586377,0.9694015609271086,0.2866202,0.6898381720174311
0.0445,1.75049375,1.0,2729.525542080488,0.3938658447869342,1.3113874507948329,0.9698745222076461,0.2865737375,0.6908094881616567
0.045,1.7493750000000001,1.0,2728.2335424292964,0.3972657760403459,1.3108939539830387,0.9703329326029634,0.28652675,0.6917887416351793
0.0455,1.74824375,1.0,2726.8526985789667,0.40064664076364803,1.310395622736853,0.9707773744026112,0.2864792375,0.6927760120720704
0.046,1.7471,1.0,2725.3881637416716,0.4040085434616227,1.3098924107960825,0.9712084013995353,0.2864312,0.6937713448054592
0.0465,1.7459437500000001,1.0,2723.8450897134144,0.4073515886390521,1.309384271900534,0.9716265397362942,0.28638263750000004,0.6947747841217362
0.047,1.744775,1.0,2722.2286261135687,0.4106758808007183,1.308871159790014,0.9720322895448327,0.28633355,0.6957863732460831
0.0475,1.74359375,1.0,2720.5439196724974,0.4139815244514035,1.3083530282043292,0.9724261264740528,0.28628393750000003,0.6968061543278705
0.048,1.7424,1.0,2718.796113565396,0.41726862409588983,1.307829830883286,0.9728085031138324,0.2862338,0.6978341684259168
0.0485,1.74119375,1.0,2716.9903467948675,0.4205372842389594,1.3073015215666914,0.9731798503234148,0.2861831375,0.6988704554936106
0.049,1.739975,1.0,2715.1317536197957,0.42378760938539434,1.3067680539943523,0.9735405784714165,0.28613195,0.6999150543638972
0.0495,1.73874375,1.0,2713.225359952684,0.4270197033569044,1.3062293828458391,0.9738910785768877,0.2860802375,0.7009680008987771
0.05,1.7375,1.0,2711.274066464076,0.4302336484966026,1.3056854821321675,0.9742317222126202,0.286028,0.7020292921352815
0.0505,1.73624375,1.0,2709.287480382547,0.4334295793809076,1.30513626465078,0.9745628657469498,0.2859752375,0.7030990433513047
0.051000000000000004,1.734975,1.0,2707.2679250874257,0.4366075930254851,1.304581709557757,0.9748848492613997,0.28592195,0.7041772391673284
0.051500000000000004,1.73369375,1.0,2705.2177212099564,0.439767786446001,1.3040217960091782,0.9751979974219857,0.2858681375,0.7052638633652859
0.052000000000000005,1.7324,1.0,2703.1391864958864,0.4429102566581211,1.3034565031611236,0.9755026203105208,0.2858138,0.7063588988814509
0.0525,1.73109375,1.0,2701.0346356778145,0.44603510067751123,1.3028858101696732,0.975799014204081,0.28575893750000003,0.7074623277993006
0.053,1.729775,1.0,2698.90638035705,0.4491424155198373,1.3023096961909069,0.9760874623062865,0.28570355000000003,0.7085741313423521
0.0535,1.72844375,1.0,2696.7567288954147,0.45223229820076505,1.3017281403809047,0.9763682354337635,0.2856476375,0.7096942898669678
0.054,1.7271,1.0,2694.587986316405,0.45530484573596036,1.3011411218957465,0.9766415926608966,0.2855912,0.7108227828551377
0.0545,1.7257437500000001,1.0,2692.402454215804,0.4583601551410891,1.3005486198915124,0.9769077819257332,0.2855342375,0.7119595889072297
0.055,1.724375,1.0,2690.2024306823646,0.46139832343181697,1.299950613524282,0.9771670405996918,0.28547675,0.7131046857347156
0.0555,1.72299375,1.0,2687.990210227954,0.4644194476238098,1.2993470819501356,0.9774195960235157,0.2854187375,0.7142580501528661
0.056,1.7216,1.0,2685.7680837271723,0.46742362473273363,1.298738004325153,0.9776656660117407,0.2853602,0.715419658073421
0.0565,1.72019375,1.0,2683.5383383668322,0.47041095177425407,1.2981233598054143,0.9779054593277635,0.28530113749999997,0.7165894844972306
0.057,1.718775,1.0,2681.303513960298,0.47338152563123365,1.2975031251959772,0.9781391759844843,0.28524155,0.7177675079675596
0.0575,1.71734375,1.0,2679.0678341899097,0.47633543884525426,1.2968772618143485,0.9783670065542859,0.2851814375,0.7189537353878023
0.058,1.7159,1.0,2676.830427339867,0.47927278317113303,1.2962457776821859,0.9785891364523066,0.2851208,0.7201480842011381
0.0585,1.71444375,1.0,2674.590672285034,0.48219365112607443,1.2956086785335543,0.9788057435879269,0.2850596375,0.7213504756876459
0.059000000000000004,1.7129750000000001,1.0,2672.3480670406,0.48509813516373473,1.2949659690177122,0.9790169987187796,0.28499795,0.7225608326576596
0.059500000000000004,1.71149375,1.0,2670.107735207907,0.4879863271364302,1.2943176020917384,0.9792230629746405,0.2849357375,0.7237791744227333
0.06,1.71,1.0,2667.8709734641225,0.4908583193914439,1.293663565818549,0.9794240931068807,0.284873,0.7250054531592309
0.0605,1.7084937500000001,1.0,2665.6381599105166,0.4937142019767053,1.2930038566899988,0.979620240034861,0.2848097375,0.7262396044795492
0.061,1.7069750000000001,1.0,2663.4096720141056,0.49655406494014365,1.2923384711979442,0.9798116488554042,0.28474595,0.7274815633215841
0.0615,1.7054437500000001,1.0,2661.185886609937,0.4993779983296884,1.2916674058342406,0.9799984591102766,0.2846816375,0.728731263947463
0.062,1.7039,1.0,2658.9518188664524,0.5021860914707291,1.290990798556743,0.9801808123964941,0.2846168,0.7299883774085109
0.0625,1.70234375,1.0,2656.7461509493623,0.504978434153204,1.2903082931062577,0.9803588193593785,0.2845514375,0.7312534915616428
0.063,1.7007795490651603,1.0,2654.762938080822,0.5077551141213502,1.2896201550066109,0.9805326183124166,0.2844857410607367,0.7325260389475341
0.0635,1.6992152133339584,1.0,2653.344049120009,0.5105162187815492,1.2889267599986458,0.9807023481057879,0.28442003896002627,0.7338052530506535
0.064,1.6976508776027568,1.0,2652.454884252509,0.5132618355401819,1.2882284838232054,0.9808681425700372,0.28435433685931577,0.7350903734469905
0.0645,1.6960865418715552,1.0,2652.056163469948,0.5159920513541166,1.2875256862405344,0.9810301299091001,0.28428863475860533,0.7363806752293041
0.065,1.6945222061403535,1.0,2652.1034232079182,0.5187069533241383,1.2868187762411845,0.9811884362483527,0.28422293265789483,0.7376753494754763
0.0655,1.692957870409152,1.0,2652.560609030266,0.5214066271754272,1.2861080863740588,0.9813431794125772,0.2841572305571844,0.7389737337735144
0.066,1.6913935346779503,1.0,2653.3968885899617,0.5240911577503058,1.2853939018604537,0.981494470737943,0.2840915284564739,0.7402752575920464
0.0665,1.6898291989467487,1.0,2654.581495868458,0.5267606298910967,1.2846765079216647,0.9816424177132267,0.28402582635576346,0.7415793553492551
0.067,1.6882648632155468,1.0,2656.0866596783053,0.5294151274604942,1.2839561625993074,0.9817871227650543,0.28396012425505296,0.7428855156947567
0.0675,1.6867005274843452,1.0,2657.8872968090814,0.5320547337548217,1.2832330994490895,0.981928683625898,0.28389442215434246,0.7441932760729024
0.068,1.6851361917531436,1.0,2659.9450018598163,0.5346795372086833,1.2825076748563016,0.9820672009382803,0.283828720053632,0.7455019567834382
0.0685,1.683571856021942,1.0,2662.243240285575,0.5372896190785617,1.2817800437395872,0.9822027619896165,0.2837630179529216,0.7468112466521566
0.069,1.6820075202907403,1.0,2664.7654824269875,0.539885060620939,1.2810503610175892,0.9823354511611634,0.2836973158522111,0.7481208372827896
0.0695,1.6804431845595387,1.0,2667.495196197381,0.542465943092298,1.2803187816089503,0.9824653500487005,0.2836316137515006,0.7494304230780409
0.07,1.678878848828337,1.0,2670.4158403019906,0.5450323477491212,1.279585460432314,0.9825925375774506,0.28356591165079015,0.7507397012590911
0.07050000000000001,1.6773145130971352,1.0,2673.510857989216,0.5475843558478912,1.278850552406323,0.9827170901115471,0.2835002095500797,0.7520483718835732
0.07100000000000001,1.6757501773659336,1.0,2676.7636713340876,0.5501220486450904,1.27811421244962,0.9828390815583445,0.2834345074493692,0.7533561378620139
0.07150000000000001,1.674185841634732,1.0,2680.1576760539406,0.5526455073972013,1.2773765954808487,0.9829585834678419,0.2833688053486587,0.7546627049727476
0.07200000000000001,1.6726215059035303,1.0,2683.6853735863897,0.555154807943984,1.2766377726632652,0.9830756610102507,0.2833031032479483,0.7559679296425625
0.0725,1.6710571701723287,1.0,2687.325826630095,0.5576500370232478,1.2758979381729825,0.9831903834729157,0.28323740114723783,0.7572714531629373
0.073,1.669492834441127,1.0,2691.070481237008,0.5601312723890569,1.2751571723702835,0.9833028123797305,0.28317169904652734,0.7585731201951216
0.0735,1.6679284987099254,1.0,2694.9120196802064,0.562598590926178,1.2744155441391674,0.9834130067781478,0.28310599694581684,0.7598727969859844
0.074,1.6663641629787238,1.0,2698.843107978252,0.565052069519378,1.2736731223636333,0.9835210238881416,0.2830402948451064,0.7611703510705989
