Time [s],Phi [rad],STIM [ ],Fsee [N],Gamma [ ],Lcerel [ ],q [ ],Lmtc [m],fisomrel [ ]
0.0,1.8,1.0,17.96839785677455,1.001967448247236e-05,1.379339607335468,0.0050000267563233055,0.288653,0.5411398670490208
0.0005,1.79999375,1.0,18.27762176229882,0.005619172780826515,1.3793022903045942,0.012940566632612643,0.2886527375,0.5412301421227339
0.001,1.799975,1.0,21.619188041259612,0.011196862973166985,1.3789382197440516,0.03560867268721712,0.28865195,0.5421104133201813
0.0015,1.79994375,1.0,31.069974157200114,0.016743266734433947,1.378046140841254,0.0706018344708446,0.2886506375,0.5442637608260035
0.002,1.7999,1.0,53.5829399438718,0.02225855955591015,1.3763680958693654,0.11471798919198668,0.2886488,0.5483005625372073
0.0025,1.79984375,1.0,97.11917789382622,0.027742915944787002,1.3739351556826223,0.16457484116303442,0.28864643749999996,0.554121490257057
0.003,1.7997750000000001,1.0,160.95825840550418,0.03319650943188867,1.3712143403281722,0.21728040188163633,0.28864354999999997,0.56058645897551
0.0035,1.79969375,1.0,237.68330188134314,0.03861951257125884,1.368584735146811,0.2706128376805399,0.2886401375,0.5667898374258775
0.004,1.7996,1.0,321.46666761288003,0.0440120969509441,1.366156095143472,0.3229157533346859,0.2886362,0.5724799553229745
0.0045000000000000005,1.7994937500000001,1.0,409.2676103508696,0.04937443319817825,1.3639228174632032,0.3730344626188597,0.2886317375,0.5776791547501405
0.005,1.799375,1.0,499.4133224141125,0.0547066909704662,1.3618583462090637,0.42024741982306446,0.28862675,0.5824570704044689
0.0055,1.79924375,1.0,590.7902158044752,0.06000903900309659,1.3599388389715639,0.4641736614354487,0.2886212375,0.5868751026779421
0.006,1.7991000000000001,1.0,682.5178817919469,0.0652816450521909,1.358146418865222,0.5046799295409345,0.2886152,0.5909794089732686
0.006500000000000001,1.79894375,1.0,773.8810898887997,0.07052467595040675,1.3564672564846725,0.5418007311075319,0.2886086375,0.5948057878006721
0.007,1.798775,1.0,864.2855920658717,0.0757382975904969,1.3548903985361467,0.5756767562410711,0.28860155,0.5983826690907366
0.0075,1.79859375,1.0,953.2430850637816,0.08092267493505893,1.3534067811960144,0.6065098939603805,0.2885939375,0.6017335682546952
0.008,1.7984,1.0,1040.342696482616,0.08607797152979889,1.3520088783518822,0.6345321755298055,0.2885858,0.6048780279382966
0.0085,1.79819375,1.0,1125.312076202116,0.09120435162628246,1.3506892719531742,0.6599844369747461,0.2885771375,0.6078349315591601
0.009000000000000001,1.797975,1.0,1207.900478200914,0.09630197724158052,1.3494420309839597,0.6831041793722913,0.28856795,0.6106194737940223
0.0095,1.79774375,1.0,1287.8949904862957,0.10137100875323465,1.348262086953542,0.7041174489285194,0.2885582375,0.6132446390011593
0.01,1.7975,1.0,1365.168131375412,0.10641160653878651,1.3471443713712246,0.7232342123302343,0.288548,0.6157231678101955
0.0105,1.79724375,1.0,1439.6547009911085,0.11142393065701732,1.3460840064406703,0.7406466827236288,0.2885372375,0.6180671571619072
0.011,1.796975,1.0,1511.3142802146124,0.11640813997582555,1.3450766505600573,0.7565291681800467,0.28852595000000003,0.6202873253770794
0.0115,1.79669375,1.0,1580.1146083076849,0.12136439170145788,1.3441185595662668,0.7710386394703106,0.2885141375,0.6223929112309876
0.012,1.7964,1.0,1646.054738207193,0.12629284254256082,1.3432061915575533,0.7843155971476008,0.28850180000000003,0.6243925703971941
0.0125,1.79609375,1.0,1709.1700541006112,0.13119364887410034,1.3423360798282322,0.7964853416921107,0.2884889375,0.6262946697954025
0.013000000000000001,1.7957750000000001,1.0,1769.4984019816038,0.13606696579361963,1.3415051647866487,0.8076595268304264,0.28847555,0.6281065766072829
0.0135,1.79544375,1.0,1827.081258543746,0.14091294695485276,1.3407107091744688,0.8179375079399724,0.2884616375,0.6298348617787966
0.014,1.7951000000000001,1.0,1881.9806145740242,0.1457317454635176,1.339950057390891,0.8274075767271827,0.2884472,0.6314858369895726
0.0145,1.79474375,1.0,1934.2813342512488,0.1505235148585533,1.3392205777649713,0.836148185422325,0.2884322375,0.6330656875663236
0.015,1.794375,1.0,1984.057836823194,0.15528840698169516,1.3385199923299653,0.8442291904670016,0.28841675,0.6345797665590569
0.0155,1.79399375,1.0,2031.3729028054274,0.16002657148382265,1.337846346830429,0.8517128394964597,0.2884007375,0.6360326719812932
0.016,1.7936,1.0,2076.3053571941177,0.16473815801581532,1.3371976870109181,0.8586545632707753,0.2883842,0.6374289536813995
0.0165,1.7931937500000001,1.0,2118.9468909246702,0.16942331604912253,1.3365720772783825,0.8651037893101051,0.2883671375,0.638773076519498
0.017,1.792775,1.0,2159.384288508985,0.17408219374167566,1.3359677683148186,0.8711047010202693,0.28834955,0.6400690645840574
0.0175,1.7923437500000001,1.0,2197.7173400073857,0.1787149403422282,1.335382995416233,0.8766968000610905,0.2883314375,0.6413209387297034
0.018000000000000002,1.7919,1.0,2234.0126483755766,0.18332170091545333,1.3348164330654013,0.8819155749280214,0.2883128,0.6425317479252604
0.0185,1.79144375,1.0,2268.345050368837,0.18790262052602416,1.3342667557450987,0.8867928520158711,0.2882936375,0.6437045153177505
0.019,1.790975,1.0,2300.7969349307964,0.19245784423861392,1.3337326379381005,0.8913572197982788,0.28827395,0.644842239715806
0.0195,1.79049375,1.0,2331.4501991820116,0.19698751613795215,1.333212826919446,0.8956344172459606,0.2882537375,0.6459477422715283
0.02,1.79,1.0,2360.392340960002,0.20149178088475395,1.3327060750650128,0.8996476418915658,0.288233,0.6470238125473025
0.0205,1.78949375,1.0,2387.7023954687693,0.20597078167682065,1.3322112711625063,0.9034178633998806,0.2882117375,0.6480729314814788
0.021,1.788975,1.0,2413.4420955962682,0.21042465872849658,1.3317275173735588,0.9069640852107367,0.28818995000000003,0.649097111661911
0.021500000000000002,1.78844375,1.0,2437.677082959621,0.21485355225412614,1.3312539158598027,0.9103035146133458,0.2881676375,0.6500983521286567
0.022,1.7879,1.0,2460.4765844984013,0.21925760246805365,1.3307895687828708,0.9134517572712453,0.2881448,0.6510786389810026
0.0225,1.78734375,1.0,2481.910906862294,0.22363694922179947,1.3303335992760317,0.9164229924340406,0.28812143749999997,0.6520399017517288
0.023,1.786775,1.0,2502.040821728089,0.22799173046312643,1.3298852490638138,0.9192301413451848,0.28809755,0.6529838088332448
0.0235,1.78619375,1.0,2520.9490617790034,0.23232208735501586,1.3294435758429695,0.9218849432329149,0.28807313749999996,0.653912405407518
0.024,1.7856,1.0,2538.684092914601,0.2366281549561639,1.329007984409542,0.924398170161301,0.2880482,0.6548269967945493
0.0245,1.78499375,1.0,2555.296211374098,0.2409100683252668,1.3285778795595748,0.9267796642753522,0.2880227375,0.6557288809443034
0.025,1.784375,1.0,2570.837392908317,0.2451679625210207,1.328152666089111,0.9290384308311205,0.28799675,0.6566193486562769
0.025500000000000002,1.78374375,1.0,2585.3611498060395,0.2494019726021218,1.3277317487941938,0.9311827207883709,0.2879702375,0.6574996837764652
0.026000000000000002,1.7831000000000001,1.0,2598.914204517899,0.2536122328641366,1.327314608773871,0.9332201163923601,0.2879432,0.6583710040918616
0.0265,1.78244375,1.0,2611.541498065834,0.2577988763437587,1.3269007547819403,0.9351575869674654,0.2879156375,0.6592343639126205
0.027,1.781775,1.0,2623.332830893315,0.261962038831921,1.326489289496301,0.9370014812563254,0.28788755,0.6600916576664559
0.0275,1.7810937500000001,1.0,2634.312415207798,0.26610185001897746,1.3260799347817602,0.9387577390618334,0.2878589375,0.660943482566081
0.028,1.7804,1.0,2644.505123891827,0.2702184395952823,1.3256724125031252,0.9404318370245391,0.2878298,0.6617904328265124
0.0285,1.77969375,1.0,2653.9364435337206,0.27431193725118963,1.3252664445252034,0.9420288308082192,0.2878001375,0.6626330997000408
0.029,1.7789796743846646,1.0,2662.861815947578,0.2783824726770535,1.3248617527128015,0.9435533929361101,0.28777014632415593,0.6634720715062712
0.029500000000000002,1.7782654845473194,1.0,2671.6879257820165,0.282430175563228,1.3244580589307273,0.9450098467734241,0.28774015035098743,0.6643079336572215
0.03,1.7775512947099739,1.0,2680.436666446989,0.2864551727008594,1.3240552087498068,0.9464022126275495,0.2877101543778189,0.6651410130169617
0.0305,1.7768371048726284,1.0,2689.0773434246807,0.29045759518382724,1.3236534791331034,0.9477342762173402,0.2876801584046504,0.6659707444038196
0.031,1.7761229150352829,1.0,2697.6052446423646,0.29443756865685844,1.323252907767248,0.9490095180438368,0.2876501624314819,0.6667970587373059
0.0315,1.7754087251979374,1.0,2706.018349161704,0.29839521752040504,1.3228535076131938,0.9502311683303513,0.28762016645831334,0.6676199382074537
0.032,1.7746945353605919,1.0,2714.314636266686,0.30233066617491905,1.3224552916318937,0.9514022313833512,0.28759017048514485,0.6684393651103011
0.0325,1.7739803455232463,1.0,2722.492085801631,0.3062440390208525,1.3220582727843013,0.9525255041635188,0.28756017451197635,0.669255321846915
0.033,1.7732661556859008,1.0,2730.548678513434,0.3101354604586575,1.3216624640313694,0.953603593117774,0.2875301785388078,0.6700677909224106
0.0335,1.7725519658485556,1.0,2738.483968806936,0.31400504943087193,1.3212678640649083,0.9546389263208276,0.28750018256563936,0.670876784181032
0.034,1.77183777601121,1.0,2746.2971247507658,0.3178529312297532,1.3208744751733277,0.9556337729068187,0.2874701865924708,0.6716823060658212
0.0345,1.7711235861738646,1.0,2753.9862434670263,0.3216792371608527,1.3204823094113258,0.9565902559344518,0.2874401906193023,0.672484341053518
0.035,1.770409396336519,1.0,2761.553077483189,0.3254840848892485,1.3200913458227903,0.9575103540286105,0.2874101946461338,0.6732829411012592
0.035500000000000004,1.7696952064991736,1.0,2768.9994017693816,0.3292675920800187,1.319701563451609,0.9583959195407379,0.28738019867296527,0.6740781579291992
0.036000000000000004,1.768981016661828,1.0,2776.327013184922,0.33302987639824133,1.3193129413416693,0.9592486880638836,0.2873502026997968,0.6748700430221035
0.0365,1.7682668268244826,1.0,2783.5377299337324,0.33677105550899433,1.318925458536859,0.9600702871272297,0.2873202067266283,0.6756586476309127
0.037,1.767552636987137,1.0,2790.633391030645,0.34049124707735595,1.3185390940810662,0.9608622441492649,0.28729021075345973,0.6764440227742783
0.0375,1.7668384471497918,1.0,2797.615855776885,0.34419056876840415,1.318153827018178,0.9616259937203956,0.28726021478029123,0.6772262192400741
0.038,1.7661242573124463,1.0,2804.4870032449244,0.34786913824721705,1.3177696363920828,0.9623628842783248,0.28723021880712274,0.6780052875868734
0.0385,1.7654100674751008,1.0,2811.248731773933,0.3515270731788726,1.3173865012466677,0.9630741842329512,0.28720022283395424,0.678781278145405
0.039,1.7646958776377553,1.0,2817.9029584742057,0.35516449122844895,1.3170044006258208,0.9637610875916952,0.28717022686078575,0.6795542410199749
0.0395,1.7639816878004098,1.0,2824.4498394664506,0.35878147196635307,1.3166233294721994,0.9644247133219422,0.2871402308876172,0.6803241939857751
0.04,1.7632674979630643,1.0,2830.8949421146062,0.36237817516133697,1.3162432345177275,0.9650661271558123,0.2871102349144487,0.6810912519826708
0.0405,1.7625533081257188,1.0,2837.2412010752496,0.36595472212131036,1.3158640862669158,0.9656863292067751,0.2870802389412802,0.6818554815266786
0.041,1.7618391182883733,1.0,2843.4907868561163,0.3695112207994992,1.3154858622155394,0.9662862617814898,0.28705024296811166,0.6826169347644059
0.0415,1.761124928451028,1.0,2849.6458868536697,0.3730477791491294,1.3151085398593736,0.9668668150552171,0.28702024699494316,0.6833756636087167
0.042,1.7604107386136825,1.0,2855.7087048974868,0.3765645051234269,1.314732096694193,0.9674288304959644,0.28699025102177467,0.6841317197400418
0.0425,1.759696548776337,1.0,2861.6814608057625,0.3800615066756175,1.3143565102157735,0.9679731040298842,0.2869602550486061,0.684885154607654
0.043000000000000003,1.7589823589389915,1.0,2867.5663899529277,0.38353889175892725,1.3139817579198896,0.9685003889699206,0.2869302590754376,0.6856360194309179
0.043500000000000004,1.758268169101646,1.0,2873.3657428470055,0.38699676832658203,1.3136078173023167,0.9690113987276329,0.2869002631022691,0.6863843652005
0.044,1.7575539792643005,1.0,2879.0817847195817,0.39043524433180765,1.3132346658588296,0.9695068093262716,0.28687026712910063,0.6871302426795516
0.0445,1.756839789426955,1.0,2884.7167951261285,0.3938544277278302,1.3128622810852038,0.9699872617315085,0.28684027115593214,0.6878737024048565
0.045,1.7561255995896095,1.0,2890.273067557922,0.3972544264678755,1.3124906404772139,0.9704533640147299,0.2868102751827636,0.6886147946879486
0.0455,1.7554114097522642,1.0,2895.7529090653297,0.40063534850516946,1.3121197215306355,0.9709056933624474,0.2867802792095951,0.6893535696161944
0.046,1.7546972199149187,1.0,2901.158639891852,0.4039973017929381,1.3117495017412435,0.9713447979441628,0.2867502832364266,0.6900900770538471
0.0465,1.7539830300775732,1.0,2906.492593119659,0.4073403942844072,1.3113799586048132,0.971771198649936,0.28672028726325804,0.690824366643064
0.047,1.7532688402402277,1.0,2911.757114326698,0.41066473393280273,1.3110110696171193,0.9721853907079038,0.28669029129008955,0.6915564878048959
0.0475,1.7525546504028822,1.0,2916.9545612542847,0.41397042869135064,1.310642812273937,0.9725878451911085,0.28666029531692105,0.6922864897402408
0.048,1.7518404605655367,1.0,2922.087303486394,0.4172575865132768,1.310275164071042,0.9729790104221865,0.2866302993437525,0.6930144214307653
0.0485,1.7511262707281912,1.0,2927.152538066745,0.4205262514221475,1.3099081480067534,0.9733593085751712,0.286600303370584,0.6937402417060723
0.049,1.7504120808908457,1.0,2932.158384190584,0.4237766041736102,1.3095416912365316,0.9737291520089048,0.2865703073974155,0.6944640988087618
0.0495,1.7496978910535004,1.0,2937.1066260378357,0.4270087477492544,1.309175776694853,0.9740889280282784,0.286540311424247,0.6951860303097397
0.05,1.7489837012161549,1.0,2941.998550325226,0.43022277889103966,1.308810391746548,0.974439005540267,0.2865103154510785,0.6959060648894886
0.0505,1.7482695113788094,1.0,2946.8354504665153,0.4334187943409255,1.3084455237564454,0.9747797365183186,0.28648031947791,0.6966242311052682
0.051000000000000004,1.7475553215414639,1.0,2951.6186264259086,0.43659689084087144,1.3080811600893751,0.9751114569304924,0.2864503235047415,0.6973405573915332
0.051500000000000004,1.7468411317041184,1.0,2956.3493845745916,0.439757165132837,1.3077172881101673,0.9754344876087814,0.286420327531573,0.6980550720603453
0.052000000000000005,1.7461269418667729,1.0,2961.0290375516665,0.4428997139587818,1.3073538951836512,0.9757491350638354,0.28639033155840443,0.6987678033017766
0.0525,1.7454127520294274,1.0,2965.658904127938,0.4460246340606652,1.3069909686746566,0.9760556922489582,0.28636033558523594,0.6994787791842986
0.053,1.7446985621920819,1.0,2970.2403090736525,0.4491320221804469,1.3066284959480132,0.9763544392769571,0.28633033961206744,0.7001880276551634
0.0535,1.7439843723547366,1.0,2974.7745830293684,0.4522219750600863,1.3062664643685507,0.9766456440931301,0.28630034363889895,0.7008955765407758
0.054,1.743270182517391,1.0,2979.2630623807354,0.45529458944154305,1.3059048613010988,0.9769295631074341,0.28627034766573045,0.701601453547052
0.0545,1.7425559926800456,1.0,2983.7070891368217,0.4583499620667766,1.305543674110487,0.9772064417886278,0.2862403516925619,0.7023056862597719
0.055,1.7418418028427,1.0,2988.1080108116334,0.4613881896777465,1.3051828901615454,0.9774765152229876,0.2862103557193934,0.7030083021449174
0.0555,1.7411276130053546,1.0,2992.4671803093797,0.4644093690164123,1.3048224968191036,0.9777400086399818,0.2861803597462249,0.7037093285490039
0.056,1.740413423168009,1.0,2996.7859558134496,0.4674135968247334,1.3044624814479908,0.9779971379071167,0.28615036377305636,0.7044087926994
0.0565,1.7396992333306636,1.0,3001.065700678622,0.47040096984466945,1.3041028314130372,0.9782481099960059,0.28612036779988786,0.7051067217046361
0.057,1.738985043493318,1.0,3005.30778332698,0.47337158481818,1.3037435340790722,0.9784931234215534,0.28609037182671937,0.7058031425547051
0.0575,1.7382708536559728,1.0,3009.5135771473065,0.47632553848722453,1.3033845768109256,0.978732368656012,0.2860603758535509,0.7064980821213508
0.058,1.7375566638186273,1.0,3013.6844603980094,0.47926292759376254,1.303025946973427,0.9789660285195421,0.2860303798803823,0.7071915671583474
0.0585,1.7368424739812818,1.0,3017.8207638917606,0.48218382701904833,1.3026676410273568,0.9791942772050427,0.28600038390721383,0.7078836067440533
0.059000000000000004,1.7361282841439363,1.0,3021.922618373728,0.4850883159460166,1.3023096571775756,0.9794172825205668,0.28597038793404533,0.7085742065598747
0.059500000000000004,1.7354140943065908,1.0,3025.9932205163527,0.4879765372505799,1.3019519671721473,0.9796352095068699,0.28594039196087684,0.7092634232170614
0.06,1.7346999044692453,1.0,3030.033193483393,0.49084857698978746,1.3015945650422605,0.9798482133195143,0.2859103959877083,0.709951270207174
0.0605,1.7339857146318998,1.0,3034.043162843543,0.49370452122068864,1.3012374448191026,0.9800564431539485,0.2858804000145398,0.7106377609657465
0.061,1.7332715247945543,1.0,3038.0237565317984,0.49654445600033265,1.3008806005338622,0.980260042520259,0.2858504040413713,0.7113229088723929
0.0615,1.732557334957209,1.0,3041.975604813238,0.49936846738576873,1.3005240262177271,0.9804591495032313,0.28582040806820275,0.7120067272509147
0.062,1.7318431451198635,1.0,3045.8993402466926,0.5021766414340461,1.3001677159018856,0.9806538970086079,0.28579041209503425,0.7126892293694034
0.0625,1.731128955282518,1.0,3049.7955976494823,0.5049690642022141,1.2998116636175256,0.9808444129963787,0.28576041612186576,0.7133704284403433
0.063,1.7304147654451725,1.0,3053.6650140625957,0.5077458217473219,1.2994558633958353,0.9810308207018734,0.28573042014869726,0.7140503376207106
0.0635,1.729700575607827,1.0,3057.5082287172186,0.5105070001264187,1.299100309268003,0.9812132388453867,0.2857004241755287,0.7147289700120696
0.064,1.7289863857704815,1.0,3061.3258830019076,0.513252685396554,1.2987449952652164,0.9813917818310023,0.2856704282023602,0.7154063386606693
0.0645,1.728272195933136,1.0,3065.11862043,0.5159829636147768,1.2983899154186638,0.9815665599352584,0.2856404322291917,0.7160824565575341
0.065,1.7275580060957905,1.0,3068.887086608514,0.5186979208381365,1.2980350637595333,0.9817376794862331,0.2856104362560232,0.7167573366385553
0.0655,1.726843816258445,1.0,3072.6319292072712,0.5213976431236822,1.2976804343190131,0.9819052430336104,0.2855804402828547,0.7174309917845781
0.066,1.7261296264210997,1.0,3076.353797929795,0.5240822165284633,1.297326021128291,0.9820693495102384,0.2855504443096862,0.7181034348214892
0.0665,1.7254154365837542,1.0,3080.0533444833195,0.5267517271095291,1.2969718182185555,0.9822300943856646,0.2855204483365177,0.7187746785202973
0.067,1.7247012467464087,1.0,3083.7312225512305,0.5294062609239286,1.2966178196209943,0.9823875698120996,0.28549045236334913,0.7194447355972171
0.0675,1.7239870569090632,1.0,3087.3880877656325,0.5320459040287114,1.2962640193667956,0.9825418647632357,0.28546045639018064,0.7201136187137467
0.068,1.7232728670717177,1.0,3091.0245976802494,0.5346707424809265,1.2959104114871478,0.9826930651663156,0.28543046041701214,0.7207813404767438
0.0685,1.7225586772343722,1.0,3094.6414117449226,0.5372808623376232,1.2955569900132387,0.9828412540278252,0.2854004644438436,0.7214479134385023
0.069,1.7218444873970267,1.0,3098.2386136203145,0.5398763264842995,1.295203753904617,0.9829865103450696,0.2853704684706751,0.7221133408183109
0.0695,1.7211302975596814,1.0,3101.8164311945634,0.5424572131771149,1.294850700895422,0.9831289113766561,0.2853404724975066,0.7227776281297144
0.07,1.7204161077223359,1.0,3105.376213913175,0.5450236444067609,1.2944978191692693,0.9832685340261064,0.2853104765243381,0.7234407988027562
0.07050000000000001,1.7197019178849904,1.0,3108.9182622643825,0.5475756966688191,1.294145105872487,0.9834054503104156,0.2852804805511696,0.7241028593471408
