Time [s],Phi [rad],STIM [ ],Fsee [N],Gamma [ ],Lcerel [ ],q [ ],Lmtc [m],fisomrel [ ]
0.0,1.8,1.0,21.014653951346098,0.001786040397683399,1.3790116909449242,0.005814742594816279,0.288653,0.5419328384153996
0.0005,1.79999375,1.0,21.800596444854627,0.007385231432084605,1.378928198338224,0.01859533573873496,0.2886527375,0.5421346317096543
0.001,1.799975,1.0,26.484926798831264,0.012953015431851766,1.3784664635394612,0.04544998798865189,0.28865195,0.5432497958416254
0.0015,1.79994375,1.0,39.12106210804427,0.018489568566380107,1.3773996923845384,0.08368257566814577,0.2886506375,0.545821021007831
0.002,1.7999,1.0,67.69918655028044,0.023995066015172144,1.3755057878958372,0.12996055564377904,0.2886488,0.5503679950788474
0.0025,1.79984375,1.0,118.16126567740721,0.02946968197660161,1.3729708617851248,0.18099953651183104,0.28864643749999996,0.5564181640920323
0.003,1.7997750000000001,1.0,186.70612548802652,0.03491358967058878,1.3702863105735767,0.23412073486371376,0.28864354999999997,0.5627807659496451
0.0035,1.79969375,1.0,265.9096948029114,0.04032696134758708,1.3677396729649225,0.2872886138244933,0.2886401375,0.5687740208152163
0.004,1.7996,1.0,351.00079986068226,0.04570996828850974,1.3653910347132068,0.3390099780369889,0.2886362,0.5742646420638142
0.0045000000000000005,1.7994937500000001,1.0,439.51112115170287,0.05106278077464397,1.363225538933324,0.38827586503575867,0.2886317375,0.5792959434521565
0.005,1.799375,1.0,530.0276806815193,0.056385568302796577,1.3612174689932708,0.43448240456128834,0.28862675,0.5839347579531105
0.0055,1.79924375,1.0,621.4983448720313,0.061678499200871616,1.3593464764531211,0.47733691726239164,0.2886212375,0.588233768688541
0.006,1.7991000000000001,1.0,713.0810858692495,0.06694174084231326,1.3575969450795182,0.516767148950072,0.2886152,0.5922334976715435
0.006500000000000001,1.79894375,1.0,804.1294026956334,0.0721754599348141,1.3559558472830888,0.5528466700302133,0.2886086375,0.595967585411283
0.007,1.798775,1.0,894.0656364668835,0.07737982192805609,1.3544134291825187,0.5857398935937489,0.28860155,0.5994614834664789
0.0075,1.79859375,1.0,982.4416003527585,0.08255499169542993,1.3529610652304418,0.6156609487193089,0.2885939375,0.6027375205082648
0.008,1.7984,1.0,1068.8742263836841,0.08770113274873316,1.3515916471813525,0.6428466785214615,0.2885858,0.6058141378581101
0.0085,1.79819375,1.0,1153.0792690621083,0.0928184079762564,1.3502985855877436,0.6675381862231339,0.2885771375,0.6087082300230429
0.009000000000000001,1.797975,1.0,1234.8388672895842,0.09790697954721352,1.3490759796145602,0.6899698534049702,0.28856795,0.6114348228830842
0.0095,1.79774375,1.0,1313.9756147047149,0.10296700805949958,1.3479187006529445,0.7103629444794769,0.2885582375,0.6140069443111187
0.01,1.7975,1.0,1390.3712915963079,0.10799865345922363,1.3468219241761739,0.7289220430156441,0.288548,0.6164367120878071
0.0105,1.79724375,1.0,1463.98269272832,0.11300207606885433,1.345780798021524,0.7458336349151926,0.2885372375,0.6187360960446366
0.011,1.796975,1.0,1534.7498051196126,0.11797743340198126,1.344791476015553,0.7612666257375397,0.28852595000000003,0.620914662203496
0.0115,1.79669375,1.0,1602.648917231272,0.12292488246269041,1.3438503049805517,0.775372668091964,0.2885141375,0.6229814023111657
0.012,1.7964,1.0,1667.6981116095155,0.12784458000922383,1.3429536867874754,0.7882872795132556,0.28850180000000003,0.6249450533127494
0.0125,1.79609375,1.0,1729.9401653365865,0.13273668231266034,1.3420982205311702,0.800131278779309,0.2884889375,0.6268137994560167
0.013000000000000001,1.7957750000000001,1.0,1789.4158058305716,0.137601344179933,1.3412809428775108,0.8110122941568468,0.28847555,0.62859476412193
0.0135,1.79544375,1.0,1846.1641957045274,0.14243871878350797,1.3404992511909861,0.821026096250466,0.2884616375,0.6302941962320718
0.014,1.7951000000000001,1.0,1900.2508857943726,0.14724895929585152,1.339750542836085,0.8302577598786784,0.2884472,0.6319182673551837
0.0145,1.79474375,1.0,1951.7466249273734,0.15203221772629172,1.3390324181871198,0.8387829484565652,0.2884322375,0.6334726384508735
0.015,1.794375,1.0,2000.7540002351766,0.15678864703899265,1.3383423624156836,0.8466688958603157,0.28841675,0.6349631562339739
0.0155,1.79399375,1.0,2047.3341666690458,0.16151839653779904,1.3376785015142079,0.8539756388287284,0.2884007375,0.6363942270890279
0.016,1.7936,1.0,2091.5598879103704,0.16622161530759558,1.337038998633189,0.860756669848611,0.2883842,0.6377701320163816
0.0165,1.7931937500000001,1.0,2133.517687984819,0.170898452433267,1.3364220169231227,0.8670597016075459,0.2883671375,0.6390951101064355
0.017,1.792775,1.0,2173.289771161683,0.17554905569620155,1.3358258916426429,0.8729274000847833,0.28834955,0.6403729926735455
0.0175,1.7923437500000001,1.0,2210.980846118181,0.18017357408604004,1.3352488406753542,0.8783978992948058,0.2883314375,0.6416078278884916
0.018000000000000002,1.7919,1.0,2246.66299814829,0.18477215285854784,1.3346895120351128,0.8835054770820775,0.2883128,0.6428027121610271
0.0185,1.79144375,1.0,2280.4093722433136,0.18934493668379657,1.3341466235457928,0.8882809075602663,0.2882936375,0.6439605675157724
0.019,1.790975,1.0,2312.300317172464,0.19389207023185803,1.3336188930312687,0.8927518478606987,0.28827395,0.6450842927697414
0.0195,1.79049375,1.0,2342.417791497485,0.19841369747880422,1.3331050872217989,0.8969432058373394,0.2882537375,0.646176660927799
0.02,1.79,1.0,2370.8456298599094,0.20290996240420453,1.3326040120959959,0.900877448969274,0.288233,0.6472403416379038
0.0205,1.78949375,1.0,2397.6635140263597,0.20738100819080485,1.3321145652238806,0.9045748880959708,0.2882117375,0.6482777919839056
0.021,1.788975,1.0,2422.9332171245546,0.2118269748567537,1.3316358615378836,0.908053940597902,0.28818995000000003,0.6492909927998268
0.021500000000000002,1.78844375,1.0,2446.7202833746483,0.21624800242019945,1.3311670159704352,0.9113312914149242,0.2881676375,0.6502819117769054
0.022,1.7879,1.0,2469.0937151800717,0.2206442308992906,1.3307071434539657,0.9144220799183269,0.2881448,0.6512525040450197
0.0225,1.78734375,1.0,2490.1204572386328,0.22501579932719176,1.3302554086003129,0.9173400737172056,0.28812143749999997,0.6522046080683686
0.023,1.786775,1.0,2509.868013840792,0.22936284684026637,1.329810997275082,0.9200978076480923,0.28809755,0.6531400066212241
0.0235,1.78619375,1.0,2528.407718802975,0.23368551307929555,1.3293730829876091,0.9227067053576283,0.28807313749999996,0.6540604980970586
0.024,1.7856,1.0,2545.788708881297,0.23798393295653703,1.328941069926801,0.9251772342688788,0.2880482,0.6549673868476131
0.0245,1.78499375,1.0,2562.0619047700243,0.24225824138424848,1.3285143622815634,0.9275189625049258,0.2880227375,0.6558619699449545
0.025,1.784375,1.0,2577.2798625088385,0.2465085732746877,1.328092364240803,0.9297406484698658,0.28799675,0.6567455373943888
0.025500000000000002,1.78374375,1.0,2591.496632760749,0.2507350635401124,1.327674479993426,0.9318503204164554,0.2879702375,0.6576193723247383
0.026000000000000002,1.7831000000000001,1.0,2604.762221010997,0.25493784579760553,1.3272601640384685,0.9338553547819993,0.2879432,0.6584846461527893
0.0265,1.78244375,1.0,2617.1252703654523,0.25911705373028304,1.3268488945260308,0.9357625346941297,0.2879156375,0.6593424749589017
0.027,1.781775,1.0,2628.6432638039005,0.26327282246707634,1.3264400774994418,0.9375780916525623,0.28788755,0.6601941192670868
0.0275,1.7810937500000001,1.0,2639.352491496038,0.26740528141136866,1.326033324334517,0.9393077958342841,0.2878589375,0.6610404063245652
0.028,1.7804,1.0,2649.289994045828,0.27151455996654333,1.325628246407073,0.9409569699222192,0.2878298,0.6618821592533628
0.0285,1.77969375,1.0,2658.4934977424386,0.2756007875359835,1.3252244550929257,0.9425305296666973,0.2878001375,0.6627201970966503
0.029,1.778975,1.0,2667.0013531586933,0.27966409352307253,1.3248215617678911,0.9440330202819767,0.28776995,0.6635553348554468
0.029500000000000002,1.7782437500000001,1.0,2674.852477098629,0.2837046073311937,1.3244191778077856,0.9454686491508306,0.2877392375,0.6643883835156901
0.03,1.7775,1.0,2682.0799862696017,0.28772245584767714,1.3240169724636064,0.9468413220628995,0.287708,0.6652200304704035
0.0305,1.77674375,1.0,2688.7231890250887,0.2917177692062084,1.3236145622094966,0.9481546565778192,0.2876762375,0.6660510686414409
0.031,1.775975,1.0,2694.813836890711,0.29569067406539684,1.3232116364316067,0.9494120203456807,0.28764395,0.6668821367193971
0.0315,1.7751937500000001,1.0,2700.3776308501638,0.2996412943492124,1.3228079428783124,0.9506165503202026,0.2876111375,0.6677137500467865
0.032,1.7744,1.0,2705.4405495189503,0.30356975398162495,1.3224032292979893,0.9517711654734945,0.2875778,0.6685464213591459
0.0325,1.77359375,1.0,2710.0288225717377,0.30747617688660456,1.321997243439013,0.9528785846055001,0.2875439375,0.6693806607706536
0.033,1.772775,1.0,2714.168905580109,0.3113606869881211,1.3215897330497588,0.9539413424938592,0.28750955,0.6702169757556915
0.0335,1.7719437500000002,1.0,2717.8874562614355,0.31522340821014455,1.3211804458786025,0.9549618045565466,0.2874746375,0.6710558711263459
0.034,1.7711000000000001,1.0,2721.2029544842576,0.3190644563496837,1.3207692057575033,0.9559421865186025,0.2874392,0.6718976933600143
0.0345,1.7702437500000001,1.0,2724.1514771808106,0.3228839650057294,1.3203556776916305,0.9568845469879743,0.2874032375,0.6727431115138269
0.035,1.7693750000000001,1.0,2726.751323209305,0.3266820533787141,1.3199396898176967,0.9577908260483529,0.28736675,0.6735924581612118
0.035500000000000004,1.76849375,1.0,2729.0191564082093,0.3304588390869503,1.3195210860992699,0.9586628417675844,0.2873297375,0.6744460316898692
0.036000000000000004,1.7676,1.0,2730.9717323388527,0.33421443974875054,1.319099710499919,0.95950229808048,0.2872922,0.6753041286953697
0.0365,1.76669375,1.0,2732.6258880755454,0.3379489729824272,1.318675406983212,0.9603107932470495,0.2872541375,0.67616704395435
0.037,1.765775,1.0,2733.9985325350003,0.3416625564062929,1.3182480195127178,0.9610898275925761,0.28721555,0.6770350703961506
0.0375,1.76484375,1.0,2735.1066373457957,0.34535530763866007,1.3178173920520049,0.96184081059782,0.2871764375,0.6779084990729025
0.038,1.7639,1.0,2735.9672282577576,0.3490273442978412,1.3173833685646419,0.962565067400487,0.28713679999999997,0.6787876191280635
0.0385,1.76294375,1.0,2736.5973770909263,0.35267878400214886,1.316945793014197,0.9632638447627639,0.28709663750000003,0.6796727177633985
0.039,1.761975,1.0,2737.0074141514388,0.3563097361757733,1.316504570907921,0.9639383206363253,0.28705595,0.6805639559770178
0.0395,1.7609937500000001,1.0,2737.2146354116253,0.35992032288063186,1.3160595448042947,0.9645896015916645,0.2870147375,0.6814616203383357
0.04,1.76,1.0,2737.2357651372986,0.3635106645131254,1.315610562691708,0.9652187310941074,0.286973,0.6823659844305594
0.0405,1.7589937500000001,1.0,2737.0800291443375,0.36708087140384293,1.3151575408075518,0.9658266977889733,0.2869307375,0.6832771826279858
0.041,1.757975,1.0,2736.756669952925,0.3706310538833735,1.3147003953892156,0.9664144350718845,0.28688795,0.6841953480289267
0.0415,1.75694375,1.0,2736.2749438839573,0.3741613222823061,1.3142390426740898,0.9669828247465738,0.2868446375,0.6851206124339018
0.042,1.7559,1.0,2735.6441183109077,0.37767178693122994,1.3137733988995643,0.967532700404145,0.28680079999999997,0.6860531063233892
0.0425,1.75484375,1.0,2734.8734690675174,0.381162558160734,1.3133033803030296,0.9680648505476368,0.2867564375,0.686992958835125
0.043000000000000003,1.753775,1.0,2733.972278010288,0.38463374630140745,1.3128289031218754,0.9685800214834851,0.28671155,0.6879402977409577
0.043500000000000004,1.75269375,1.0,2732.9498307377157,0.3880854616838393,1.3123498835934921,0.9690789199994492,0.28666613750000003,0.6888952494232523
0.044,1.7516,1.0,2731.8154144638015,0.3915178146386185,1.3118662379552697,0.9695622158467548,0.2866202,0.6898579388508518
0.0445,1.75049375,1.0,2730.57831604831,0.39493091549633436,1.3113778824445983,0.9700305440425686,0.2865737375,0.6908284895545853
0.045,1.7493750000000001,1.0,2729.2445582509877,0.39832486754230834,1.3108847629499636,0.970484508259567,0.28652675,0.6918069648136
0.0455,1.74824375,1.0,2727.821794558676,0.4016997825241138,1.3103868105286425,0.9709246815929435,0.2864792375,0.6927934561538795
0.046,1.7471,1.0,2726.3189790965016,0.4050557740643883,1.309883944379042,0.9713516076713868,0.2864312,0.6937880772196646
0.0465,1.7459437500000001,1.0,2724.740814049937,0.4083929452593271,1.3093761223276124,0.9717658044449854,0.28638263750000004,0.6947908639462061
0.047,1.744775,1.0,2723.0919995280588,0.41171139920512545,1.308863302200803,0.972167764343105,0.28633355,0.6958018512551514
0.0475,1.74359375,1.0,2721.377232939065,0.4150112389979785,1.3083454418250633,0.9725579557683186,0.28628393750000003,0.6968210730411559
0.048,1.7424,1.0,2719.601208404246,0.41829256773408147,1.307822499026843,0.9729368244893951,0.2862338,0.6978485621583841
0.0485,1.74119375,1.0,2717.7686162127998,0.42155548850962965,1.3072944316325918,0.9733047949410436,0.2861831375,0.6988843504068952
0.049,1.739975,1.0,2715.8841423147683,0.4248001044208183,1.3067611974687594,0.9736622714374593,0.28613195,0.6999284685189184
0.0495,1.73874375,1.0,2713.9524678544276,0.4280265185638425,1.3062227543617952,0.9740096393061203,0.2860802375,0.7009809461450116
0.05,1.7375,1.0,2711.9782687425177,0.4312348340348976,1.305679060138149,0.9743472659477523,0.286028,0.7020418118401082
0.0505,1.73624375,1.0,2709.9662152679434,0.43442515393017883,1.30513007262427,0.9746755018278965,0.2859752375,0.7031110930494506
0.051000000000000004,1.734975,1.0,2707.9150756249032,0.43759756867082533,1.3045758034532966,0.9749946835055626,0.28592195,0.7041887115777387
0.051500000000000004,1.73369375,1.0,2705.828437365355,0.4407521829857658,1.3040162202864884,0.9753051310701588,0.2858681375,0.7052746741158078
0.052000000000000005,1.7324,1.0,2703.718131499651,0.44388911559805866,1.3034512154559486,0.9756071469448883,0.2858138,0.7063691321374601
0.0525,1.73109375,1.0,2701.5859806324393,0.4470084616847352,1.3028807725712377,0.9759010233403831,0.28575893750000003,0.7074720586946754
0.053,1.729775,1.0,2699.4338048383124,0.45011031642282684,1.3023048752419155,0.9761870396148027,0.28570355000000003,0.708583426036256
0.0535,1.72844375,1.0,2697.2634215892936,0.45319477498936483,1.3017235070775426,0.976465462946579,0.2856476375,0.7097032056021304
0.054,1.7271,1.0,2695.0766456887345,0.4562619325613805,1.3011366516876792,0.9767365489664178,0.2855912,0.7108313680176447
0.0545,1.7257437500000001,1.0,2692.875289210849,0.4593118843159051,1.3005442926818855,0.9770005423513433,0.2855342375,0.7119678830878353
0.055,1.724375,1.0,2690.6611614461967,0.46234472542997,1.2999464136697216,0.9772576773833652,0.28547675,0.7131127197916844
0.0555,1.72299375,1.0,2688.4360688534525,0.46536055108060653,1.299342998260748,0.9775081784751529,0.2854187375,0.7142658462763578
0.056,1.7216,1.0,2686.2018150165773,0.46835945644484595,1.298734030064525,0.9777522606649176,0.2853602,0.715427229851427
0.0565,1.72019375,1.0,2683.9602006086625,0.4713415366997196,1.2981194926906126,0.9779901300825516,0.28530113749999997,0.7165968369830733
0.057,1.718775,1.0,2681.713023361209,0.4743068870222588,1.2974993697485708,0.9782219843889046,0.28524155,0.7177746332882753
0.0575,1.71734375,1.0,2679.4620780390997,0.4772556025894949,1.2968736448479605,0.9784480131899572,0.2851814375,0.7189605835289765
0.058,1.7159,1.0,2677.2091564225457,0.4801877785784591,1.2962423015983415,0.9786683984275115,0.2851208,0.7201546516062413
0.0585,1.71444375,1.0,2674.9560472939343,0.4831035101661828,1.2956053236092742,0.9788833147479089,0.2850596375,0.7213568005543888
0.059000000000000004,1.7129750000000001,1.0,2672.701540506944,0.4860028706447358,1.294962722009965,0.9790929295296533,0.28499795,0.7225669407668114
0.059500000000000004,1.71149375,1.0,2670.449646829936,0.4888859741363821,1.2943144599704401,0.9792974043462064,0.2849357375,0.7237850722331256
0.06,1.71,1.0,2668.20214685804,0.49175291719521586,1.2936605211015717,0.9794968940818316,0.284873,0.7250111554411778
0.0605,1.7084937500000001,1.0,2665.9595607122537,0.49460378685613143,1.2930009005796281,0.9796915474573716,0.2848097375,0.7262451283785933
0.061,1.7069750000000001,1.0,2663.7224076394273,0.49743867015402304,1.2923355935808778,0.9798815074751033,0.28474595,0.7274869283345531
0.0615,1.7054437500000001,1.0,2661.49120601639,0.5002576541237848,1.291664595281589,0.9800669116804066,0.2846816375,0.7287364918980449
0.062,1.7039,1.0,2659.266473355083,0.503060825800311,1.2909879008580305,0.9802478924095323,0.2846168,0.729993754956113
0.0625,1.70234375,1.0,2657.048726307101,0.5058482722184956,1.2903055054864703,0.9804245770243141,0.2845514375,0.7312586526921078
0.063,1.7007750000000001,1.0,2654.8384806698573,0.5086200804132331,1.289617404343177,0.9805970881345989,0.28448555,0.732531119583931
0.0635,1.69919375,1.0,2652.636251392806,0.5113763374194177,1.288923592604419,0.9807655438091282,0.28441913750000003,0.7338110894022825
0.064,1.6976,1.0,2650.442552583697,0.5141171302719433,1.2882240654464643,0.9809300577755458,0.2843522,0.7350984952089039
0.0645,1.69599375,1.0,2648.2578975165766,0.5168425460057045,1.2875188180455819,0.9810907396101737,0.2842847375,0.7363932693548201
0.065,1.694375,1.0,2646.0827986389777,0.519552671655595,1.2868078455780398,0.9812476949181447,0.28421675,0.7376953434785818
0.0655,1.69274375,1.0,2643.9177675804003,0.5222475942565096,1.2860911432201065,0.9814010255044511,0.2841482375,0.7390046485045041
0.066,1.6911,1.0,2641.7633151611494,0.524927400843342,1.2853687061480505,0.9815508295364259,0.2840792,0.7403211146409043
0.0665,1.6894437500000001,1.0,2639.6199514017176,0.5275921784509867,1.28464052953814,0.9816972016981469,0.2840096375,0.7416446713783394
0.067,1.687775,1.0,2637.486911055954,0.5302419759555478,1.28390662035149,0.9818402313507012,0.28393955,0.7429752261498563
0.0675,1.68609375,1.0,2635.365769052573,0.5328769130080518,1.2831669639130983,0.9819800084130949,0.2838689375,0.7443127249624939
0.068,1.6844000000000001,1.0,2633.2571791165587,0.5354970893413022,1.2824215540499566,0.9821166187466868,0.2837978,0.7456570976020646
0.0685,1.68269375,1.0,2631.16105276185,0.5381025833134819,1.2816703914511978,0.9822501441812473,0.2837261375,0.7470082607771972
0.069,1.680975,1.0,2629.0773016982985,0.5406934732827745,1.2809134768059547,0.9823806637499002,0.28365395,0.7483661305764999
0.0695,1.67924375,1.0,2627.0058378299645,0.5432698376073629,1.2801508108033601,0.9825082538023702,0.28358123749999997,0.7497306224688136
0.07,1.6775,1.0,2624.9465732536187,0.5458317546454305,1.2793823941325468,0.982632988112893,0.283508,0.7511016513034638
0.07050000000000001,1.67574375,1.0,2622.8994202568983,0.5483793027551606,1.278608227482648,0.9827549379830691,0.2834342375,0.7524791313105136
0.07100000000000001,1.673975,1.0,2620.864291316863,0.5509125602947363,1.2778283115427962,0.9828741723399333,0.28335995,0.7538629761010172
0.07150000000000001,1.67219375,1.0,2618.8410990983643,0.553431605622341,1.2770426470021246,0.9829907578294905,0.2832851375,0.7552530986672711
0.07200000000000001,1.6704,1.0,2616.8297564525265,0.5559365170961579,1.2762512345497659,0.983104758905958,0.2832098,0.7566494113830684
0.0725,1.66859375,1.0,2614.8301764150415,0.55842737307437,1.2754540748748529,0.983216237916936,0.2831339375,0.7580518260039508
0.073,1.6667750000000001,1.0,2612.842272204668,0.5609042519151609,1.2746511686665185,0.9833252551847189,0.28305755,0.7594602536674605
0.0735,1.66494375,1.0,2610.865957221807,0.5633672319767137,1.2738425166138956,0.9834318690839446,0.2829806375,0.7608746048933939
0.074,1.6631,1.0,2608.90114504654,0.5658163916172116,1.2730281194061173,0.9835361361157713,0.2829032,0.7622947895840528
0.0745,1.6612437500000001,1.0,2606.947749437674,0.568251809194838,1.272207977732316,0.9836381109787548,0.2828252375,0.7637207170244991
0.075,1.659375,1.0,2605.005684330801,0.5706735630677758,1.271382092281625,0.9837378466365964,0.28274675,0.7651522958828048
0.0755,1.65749375,1.0,2603.0748638369814,0.5730817315942087,1.270550463743177,0.9838353943829172,0.2826677375,0.7665894342103057
