Time [s],Phi [rad],STIM [ ],Fsee [N],Gamma [ ],Lcerel [ ],q [ ],Lmtc [m],fisomrel [ ]
0.0,1.8,1.0,17.96799462142587,1.0354009769755837e-05,1.3793396525100077,0.00500002856432141,0.288653,0.5411397577601615
0.0005,1.79999375,1.0,18.277368426635558,0.005619505240757513,1.3793023184446769,0.012941495658140414,0.2886527375,0.5412300740513167
0.001,1.799975,1.0,21.619205832038013,0.011197193568260497,1.3789382179270198,0.03561041754185058,0.28865195,0.5421104177113982
0.0015,1.79994375,1.0,31.070523310999047,0.01674359547515068,1.3780460940559984,0.07060422393200293,0.2886506375,0.544263873625648
0.002,1.7999,1.0,53.58453848062951,0.022258886452650957,1.3763679921658456,0.11472081943888644,0.2886488,0.5483008114574298
0.0025,1.79984375,1.0,97.12212862351305,0.027743241007895856,1.3739350134952573,0.1645779199021983,0.28864643749999996,0.5541218293440746
0.003,1.7997750000000001,1.0,160.96223903363918,0.03319683267165042,1.371214191330436,0.21728357746386637,0.28864354999999997,0.5605868117184005
0.0035,1.79969375,1.0,237.6878805882048,0.03861983399790078,1.3685845941111978,0.27061599561984895,0.2886401375,0.5667901689537104
0.004,1.7996,1.0,321.47159253082765,0.044012416574636545,1.366155964701685,0.32291881068502803,0.2886362,0.5724802599278649
0.0045000000000000005,1.7994937500000001,1.0,409.27274926487854,0.04937475102903534,1.3639226968336617,0.3730373645521468,0.2886317375,0.5776794347235801
0.005,1.799375,1.0,499.418597598088,0.05470700701854949,1.3618582341121177,0.4202501345519115,0.28862675,0.582457329098405
0.0055,1.79924375,1.0,590.7955614551857,0.060009353278390104,1.359938734530731,0.4641761746722078,0.2886212375,0.5868753424247959
0.006,1.7991000000000001,1.0,682.5232565567906,0.06528195756464457,1.3581463211664795,0.5046822389960802,0.2886152,0.5909796321266484
0.006500000000000001,1.79894375,1.0,773.886457054163,0.07052498670991245,1.3564671648637874,0.5418028425076348,0.2886086375,0.5948059960904766
0.007,1.798775,1.0,864.2908925335254,0.07573860660689626,1.35489031291673,0.5756786804334225,0.28860155,0.5983828628758465
0.0075,1.79859375,1.0,953.2482944870425,0.08092298221813664,1.353406701069805,0.6065116440520459,0.2885939375,0.6017337488487166
0.008,1.7984,1.0,1040.3496846777284,0.08607827717395695,1.3520087754641819,0.6345337495048092,0.2885858,0.6048782589164772
0.0085,1.79819375,1.0,1125.3196432777145,0.09120465558251067,1.3506891648312833,0.6599858607861606,0.2885771375,0.6078351711413807
0.009000000000000001,1.797975,1.0,1207.9051676240763,0.09630227937756478,1.3494419669086366,0.6831054932573541,0.28856795,0.6106196165912734
0.0095,1.79774375,1.0,1287.8969385565388,0.10137130908364786,1.3482620611754008,0.704118662007079,0.2885582375,0.6132446962559355
0.01,1.7975,1.0,1365.171575050632,0.10641190522528864,1.3471443271107346,0.7232353064512062,0.288548,0.6157232657998575
0.0105,1.79724375,1.0,1439.6639179919803,0.11142422775366541,1.3460838910828234,0.7406476437059838,0.2885372375,0.6180674117760601
0.011,1.796975,1.0,1511.326645694323,0.11640843543416868,1.3450764995102884,0.7565300256896738,0.28852595000000003,0.620287657798871
0.0115,1.79669375,1.0,1580.1251316732876,0.12136468544459442,1.3441184338483954,0.7710394316712098,0.2885141375,0.6223931871356108
0.012,1.7964,1.0,1646.0608735757085,0.12629313442048729,1.3432061197441532,0.7843163432872337,0.28850180000000003,0.6243927275834248
0.0125,1.79609375,1.0,1709.1777293069006,0.13119393923075143,1.3423359916656485,0.7964860182245093,0.2884889375,0.6262948622777329
0.013000000000000001,1.7957750000000001,1.0,1769.5104524426188,0.13606725473085177,1.3415050287470904,0.8076601281165958,0.28847555,0.6281068728968398
0.0135,1.79544375,1.0,1827.0953449565477,0.14091323437012018,1.3407105526767469,0.8179380515711671,0.2884616375,0.6298352018326074
0.014,1.7951000000000001,1.0,1881.99634988396,0.14573203159788856,1.3399498851428866,0.8274080705221799,0.2884472,0.6314862104315633
0.0145,1.79474375,1.0,1934.281981709385,0.1505237988395875,1.339220570773973,0.8361486973251934,0.2884322375,0.6330657026906248
0.015,1.794375,1.0,1984.053441097704,0.15528868911575622,1.3385200391941448,0.8442296820879525,0.28841675,0.6345796653826361
0.0155,1.79399375,1.0,2031.3736652064613,0.16002685216268078,1.3378463387974617,0.8517132777515294,0.2884007375,0.6360326892893837
0.016,1.7936,1.0,2076.314052510742,0.16473843732190058,1.3371975963903642,0.8586549440958646,0.2883842,0.6374291485604626
0.0165,1.7931937500000001,1.0,2118.9603161093746,0.16942359393495499,1.3365719387792914,0.8651041280397481,0.2883671375,0.6387733738085106
0.017,1.792775,1.0,2159.3933202290123,0.17408247012626138,1.3359676760167907,0.871105028759719,0.28834955,0.6400692623465458
0.0175,1.7923437500000001,1.0,2197.7203000578725,0.17871521491742887,1.3353829654314828,0.8766971221954352,0.2883314375,0.6413210028647475
0.018000000000000002,1.7919,1.0,2234.012791485869,0.1833219737932194,1.334816431627545,0.881915883134356,0.2883128,0.6425317509955277
0.0185,1.79144375,1.0,2268.344956672193,0.1879028918335098,1.3342667566793354,0.8867931408365012,0.2882936375,0.6437045133261416
0.019,1.790975,1.0,2300.798478004897,0.19245811411817693,1.333732622661211,0.8913574862748046,0.28827395,0.6448422722310899
0.0195,1.79049375,1.0,2331.4535001352565,0.1969877846285263,1.333212794454587,0.8956346629397022,0.2882537375,0.6459478112620061
0.02,1.79,1.0,2360.3987851349807,0.20149204841923526,1.3327060120763619,0.8996478656412115,0.288233,0.6470239461997569
0.0205,1.78949375,1.0,2387.7055254661445,0.2059710475467393,1.332211240743774,0.9034180806830612,0.2882117375,0.6480729959294713
0.021,1.788975,1.0,2413.4392102721667,0.21042492262676885,1.331727545264532,0.906964302090516,0.28818995000000003,0.6490970526555097
0.021500000000000002,1.78844375,1.0,2437.6693283340646,0.21485381427505423,1.3312539904463436,0.91030372887248,0.2881676375,0.6500981945579518
0.022,1.7879,1.0,2460.4690310621518,0.21925786310732584,1.330789641096917,0.9134519594139862,0.2881448,0.6510784864252959
0.0225,1.78734375,1.0,2481.901080572093,0.22363720724409208,1.3303336929425333,0.916423187242292,0.28812143749999997,0.6520397044226662
0.023,1.786775,1.0,2502.047308690405,0.22799198907131718,1.3298851874779163,0.9192302970210431,0.28809755,0.6529839384013394
0.0235,1.78619375,1.0,2520.9618972828366,0.23232234510764518,1.3294434544432423,0.9218850793411129,0.28807313749999996,0.6539126604735438
0.024,1.7856,1.0,2538.696473598271,0.2366284109423185,1.3290078677212869,0.9243982992624681,0.2880482,0.6548272416374115
0.0245,1.78499375,1.0,2555.304553069971,0.24091032216457953,1.3285778011948253,0.9267797926667437,0.2880227375,0.6557290451593556
0.025,1.784375,1.0,2570.841379972573,0.2451682143636707,1.3281526287466325,0.9290385592080932,0.28799675,0.6566194268069987
0.025500000000000002,1.78374375,1.0,2585.36377677094,0.2494022231288344,1.327731724259484,0.9311828448349849,0.2879702375,0.6574997350570969
0.026000000000000002,1.7831000000000001,1.0,2598.919549451301,0.2536124803731326,1.327314558984862,0.9332202293398402,0.2879432,0.6583711080246979
0.0265,1.78244375,1.0,2611.5705882869593,0.2577991245218813,1.3269004844578651,0.9351576600430591,0.2879156375,0.6592349274911131
0.027,1.781775,1.0,2623.356930928551,0.26196228651184933,1.3264890660478434,0.9370015576510616,0.28788755,0.6600921229311445
0.0275,1.7810937500000001,1.0,2634.3170373865455,0.2661020963817117,1.3260798920155974,0.9387578385814955,0.2878589375,0.6609435715022205
0.028,1.7804,1.0,2644.4901671492926,0.2702186841701433,1.3256725506219273,0.9404319583952411,0.2878298,0.6617901459547455
0.0285,1.77969375,1.0,2653.916309039893,0.27431217991581913,1.3252666301276337,0.9420289537431779,0.2878001375,0.6626327146856287
0.029,1.778975,1.0,2662.6361148316564,0.2783827136574142,1.3248617187935163,0.9435534799889493,0.28776995,0.6634721417810023
0.029500000000000002,1.7782437500000001,1.0,2670.6890633623575,0.28243041438170685,1.3244574211751345,0.945009846849091,0.2877392375,0.6643092533302977
0.03,1.7775,1.0,2678.1065702937594,0.2864554064879359,1.3240534206972814,0.946402055723479,0.287708,0.6651447083367052
0.0305,1.77674375,1.0,2684.9383712152876,0.2904578276550793,1.3236492368706845,0.9477338004776725,0.2876762375,0.6659795008706109
0.031,1.775975,1.0,2691.2095443260946,0.2944378014939735,1.3232446192921823,0.9490085352230146,0.28764395,0.6668141457227428
0.0315,1.7751937500000001,1.0,2696.945481955174,0.29839545161545494,1.3228393175586126,0.9502294697985069,0.2876111375,0.6676491550965857
0.032,1.7744,1.0,2702.171862323412,0.30233090163035986,1.3224330812668141,0.9513995900637671,0.2875778,0.6684850385994516
0.0325,1.77359375,1.0,2706.914622696743,0.30624427514952474,1.3220256600136249,0.9525216762711948,0.2875439375,0.6693223032295577
0.033,1.772775,1.0,2711.19993392806,0.3101356957837859,1.3216168033958833,0.9535983197197482,0.28750955,0.6701614533591
0.0335,1.7719437500000002,1.0,2715.054176390853,0.3140052871439798,1.3212062610104276,0.9546319378694141,0.2874746375,0.6710029907133325
0.034,1.7711000000000001,1.0,2718.5039173016385,0.3178531728409428,1.320793782454096,0.9556247880750242,0.2874392,0.6718474143456444
0.0345,1.7702437500000001,1.0,2721.5725415082857,0.321679473584601,1.3203791477993831,0.9565789826829324,0.2874032375,0.6726951583397354
0.035,1.7693750000000001,1.0,2724.280503308328,0.3254843092272575,1.319962165046355,0.9574965004289577,0.28736675,0.6735465973815339
0.035500000000000004,1.76849375,1.0,2726.657432072428,0.3292678092327307,1.3195425598190742,0.9583791874445786,0.2873297375,0.6744022718886269
0.036000000000000004,1.7676,1.0,2728.718569860593,0.33303009024077374,1.319120189601082,0.9592287841772144,0.2872922,0.6752624508576832
0.0365,1.76669375,1.0,2730.479239461759,0.3367712688911399,1.3186949118759201,0.9600469227169027,0.2872541375,0.6761274016084169
0.037,1.765775,1.0,2731.9548355182083,0.34049146182358253,1.3182665841271302,0.9608351347623251,0.28721555,0.6769973897578074
0.0375,1.76484375,1.0,2733.1608161001805,0.34419078567785477,1.3178350638382537,0.9615948589157025,0.2871764375,0.677872679193027
0.038,1.7639,1.0,2734.112694731101,0.3478693570937099,1.3174002084928318,0.9623274473698915,0.28713679999999997,0.6787535320430705
0.0385,1.76294375,1.0,2734.82603286281,0.3515272927109012,1.3169618755744064,0.9630341720444466,0.28709663750000003,0.6796402086490898
0.039,1.761975,1.0,2735.3164328009143,0.3551647091691819,1.316519922566519,0.9637162302215612,0.28705595,0.6805329675334338
0.0395,1.7609937500000001,1.0,2735.5995310815483,0.35878172310830525,1.3160742069527107,0.9643747497276149,0.2870147375,0.6814320653673949
0.04,1.76,1.0,2735.6824290371896,0.3623784399850711,1.3156246639652562,0.9650107985932891,0.286973,0.6823376004362853
0.0405,1.7589937500000001,1.0,2735.5850174012066,0.3659549851287003,1.315171112923147,0.965625377686057,0.2869307375,0.6832499029935746
0.041,1.757975,1.0,2735.322237651703,0.36951147700824605,1.3147134182458726,0.9662194343941628,0.28688795,0.6841692103826482
0.0415,1.75694375,1.0,2734.902213919173,0.3730480246969223,1.3142515063774574,0.9667938672107043,0.2868446375,0.685095633735647
0.042,1.7559,1.0,2734.3330818869545,0.3765647372679429,1.313785303761925,0.967349525338911,0.28680079999999997,0.6860292829816215
0.0425,1.75484375,1.0,2733.6229865224077,0.38006172379452163,1.3133147368433,0.9678872118970465,0.2867564375,0.6869702668265742
0.043000000000000003,1.753775,1.0,2732.780079927625,0.3835390933498726,1.3128397320656064,0.9684076868834873,0.28671155,0.687918692733162
0.043500000000000004,1.75269375,1.0,2731.8125193112814,0.38699695500720943,1.3123602158728682,0.9689116699221736,0.28666613750000003,0.6888746669000484
0.044,1.7516,1.0,2730.728465078803,0.3904354178397461,1.3118761147091096,0.9693998428067346,0.2866202,0.689838294240913
0.0445,1.75049375,1.0,2729.536079044232,0.3938545909206966,1.3113873550183548,0.9698728518599159,0.2865737375,0.6908096783631157
0.045,1.7493750000000001,1.0,2728.243522760607,0.3972545833232747,1.3108938632446279,0.970331310123401,0.28652675,0.691788921546016
0.0455,1.74824375,1.0,2726.858955971126,0.40063550412069426,1.3103955658319528,0.9707757993917686,0.2864792375,0.6927761247189472
0.046,1.7471,1.0,2725.3905351800954,0.40399746238616924,1.3098923892243537,0.971206872103084,0.2864312,0.6937713874388447
0.0465,1.7459437500000001,1.0,2723.8429197630585,0.40734055066139635,1.3093842916450302,0.9716250532038163,0.28638263750000004,0.6947747451635934
0.047,1.744775,1.0,2722.224967809854,0.41066489432523157,1.3088711930870047,0.9720308433070759,0.28633355,0.6957863076562827
0.0475,1.74359375,1.0,2720.5416639282416,0.4139705994781039,1.3083530487419182,0.9724247184543272,0.28628393750000003,0.6968061139399371
0.048,1.7424,1.0,2718.797095912933,0.4172577673296807,1.3078298219365592,0.9728071315578626,0.2862338,0.6978341859901348
0.0485,1.74119375,1.0,2716.995348592726,0.42052649908962914,1.307301475997716,0.9731785137968195,0.2861831375,0.6988705448011008
0.049,1.739975,1.0,2715.140503387158,0.4237768959676167,1.306767974252177,0.973539275856696,0.28613195,0.6999152103737746
0.0495,1.73874375,1.0,2713.23663789426,0.42700905917331067,1.3062292800267308,0.9738898090872161,0.2860802375,0.700968201703795
0.05,1.7375,1.0,2711.2878255075743,0.43022308991637825,1.3056853566481657,0.9742304865846148,0.286028,0.7020295367693998
0.0505,1.73624375,1.0,2709.2981350625573,0.4334190894064869,1.3051361674432702,0.9745616642039138,0.2859752375,0.7030992325192365
0.051000000000000004,1.734975,1.0,2707.2716305137606,0.4365971588533038,1.3045816757388324,0.9748836815063068,0.28592195,0.7041773048600917
0.051500000000000004,1.73369375,1.0,2705.212370640811,0.43975739946649633,1.304021844861641,0.9751968626463454,0.2858681375,0.7052637686445291
0.052000000000000005,1.7324,1.0,2703.1244087850287,0.44289991245573185,1.3034566381384842,0.975501517203258,0.2858138,0.7063586376584472
0.0525,1.73109375,1.0,2701.011792615505,0.4460247990306775,1.3028860188961504,0.9757979409603672,0.28575893750000003,0.7074619246085485
0.053,1.729775,1.0,2698.87757890691,0.44913215142968854,1.302309959465519,0.9760864162703035,0.28570355000000003,0.7085736237498605
0.0535,1.72844375,1.0,2696.721419305707,0.45222204448958525,1.3017284632753587,0.9763672133034113,0.2856476375,0.709693668525161
0.054,1.7271,1.0,2694.5502909361303,0.45529462651513897,1.3011414667462315,0.9766405938148965,0.2855912,0.7108221205546184
0.0545,1.7257437500000001,1.0,2692.365627518707,0.45834998965989787,1.300548956931666,0.9769068057194228,0.2855342375,0.7119589428803814
0.055,1.724375,1.0,2690.1688606022035,0.4613882260774101,1.2999509208851903,0.9771660863808029,0.28547675,0.71310409776826
0.0555,1.72299375,1.0,2687.9614195279596,0.4644094279212239,1.299347345660333,0.9774186631464524,0.2854187375,0.7142575467031667
0.056,1.7216,1.0,2685.7447313973107,0.4674136873448874,1.2987382183106229,0.9776647538504959,0.2853602,0.7154192503845492
0.0565,1.72019375,1.0,2683.5202210432894,0.47040109650194883,1.2981235258895876,0.9779045672876024,0.28530113749999997,0.7165891687218126
0.057,1.718775,1.0,2681.289311005611,0.47337174754595635,1.2975032554507562,0.9781383036594796,0.28524155,0.7177672608297262
0.0575,1.71734375,1.0,2679.05342150948,0.47632573263045813,1.2968773940476568,0.9783661549958131,0.2851814375,0.7189534850238275
0.058,1.7159,1.0,2676.81397044837,0.47926314390900243,1.2962459287338177,0.9785883055513045,0.2851208,0.7201477988158094
0.0585,1.71444375,1.0,2674.5723733702275,0.4821840735351373,1.2956088465627675,0.9788049321803476,0.2850596375,0.7213501589088972
0.059000000000000004,1.7129750000000001,1.0,2672.3300434673574,0.4850886136624111,1.2949661345880348,0.9790162046907666,0.28499795,0.7225605211932187
0.059500000000000004,1.71149375,1.0,2670.0883915705167,0.48797685644437183,1.2943177798631476,0.9792222861779455,0.2849357375,0.7237788407411601
0.06,1.71,1.0,2667.848826145908,0.4908488940345678,1.2936637694416344,0.9794233333405726,0.284873,0.7250050718027123
0.0605,1.7084937500000001,1.0,2665.6127532967676,0.4937048185865471,1.2930040903770237,0.9796194967791574,0.2848097375,0.7262391678008066
0.061,1.7069750000000001,1.0,2663.381576767957,0.496544722253858,1.292338729722844,0.9798109212783724,0.28474595,0.727481081326639
0.0615,1.7054437500000001,1.0,2661.1566979545582,0.49936869719004867,1.2916676745326234,0.9799977460742244,0.2846816375,0.728730764134986
0.062,1.7039,1.0,2658.939515914484,0.5021768355486673,1.2909909118598906,0.9801801051069705,0.2846168,0.729988167139507
0.0625,1.70234375,1.0,2656.7313598613214,0.5049692280903809,1.29030842938028,0.9803581271871744,0.2845514375,0.7312532392562341
0.063,1.7007750000000001,1.0,2654.530656221985,0.5077459593026307,1.2896202415044606,0.9805319372090411,0.28448555,0.7325258791801591
0.0635,1.69919375,1.0,2652.337235011786,0.5105071157932948,1.288926349724924,0.9807016549348939,0.28441913750000003,0.7338060090390017
0.064,1.6976,1.0,2650.151877261939,0.5132527841875032,1.2882267467640094,0.9808673952724747,0.2843522,0.7350935664854452
0.0645,1.69599375,1.0,2647.9753627302903,0.5159830511103863,1.2875214253440566,0.9810292689257112,0.2842847375,0.7363884884187568
0.065,1.694375,1.0,2645.808469911716,0.5186980031870744,1.286810378187405,0.9811873825774436,0.28421675,0.7376907109821357
0.0655,1.69274375,1.0,2643.6518710650635,0.5213977267750273,1.286093598986047,0.9813418390922355,0.2841482375,0.7390001677908513
0.066,1.6911,1.0,2641.501274026615,0.5240823071370627,1.2853711272923085,0.9814927398310166,0.2840792,0.7403167082522866
0.0665,1.6894437500000001,1.0,2639.3613555782968,0.526751829062469,1.2846429198183744,0.9816401784895896,0.2840096375,0.7416403322617043
0.067,1.687775,1.0,2637.2372046636283,0.529406377120085,1.2839089293952386,0.9817842452428308,0.28393955,0.7429710453113821
0.0675,1.68609375,1.0,2635.1245640825805,0.532046035259518,1.283169195239569,0.9819250312071842,0.2838689375,0.7443086953679046
0.068,1.6844000000000001,1.0,2633.020926334179,0.5346708869601919,1.2824237404388523,0.9820626235404089,0.2837978,0.7456531595552545
0.0685,1.68269375,1.0,2630.928357698254,0.5372810153916718,1.2816725457722957,0.9821971043694206,0.2837261375,0.74700439081044
0.069,1.680975,1.0,2628.84797663624,0.5398765030127158,1.2809156007677014,0.9823285533637067,0.28365395,0.7483623253996219
0.0695,1.67924375,1.0,2626.773132443767,0.5424574317934501,1.2801529669232838,0.9824570508127378,0.28358123749999997,0.7497267701660759
0.07,1.6775022582925632,1.0,2624.8262419982043,0.545023884058287,1.2793845293550596,0.9825826661288759,0.28350809484828765,0.7510978468018235
0.07050000000000001,1.6757597721007906,1.0,2623.4165081503456,0.5475759404799978,1.278610668812016,0.9827054891501622,0.2834349104282332,0.7524747934442638
0.07100000000000001,1.674017285909018,1.0,2622.548043112841,0.550113681636313,1.2778317922737803,0.9828256080547031,0.28336172600817877,0.7538568086796524
0.07150000000000001,1.6722747997172456,1.0,2622.178795041556,0.5526371877145938,1.277048287226292,0.9829431073400997,0.28328854158812433,0.7552431331153635
0.07200000000000001,1.6705323135254733,1.0,2622.2643795743916,0.5551465391118666,1.2762605642937683,0.9830580699382041,0.2832153571680699,0.756632973903344
0.0725,1.6687898273337007,1.0,2622.763637248777,0.557641815814676,1.275469005341932,0.9831705749165633,0.28314217274801545,0.758025596606909
0.073,1.6670473411419282,1.0,2623.64637763211,0.5601230959506113,1.2746738913659024,0.9832806943079331,0.283068988327961,0.7594204508989556
0.0735,1.6653048549501557,1.0,2624.882478562091,0.5625904576472617,1.2738755033607994,0.9833884979487663,0.2829958039079065,0.760816991896903
0.074,1.6635623687583831,1.0,2626.441864874343,0.5650439790322164,1.2730741223217423,0.9834940535678987,0.2829226194878521,0.7622146802238843
0.0745,1.6618198825666108,1.0,2628.297688797651,0.5674837372185558,1.2722699996031084,0.9835974255081157,0.28284943506779764,0.7636130335335567
