Time [s],Phi [rad],STIM [ ],Fsee [N],Gamma [ ],Lcerel [ ],q [ ],Lmtc [m],fisomrel [ ]
0.0,1.8,1.0,17.968152873673084,1.0343094496978003e-05,1.379339634780915,0.00500002850436369,0.288653,0.5411398006514094
0.0005,1.79999375,1.0,18.27750836839657,0.005619494386710722,1.3793023029001665,0.01294146503376625,0.2886527375,0.5412301116537956
0.001,1.799975,1.0,21.619329015380874,0.01119718277509637,1.378938205345912,0.035610359621772066,0.28865195,0.5421104481161333
0.0015,1.79994375,1.0,31.07062822556802,0.016743584742527604,1.3780460851178302,0.0706041442888451,0.2886506375,0.5442638951756451
0.002,1.7999,1.0,53.5846115089753,0.02225887578022948,1.3763679874282395,0.11472072501687616,0.2886488,0.5483008228291344
0.0025,1.79984375,1.0,97.1221552812828,0.027743230395338186,1.3739350122107041,0.16457781736154392,0.28864643749999996,0.5541218324074636
0.003,1.7997750000000001,1.0,160.96222278407907,0.03319682211862083,1.371214191938665,0.2172834719709298,0.28864354999999997,0.5605868102784568
0.0035,1.79969375,1.0,237.68783288928222,0.0386198235040654,1.368584595580437,0.27061589095665645,0.2886401375,0.5667901655000183
0.004,1.7996,1.0,321.47152217563803,0.0440124061396633,1.3661559665651113,0.3229187095401139,0.2886362,0.5724802555764321
0.0045000000000000005,1.7994937500000001,1.0,409.2726620192527,0.049374740652593944,1.3639226988816366,0.3730372686843363,0.2886317375,0.5776794299703624
0.005,1.799375,1.0,499.4184967448341,0.054706996700310456,1.3618582362552303,0.42025004497814306,0.28862675,0.5824573241525955
0.0055,1.79924375,1.0,590.7954512617771,0.06000934301803026,1.3599387366836337,0.46417609182018194,0.2886212375,0.586875337482748
0.006,1.7991000000000001,1.0,682.5231380535829,0.06528194736183802,1.3581463233205442,0.5046821629333179,0.2886152,0.590979627206557
0.006500000000000001,1.79894375,1.0,773.8863315919364,0.07052497656433564,1.3564671670055026,0.5418027730330938,0.2886086375,0.5948059912215278
0.007,1.798775,1.0,864.290767172039,0.07573859651822633,1.354890314941714,0.575678617128432,0.28860155,0.5983828582926374
0.0075,1.79859375,1.0,953.2481700443648,0.08092297218605292,1.353406702983857,0.6065115864835917,0.2885939375,0.6017337445346935
0.008,1.7984,1.0,1040.3492343279584,0.08607826718341768,1.3520087820947038,0.6345337000140806,0.2885858,0.6048782440312608
0.0085,1.79819375,1.0,1125.3190937018476,0.09120464564412005,1.350689172611239,0.6599858167147947,0.2885771375,0.6078351537412134
0.009000000000000001,1.797975,1.0,1207.9051534392072,0.09630226951560963,1.3494419671024556,0.6831054493076163,0.28856795,0.6106196161593316
0.0095,1.79774375,1.0,1287.897466397135,0.1013712992953981,1.3482620541906718,0.7041186182458034,0.2885582375,0.6132447117694311
0.01,1.7975,1.0,1365.171933927358,0.10641189548099719,1.3471443224982065,0.7232352676118664,0.288548,0.6157232760116749
0.0105,1.79724375,1.0,1439.6632819297186,0.11142421804974521,1.3460838990436195,0.7406476144092691,0.2885372375,0.6180673942052481
0.011,1.796975,1.0,1511.3258271619702,0.11640842578295067,1.3450765095090016,0.7565300001032113,0.28852595000000003,0.6202876357942728
0.0115,1.79669375,1.0,1580.1247824539498,0.1213646758580561,1.3441184380203535,0.7710394058488783,0.2885141375,0.6223931779796944
0.012,1.7964,1.0,1646.0613671587303,0.1262931249366492,1.3432061139668572,0.7843163154725409,0.28850180000000003,0.624392740228854
0.0125,1.79609375,1.0,1709.1778728820336,0.1311939297739746,1.3423359900164498,0.7964859942818319,0.2884889375,0.6262948658783712
0.013000000000000001,1.7957750000000001,1.0,1769.5101671521456,0.1360672452830924,1.3415050319677744,0.8076601079586331,0.28847555,0.6281068658823004
0.0135,1.79544375,1.0,1827.0946479188535,0.14091322495018593,1.3407105604207061,0.8179380347692506,0.2884616375,0.6298351850057664
0.014,1.7951000000000001,1.0,1881.995360328889,0.1457320222614387,1.3399498959751202,0.8274080563517886,0.2884472,0.6314861869467634
0.0145,1.79474375,1.0,1934.2834134198215,0.15052378958602916,1.3392205553149303,0.8361486750342624,0.2884322375,0.633065736134663
0.015,1.794375,1.0,1984.0571121974451,0.15528867996309126,1.3385200000554196,0.844229653217954,0.28841675,0.6345797498803532
0.0155,1.79399375,1.0,2031.3766564570376,0.16002684301227496,1.337846307280445,0.8517132529753967,0.2884007375,0.6360327571969617
0.016,1.7936,1.0,2076.315025206282,0.16473842816568368,1.3371975862531709,0.8586549274523188,0.2883842,0.6374291703604444
0.0165,1.7931937500000001,1.0,2118.959593230495,0.16942358485542086,1.3365719462367618,0.8651041178673149,0.2883671375,0.6387733578010151
0.017,1.792775,1.0,2159.393243292158,0.17408246099253605,1.3359676768030322,0.8711050172636706,0.28834955,0.6400692606619047
0.0175,1.7923437500000001,1.0,2197.72280119644,0.1787152059495583,1.3353829400954393,0.8766971042268573,0.2883314375,0.6413210570565655
0.018000000000000002,1.7919,1.0,2234.0163414539743,0.18332196495105868,1.3348163959603607,0.8819158634063905,0.2883128,0.6425318271559788
0.0185,1.79144375,1.0,2268.348381913595,0.18790288306360242,1.3342667225267293,0.8867931225249865,0.2882936375,0.6437045861327761
0.019,1.790975,1.0,2300.8009766921614,0.19245810535375496,1.3337325979234793,0.8913574712157873,0.28827395,0.6448423248827975
0.0195,1.79049375,1.0,2331.4547042303166,0.1969877757903876,1.3332127826123235,0.8956346516875399,0.2882537375,0.6459478364277822
0.02,1.79,1.0,2360.3989525363836,0.20149203937041638,1.3327060104400965,0.899647857181316,0.288233,0.6470239496716659
0.0205,1.78949375,1.0,2387.7085714514637,0.2059710386823895,1.332211211141528,0.903418066428856,0.2882117375,0.6480730586475736
0.021,1.788975,1.0,2413.446804040501,0.2104249141032012,1.331727471859438,0.906964279026581,0.28818995000000003,0.6490972079519953
0.021500000000000002,1.78844375,1.0,2437.6808386220887,0.21485380600974577,1.3312538797366473,0.9103036988822152,0.2881676375,0.6500984284420243
0.022,1.7879,1.0,2460.4814799035316,0.21925785477891743,1.3307895219159758,0.913451928685815,0.2881448,0.6510787378526792
0.0225,1.78734375,1.0,2481.9166908066118,0.22363719947002547,1.3303335441422053,0.9164231519954029,0.28812143749999997,0.6520400179032197
0.023,1.786775,1.0,2502.0570684534255,0.22799198024971354,1.3298850948208663,0.9192302732192922,0.28809755,0.6529841333387376
0.0235,1.78619375,1.0,2520.967738687757,0.23232233606775737,1.32944339919464,0.9218850633010279,0.28807313749999996,0.6539127765531924
0.024,1.7856,1.0,2538.699874801935,0.23662840219500073,1.3290078356649067,0.9243982882262162,0.2880482,0.6548273089001715
0.0245,1.78499375,1.0,2555.3065289183965,0.24091031390228734,1.328577782633047,0.9267797847187058,0.2880227375,0.6557290840559635
0.025,1.784375,1.0,2570.842473961071,0.24516820646046106,1.3281526185004413,0.9290385531985654,0.28799675,0.6566194482503311
0.025500000000000002,1.78374375,1.0,2585.3640541943,0.24940221514036554,1.3277317216684708,0.9311828403105356,0.2879702375,0.6574997404726404
0.026000000000000002,1.7831000000000001,1.0,2598.9199112670935,0.25361247288454736,1.3273145556144852,0.9332202251222834,0.2879432,0.6583711150602427
0.0265,1.78244375,1.0,2611.564725706672,0.25779911558094226,1.3269005389364155,0.9351576645557298,0.2879156375,0.6592348139128863
0.027,1.781775,1.0,2623.3496510710747,0.26196227726549104,1.3264891335444384,0.9370015639986764,0.28788755,0.6600919823896743
0.0275,1.7810937500000001,1.0,2634.311723614362,0.2661020875771774,1.3260799411806499,0.9387578422421623,0.2878589375,0.6609434692590048
0.028,1.7804,1.0,2644.4887631613988,0.27021867615498496,1.3256725635871454,0.9404319570006953,0.2878298,0.661790119026074
0.0285,1.77969375,1.0,2653.919305478577,0.2743121726378976,1.3252666025060207,0.9420289468803321,0.2878001375,0.6626327719840253
0.029,1.778975,1.0,2662.6425381611493,0.2783827066648989,1.3248616596793716,0.9435534690206745,0.28776995,0.6634722642549877
0.029500000000000002,1.7782437500000001,1.0,2670.6982400371076,0.28243040787497264,1.3244573368492938,0.9450098329038163,0.2877392375,0.6643094278209947
0.03,1.7775,1.0,2678.119055163301,0.28645540303049627,1.324053306130964,0.946402039168129,0.287708,0.6651449451071164
0.0305,1.77674375,1.0,2684.9431466494425,0.2904578223900794,1.3236491931050847,0.947733792966887,0.2876762375,0.6659795912067208
0.031,1.775975,1.0,2691.207396956457,0.2944377946012497,1.3232446389493306,0.9490085354785579,0.28764395,0.6668141051993524
0.0315,1.7751937500000001,1.0,2696.9373876122827,0.29839544335815077,1.322839391575909,0.9502294764374772,0.2876111375,0.6676490027005644
0.032,1.7744,1.0,2702.1589861307293,0.3023308923549261,1.3224331988970257,0.9513996016077387,0.2875778,0.6684847967124715
0.0325,1.77359375,1.0,2706.8983190390127,0.30624426528571924,1.3220258088248875,0.9525216911544947,0.2875439375,0.6693219976105772
0.033,1.772775,1.0,2711.1817463134685,0.31013568584467366,1.3216169692717008,0.9535983362969359,0.28750955,0.6701611131265492
0.0335,1.7719437500000002,1.0,2715.0358372252053,0.31400527772593284,1.321206428149672,0.9546319544220448,0.2874746375,0.6710026483269438
0.034,1.7711000000000001,1.0,2718.487347593803,0.3178531646236404,1.3207939333710077,0.9556248028177523,0.2874392,0.6718471055878746
0.0345,1.7702437500000001,1.0,2721.5583331322523,0.3216794653238686,1.320379277136278,0.9565789947706472,0.2874032375,0.6726948940740946
0.035,1.7693750000000001,1.0,2724.2749737641925,0.32548430721008415,1.3199622153559727,0.957496505344756,0.28736675,0.6735464947209763
0.035500000000000004,1.76849375,1.0,2726.654839150903,0.3292678090909105,1.3195425834000387,0.9583791899001851,0.2873297375,0.6744022238330016
0.036000000000000004,1.7676,1.0,2728.714770039281,0.33303008882913704,1.3191202241449789,0.9592287874241349,0.2872922,0.6752623805537579
0.0365,1.76669375,1.0,2730.4716919939237,0.3367712642875529,1.3186949804672954,0.9600469286407717,0.2872541375,0.6761272621969077
0.037,1.765775,1.0,2731.9426055056288,0.3404914533289476,1.318266695243491,0.9608351439703059,0.28721555,0.6769971642180703
0.0375,1.76484375,1.0,2733.1445766480147,0.34419077381611035,1.3178352113500682,0.9615948708174408,0.2871764375,0.6778723801851323
0.038,1.7639,1.0,2734.094728280624,0.3478693436118306,1.3174003716635296,0.9623274602524865,0.28713679999999997,0.6787532017469811
0.0385,1.76294375,1.0,2734.8041008725654,0.3515272738323965,1.3169620747340958,0.9630341870364496,0.28709663750000003,0.6796398060594946
0.039,1.761975,1.0,2735.286009033204,0.35516467921089057,1.316520198813662,0.9637162499680892,0.28705595,0.6805324098946428
0.0395,1.7609937500000001,1.0,2735.5697540115902,0.3587816927184239,1.3160744773138457,0.9643747685758307,0.2870147375,0.6814315203787602
0.04,1.76,1.0,2735.6644508562285,0.3623784248161315,1.3156248271956392,0.9650108104055591,0.286973,0.6823372718677387
0.0405,1.7589937500000001,1.0,2735.5792354948676,0.365954985965148,1.3151711654200342,0.9656253824632184,0.2869307375,0.6832497974737801
0.041,1.757975,1.0,2735.3232616504147,0.3695114866266083,1.3147134089480232,0.9662194352804536,0.28688795,0.6841692290443695
0.0415,1.75694375,1.0,2734.9056979101315,0.3730480372616472,1.3142514747405982,0.9667938666663711,0.2868446375,0.6850956971408136
0.042,1.7559,1.0,2734.3357249474484,0.3765647483313995,1.313785279758751,0.9673495251726474,0.28680079999999997,0.6860293310163341
0.0425,1.75484375,1.0,2733.6225328968935,0.3800617302970001,1.313314740963474,0.9678872132966192,0.2867564375,0.686970258593722
0.043000000000000003,1.753775,1.0,2732.7753188811794,0.38353909361958366,1.3128397753157588,0.9684076904446273,0.28671155,0.687918606442556
0.043500000000000004,1.75269375,1.0,2731.803284692555,0.3869969487602851,1.3123602997765982,0.9689116756758138,0.28666613750000003,0.6888744997559749
0.044,1.7516,1.0,2730.715634625463,0.3904354061802392,1.3118762313069836,0.9693998502446736,0.2866202,0.6898380623270182
0.0445,1.75049375,1.0,2729.5215734633293,0.3938545763405808,1.3113874868679074,0.9698728599589801,0.2865737375,0.6908094165245179
0.045,1.7493750000000001,1.0,2728.230304617708,0.3972545697024447,1.3108939834203615,0.9703313173681833,0.28652675,0.6917886832685588
0.0455,1.74824375,1.0,2726.846205846915,0.4006354945278933,1.3103956817820093,0.9707758067994826,0.2864792375,0.6927758951883981
0.046,1.7471,1.0,2725.3789344871284,0.40399745576280616,1.3098924947498491,0.9712068790515154,0.2864312,0.693771178883019
0.0465,1.7459437500000001,1.0,2723.834475485455,0.4073405590228555,1.3093843684800464,0.9716250599763928,0.28638263750000004,0.6947745935593205
0.047,1.744775,1.0,2722.2173108478387,0.41066490978996906,1.3088712627788828,0.9720308503974171,0.28633355,0.6957861703742932
0.0475,1.7435940539825143,1.0,2720.5471840240975,0.4139706134117788,1.3083531357662415,0.9724247264752166,0.2862839502672656,0.6968059428033351
0.048,1.7424093107129797,1.0,2719.2293301933664,0.41725777480206877,1.3078300903592344,0.9728071514443263,0.28623419104994513,0.6978336590224031
0.0485,1.7412245674434448,1.0,2718.4133565837506,0.42052649824038474,1.3073024764548031,0.9731785833816529,0.28618443183262465,0.6988685840712537
0.049,1.7400398241739101,1.0,2718.0620167500874,0.4237768865117605,1.3067706312625738,0.9735394574358444,0.28613467261530423,0.6999100121006442
0.0495,1.7388550809043755,1.0,2718.1381994826697,0.42700904240122983,1.3062348919921727,0.9738901881937655,0.28608491339798375,0.7009572414749436
0.05,1.7376703376348406,1.0,2718.606472564259,0.43022306829431156,1.3056955815163303,0.9742311698400178,0.2860351541806633,0.7020096028105633
0.0505,1.736485594365306,1.0,2719.432800064162,0.4334190665396542,1.3051530107025295,0.9745627775071238,0.28598539496334285,0.7030664542703504
0.051000000000000004,1.7353008510957713,1.0,2720.5894283816397,0.43659713786251886,1.3046074337184719,0.974885365238077,0.2859356357460224,0.7041272682507869
0.051500000000000004,1.7341161078262364,1.0,2722.0506619587995,0.4397573824199979,1.3040590863626305,0.9751992697674737,0.2858858765287019,0.7051915561234772
0.052000000000000005,1.7329313645567017,1.0,2723.7908314901615,0.4428999003691837,1.3035082044334785,0.9755048127083922,0.2858361173113815,0.7062588324029523
0.0525,1.7317466212871668,1.0,2725.7928736092963,0.44602478812919844,1.3029549455641694,0.9758022960359586,0.285786358094061,0.7073287658106224
0.053,1.7305618780176322,1.0,2728.0210659832424,0.44913215121372757,1.302399637162271,0.9760920199888139,0.2857365988767405,0.7084006997580575
0.0535,1.7293771347480975,1.0,2730.460085666415,0.45222208619161297,1.3018424209932935,0.9763742593028724,0.2856868396594201,0.70947433956922
0.054,1.7281923914785626,1.0,2733.0953238352645,0.45529468930994677,1.3012834323139129,0.9766492764246072,0.2856370804420996,0.7105494050164154
0.0545,1.727007648209028,1.0,2735.9121649468166,0.45835005681582114,1.3007228063808056,0.9769173225763137,0.28558732122477914,0.7116256177374123
0.055,1.7258229049394933,1.0,2738.895981625371,0.4613882849563284,1.3001606784506488,0.9771786383338702,0.2855375620074587,0.7127027012501475
0.0555,1.7246381616699584,1.0,2742.032129955736,0.4644094699785607,1.2995971837801181,0.9774334541701601,0.28548780279013825,0.7137803809662695
0.056,1.7234534184004238,1.0,2745.30594518181,0.46741370812961025,1.2990324576258905,0.9776819909664632,0.28543804357281777,0.7148583842035077
0.0565,1.722268675130889,1.0,2748.7052606591997,0.4704010933205116,1.2984666123931505,0.977924458956215,0.28538828435549735,0.7159364836943777
0.057,1.7210839318613542,1.0,2752.221032536417,0.47337171812065537,1.297899732022249,0.9781610580307377,0.28533852513817687,0.717014507847807
0.0575,1.7198991885918196,1.0,2755.833698167944,0.4763256860622249,1.2973319954611142,0.9783919863536055,0.2852887659208564,0.7180921061068621
0.058,1.7187144453222847,1.0,2759.5369461869655,0.4792630879937108,1.2967634614475905,0.9786174262528218,0.28523900670353597,0.7191691580026929
0.0585,1.71752970205275,1.0,2763.3244522266787,0.4821840147636035,1.2961941887195219,0.9788375528060288,0.2851892474862155,0.7202455439055622
0.059000000000000004,1.7163449587832154,1.0,2767.18987792041,0.4850885572203937,1.295624236014752,0.9790525341877503,0.285139488268895,0.7213211450277237
0.059500000000000004,1.7151602155136805,1.0,2771.12686997763,0.4879768062125718,1.2950536620711253,0.9792625319973869,0.2850897290515746,0.7223958434260785
0.06,1.7139754722441458,1.0,2775.129059336533,0.49084885258862826,1.2944825256264851,0.9794677015691711,0.2850399698342541,0.7234695220046127
0.0605,1.7127907289746112,1.0,2779.190060393436,0.49370478719705385,1.2939108854186758,0.9796681922652081,0.28499021061693364,0.7245420645166136
0.061,1.7116059857050763,1.0,2783.3034703085445,0.49654470088633895,1.2933388001855413,0.9798641477526483,0.2849404513996132,0.7256133555666681
0.0615,1.7104212424355416,1.0,2787.4628683877186,0.4993686845049742,1.2927663286649256,0.9800557062659637,0.28489069218229274,0.7266832806124388
0.062,1.709236499166007,1.0,2791.661815541751,0.50217682890145,1.2921935295946725,0.9802430008552384,0.28484093296497226,0.7277517259662221
0.0625,1.708051755896472,1.0,2795.900259629077,0.5049692119620534,1.2916204041817878,0.9804261556632733,0.28479117374765184,0.728818685793529
0.063,1.7068670126269374,1.0,2800.1675520548542,0.5077459393264476,1.2910470487305092,0.9806052972142858,0.28474141453033136,0.7298839777591217
0.0635,1.7056822693574025,1.0,2804.460794311939,0.5105070972864472,1.2904734897583185,0.9807805424109605,0.2846916553130109,0.7309475502156377
0.064,1.7044975260878679,1.0,2808.777725396693,0.513252770618296,1.2898997479919327,0.9809520035120489,0.28464189609569046,0.7320093626091004
0.0645,1.7033127828183332,1.0,2813.1160774322834,0.515983044098238,1.289325844158068,0.9811197887359626,0.28459213687837,0.733069374688206
0.065,1.7021280395487983,1.0,2817.473575589715,0.5186980025025175,1.2887517989834412,0.9812840024362947,0.2845423776610495,0.7341275465045485
0.0655,1.7009432962792637,1.0,2821.8479380180465,0.5213977306073784,1.2881776331947687,0.9814447452684911,0.2844926184437291,0.7351838384128231
0.066,1.6997585530097288,1.0,2826.236875783834,0.5240823131890647,1.2876033675187677,0.9816021143481878,0.2844428592264086,0.736238211070997
0.0665,1.6985738097401941,1.0,2830.638092821169,0.5267518350238206,1.2870290226821541,0.9817562034016786,0.28439310000908813,0.7372906254404574
0.067,1.6973890664706595,1.0,2835.049285889934,0.52940638088789,1.2864546194116449,0.9819071029089652,0.2843433407917677,0.7383410427861279
0.0675,1.6962043232011246,1.0,2839.468144544224,0.5320460355575172,1.2858801784339564,0.9820549002397988,0.28429358157444723,0.7393894246765601
0.068,1.69501957993159,1.0,2843.8923511106887,0.5346708838089458,1.2853057204758056,0.9821996797831086,0.28424382235712675,0.7404357329839971
0.0685,1.6938348366620553,1.0,2848.319580675699,0.5372810104184202,1.2847312662639088,0.9823415230701773,0.28419406313980633,0.7414799298844104
0.069,1.6926500933925204,1.0,2852.75211802034,0.5398764685838805,1.284156795475319,0.9824805049721147,0.28414430392248585,0.7425220522487173
0.0695,1.6914653501229857,1.0,2857.183614828839,0.5424573819502184,1.2835823645483289,0.9826167058584646,0.2840945447051654,0.7435619978226362
0.07,1.690280606853451,1.0,2861.6131416538583,0.5450238308985288,1.283007981641238,0.9827501985051369,0.28404478548784495,0.7445997523193644
0.07050000000000001,1.6890958635839162,1.0,2866.0401375019555,0.5475758929863617,1.282433651618864,0.9828810529742268,0.2839950262705245,0.7456353075039357
0.07100000000000001,1.6879111203143815,1.0,2870.4640397023654,0.5501136457712669,1.2818593793460238,0.9830093370446789,0.283945267053204,0.7466686552126093
0.07150000000000001,1.6867263770448466,1.0,2874.8842839129684,0.5526371668107942,1.2812851696875351,0.9831351163022829,0.2838955078358836,0.7476997873528526
0.07200000000000001,1.685541633775312,1.0,2879.3003041265783,0.5551465336624938,1.2807110275082152,0.9832584542255497,0.2838457486185631,0.7487286959033228
0.0725,1.6843568905057773,1.0,2883.7115326780936,0.5576418238839154,1.2801369576728818,0.983379412267678,0.2837959894012426,0.7497553729138458
