Time [s],Phi [rad],STIM [ ],Fsee [N],Gamma [ ],Lcerel [ ],q [ ],Lmtc [m],fisomrel [ ]
0.0,1.8,1.0,17.967732204687383,2.2339199682640954e-05,1.3793396819088812,0.005000132162010428,0.288653,0.541139686636699
0.0005,1.79999375,1.0,18.281173764240354,0.005631423203237625,1.3793018957749583,0.012974805321854101,0.2886527375,0.5412310964972024
0.001,1.799975,1.0,21.631963333006937,0.01120904468039361,1.3789369151530735,0.03567290276099148,0.28865195,0.5421135661169401
0.0015,1.79994375,1.0,31.102255487019672,0.016755380111920584,1.3780433913294636,0.07068974308748908,0.2886506375,0.5442703898983355
0.002,1.7999,1.0,53.65414256360964,0.02227060498691602,1.376363478167631,0.11482209386482382,0.2886488,0.5483116463697804
0.0025,1.79984375,1.0,97.23998635185421,0.02775489381045684,1.3739293360277978,0.1646880949244235,0.28864643749999996,0.5541353688067931
0.003,1.7997750000000001,1.0,161.1160894272862,0.03320842011120118,1.3712084340120345,0.21739723943597442,0.28864354999999997,0.5606004417038681
0.0035,1.79969375,1.0,237.86199080216306,0.03863135644106991,1.3685792320891168,0.2707290460884258,0.2886401375,0.5668027731906791
0.004,1.7996,1.0,321.6569960794384,0.044023874386005725,1.3661510548144826,0.3230282754717118,0.2886362,0.5724917253132709
0.0045000000000000005,1.7994937500000001,1.0,409.4648515102477,0.04938614457116425,1.3639181880182905,0.3731412761408262,0.2886317375,0.5776898993287123
0.005,1.799375,1.0,499.6146869202643,0.05471833665202615,1.3618540676604867,0.42034735217576935,0.28862675,0.5824669442524233
0.0055,1.79924375,1.0,590.9934834028065,0.060020619361393864,1.359934867956489,0.4642661829741434,0.2886212375,0.586884218205181
0.006,1.7991000000000001,1.0,682.7214969454483,0.06529316045375556,1.3581427179590906,0.5047649555883953,0.2886152,0.5909878621584034
0.006500000000000001,1.79894375,1.0,774.0856105599457,0.07053612675765433,1.3564637654128877,0.5418784508666157,0.2886086375,0.5948137243229139
0.007,1.798775,1.0,864.4905123070911,0.07574968417398817,1.354887088613384,0.5757475541870138,0.28860155,0.5983901605086615
0.0075,1.79859375,1.0,953.445423805642,0.08093399764041906,1.353403669181978,0.6065742764728541,0.2885939375,0.6017405822981987
0.008,1.7984,1.0,1040.5588527934865,0.08608923122506386,1.352005696026891,0.6345905180343422,0.2885858,0.6048851720810717
0.0085,1.79819375,1.0,1125.5162979108109,0.09121554801123322,1.350686381053027,0.660037490902544,0.2885771375,0.6078413971426377
0.009000000000000001,1.797975,1.0,1208.0777213450172,0.09631311022044518,1.3494396092562226,0.6831525541157181,0.28856795,0.6106248707999313
0.0095,1.79774375,1.0,1288.054762146183,0.10138207887833038,1.3482599728150688,0.7041615300364046,0.2885582375,0.613249334613672
0.01,1.7975,1.0,1365.344955729194,0.10642261522803563,1.3471420987747718,0.7232742015384444,0.288548,0.6157281991653272
0.0105,1.79724375,1.0,1439.8377028677671,0.11143487792476883,1.3460817161007077,0.7406830668547413,0.2885372375,0.6180722123111899
0.011,1.796975,1.0,1511.4820979409621,0.11641902549685959,1.3450746006454872,0.7565624407758411,0.28852595000000003,0.6202918367007574
0.0115,1.79669375,1.0,1580.266229243455,0.12137521580555023,1.3441167482602125,0.7710691237294215,0.2885141375,0.6223968863737803
0.012,1.7964,1.0,1646.2086562569564,0.12630360646487546,1.3432043900145167,0.7843434837644913,0.28850180000000003,0.624396513631261
0.0125,1.79609375,1.0,1709.316503038633,0.13120435260036506,1.3423343976513336,0.7965109410932656,0.2884889375,0.6262983424256972
0.013000000000000001,1.7957750000000001,1.0,1769.6270448338782,0.13607760905987262,1.3415037125410858,0.8076831145243496,0.28847555,0.6281097395429064
0.0135,1.79544375,1.0,1827.1954060962044,0.14092353000233943,1.340709441031356,0.817959268648358,0.2884616375,0.6298376173217504
0.014,1.7951000000000001,1.0,1882.1021344420174,0.1457422700116591,1.339948727181272,0.827427602780499,0.2884472,0.6314887209433454
0.0145,1.79474375,1.0,1934.40629502978,0.15053398096256373,1.339219228509258,0.8361666596950149,0.2884322375,0.6330686065356629
0.015,1.794375,1.0,1984.1698820192685,0.15529881372558946,1.3385187977992434,0.8442463189213218,0.28841675,0.6345823454609533
0.0155,1.79399375,1.0,2031.473412242688,0.1600369191712725,1.3378452878351597,0.8517287435167901,0.2884007375,0.6360349537231446
0.016,1.7936,1.0,2076.399398975525,0.16474844718359655,1.337196706939564,0.8586693394500187,0.2883842,0.6374310613173271
0.0165,1.7931937500000001,1.0,2119.0496124131155,0.16943354833767368,1.336571017577289,0.8651174942561284,0.2883671375,0.6387753511702432
0.017,1.792775,1.0,2159.4984148342046,0.17409237005861455,1.3359666020356868,0.8711174231487966,0.28834955,0.6400715635095486
0.0175,1.7923437500000001,1.0,2197.8200760589816,0.1787250589589551,1.335381954731326,0.876708688708141,0.2883314375,0.6413231646702642
0.018000000000000002,1.7919,1.0,2234.09854234423,0.1833317616512313,1.3348155700807744,0.8819267165244233,0.2883128,0.6425335906616263
0.0185,1.79144375,1.0,2268.4187263204503,0.187912623829958,1.3342660211381254,0.8868032980670862,0.2882936375,0.6437060813535915
0.019,1.790975,1.0,2300.8727159752902,0.19246779190978244,1.3337318876894138,0.891366993904926,0.28827395,0.6448438365410094
0.0195,1.79049375,1.0,2331.5380239146753,0.19699740998387744,1.3332119631714499,0.8956435519741581,0.2882537375,0.6459495778042996
0.02,1.79,1.0,2360.4821147363264,0.2015016201623046,1.3327051975781072,0.8996562111419366,0.288233,0.6470256744404101
0.0205,1.78949375,1.0,2387.777537546828,0.2059805645551255,1.3322105409032592,0.9034259470774105,0.2882117375,0.6480744786759055
0.021,1.788975,1.0,2413.501500420588,0.2104343852724018,1.3317269431407794,0.9069717234621049,0.28818995000000003,0.6490983265129914
0.021500000000000002,1.7884439685234597,1.0,2437.7357067813796,0.21486322242559458,1.33125345068844,0.9103107317610871,0.28816764667798533,0.6500993348437543
0.022,1.7879088058481032,1.0,2460.9247044745994,0.21926721917425596,1.3307892556668979,0.9134585961882451,0.28814516984562033,0.6510792995387107
0.0225,1.7873736431727467,1.0,2483.2917950098713,0.22364651411588088,1.330333938312453,0.9164295830778015,0.2881226930132553,0.6520391874967617
0.023,1.7868384804973902,1.0,2504.8619721248447,0.22800124439288605,1.329887141777081,0.9192366796229056,0.2881002161808904,0.6529798268180742
0.0235,1.7863033178220338,1.0,2525.6613753679903,0.2323315471476881,1.3294485092127573,0.9218917157901102,0.28807773934852543,0.6539020401067979
0.024,1.785768155146677,1.0,2545.7172240949326,0.23663755952270377,1.3290176837714576,0.9244054833693033,0.2880552625161604,0.654806644660922
0.0245,1.7852329924713206,1.0,2565.0577542880205,0.24091941866034972,1.3285943086051577,0.9267878413518735,0.2880327856837955,0.6556944526540127
0.025,1.7846978297959641,1.0,2583.7050740921636,0.24517725711298924,1.3281780930494815,0.9290478183652914,0.2880103088514305,0.6565661327882839
0.025500000000000002,1.7841626671206077,1.0,2601.695963825389,0.24941121645068928,1.3277686172896432,0.9311936685715577,0.2879878320190655,0.65742261964297
0.026000000000000002,1.7836275044452512,1.0,2619.0520743954785,0.2536214282739895,1.3273656106215634,0.9332329837876459,0.2879653551867005,0.6582645311937848
0.0265,1.7830923417698947,1.0,2635.7955058731095,0.25780802404193376,1.3269688044169556,0.9351727379538819,0.2879428783543356,0.6590924774813349
0.027,1.7825571790945383,1.0,2651.9489911455653,0.2619711352135663,1.3265779300475333,0.9370193454702826,0.2879204015219706,0.6599070650697336
0.0275,1.7820220164191818,1.0,2667.5358597877453,0.266110893247931,1.32619271888501,0.9387787135518926,0.2878979246896056,0.6607088971505257
0.028,1.7814868537438253,1.0,2682.580003532807,0.2702274296040719,1.3258129023010992,0.9404562890505792,0.2878754478572407,0.6614985736420103
0.0285,1.7809516910684688,1.0,2697.1058433422095,0.27432087574103303,1.3254382116675143,0.942057100388116,0.28785297102487567,0.662276691283961
0.029,1.7804165283931124,1.0,2711.1262598154244,0.2783913537619265,1.325068488149257,0.9435858070141426,0.2878304941925107,0.6630436161108304
0.029500000000000002,1.779881365717756,1.0,2724.678731806044,0.2824390062244405,1.3247033522904312,0.9450466976580286,0.2878080173601457,0.6638001690413141
0.03,1.7793462030423994,1.0,2737.7803224156187,0.2864639591129762,1.3243426150393611,0.9464437648777552,0.28778554052778077,0.6645467731805765
0.0305,1.778811040367043,1.0,2750.4466742251,0.2904663370151774,1.3239861032138918,0.9477807128149449,0.2877630636954158,0.6652838167228237
0.031,1.7782758776916865,1.0,2762.693728241957,0.2944462645186879,1.323633643631869,0.9490609802026988,0.2877405868630508,0.6660116859360984
0.0315,1.77774071501633,1.0,2774.537708008286,0.2984038662111516,1.3232850631111388,0.9502877627044432,0.28771811003068587,0.6667307652079943
0.032,1.7772055523409733,1.0,2785.995104373628,0.3023392666802124,1.3229401884695464,0.9514640331121238,0.28769563319832087,0.6674414370894575
0.0325,1.7766703896656169,1.0,2797.082660933245,0.30625259051351406,1.3225988465249379,0.9525925596319788,0.2876731563659559,0.6681440823366696
0.033,1.7761352269902604,1.0,2807.817360130711,0.31014396229870056,1.322260864095159,0.9536759224595327,0.2876506795335909,0.6688390799510251
0.0335,1.775600064314904,1.0,2818.216410026595,0.3140135066234156,1.321926067998055,0.9547165288221902,0.28762820270122597,0.6695268072171932
0.034,1.7750649016395474,1.0,2828.2926161241135,0.3178613425559633,1.3215943262663283,0.9557166297947296,0.287605725868861,0.6702075552082474
0.0345,1.774529738964191,1.0,2838.0611694707636,0.3216875939692881,1.3212654871766878,0.9566783284651987,0.287583249036496,0.6708816541745073
0.035,1.7739945762888345,1.0,2847.5418779339298,0.325492390600497,1.3209393594798646,0.9576035894330981,0.28756077220413107,0.6715495138286168
0.035500000000000004,1.773459413613478,1.0,2856.744532374076,0.32927584949800387,1.3206158426545593,0.9584942585844121,0.28753829537176606,0.6722113566291673
0.036000000000000004,1.7729242509381216,1.0,2865.679043129311,0.3330380877102227,1.320294836179472,0.9593520656557853,0.2875158185394011,0.6728674040713176
0.0365,1.772389088262765,1.0,2874.355434307693,0.33677922228556734,1.3199762395333032,0.9601786328713716,0.2874933417070361,0.6735178767032084
0.037,1.7718539255874086,1.0,2882.7838383054445,0.34049937027245175,1.319659952194753,0.9609754828439584,0.28747086487467116,0.6741629941417355
0.0375,1.7713187629120521,1.0,2890.974490547292,0.3441986487192899,1.319345873642522,0.9617440458105675,0.2874483880423062,0.6748029750876732
0.038,1.7707836002366957,1.0,2898.937724452039,0.3478771746744956,1.3190339033553102,0.9624856662653433,0.2874259112099412,0.6754380373401613
0.0385,1.7702484375613392,1.0,2906.683966622116,0.3515350651864828,1.3187239408118183,0.9632016090460278,0.28740343437757626,0.6760683978105375
0.039,1.7697132748859827,1.0,2914.223732256276,0.3551724373036654,1.3184158854907464,0.9638930649245052,0.28738095754521126,0.6766942725355354
0.0395,1.7691781122106263,1.0,2921.5676207875454,0.35878940807445736,1.3181096368707947,0.9645611557467759,0.2873584807128463,0.6773158766898313
0.04,1.7686429495352696,1.0,2928.717759942864,0.36238607800378675,1.317805169472923,0.9652069427883077,0.2873360038804813,0.6779332725009144
0.0405,1.768107786859913,1.0,2935.691906230183,0.36596258251072067,1.3175023211489603,0.9658314216730319,0.28731352704811636,0.67854679867673
0.041,1.7675726241845566,1.0,2942.49688340668,0.36951903336003783,1.3172010263942977,0.9664355363937228,0.2872910502157514,0.6791565971122578
0.0415,1.7670374615092002,1.0,2949.138318243327,0.37305553971055083,1.3169012306187142,0.9670201792099145,0.2872685733833864,0.6797627870929353
0.042,1.7665022988338437,1.0,2955.621880959066,0.3765722107210725,1.3166028792319884,0.9675861935825776,0.2872460965510214,0.6803654874426499
0.0425,1.7659671361584872,1.0,2961.9532834395577,0.3800691555504154,1.316305917643899,0.9681343773438148,0.28722361971865645,0.6809648165288618
0.043000000000000003,1.7654319734831307,1.0,2968.138277521765,0.3835464833573924,1.3160102912642249,0.9686654856295692,0.2872011428862915,0.6815608922675376
0.043500000000000004,1.7648968108077743,1.0,2974.1826533450226,0.38700430330081603,1.3157159455027447,0.9691802335952757,0.2871786660539265,0.6821538321278952
0.044,1.7643616481324178,1.0,2980.0922377681445,0.3904427245394991,1.3154228257692375,0.969679298932557,0.28715618922156155,0.6827437531369555
0.0445,1.7638264854570613,1.0,2985.8728928523296,0.3938618562322542,1.3151308774734818,0.9701633242033725,0.2871337123891966,0.6833307718839077
0.045,1.7632913227817049,1.0,2991.5305144100034,0.39726180753789425,1.3148400460252565,0.970632919006542,0.2871112355568316,0.6839150045242806
0.0455,1.7627561601063484,1.0,2997.0710306206274,0.40064268761523175,1.3145502768343402,0.971088661990215,0.2870887587244666,0.6844965667839285
0.046,1.762220997430992,1.0,3002.500400711514,0.40400460562307944,1.314261515310512,0.9715311027226249,0.28706628189210165,0.6850755739628216
0.0465,1.7616858347556354,1.0,3007.8181162055866,0.4073476469340123,1.3139737631245727,0.9719607643365424,0.2870438050597367,0.6856520282825087
0.047,1.761150672080279,1.0,3013.035564783574,0.4106719468284014,1.313686919081727,0.9723781434563612,0.2870213282273717,0.6862261377455805
0.0475,1.7606155094049225,1.0,3018.1569253433945,0.4139776110543554,1.3134009447015615,0.9727837130280932,0.28699885139500675,0.6867979842479872
0.048,1.7600803467295658,1.0,3023.185116886195,0.4172647403243315,1.313115812560486,0.9731779233125436,0.28697637456264175,0.687367627310544
0.0485,1.7595451840542093,1.0,3028.1230738021018,0.420533435350787,1.3128314952349105,0.9735612030708167,0.2869538977302768,0.6879351262407212
0.049,1.7590100213788529,1.0,3032.9737453660086,0.42378379684617934,1.312547965301245,0.9739339607884948,0.2869314208979118,0.6885005401340935
0.0495,1.7584748587034964,1.0,3037.7400952511434,0.42701592552296586,1.3122651953358995,0.9742965858193011,0.28690894406554684,0.6890639278757416
0.05,1.75793969602814,1.0,3042.4251010579637,0.43022992209360383,1.3119831579152839,0.9746494494542282,0.2868864672331819,0.6896253481416041
0.0505,1.7574045333527835,1.0,3047.031753860794,0.43342588727055065,1.3117018256158082,0.9749929059216154,0.2868639904008169,0.6901848593997841
0.051000000000000004,1.756869370677427,1.0,3051.5630577709017,0.4366039217662636,1.3114211710138821,0.9753272933232242,0.28684151356845194,0.6907425199118061
0.051500000000000004,1.7563342080020705,1.0,3056.022029515544,0.4397641262932001,1.3111411666859158,0.975652934510929,0.28681903673608694,0.6912983877338238
0.052000000000000005,1.755799045326714,1.0,3060.4116980348813,0.44290660156381745,1.3108617852083195,0.9759701379082968,0.286796559903722,0.6918525207177826
0.0525,1.7552638826513576,1.0,3064.7351040945114,0.4460314482905729,1.3105829991575026,0.9762791982809584,0.286774083071357,0.6924049765125342
0.053,1.754728719976001,1.0,3068.9952999153456,0.4491387671859239,1.3103047811098756,0.976580397459397,0.28675160623899204,0.6929558125648987
0.0535,1.7541935573006446,1.0,3073.195348819702,0.4522286589623277,1.310027103641848,0.976874005017464,0.2867291294066271,0.6935050861206851
0.054,1.7536583946252882,1.0,3077.334584586203,0.45530119533241625,1.3097499713487941,0.9771602779822296,0.2867066525742621,0.6940527909739198
0.0545,1.7531232319499317,1.0,3081.4181540524955,0.45835650083559015,1.3094733391007154,0.977439464620865,0.28668417574189714,0.6945990190875435
0.055,1.7525880692745752,1.0,3085.4495600464325,0.4613946847276312,1.3091971759573544,0.9777118020045976,0.28666169890953214,0.6951438341198879
0.0555,1.7520529065992188,1.0,3089.4301809600165,0.4644158386439606,1.3089214692229874,0.977977516648427,0.2866392220771672,0.6956872635622158
0.056,1.751517743923862,1.0,3093.361400426907,0.46742005421999955,1.3086462062018906,0.9782368256626479,0.2866167452448022,0.6962293348124362
0.0565,1.7509825812485056,1.0,3097.244607196609,0.47040742309116934,1.3083713741983405,0.9784899372202582,0.28659426841243724,0.696770075175469
0.057,1.7504474185731491,1.0,3101.081195010596,0.4733780368928911,1.3080969605166128,0.9787370509974593,0.2865717915800723,0.6973095118635992
0.0575,1.7499122558977926,1.0,3104.872562483152,0.4763319872605862,1.3078229524609843,0.9789783585889992,0.2865493147477073,0.6978476719968194
0.058,1.7493770932224362,1.0,3108.6201129854476,0.47926936582967566,1.3075493373357312,0.9792140438999896,0.28652683791534234,0.6983845826031653
0.0585,1.7488419305470797,1.0,3112.325254532868,0.4821902642355809,1.3072761024451294,0.9794442835157061,0.28650436108297733,0.6989202706190382
0.059000000000000004,1.7483067678717232,1.0,3115.9893996765804,0.48509477411372304,1.3070032350934555,0.9796692470507737,0.2864818842506124,0.6994547628895169
0.059500000000000004,1.7477716051963668,1.0,3119.6139653978726,0.48798298709952337,1.3067307225849856,0.9798890974790377,0.2864594074182474,0.6999880861686627
0.06,1.7472364425210103,1.0,3123.200373006904,0.490854994828403,1.3064585522239958,0.9801039914453369,0.28643693058588243,0.7005202671198102
0.0605,1.7467012798456538,1.0,3126.7500480441877,0.4937108889357833,1.3061867113147627,0.9803140795602987,0.2864144537535175,0.7010513323158487
0.061,1.7461661171702973,1.0,3130.2644201864205,0.4965507610570854,1.3059151871615622,0.9805195066792086,0.2863919769211525,0.7015813082394975
0.0615,1.7456309544949409,1.0,3133.7449231553246,0.49937470282773055,1.3056439670686708,0.9807204121659296,0.28636950008878753,0.7021102212835628
0.062,1.7450957918195844,1.0,3137.192994630377,0.50218280588314,1.3053730383403648,0.9809169301427776,0.28634702325642253,0.702638097751193
0.0625,1.744560629144228,1.0,3140.6100761650437,0.5049751618587349,1.30510238828092,0.9811091897272051,0.2863245464240576,0.7031649638561183
0.063,1.7440254664688715,1.0,3143.9944759392833,0.5077518059421436,1.304832030764152,0.9812973124953995,0.2863020695916926,0.703690794069525
0.0635,1.743490303793515,1.0,3147.35002931396,0.5105128854087472,1.304561932852384,0.981481421324449,0.28627959275932763,0.704215653881441
0.064,1.7429551411181583,1.0,3150.678296549945,0.513258500644755,1.3042920809302927,0.9816616321739473,0.2862571159269627,0.7047395710558425
0.0645,1.7424199784428018,1.0,3153.979868037449,0.5159887333895433,1.3040224696159366,0.9818380559036448,0.2862346390945977,0.7052625572979174
0.065,1.7418848157674454,1.0,3157.255335890775,0.5187036653824882,1.3037530935273738,0.9820107994083354,0.28621216226223267,0.7057846242747147
0.0655,1.741349653092089,1.0,3160.505293919434,0.521403378362966,1.303483947282663,0.9821799657883095,0.2861896854298677,0.7063057836152229
0.066,1.7408144904167324,1.0,3163.730337600469,0.5240879540703527,1.303215025499862,0.9823456545113024,0.2861672085975028,0.7068260469104529
0.0665,1.740279327741376,1.0,3166.9310640513486,0.5267574742440245,1.3029463227970295,0.982507961566412,0.28614473176513777,0.7073454257135141
0.067,1.7397441650660195,1.0,3170.1080720038226,0.5294120206233577,1.302677833792224,0.9826669796104468,0.2861222549327728,0.7078639315396902
0.0675,1.739209002390663,1.0,3173.2619617777127,0.5320516749477283,1.3024095531035034,0.9828227981071199,0.2860997781004079,0.708381575866516
0.068,1.7386738397153065,1.0,3176.393335255804,0.5346765189565125,1.3021414753489262,0.9829755034594899,0.28607730126804287,0.7088983701338464
0.0685,1.73813867703995,1.0,3179.5027958594496,0.5372866343890864,1.3018735951465508,0.983125179136021,0.28605482443567787,0.7094143257439298
0.069,1.7376035143645936,1.0,3182.5909485247857,0.5398821029848263,1.3016059071144355,0.9832719057906094,0.2860323476033129,0.7099294540614749
0.0695,1.7370683516892371,1.0,3185.6583996789445,0.5424630064831084,1.3013384058706388,0.9834157613769071,0.28600987077094797,0.7104437664137186
0.07,1.7365331890138807,1.0,3188.7057572180493,0.5450294266233087,1.3010710860332186,0.9835568212572475,0.28598739393858297,0.7109572740904919
