Time [s],Phi [rad],STIM [ ],Fsee [N],Gamma [ ],Lcerel [ ],q [ ],Lmtc [m],fisomrel [ ]
0.0,1.8,1.0,17.96634504762057,2.371940322177443e-05,1.3793398373173804,0.005000148927068104,0.288653,0.5411393106633399
0.0005,1.79999375,1.0,18.280381115175693,0.005632795664927373,1.3793019838131269,0.012978648331397741,0.2886527375,0.5412308835313344
0.001,1.799975,1.0,21.63227618189186,0.011210409443658033,1.3789368832103124,0.03568011110318356,0.28865195,0.5421136433126725
0.0015,1.79994375,1.0,31.10476398635747,0.01675673721994326,1.3780431777317155,0.0706996094103877,0.2886506375,0.5442709048804419
0.002,1.7999,1.0,53.6609928661616,0.022271954482634068,1.3763630340667445,0.11483377718374989,0.2886488,0.5483127123344212
0.0025,1.79984375,1.0,97.25241424199203,0.02775623573657207,1.3739287375494218,0.16470080243973959,0.28864643749999996,0.554136796029004
0.003,1.7997750000000001,1.0,161.13274682079955,0.03320975451017164,1.371207810831696,0.217410345903228,0.28864354999999997,0.5606019170202161
0.0035,1.79969375,1.0,237.8810911843636,0.03863268335511595,1.3685786439796197,0.2707420792805124,0.2886401375,0.566804155619084
0.004,1.7996,1.0,321.67750230378977,0.04402519385711244,1.3661505118522024,0.3230408932123921,0.2886362,0.5724929932090888
0.0045000000000000005,1.7994937500000001,1.0,409.4862212792641,0.049387456641084626,1.363917686515648,0.3731532522693677,0.2886317375,0.5776910632688093
0.005,1.799375,1.0,499.63660139630764,0.05471964136229481,1.3618536020785645,0.420358555612233,0.28862675,0.5824680186950507
0.0055,1.79924375,1.0,591.0156735345884,0.06002191675323235,1.3599344344936843,0.4642765548193127,0.2886212375,0.5868852132197437
0.006,1.7991000000000001,1.0,682.7437911918264,0.06529445056823671,1.3581423127727092,0.5047744864713901,0.2886152,0.5909887876333384
0.006500000000000001,1.79894375,1.0,774.1076577012146,0.07053740963393673,1.3564633891060813,0.5418871666258878,0.2886086375,0.5948145798055053
0.007,1.798775,1.0,864.5127206294511,0.07575095985909183,1.3548867299225937,0.5757554927311754,0.28860155,0.5983909723368879
0.0075,1.79859375,1.0,953.4662800493847,0.08093526615915073,1.3534033484271684,0.6065815058189598,0.2885939375,0.601741305231076
0.008,1.7984,1.0,1040.5788972951934,0.08609049264320365,1.3520054009418276,0.6345970901791014,0.2885858,0.6048858345273698
0.0085,1.79819375,1.0,1125.5338268214612,0.09121680233358903,1.3506861329313427,0.6600434777836377,0.2885771375,0.6078419520716221
0.009000000000000001,1.797975,1.0,1208.0937413450451,0.09631435753042905,1.3494393903787762,0.6831580026860246,0.28856795,0.6106253585832564
0.0095,1.79774375,1.0,1288.0711993058983,0.101383319217586,1.3482597553219084,0.7041664789742795,0.2885582375,0.6132498176757796
0.01,1.7975,1.0,1365.3537173409222,0.10642384846223053,1.3471419861718938,0.7232787545132953,0.288548,0.61572844845865
0.0105,1.79724375,1.0,1439.844766485484,0.1114361043231637,1.3460816276996905,0.7406872263285831,0.2885372375,0.6180724074258062
0.011,1.796975,1.0,1511.4888042164362,0.11642024507288,1.345074518729856,0.7565662388454498,0.28852595000000003,0.6202920169749944
0.0115,1.79669375,1.0,1580.2721529525368,0.12137642853804398,1.3441166774956927,0.7710725995116584,0.2885141375,0.6223970416751448
0.012,1.7964,1.0,1646.2121622531813,0.12630481231218965,1.3432043489793548,0.7843466782776755,0.28850180000000003,0.6243966034491621
0.0125,1.79609375,1.0,1709.3208681117326,0.13120555171846865,1.3423343475132907,0.7965138670462617,0.2884889375,0.6262984518898262
0.013000000000000001,1.7957750000000001,1.0,1769.6324900317527,0.13607880148973464,1.3415036510715634,0.8076857979212927,0.28847555,0.6281098734208923
0.0135,1.79544375,1.0,1827.2027585351725,0.1409247158376324,1.3407093593494481,0.8179617301730732,0.2884616375,0.6298377948076805
0.014,1.7951000000000001,1.0,1882.108949471638,0.14574344912002465,1.3399486525822495,0.8274298739042075,0.2884472,0.6314888826770186
0.0145,1.79474375,1.0,1934.412559688965,0.15053515338231455,1.3392191608681632,0.8361687588715897,0.2884322375,0.6330687528695766
0.015,1.794375,1.0,1984.1757677179726,0.15529997953444893,1.3385187350518553,0.8442482619657281,0.28841675,0.6345824809275887
0.0155,1.79399375,1.0,2031.4792831947827,0.16003807848637466,1.337845225977992,0.8517305439301978,0.2884007375,0.6360350870021667
0.016,1.7936,1.0,2076.40171978128,0.16474960001590308,1.3371966827531991,0.8586710220502256,0.2883842,0.6374311133298418
0.0165,1.7931937500000001,1.0,2119.0518169589586,0.16943469481759738,1.3365709948349125,0.8651190590043351,0.2883671375,0.6387753999867262
0.017,1.792775,1.0,2159.500378872881,0.17409351006015772,1.335966581965063,0.8711188807197056,0.28834955,0.640071606513752
0.0175,1.7923437500000001,1.0,2197.8220884850784,0.17872619247453292,1.3353819343463056,0.8767100476245859,0.2883314375,0.6413232082720994
0.018000000000000002,1.7919,1.0,2234.101319242806,0.1833328887916717,1.3348155421812953,0.8819279834213709,0.2883128,0.642533650235476
0.0185,1.79144375,1.0,2268.4220555699767,0.18791374468404595,1.3342659879431804,0.8868044813611055,0.2882936375,0.6437061521185254
0.019,1.790975,1.0,2300.8763689725647,0.19246890673670092,1.3337318515242649,0.8913681013615905,0.28827395,0.6448439135146238
0.0195,1.79049375,1.0,2331.537652267082,0.19699851846988667,1.3332119668265345,0.8956445999496462,0.2882537375,0.6459495700369657
0.02,1.79,1.0,2360.4758007627256,0.20150272220844448,1.3327052592930135,0.8996572087587517,0.288233,0.6470255434909715
0.0205,1.78949375,1.0,2387.7658623268703,0.2059816602772157,1.332210654366726,0.9034268971212501,0.2882117375,0.6480742382819888
0.021,1.788975,1.0,2413.4868007027153,0.21043547487898606,1.3317270852339658,0.9069726247890512,0.28818995000000003,0.6490980258997998
0.021500000000000002,1.78844375,1.0,2437.703743828191,0.2148643058897901,1.3312536594276976,0.9103115962540019,0.2881676375,0.6500988938640273
0.022,1.7879,1.0,2460.5088420734774,0.21926829717012647,1.3307892599609976,0.9134593709349058,0.2881448,0.651079290479769
0.0225,1.78734375,1.0,2481.9560312366184,0.2236475861153609,1.3303331691422982,0.9164301592606764,0.28812143749999997,0.6520408079222125
0.023,1.786775,1.0,2502.1018918140435,0.22800231012085898,1.3298846692800308,0.9192368881550075,0.28809755,0.6529850286160865
0.0235,1.78619375,1.0,2521.0054326730533,0.23233260658198635,1.3294430426826276,0.9218913347146213,0.28807313749999996,0.6539135255995294
0.024,1.7856,1.0,2538.7278861450845,0.23663861289410865,1.3290075716585203,0.9244042443699603,0.2880482,0.6548278628551135
0.0245,1.78499375,1.0,2555.3268239130366,0.2409204652547218,1.3285775919755203,0.9267854443508039,0.2880227375,0.6557294835828078
0.025,1.784375,1.0,2570.8609312591134,0.24517830015069822,1.328152445631493,0.9290439278176483,0.28799675,0.656619810032111
0.025500000000000002,1.78374375,1.0,2585.3918601113364,0.2494122542647493,1.3277314619740739,0.9311879328654294,0.2879702375,0.6575002832663781
0.026000000000000002,1.7831000000000001,1.0,2598.9616572641735,0.2536224596765569,1.3273141667448574,0.9332250480426779,0.2879432,0.6583719268116063
0.0265,1.78244375,1.0,2611.6135014386314,0.2578090484658028,1.3269000856854383,0.9351622445646616,0.2879156375,0.6592357588611388
0.027,1.781775,1.0,2623.391607633139,0.261972152712169,1.326488744537411,0.9370059348135557,0.28788755,0.6600927923800549
0.0275,1.7810937500000001,1.0,2634.3411364605295,0.2661119044953373,1.3260796690423702,0.9387620245829331,0.2878589375,0.6609440351952116
0.028,1.7804,1.0,2644.5065913496055,0.2702284355013515,1.3256723989518324,0.9404359617092273,0.2878298,0.6617904609724443
0.0285,1.77969375,1.0,2653.925335300184,0.27432187518134865,1.325266546922284,0.9420327854456845,0.2878001375,0.662632887287161
0.029,1.778975,1.0,2662.650827541201,0.2783923565594377,1.324861583391999,0.9435571348994816,0.28776995,0.6634724223088115
0.029500000000000002,1.7782437500000001,1.0,2670.713406322886,0.28244000647316575,1.3244571974843364,0.9450133308867731,0.2877392375,0.6643097162009257
0.03,1.7775,1.0,2678.1438806704996,0.28646495176007947,1.3240530783226545,0.9464053759753623,0.287708,0.665145415910751
0.0305,1.77674375,1.0,2684.9734885644866,0.29046731925772595,1.3236489150303115,0.9477369819646433,0.2876762375,0.6659801651776219
0.031,1.775975,1.0,2691.233857263516,0.29444723580365206,1.3232443967306657,0.9490115946681653,0.28764395,0.6668146045351657
0.0315,1.7751937500000001,1.0,2696.9569657699994,0.2984048282354047,1.322839212547076,0.9502324162928306,0.2876111375,0.6676493713073466
0.032,1.7744,1.0,2702.1706514536513,0.3023402187428627,1.3224330923286796,0.9514024292328819,0.2875778,0.6684850158525677
0.0325,1.77359375,1.0,2706.9123316181167,0.30625353862957394,1.3220256809253652,0.9525244031163678,0.2875439375,0.6693222602823816
0.033,1.772775,1.0,2711.2044592072352,0.31014490995492094,1.321616762124236,0.9536009330301798,0.28750955,0.6701615380125081
0.0335,1.7719437500000002,1.0,2715.068679534678,0.31401445399640626,1.3212061288322674,0.9546344407644081,0.2874746375,0.6710032614814696
0.034,1.7711000000000001,1.0,2718.526809089186,0.3178622920315325,1.3207935739564343,0.9556271876827898,0.2874392,0.6718478409064341
0.0345,1.7702437500000001,1.0,2721.600817962248,0.3216885453378021,1.3203788904037124,0.9565812872431801,0.2874032375,0.672695684259203
0.035,1.7693750000000001,1.0,2724.312813226461,0.3254933351927176,1.319961871081077,0.9574987164009432,0.28736675,0.6735471972394651
0.035500000000000004,1.76849375,1.0,2726.685023264803,0.32927678287378154,1.3195423088955034,0.9583813260066066,0.2873297375,0.6744027832453148
0.036000000000000004,1.7676,1.0,2728.732006125761,0.33303900254736085,1.319120067453173,0.9592308559545417,0.2872922,0.6752626994537065
0.0365,1.76669375,1.0,2730.4771908413168,0.3367801176902176,1.31869493049377,0.9600489318424359,0.2872541375,0.6761273637677649
0.037,1.765775,1.0,2731.948358239343,0.3405002566846172,1.3182666429767242,0.9608370765002691,0.28721555,0.6769972703071632
0.0375,1.76484375,1.0,2733.1579175494867,0.34419953369014383,1.3178350901673408,0.9615967308907084,0.2871764375,0.6778726258237193
0.038,1.7639,1.0,2734.118328094646,0.34787806286638157,1.3174001573309244,0.9623292494245941,0.28713679999999997,0.6787536356068381
0.0385,1.76294375,1.0,2734.842093383092,0.3515359583729144,1.3169617297327803,0.9630359061069782,0.28709663750000003,0.6796405034591964
0.039,1.761975,1.0,2735.3417554918015,0.3551733343693266,1.3165196926382132,0.9637179001823739,0.28705595,0.6805334316715913
0.0395,1.7609937500000001,1.0,2735.62988974277,0.3587903050152021,1.3160739313125283,0.9643763613249989,0.2870147375,0.6814326209969489
0.04,1.76,1.0,2735.7190996700797,0.3623869844701251,1.3156243310210307,0.9650123544151579,0.286973,0.6823382706234912
0.0405,1.7589937500000001,1.0,2735.62201227942,0.36596348689367963,1.3151707770290253,0.9656268839388213,0.2869307375,0.6832505781470677
0.041,1.757975,1.0,2735.3512735994145,0.3695199264454498,1.3147131546018174,0.9662208980437865,0.28688795,0.6841697395426423
0.0415,1.75694375,1.0,2734.9195445245477,0.37305641728501976,1.3142513490047114,0.966795292282538,0.2868446375,0.685095949134946
0.042,1.7559,1.0,2734.3384183566136,0.37657307141683727,1.3137852552983438,0.9673509135310614,0.28680079999999997,0.6860293799660497
0.0425,1.75484375,1.0,2733.614740509066,0.3800699924798979,1.3133148117399562,0.9678885649127612,0.2867564375,0.686970117169502
0.043000000000000003,1.753775,1.0,2732.7655391817066,0.3835473075998645,1.3128398641563241,0.9684090026762033,0.28671155,0.6879184291921322
0.043500000000000004,1.75269375,1.0,2731.797284963192,0.3870051233139078,1.3123603542889055,0.9689129473092742,0.28666613750000003,0.6888743911623387
0.044,1.7516,1.0,2730.7164519839207,0.3904435461591987,1.3118762238791584,0.9694010814345089,0.2866202,0.6898380771010112
0.0445,1.75049375,1.0,2729.5295165552934,0.3938626826729081,1.311387414668541,0.9698740521702092,0.2865737375,0.6908095599044712
0.045,1.7493750000000001,1.0,2728.2429558837257,0.3972626393922068,1.3108938683985112,0.9703324733219213,0.28652675,0.6917889113271978
0.0455,1.74824375,1.0,2726.8632468599794,0.40064352285426574,1.3103955268105272,0.9707769274179969,0.2864792375,0.6927762019643345
0.046,1.7471,1.0,2725.396864923911,0.4040054395962557,1.309892331646047,0.9712079676017383,0.2864312,0.6937715012339811
0.0465,1.7459437500000001,1.0,2723.8502830043712,0.4073484961553475,1.3093842246465288,0.9716261193915166,0.28638263750000004,0.6947748773592672
0.047,1.744775,1.0,2722.229970534128,0.4106727990687121,1.3088711475534305,0.9720318823192462,0.28633355,0.6957863973502136
0.0475,1.74359375,1.0,2720.542392540859,0.4139784548735203,1.3083530421082106,0.9724257314567004,0.28628393750000003,0.6968061269853703
0.048,1.7424,1.0,2718.7940088119526,0.417265570106943,1.3078298500523267,0.9728081188383211,0.2862338,0.6978341307932465
0.0485,1.74119375,1.0,2716.9876135614495,0.42053422944650326,1.3073015464678848,0.9731794744083828,0.2861831375,0.6988704066914747
0.049,1.739975,1.0,2715.1321498751518,0.42378456361797984,1.3067680503830235,0.97354020946535,0.28613195,0.6999150614292053
0.0495,1.73874375,1.0,2713.2314681913545,0.4270166765137754,1.3062293271580214,0.9738907157905087,0.2860802375,0.700968109656714
0.05,1.7375,1.0,2711.288539227168,0.430230666652671,1.3056853501389722,0.974231366792634,0.286028,0.7020295494592281
0.0505,1.73624375,1.0,2709.306330578244,0.4334266325534477,1.3051360926719695,0.9745625186350448,0.2859752375,0.7030993780257757
0.051000000000000004,1.734975,1.0,2707.287806495501,0.4366046727348865,1.3045815281031072,0.9748845111828384,0.28592195,0.70417759164023
0.051500000000000004,1.73369375,1.0,2705.2359276777975,0.4397648857157684,1.3040216297784786,0.9751976688899786,0.2858681375,0.7052641856723141
0.052000000000000005,1.7324,1.0,2703.1536510794404,0.4429073700148744,1.3034563710441773,0.9755023016305601,0.2858138,0.7063591545685541
0.0525,1.73109375,1.0,2701.0439297345883,0.4460322241509855,1.3028857252462973,0.9757987054782118,0.28575893750000003,0.7074624918431904
0.053,1.729775,1.0,2698.9097125965573,0.44913954664288275,1.3023096657309319,0.9760871634372996,0.28570355000000003,0.7085741900690441
0.0535,1.72844375,1.0,2696.753944393173,0.4522294360093472,1.3017281658441748,0.9763679461292987,0.2856476375,0.7096942408683359
0.054,1.7271,1.0,2694.579565498132,0.45530199076915984,1.3011411989321198,0.9766413124374423,0.2855912,0.7108226349034613
0.0545,1.7257437500000001,1.0,2692.3895118174332,0.45835730944110165,1.3005487383408603,0.9769075101125166,0.2855342375,0.7119593618677205
0.055,1.724375,1.0,2690.186714692339,0.4613954905439537,1.29995075741649,0.9771667763424482,0.28547675,0.7131044104760014
0.0555,1.72299375,1.0,2687.9741008175392,0.46441663259649696,1.2993472295051027,0.9774193382881349,0.2854187375,0.7142577684554189
0.056,1.7216,1.0,2685.7478957671747,0.46742079144406795,1.2987381893143537,0.9776654132128316,0.2853602,0.7154193056287672
0.0565,1.72019375,1.0,2683.5164736806273,0.4704081115879837,1.298123560242283,0.9779052111074166,0.28530113749999997,0.7165891034070979
0.057,1.718775,1.0,2681.2822820453507,0.4733786935096469,1.2975033199132215,0.9781389323463622,0.28524155,0.7177671385223576
0.0575,1.71734375,1.0,2679.0461412329164,0.47633262646266095,1.2968774608427969,0.9783667689597607,0.2851814375,0.7189533585571863
0.058,1.7159,1.0,2676.808870258949,0.4792699997006292,1.2962459755466367,0.9785889052107344,0.2851208,0.7201477103712421
0.0585,1.71444375,1.0,2674.571286779813,0.4821909024771552,1.2956088565403678,0.9788055179694031,0.2850596375,0.7213501400985212
0.059000000000000004,1.7129750000000001,1.0,2672.3342070893777,0.4850954240458421,1.2949660963396183,0.9790167770659818,0.28499795,0.7225605931446653
0.059500000000000004,1.71149375,1.0,2670.098446118359,0.48798365366029345,1.294317687460015,0.9792228456243204,0.2849357375,0.7237790141842757
0.06,1.71,1.0,2667.864817433726,0.49085568057411255,1.293663622417186,0.9794238803771207,0.284873,0.7250053471582156
0.0605,1.7084937500000001,1.0,2665.634133240587,0.4937115940409029,1.293003893726758,0.9796200319639646,0.2848097375,0.7262395352709141
0.061,1.7069750000000001,1.0,2663.4072043838937,0.49655148331426785,1.2923384939043592,0.9798114452132178,0.28474595,0.7274815209876625
0.0615,1.7054437500000001,1.0,2661.184840352613,0.4993754376478107,1.2916674154656163,0.9799982594087997,0.2846816375,0.728731246031912
0.062,1.7039,1.0,2658.967849284724,0.502183546295135,1.290990650926157,0.9801806085427361,0.2846168,0.729988651382562
0.0625,1.70234375,1.0,2656.7570379728054,0.504975898509844,1.2903081928016091,0.9803586215543587,0.2845514375,0.7312536772712492
0.063,1.7007750000000001,1.0,2654.553211872101,0.5077525835455412,1.2896200336075996,0.980532422556946,0.28448555,0.732526263179633
0.0635,1.69919375,1.0,2652.3571751090426,0.51051369065583,1.288926165859756,0.9807021310525588,0.28441913750000003,0.7338063478366734
0.064,1.6976,1.0,2650.169730490537,0.5132593090943136,1.2882265820737058,0.9808678621357639,0.2843522,0.7350938692159099
0.0645,1.69599375,1.0,2647.9916795161066,0.5159895281145955,1.2875212747650764,0.9810297266868989,0.2842847375,0.7363887645327343
0.065,1.694375,1.0,2645.8238223894978,0.5187044369702792,1.286810236449495,0.9811878315554879,0.28421675,0.7376909702416605
0.0655,1.69274375,1.0,2643.6650716184763,0.5214040947224986,1.286093477065517,0.9813422784856803,0.2841482375,0.7390003902441407
0.066,1.6911,1.0,2641.516319132641,0.5240886026688897,1.2853709882789297,0.9814931676318502,0.2840792,0.7403169612522544
0.0665,1.6894437500000001,1.0,2639.379366777917,0.5267580724276825,1.2846427533315576,0.9816405958615115,0.2840096375,0.7416406344892539
0.067,1.687775,1.0,2637.2542000380636,0.529412583820552,1.2839087722349494,0.981784655264785,0.28393955,0.7429713298725882
0.0675,1.68609375,1.0,2635.140804467049,0.5320522166691731,1.2831690450006532,0.9819254347114643,0.2838689375,0.7443089666881952
0.068,1.6844000000000001,1.0,2633.039165688536,0.5346770507952208,1.2824235716402168,0.9820630199846215,0.2837978,0.7456534635905081
0.0685,1.68269375,1.0,2630.9492693959273,0.5372871660203699,1.2816723521651887,0.9821974939077659,0.2837261375,0.7470047386024551
0.069,1.680975,1.0,2628.8711013524967,0.5398826421662952,1.280915386587117,0.982328936465904,0.28365395,0.7483627091154674
0.0695,1.67924375,1.0,2626.8046473911686,0.5424635590546718,1.28015267491755,0.9824574249208363,0.28358123749999997,0.749727291889482
0.07,1.6775,1.0,2624.7498934147225,0.5450299965071745,1.2793842171680356,0.9825830339210005,0.283508,0.7510984030529462
0.07050000000000001,1.67574375,1.0,2622.706825395537,0.5475820343454784,1.2786100133501224,0.9827058356061542,0.2834342375,0.752475958102821
0.07100000000000001,1.673975,1.0,2620.6754293756317,0.5501197523912581,1.277830063475358,0.9828258997071725,0.28335995,0.753859871904587
0.07150000000000001,1.67219375,1.0,2618.6556914667985,0.5526432304661886,1.277044367555291,0.9829432936412212,0.2832851375,0.7552500586922477
0.07200000000000001,1.6704,1.0,2616.6475978503886,0.5551525483919449,1.2762529256014694,0.9830580826025443,0.2832098,0.7566464320683323
0.0725,1.66859375,1.0,2614.651134777247,0.5576477859902019,1.2754557376254414,0.9831703296491007,0.2831339375,0.758048905003903
0.073,1.6667750000000001,1.0,2612.6662885679843,0.5601290230826346,1.2746528036387552,0.9832800957852621,0.28305755,0.7594573898385567
0.0735,1.66494375,1.0,2610.693045612622,0.5625963394909176,1.273844123652959,0.9833874400407765,0.2829806375,0.7608717982804303
0.074,1.6631,1.0,2608.731392370667,0.565049815036726,1.273029697679601,0.9834924195461899,0.2829032,0.7622920414062044
0.0745,1.6612437500000001,1.0,2606.781315371214,0.5674895295417348,1.272209525730229,0.9835950896049035,0.2828252375,0.763718029661109
0.075,1.659375,1.0,2604.842801212791,0.5699155628276188,1.2713836078163918,0.9836955037620417,0.28274675,0.7651496728589249
0.0755,1.65749375,1.0,2602.91638301055,0.5723279941755859,1.2705519388632964,0.9837937136186495,0.2826677375,0.7665868889582625
