Time [s],Phi [rad],STIM [ ],Fsee [N],Gamma [ ],Lcerel [ ],q [ ],Lmtc [m],fisomrel [ ]
0.0,1.8,1.0,17.96690611825638,1.6992201431209236e-05,1.3793397744577736,0.0050000766316992224,0.288653,0.5411394627370074
0.0005,1.79999375,1.0,18.27861844628607,0.00562610619741623,1.379302179596571,0.01295993830238468,0.2886527375,0.5412304099275849
0.001,1.799975,1.0,21.625463960504074,0.011203757498770868,1.3789375788097418,0.03564502515848361,0.28865195,0.5421119622634272
0.0015,1.79994375,1.0,31.08729281389403,0.016750122587204208,1.3780446655742529,0.07065159546650772,0.2886506375,0.5442673177004187
0.002,1.7999,1.0,53.622263345902375,0.022265376952760613,1.3763655452506955,0.11477692171602143,0.2886488,0.5483066847836309
0.0025,1.79984375,1.0,97.18659455955196,0.02774969510143615,1.3739319076020005,0.164638953568527,0.28864643749999996,0.5541292362153347
0.003,1.7997750000000001,1.0,161.04670501038734,0.033203250562828183,1.3712110301431923,0.2173465423066733,0.28864354999999997,0.5605942955995853
0.0035,1.79969375,1.0,237.78364859308007,0.038626215889779,1.3685816445286187,0.27067862104911755,0.2886401375,0.5667971024125604
0.004,1.7996,1.0,321.5736910083317,0.04401876266914481,1.3661532607379379,0.3229794492523425,0.2886362,0.5724865741421419
0.0045000000000000005,1.7994937500000001,1.0,409.3786232045698,0.04938106152698393,1.3639202117446236,0.3730949264792278,0.2886317375,0.577685202435422
0.005,1.799375,1.0,499.526739907981,0.05471328211966228,1.3618559362331177,0.4203039879539984,0.28862675,0.5824626320562941
0.0055,1.79924375,1.0,590.904765482087,0.06001559318103212,1.3599366010567449,0.464226034218372,0.2886212375,0.5868802398587938
0.006,1.7991000000000001,1.0,682.6326859163004,0.0652881624663205,1.3581443321192217,0.5047280590058199,0.2886152,0.5909841752897851
0.006500000000000001,1.79894375,1.0,773.9973743679428,0.07053115680538656,1.356465271506666,0.541844714448942,0.2886086375,0.5948103004135168
0.007,1.798775,1.0,864.4031391154739,0.0757447420975246,1.3548884998389525,0.5757168117733859,0.28860155,0.5983869664606434
0.0075,1.79859375,1.0,953.3601420473647,0.08092908329164672,1.3534049807937816,0.6065463103116263,0.2885939375,0.6017376261165399
0.008,1.7984,1.0,1040.4731004035932,0.08608434443152818,1.352006958462495,0.6345651272748849,0.2885858,0.6048823379910183
0.0085,1.79819375,1.0,1125.4314467592412,0.09121068864084197,1.3506875821481685,0.6600144350496593,0.2885771375,0.6078387108643863
0.009000000000000001,1.797975,1.0,1207.987721586119,0.09630827791500388,1.3494408389284804,0.6831316581423217,0.28856795,0.6106221303857137
0.0095,1.79774375,1.0,1287.977951365726,0.10137727397361175,1.3482609891781165,0.7041424513470508,0.2885582375,0.6132470772215555
0.01,1.7975,1.0,1365.2719157002505,0.10641783725105339,1.3471430374879783,0.7232568216983245,0.288548,0.6157261209299112
0.0105,1.79724375,1.0,1439.7638768345744,0.11143012660189769,1.346082640044832,0.7406672413418063,0.2885372375,0.6180701730216813
0.011,1.796975,1.0,1511.409271884432,0.11641430073480702,1.345075490210922,0.7565479997905694,0.28852595000000003,0.6202898790041194
0.0115,1.79669375,1.0,1580.2047843670741,0.12137051781698159,1.3441174822873982,0.7710558693969254,0.2885141375,0.6223952754597646
0.012,1.7964,1.0,1646.155097836726,0.12629893482469634,1.343205016882701,0.7843313130948241,0.28850180000000003,0.6243951415387274
0.0125,1.79609375,1.0,1709.265689721119,0.1311997069812605,1.342334981307278,0.7964997692104749,0.2884889375,0.626297068154801
0.013000000000000001,1.7957750000000001,1.0,1769.5776688556202,0.13607298946313673,1.341504269938882,0.8076728475140472,0.28847555,0.6281085255532884
0.0135,1.79544375,1.0,1827.151064690592,0.14091893643180728,1.340709933645607,0.8179498014162213,0.2884616375,0.6298365469234888
0.014,1.7951000000000001,1.0,1882.0635234145552,0.14573770247941864,1.3399491498298095,0.8274188544946155,0.2884472,0.6314878046236918
0.0145,1.79474375,1.0,1934.3638917546416,0.15052943887154746,1.3392196863509218,0.836158596903343,0.2884322375,0.6330676160458617
0.015,1.794375,1.0,1984.1217377542341,0.15529429687377033,1.3385193110683762,0.8442388831859257,0.28841675,0.6345812373526529
0.0155,1.79399375,1.0,2031.4222439372818,0.16003242746136126,1.337845826955324,0.8517218664390843,0.2884007375,0.6360337921201318
0.016,1.7936,1.0,2076.3532431234685,0.1647439807875714,1.3371971879573301,0.8586629432098764,0.2883842,0.6374300268930772
0.0165,1.7931937500000001,1.0,2119.0121491430996,0.16942910739655181,1.336571404054969,0.8651115239679694,0.2883671375,0.6387745215958763
0.017,1.792775,1.0,2159.464714548381,0.17408795407947567,1.3359669464222608,0.8711118551335514,0.28834955,0.6400708256112939
0.0175,1.7923437500000001,1.0,2197.7873500462924,0.17872066762751618,1.3353822862332254,0.8767034954162503,0.2883314375,0.6413224556153536
0.018000000000000002,1.7919,1.0,2234.066236175731,0.1833273948318465,1.3348158946618836,0.8819218671151855,0.2883128,0.6425328975821509
0.0185,1.79144375,1.0,2268.3862278604543,0.18790828132011742,1.3342663451717685,0.8867987648807842,0.2882936375,0.6437053905787887
0.019,1.790975,1.0,2300.841814637064,0.19246347378230066,1.3337321936178357,0.891362746266018,0.28827395,0.644843185405062
0.0195,1.79049375,1.0,2331.5098568482686,0.19699311620083904,1.3332122401901298,0.8956395638030303,0.2882537375,0.6459489891182246
0.02,1.79,1.0,2360.4570240682915,0.20149735060335153,1.3327054428232414,0.8996524607257557,0.288233,0.6470251540682106
0.0205,1.78949375,1.0,2387.755049260358,0.20597631901745705,1.3322107594517614,0.903422416554295,0.2882117375,0.6480740156392983
0.021,1.788975,1.0,2413.480306428686,0.21043016347077462,1.3317271480102801,0.906968398367535,0.28818995000000003,0.6490978930898141
0.021500000000000002,1.78844375,1.0,2437.701676698928,0.21485902450840821,1.3312536793099068,0.9103076045517229,0.2881676375,0.650098851861127
0.022,1.7879,1.0,2460.504183377572,0.21926304433278465,1.3307893045614725,0.9134556092754734,0.2881448,0.6510791963894688
0.0225,1.78734375,1.0,2481.956402429303,0.2236423625858822,1.3303331656040385,0.9164265966934987,0.28812143749999997,0.6520408153763231
0.023,1.786775,1.0,2502.108831630729,0.22799711626336921,1.329884603395633,0.9192335076579562,0.28809755,0.6529851672273784
0.0235,1.78619375,1.0,2521.014291648404,0.2323274423609141,1.3294429588942849,0.9218881316121584,0.28807313749999996,0.653913701642151
0.024,1.7856,1.0,2538.7277376560673,0.23663347787418526,1.3290075730580226,0.9244012249321594,0.2880482,0.6548278599185903
0.0245,1.7849992108287167,1.0,2555.568605260662,0.24091535979885104,1.328577786844875,0.9267826156816522,0.2880229668548061,0.6557290752299871
0.025,1.7843983950367737,1.0,2571.9171494256557,0.245173222610203,1.328153119746678,0.9290413260976512,0.2879977325915445,0.6566183992363597
0.025500000000000002,1.7837975792448306,1.0,2587.7732543242264,0.24940720440880115,1.3277335360147042,0.9311856990940454,0.28797249832828287,0.6574959482503143
0.026000000000000002,1.7831967634528876,1.0,2603.149202468282,0.2536174379418429,1.3273188746734652,0.9332233633808495,0.28794726406502125,0.6583620991151032
0.0265,1.7825959476609445,1.0,2618.058371058671,0.2578040550612363,1.3269089680155601,0.9351613243161668,0.2879220298017597,0.6592172405325303
0.027,1.7819951318690015,1.0,2632.514497363863,0.2619671876188896,1.3265036483335881,0.9370060245993275,0.28789679553849806,0.6600617590078336
0.0275,1.7813943160770584,1.0,2646.5316613526993,0.26610696746671075,1.3261027479201477,0.9387633969487308,0.28787156127523644,0.6608960388996448
0.028,1.7807935002851154,1.0,2660.1242689501873,0.2702235264566079,1.325706099067838,0.9404389112112796,0.2878463270119749,0.6617204624681496
0.0285,1.7801926844931724,1.0,2673.2794709448713,0.2743169487826754,1.3253137872447311,0.9420376341100487,0.28782109274871326,0.6625348846571741
0.029,1.7795918687012293,1.0,2686.0517017177385,0.27838743069864486,1.3249252816973875,0.9435642050436328,0.28779585848545164,0.6633404378631166
0.029500000000000002,1.778991052909286,1.0,2698.4541197509493,0.2824351005617389,1.3245404350156962,0.9450229433382075,0.28777062422219,0.6641374554841285
0.03,1.778390237117343,1.0,2710.4964504275104,0.28646008062686523,1.3241591332923544,0.9464178522715833,0.2877453899589284,0.664926199946268
0.0305,1.7777894213254,1.0,2722.1886156238575,0.2904624931489312,1.3237812626200591,0.9477526441602778,0.2877201556956668,0.6657069323219398
0.031,1.777188605533457,1.0,2733.540724900942,0.2944424603828444,1.3234067090915078,0.9490307651733317,0.28769492143240516,0.6664799123552323
0.0315,1.7765877897415139,1.0,2744.5630669828984,0.29840010458351224,1.3230353587993975,0.950255417739572,0.2876696871691436,0.6672453984864303
0.032,1.7759869739495708,1.0,2755.266101523242,0.3023355480058424,1.3226670978364257,0.951429580807705,0.287644452905882,0.6680036478756968
0.0325,1.7753861581576278,1.0,2765.6604511593723,0.3062489129047422,1.3223018122952892,0.9525560281881099,0.28761921864262036,0.6687549164259317
0.033,1.7747853423656847,1.0,2775.756893853955,0.3101403215351193,1.3219393882686854,0.9536373451785488,0.28759398437935874,0.669499458804798
0.0335,1.7741845265737417,1.0,2785.5663555247384,0.31400989615188113,1.3215797118493113,0.9546759436526997,0.28756875011609717,0.6702375284659244
0.034,1.7735837107817987,1.0,2795.0999029608483,0.31785775900993524,1.3212226691298645,0.9556740757699954,0.28754351585283555,0.670969377669278
0.0345,1.7729828949898556,1.0,2804.368737028544,0.3216840323641891,1.320868146203042,0.9566338464473547,0.28751828158957393,0.6716952575007118
0.035,1.7723820791979126,1.0,2813.384186163059,0.32548883846955023,1.320516029161541,0.957557224717672,0.2874930473263123,0.6724154178906832
0.035500000000000004,1.7717812634059695,1.0,2822.1577001488413,0.32927229958092624,1.3201662040980584,0.9584460540861031,0.2874678130630507,0.6731301076321442
0.036000000000000004,1.7711804476140263,1.0,2830.7008441872,0.33303453795322446,1.319818557105292,0.9593020619830345,0.2874425787997891,0.6738395743976053
0.0365,1.7705796318220832,1.0,2839.0252932522267,0.3367756758413525,1.3194729742759386,0.9601268684018885,0.2874173445365275,0.6745440647553747
0.037,1.7699788160301402,1.0,2847.142587767608,0.340495834996217,1.319129343829453,0.9609219939012178,0.2873921102732659,0.6752438198564503
0.0375,1.7693780002381971,1.0,2855.0554425072964,0.3441951225319543,1.3187876332944135,0.9616888713545888,0.28736687601000427,0.6759389185540388
0.038,1.768777184446254,1.0,2862.7764079691983,0.3478736679865093,1.3184477233021403,0.9624288440766398,0.28734164174674265,0.6766296158280724
0.0385,1.768176368654311,1.0,2870.3116521510633,0.35153158440074483,1.3181095519008381,0.9631431777515503,0.2873164074834811,0.6773160490734949
0.039,1.767575552862368,1.0,2877.6674003630424,0.35516898481552345,1.3177730571387112,0.9638330639433953,0.28729117322021946,0.6779983550915734
0.0395,1.766974737070425,1.0,2884.8499328823714,0.35878598227170777,1.317438177063964,0.9644996252395243,0.28726593895695784,0.6786766700966436
0.04,1.766373921278482,1.0,2891.865582692679,0.3623826898101606,1.3171048497248015,0.9651439199840037,0.2872407046936962,0.6793511297226118
0.0405,1.7657731054865389,1.0,2898.7207333088195,0.36595922047174445,1.3167730131694282,0.9657669466378215,0.2872154704304346,0.6800218690292132
0.041,1.7651722896945958,1.0,2905.421816686813,0.36951568729732204,1.3164426054460483,0.9663696477989158,0.28719023616717304,0.6806890225080249
0.0415,1.7645714739026528,1.0,2911.9753112180215,0.37305220332775607,1.316113564602867,0.9669529139118639,0.2871650019039114,0.6813527240882304
0.042,1.7639706581107097,1.0,2918.3877398100562,0.3765688816039091,1.3157858286880884,0.9675175866941663,0.2871397676406498,0.6820131071421471
0.0425,1.7633698423187667,1.0,2924.665668051111,0.3800658351666439,1.3154593357499171,0.9680644623034864,0.2871145333773882,0.6826703044905008
0.043000000000000003,1.7627690265268234,1.0,2930.8093294179907,0.38354315529390776,1.3151340797402085,0.9685942953447578,0.28708929911412656,0.6833243360532268
0.043500000000000004,1.7621682107348804,1.0,2936.831234646109,0.38700097891755847,1.314809947141122,0.9691077990537393,0.287064064850865,0.6839754374394258
0.044,1.7615673949429373,1.0,2942.7369362892805,0.3904394182343674,1.3144868858914078,0.9696056502438591,0.2870388305876034,0.684623720032923
0.0445,1.7609665791509943,1.0,2948.5299188343533,0.39385857803293134,1.3141648622939355,0.9700884909548106,0.28701359632434176,0.6852692579714048
0.045,1.7603657633590513,1.0,2954.213689234998,0.3972585631018472,1.3138438426515757,0.9705569303080706,0.28698836206108014,0.6859121250946842
0.0455,1.7597649475671082,1.0,2959.79177614949,0.40063947822971185,1.3135237932671988,0.9710115465154902,0.2869631277978185,0.6865523949468966
0.046,1.7591641317751652,1.0,2965.2677292030585,0.40400142820512214,1.313204680443675,0.9714528887465653,0.28693789353455695,0.6871901407786207
0.0465,1.7585633159832221,1.0,2970.645118275337,0.40734451781667486,1.3128864704838745,0.9718814788655871,0.28691265927129533,0.687825435548927
0.047,1.757962500191279,1.0,2975.927532813781,0.410668851852967,1.3125691296906679,0.9722978130489087,0.2868874250080337,0.6884583519273548
0.0475,1.757361684399336,1.0,2981.1185811712644,0.41397453510259524,1.3122526243669252,0.9727023632916575,0.2868621907447721,0.689088962295816
0.048,1.756760868607393,1.0,2986.221889969506,0.41726167235415657,1.311936920815517,0.9730955788124223,0.28683695648151053,0.6897173387504271
0.0485,1.75616005281545,1.0,2991.2411034871902,0.42053036839624786,1.3116219853393132,0.9734778873637172,0.2868117222182489,0.6903435531032682
0.049,1.755559237023507,1.0,2996.1798830739826,0.42378072801746586,1.3113077842411842,0.9738496964553554,0.2867864879549873,0.6909676768840698
0.0495,1.7549584212315636,1.0,3001.0419065889005,0.42701285600640754,1.3109942838240007,0.9742113944972689,0.28676125369172567,0.6915897813418268
0.05,1.7543576054396206,1.0,3005.830867864439,0.4302268571516697,1.3106814503906328,0.9745633518677723,0.28673601942846405,0.6922099374463417
0.0505,1.7537567896476776,1.0,3010.545486714957,0.43342280408008077,1.3103692934276598,0.9749059211105449,0.28671078516520243,0.6928281304120383
0.051000000000000004,1.7531559738557345,1.0,3015.193297515625,0.4366008343636015,1.3100577461871838,0.9752394410706182,0.28668555090194087,0.6934444962669767
0.051500000000000004,1.7525551580637915,1.0,3019.777431085821,0.4397610534165829,1.3097467802042786,0.9755642341420373,0.28666031663867925,0.6940590948759003
0.052000000000000005,1.7519543422718484,1.0,3024.2996029767783,0.44290355680859966,1.3094363793416588,0.975880608029205,0.2866350823754176,0.6946719615431284
0.0525,1.7513535264799054,1.0,3028.761536495502,0.4460284401092262,1.3091265274620394,0.9761888568294304,0.286609848112156,0.69528313143897
0.053,1.7507527106879623,1.0,3033.1649625058812,0.44913579888803723,1.3088172084281349,0.9764892617520586,0.28658461384889444,0.6958926396002995
0.0535,1.7501518948960193,1.0,3037.5116192346723,0.4522257287146072,1.3085084061026602,0.9767820917936253,0.2865593795856328,0.6965005209311101
0.054,1.7495510791040763,1.0,3041.80325208429,0.4552983251585107,1.30820010434833,0.9770676043720776,0.2865341453223712,0.6971068102030564
0.0545,1.7489502633121332,1.0,3046.0416134503753,0.45835368378932223,1.3078922870278593,0.9773460459228736,0.2865089110591096,0.6977115420559767
0.055,1.7483494475201902,1.0,3050.228462545826,0.46139190017661635,1.3075849380039628,0.9776176524595491,0.28648367679584796,0.6983147509984005
0.0555,1.7477486317282471,1.0,3054.365565230254,0.4644130698899676,1.3072780411393552,0.9778826501011552,0.28645844253258634,0.698916471408038
0.056,1.7471478159363039,1.0,3058.4546938454623,0.46741728849895053,1.3069715802967514,0.9781412555687765,0.2864332082693248,0.6995167375322549
0.0565,1.7465470001443608,1.0,3062.4976270562724,0.4704046515731397,1.306665539338866,0.9783936766531913,0.28640797400606316,0.7001155834885282
0.057,1.7459461843524178,1.0,3066.4961496976566,0.4733752546821097,1.3063599021284138,0.9786401126555644,0.28638273974280154,0.7007130432648876
0.0575,1.7453453685604747,1.0,3070.452052627391,0.476329193395435,1.3060546525281098,0.9788807548029437,0.2863575054795399,0.701309150720338
0.058,1.7447445527685317,1.0,3074.3671325844175,0.47926656328269024,1.3057497744006688,0.9791157866401834,0.28633227121627836,0.7019039395852684
0.0585,1.7441437369765886,1.0,3078.2431920528775,0.48218745991344986,1.3054452516088053,0.9793453843998183,0.28630703695301674,0.7024974434618418
0.059000000000000004,1.7435429211846456,1.0,3082.0800465205552,0.4850919505031892,1.3051410850598832,0.97956971593286,0.2862818026897551,0.7030896626545826
0.059500000000000004,1.7429421053927026,1.0,3085.879526667356,0.4879801395396658,1.3048372584390229,0.979788944673213,0.2862565684264935,0.7036806309546568
0.06,1.7423412896007595,1.0,3089.644773418593,0.4908521487555665,1.3045337442842762,0.9800032284693347,0.2862313341632319,0.7042704036741043
0.0605,1.7417404738088165,1.0,3093.3765658501798,0.4937080641103602,1.304230535372647,0.9802127172813053,0.28620609989997026,0.7048589966418128
0.061,1.7411396580168734,1.0,3097.07568570957,0.49654797156351577,1.3039276244811397,0.9804175553524663,0.2861808656367087,0.7054464256289902
0.0615,1.7405388422249304,1.0,3100.7429173670002,0.49937195707450205,1.3036250043867583,0.9806178814709398,0.2861556313734471,0.7060327063493017
0.062,1.7399380264329873,1.0,3104.379047768655,0.5021801066027878,1.3033226678665073,0.9808138292172678,0.28613039711018545,0.7066178544590067
0.0625,1.739337210641044,1.0,3107.984866390816,0.5049725061078421,1.3030206076973903,0.981005527199012,0.28610516284692383,0.707201885557093
0.063,1.738736394849101,1.0,3111.561165194538,0.5077492415491335,1.3027188166564116,0.9811930992730855,0.28607992858366227,0.7077848151854013
0.0635,1.738135579057158,1.0,3115.1087385823557,0.5105103988861309,1.3024172875205755,0.9813766647565515,0.28605469432040065,0.708366658828755
0.064,1.737534763265215,1.0,3118.628383355728,0.5132560640783034,1.3021160130668858,0.9815563386265651,0.28602946005713903,0.7089474319150806
0.0645,1.736933947473272,1.0,3122.120898673463,0.5159863230851196,1.3018149860723471,0.9817322317100908,0.2860042257938774,0.7095271498155258
0.065,1.7363331316813289,1.0,3125.5870860117916,0.5187012618660484,1.3015141993139634,0.981904450863993,0.2859789915306158,0.7101058278445778
0.0655,1.7357323158893858,1.0,3129.0277491250345,0.5214009663805587,1.3012136455687386,0.982073099146053,0.28595375726735417,0.7106834812601732
0.066,1.7351315000974428,1.0,3132.44369400813,0.5240855225881194,1.3009133176136771,0.9822382759774302,0.2859285230040926,0.7112601252638082
0.0665,1.7345306843054997,1.0,3135.83572885916,0.5267550164481991,1.3006132082257829,0.9824000772970545,0.285903288740831,0.7118357750006445
0.067,1.7339298685135567,1.0,3139.204664044576,0.5294095339202669,1.30031331018206,0.9825585957084068,0.28587805447756937,0.7124104455596103
0.0675,1.7333290527216136,1.0,3142.55131206446,0.5320491609637916,1.3000136162595128,0.9827139206191102,0.2858528202143078,0.7129841519735005
0.068,1.7327282369296706,1.0,3145.8764875188676,0.534673983538242,1.2997141192351453,0.9828661383737365,0.2858275859510462,0.7135569092190723
0.0685,1.7321274211377276,1.0,3149.1810070763545,0.5372840876030869,1.2994148118859619,0.9830153323801973,0.28580235168778456,0.7141287322171368
0.069,1.7315266053457843,1.0,3152.4646422952014,0.5398795278777347,1.299115695845629,0.9831615817153165,0.28577711742452294,0.7146996189374528
0.0695,1.7309257895538412,1.0,3155.7284227983964,0.5424604082794877,1.298816762111381,0.9833049653383412,0.2857518831612613,0.7152695876316018
0.07,1.7303249737618982,1.0,3158.9734427976846,0.5450268299244434,1.2985180011552784,0.9834455593696572,0.2857266488979997,0.7158386574816875
0.07050000000000001,1.7297241579699552,1.0,3162.2000624397797,0.5475788696750316,1.2982194096697717,0.9835834362420979,0.2857014146347381,0.716406835765985
