Time [s],Phi [rad],STIM [ ],Fsee [N],Gamma [ ],Lcerel [ ],q [ ],Lmtc [m],fisomrel [ ]
0.0,1.8,1.0,17.995134749826324,0.00016970115188770228,1.379336613126048,0.005007505597185063,0.288653,0.5411471107846267
0.0005,1.79999375,1.0,18.356844165955145,0.00577795857145962,1.379293499963803,0.013389820134671621,0.2886527375,0.5412514058839561
0.001,1.799975,1.0,21.817101162601617,0.011354758101071293,1.3789180522594906,0.03644562325235244,0.28865195,0.542159150739394
0.0015,1.79994375,1.0,31.523200366266725,0.016900276195572123,1.3780076677795245,0.07174434490545822,0.2886506375,0.544356514986877
0.002,1.7999,1.0,54.54464042292691,0.02241468831799008,1.3763059834765272,0.11606907023301391,0.2886488,0.5484496390298585
0.0025,1.79984375,1.0,98.72288833984312,0.027898168948058837,1.373858193215148,0.1660434434445297,0.28864643749999996,0.5543050107331159
0.003,1.7997750000000001,1.0,163.0365453013853,0.03335089158854139,1.3711367975982485,0.21879469138021915,0.28864354999999997,0.5607700174378722
0.0035,1.79969375,1.0,240.02687172581784,0.038773028765989544,1.368512724064486,0.27211842158175664,0.2886401375,0.5669590950337116
0.004,1.7996,1.0,323.95724520549487,0.04416475204115566,1.3660902565211268,0.3243731854943654,0.2886362,0.5726336864805344
0.0045000000000000005,1.7994937500000001,1.0,411.8447894760488,0.04952623201429469,1.3638624161737127,0.3744176814787388,0.2886317375,0.577819330663992
0.005,1.799375,1.0,502.0415811363102,0.05485763831699797,1.3618025692073044,0.4215413436656554,0.28862675,0.5825857809789341
0.0055,1.79924375,1.0,593.4404644766197,0.06015913965153268,1.3598871174706535,0.46537151815846384,0.2886212375,0.5869938223171686
0.006,1.7991000000000001,1.0,685.1691838991765,0.06543090375411063,1.358098271954441,0.5057806891068131,0.2886152,0.5910893737986073
0.006500000000000001,1.79894375,1.0,776.5152484532296,0.07067309742116668,1.3564223278646417,0.5428071574340357,0.2886086375,0.5949079215546872
0.007,1.798775,1.0,866.8874856214251,0.07588588654762549,1.3548484011966326,0.5765938997113856,0.28860155,0.5984777173730664
0.0075,1.79859375,1.0,955.7966468107278,0.08106943596189901,1.3533675310430795,0.6073440654198747,0.2885939375,0.6018220280756321
0.008,1.7984,1.0,1042.8642311196422,0.08622390994539143,1.3519717760215204,0.635289927681208,0.2885858,0.6049613165952062
0.0085,1.79819375,1.0,1127.7641542746733,0.09134947126913331,1.3506545783991883,0.6606728653198439,0.2885771375,0.607912521197983
0.009000000000000001,1.797975,1.0,1210.2587619626768,0.09644628215918832,1.34940982355631,0.6837300017690059,0.28856795,0.6106912474564681
0.0095,1.79774375,1.0,1290.183528384725,0.10151450424146977,1.3482318169510066,0.7046866244675446,0.2885582375,0.6133118675478337
0.01,1.7975,1.0,1367.3959984207067,0.10655429743166847,1.347115748941359,0.7237523664623853,0.288548,0.6157865332808656
0.0105,1.79724375,1.0,1441.8095438911078,0.1115658211012061,1.3460570469674504,0.7411190836584265,0.2885372375,0.6181266589418617
0.011,1.796975,1.0,1513.3930646867625,0.11654923455824928,1.3450512659681917,0.7569605173468782,0.28852595000000003,0.6203431883091461
0.0115,1.79669375,1.0,1582.117675541946,0.12150469505100486,1.3440946373704772,0.771433139765659,0.2885141375,0.6224454098624994
0.012,1.7964,1.0,1647.9801280351132,0.1264323589801657,1.343183661776479,0.7846770187753802,0.28850180000000003,0.6244418823012988
0.0125,1.79609375,1.0,1711.0087085068362,0.13133238227265415,1.342314965459799,0.7968170800923138,0.2884889375,0.626340766652604
0.013000000000000001,1.7957750000000001,1.0,1771.261184936272,0.1362049209435939,1.3414852693712203,0.8079645138964422,0.28847555,0.628149906895616
0.0135,1.79544375,1.0,1828.7819096964788,0.14105012878393897,1.340691819578923,0.818218342575974,0.2884616375,0.6298759058418449
0.014,1.7951000000000001,1.0,1883.6186236462465,0.14586815840977746,1.3399321306376613,0.8276666304477998,0.2884472,0.6315247020412629
0.0145,1.79474375,1.0,1935.8431677230194,0.15065916243719749,1.339203717102189,0.8363876163336326,0.2884322375,0.6331021629593689
0.015,1.794375,1.0,1985.5308846686164,0.15542329237568198,1.3385042906370268,0.8444509132689886,0.28841675,0.6346136646056229
0.0155,1.79399375,1.0,2032.7846005467022,0.16016070040200941,1.337831475191345,0.8519184229585645,0.2884007375,0.6360647141901776
0.016,1.7936,1.0,2077.6692452655284,0.16487153530221402,1.3371834752074092,0.8588454545375696,0.2883842,0.6374595154561686
0.0165,1.7931937500000001,1.0,2120.2592400923863,0.16955594559494078,1.3365585406809373,0.8652813350902596,0.2883671375,0.6388021323173403
0.017,1.792775,1.0,2160.641570276375,0.1742140797988347,1.3359549216076467,0.8712701048966854,0.28834955,0.6400965900752549
0.0175,1.7923437500000001,1.0,2198.896453396026,0.17884608503283428,1.335371052818845,0.8768511928776911,0.2883314375,0.6413464825611592
0.018000000000000002,1.7919,1.0,2235.1314865186673,0.18345210976401946,1.3348051932944163,0.8820598605930756,0.2883128,0.6425557479052569
0.0185,1.79144375,1.0,2269.4166050136846,0.18803229851030412,1.3342560726803254,0.8869278557553978,0.2882936375,0.6437272891464446
0.019,1.790975,1.0,2301.8245947212004,0.19258679543381602,1.3337224649365578,0.8914837078956054,0.28827395,0.6448638915710077
0.0195,1.79049375,1.0,2332.4348377045776,0.1971157446966828,1.3332031440230987,0.8957530864054689,0.2882537375,0.6459683189193947
0.02,1.79,1.0,2361.3267624708833,0.2016192895988,1.332696942450384,0.8997591383023326,0.288233,0.6470431903194064
0.0205,1.78949375,1.0,2388.584507834419,0.20609757391144762,1.3322026991837752,0.9035227599703921,0.2882117375,0.6480910926499176
0.021,1.788975,1.0,2414.2827957341,0.21055073973474436,1.3317193914592298,0.9070628741858286,0.28818995000000003,0.6491143027101985
0.021500000000000002,1.78844375,1.0,2438.4831174550122,0.21497892662273055,1.3312461638016289,0.910396650639557,0.2881676375,0.6501147288479097
0.022,1.7879,1.0,2461.250440427059,0.21938227412944647,1.3307821607358536,0.9135396613497377,0.2881448,0.651094267024617
0.0225,1.78734375,1.0,2482.6529180747607,0.22376092180893253,1.3303265267867848,0.9165060514226762,0.28812143749999997,0.6520548013424093
0.023,1.786775,1.0,2502.7546713480942,0.22811500772365792,1.3298784723999908,0.9193087014619076,0.28809755,0.6529980658388026
0.0235,1.78619375,1.0,2521.6251714607597,0.23244467153831191,1.329437181537469,0.9219593431783183,0.28807313749999996,0.6539258399893134
0.024,1.7856,1.0,2539.3273656728074,0.23675005134841912,1.3290019219242433,0.9244686958637978,0.2880482,0.6548397173793181
0.0245,1.78499375,1.0,2555.910023493346,0.24103128159817436,1.3285721135397242,0.9268465795035858,0.2880227375,0.6557409636608375
0.025,1.784375,1.0,2571.4235652621073,0.24528849673177236,1.3281471763633228,0.9291019793948588,0.28799675,0.656630837515237
0.025500000000000002,1.78374375,1.0,2585.919923180519,0.24952183119340798,1.3277265303744505,0.9312431284905431,0.2879702375,0.6575105908441465
0.026000000000000002,1.7831000000000001,1.0,2599.4524098012093,0.25373141942727595,1.327309595552518,0.9332775806160531,0.2879432,0.6583814689389256
0.0265,1.78244375,1.0,2612.0688089111954,0.2579173941141754,1.3268958549216734,0.9352122849026016,0.2879156375,0.6592445791933299
0.027,1.781775,1.0,2623.8174063386086,0.26207988908082785,1.3264847968520515,0.9370536351201756,0.28788755,0.6601010121953912
0.0275,1.7810937500000001,1.0,2634.752001809413,0.26621903879236963,1.3260758677265394,0.9388075141001996,0.2878589375,0.6609519403264807
0.028,1.7804,1.0,2644.9078206110457,0.2703349720427831,1.3256686939265363,0.9404793711864181,0.2878298,0.6617981562378317
0.0285,1.77969375,1.0,2654.3207759097063,0.27442781762605056,1.3252629018334416,0.9420742373703156,0.2878001375,0.662640448631661
0.029,1.778975,1.0,2663.027408994566,0.27849770433615423,1.3248581178286547,0.9435967628529844,0.28776995,0.6634796022985456
0.029500000000000002,1.7782437500000001,1.0,2671.0648326167266,0.28254476096707637,1.3244539682935752,0.945051250783655,0.2877392375,0.6643163981458919
0.03,1.7775,1.0,2678.4706774233064,0.2865691163127993,1.324050079609602,0.9464416876056864,0.287708,0.6651516132175084
0.0305,1.77674375,1.0,2685.2782972722116,0.2905708974915716,1.3236461216348594,0.947771775500489,0.2876762375,0.6659859309652864
0.031,1.775975,1.0,2691.5195812331012,0.294550232164663,1.3232417812783428,0.9490449538435788,0.28764395,0.6668199962882781
0.0315,1.7751937500000001,1.0,2697.2319925982138,0.2985072488517295,1.322836697683919,0.950264413237373,0.2876111375,0.6676545491981567
0.032,1.7744,1.0,2702.440120580147,0.3024420706740235,1.322430630662385,0.9514331349642056,0.2875778,0.6684900778401042
0.0325,1.77359375,1.0,2707.168805425559,0.30635482075279713,1.322023340024538,0.9525538950781209,0.2875439375,0.6693270678553596
0.033,1.772775,1.0,2711.4431142292865,0.31024562220930246,1.321614585581175,0.9536292810224798,0.28750955,0.6701660023643148
0.0335,1.7719437500000002,1.0,2715.288318027615,0.31411459816479176,1.3212041271430934,0.954661706712176,0.2874746375,0.6710073619459295
0.034,1.7711000000000001,1.0,2718.7298701706814,0.3179618717405172,1.32079172452109,0.955653426238657,0.2874392,0.6718516246134728
0.0345,1.7702437500000001,1.0,2721.789254943136,0.3217875629517876,1.3203771751286058,0.9566065496695245,0.2874032375,0.6726991889560417
0.035,1.7693750000000001,1.0,2724.488556193457,0.32559179394535126,1.3199602721496377,0.9575230509202033,0.28736675,0.6735504599678883
0.035500000000000004,1.76849375,1.0,2726.8558495508028,0.3293746916482214,1.3195407553721414,0.9584047735385184,0.2873297375,0.674405949158805
0.036000000000000004,1.7676,1.0,2728.9067209764726,0.3331363729394633,1.3191184791631585,0.9592534544628054,0.2872922,0.6752659319406658
0.0365,1.76669375,1.0,2730.65683781618,0.3368769546981422,1.3186932978897308,0.9600707225306079,0.2872541375,0.6761306820158397
0.037,1.765775,1.0,2732.1219397167747,0.34059655380332343,1.3182650659189,0.9608581064231895,0.28721555,0.6770004713508875
0.0375,1.76484375,1.0,2733.317830014445,0.34429528713407226,1.3178336376177082,0.9616170419409177,0.2871764375,0.677875570148901
0.038,1.7639,1.0,2734.2603675921705,0.3479732715694539,1.3173988673531971,0.9623488786726571,0.28713679999999997,0.6787562468204962
0.0385,1.76294375,1.0,2734.9654592079987,0.3516306239885337,1.316960609492409,0.9630548861157409,0.28709663750000003,0.679642767953446
0.039,1.761975,1.0,2735.449052293167,0.35526746127037684,1.316518718402385,0.9637362592972786,0.28705595,0.6805353982809685
0.0395,1.7609937500000001,1.0,2735.7252218236877,0.35888389703386453,1.316073065758868,0.9643941248980086,0.2870147375,0.68143436575826
0.04,1.76,1.0,2735.8057964106692,0.3624800432412199,1.3156235438828905,0.9650295465550504,0.286973,0.6823398550599653
0.0405,1.7589937500000001,1.0,2735.708833429986,0.36605602555913413,1.315169988747362,0.9656435251231338,0.2869307375,0.6832521626051904
0.041,1.757975,1.0,2735.4432180260446,0.36961195387677176,1.3147123197630957,0.9662370097321821,0.28688795,0.6841714151445505
0.0415,1.75694375,1.0,2735.017849778375,0.3731479380832976,1.3142504563409039,0.9668108968873609,0.2868446375,0.6850977381681558
0.042,1.7559,1.0,2734.441640037404,0.3766640880678763,1.3137843178915998,0.9673660339264475,0.28680079999999997,0.6860312558842585
0.0425,1.75484375,1.0,2733.7235094044563,0.3801605137196725,1.3133138238259965,0.9679032222158679,0.2867564375,0.6869720911974886
0.043000000000000003,1.753775,1.0,2732.8723853554857,0.383637324927851,1.3128388935549065,0.9684232201076162,0.28671155,0.687920365686677
0.043500000000000004,1.75269375,1.0,2731.897200009099,0.38709463158157636,1.312359446489143,0.9689267456771874,0.28666613750000003,0.6888761995822583
0.044,1.7516,1.0,2730.806888038183,0.3905325435700133,1.311875402039519,0.9694144792607722,0.2866202,0.6898397117432667
0.0445,1.75049375,1.0,2729.6103847259496,0.39395117078232655,1.311386679616847,0.9698870658082887,0.2865737375,0.690811019633913
0.045,1.7493750000000001,1.0,2728.316624165849,0.3973506231076808,1.31089319863194,0.9703451170673002,0.28652675,0.6917902392997483
0.0455,1.74824375,1.0,2726.9260304445174,0.40073099063571366,1.3103949558589112,0.9707892166634613,0.2864792375,0.6927773321981652
0.046,1.7471,1.0,2725.4527381162916,0.40409240128314367,1.3098918234002894,0.9712199147864508,0.2864312,0.6937725057067725
0.0465,1.7459437500000001,1.0,2723.905896839823,0.40743496939992024,1.3093837186163801,0.9716377355617909,0.28638263750000004,0.6947758758134583
0.047,1.744775,1.0,2722.2895690390133,0.4107587966477824,1.3088706051056203,0.9720431788510211,0.28633355,0.6957874658854847
0.0475,1.74359375,1.0,2720.607815189412,0.4140639846884693,1.3083524464664473,0.9724367200640557,0.28628393750000003,0.696807298335959
0.048,1.7424,1.0,2718.8646933185983,0.4173506351837199,1.3078292062972983,0.9728188115804264,0.2862338,0.6978353946121665
0.0485,1.74119375,1.0,2717.064258537088,0.4206188497952733,1.3073008481966104,0.9731898840751688,0.2861831375,0.6988717751838132
0.049,1.739975,1.0,2715.2105625977706,0.42386873018486854,1.3067673357628204,0.9735503477565686,0.28613195,0.6999164595311893
0.0495,1.73874375,1.0,2713.3076534853094,0.42710037801424466,1.306228632594366,0.973900593522381,0.2860802375,0.7009694661332424
0.05,1.7375,1.0,2711.3595750346985,0.43031389494514083,1.305684702289684,0.9742409940405878,0.286028,0.7020308124555716
0.0505,1.73624375,1.0,2709.3703665789944,0.43350938263929595,1.3051355084472118,0.9745719047602514,0.2859752375,0.703100514938334
0.051000000000000004,1.734975,1.0,2707.3440626269253,0.4366869427584492,1.3045810146653862,0.974893664857573,0.28592195,0.7041785889840682
0.051500000000000004,1.73369375,1.0,2705.2846925693475,0.4398466769643396,1.3040211845426446,0.9752065981218478,0.2858681375,0.7052650489454313
0.052000000000000005,1.7324,1.0,2703.1962804152513,0.44298868691870624,1.303455981677424,0.9755110137856297,0.2858138,0.7063599081128535
0.0525,1.73109375,1.0,2701.0828445574707,0.4461130742832881,1.302885369668162,0.9758072073030787,0.28575893750000003,0.7074631787021075
0.053,1.729775,1.0,2698.9466608060784,0.44921993107527053,1.3023093279889002,0.9760954610741218,0.28570355000000003,0.7085748412337358
0.0535,1.72844375,1.0,2696.7885929800227,0.45230934960631586,1.3017278489962638,0.9763760459904017,0.2856476375,0.7096948505742597
0.054,1.7271,1.0,2694.615041105496,0.4553814532492294,1.3011408743905875,0.9766492212163842,0.2855912,0.7108232581992106
0.0545,1.7257437500000001,1.0,2692.4275399482403,0.4584363350154829,1.3005483903066954,0.9769152344157518,0.2855342375,0.7119600289670098
0.055,1.724375,1.0,2690.2276219439,0.46147408791654815,1.299950382879413,0.9771743227116306,0.28547675,0.7131051269467268
0.0555,1.72299375,1.0,2688.0168171586406,0.46449480496389683,1.299346838243564,0.9774267132205513,0.2854187375,0.7142585154132064
0.056,1.7216,1.0,2685.7966532535693,0.4674985791690006,1.2987377425339737,0.9776726235550857,0.2853602,0.7154201568421724
0.0565,1.72019375,1.0,2683.568655453876,0.4704855035433313,1.298123081885466,0.9779122622972393,0.28530113749999997,0.7165900129053306
0.057,1.718775,1.0,2681.3343465221055,0.47345567109836056,1.297502842432866,0.9781458294445264,0.28524155,0.7177680444654505
0.0575,1.71734375,1.0,2679.095246735238,0.4764091748455601,1.2968770103109981,0.9783735168305083,0.2851814375,0.7189542115714398
0.058,1.7159,1.0,2676.852873866746,0.47934610779640174,1.296245571654687,0.9785955085214562,0.2851208,0.7201484734534047
0.0585,1.71444375,1.0,2674.6087431727497,0.4822665629623571,1.295608512598757,0.978811981190667,0.2850596375,0.7213507885176993
0.059000000000000004,1.7129750000000001,1.0,2672.36436738179,0.4851706333548979,1.2949658192780331,0.9790231044718628,0.28499795,0.7225611143419601
0.059500000000000004,1.71149375,1.0,2670.121256689669,0.48805841198549593,1.2943174778273396,0.9792290412929952,0.2849357375,0.7237794076701323
0.06,1.71,1.0,2667.8809187582974,0.4909299918656228,1.2936634743815012,0.9794299481916867,0.284873,0.725005624407479
0.0605,1.7084937500000001,1.0,2665.6448587184473,0.49378546600675033,1.2930037950753424,0.9796259756134531,0.2848097375,0.726239719615583
0.061,1.7069750000000001,1.0,2663.4150191447093,0.4966249272377061,1.2923384219952407,0.9798172679635248,0.28474595,0.7274816550552696
0.0615,1.7054437500000001,1.0,2661.192915517749,0.4994484633847677,1.2916673411293167,0.9800039639274758,0.2846816375,0.7287313843066161
0.062,1.7039,1.0,2658.976407738854,0.5022561618731441,1.290990572108084,0.9801861986553109,0.2846168,0.7299887976537306
0.0625,1.70234375,1.0,2656.7662495430777,0.5050481112149636,1.2903081079334557,0.9803641009097236,0.2845514375,0.7312538344008196
0.063,1.7007750000000001,1.0,2654.5635045960507,0.5078243998068184,1.2896199387392022,0.9805377944799593,0.28448555,0.7325264384078468
0.0635,1.69919375,1.0,2652.368382867788,0.5105851158145769,1.2889260625147032,0.9807073989422301,0.28441913750000003,0.7338065382645084
0.064,1.6976,1.0,2650.1809961315457,0.5133303464727359,1.2882264781520685,0.9808730294443219,0.2843522,0.7350940602425229
0.0645,1.69599375,1.0,2648.0029694022387,0.5160601783780312,1.287521170576964,0.981034796174786,0.2842847375,0.7363889555805241
0.065,1.694375,1.0,2645.8311961799104,0.5187746979773205,1.2868101683729665,0.9811928074869434,0.28421675,0.7376910947636182
0.0655,1.692744500903719,1.0,2643.7086499818374,0.5214739915061363,1.2860934136950002,0.9813471635416747,0.2841482690379562,0.7390005058684359
0.066,1.6911113336387642,1.0,2642.0542634511066,0.524158144163114,1.2853711364726346,0.9814979749755313,0.2840796760128281,0.7403166915443782
0.0665,1.6894781663738094,1.0,2640.9539336264415,0.5268272406710459,1.2846437438706264,0.9816453571811777,0.2840110829877,0.7416388363370958
0.067,1.6878449991088549,1.0,2640.3640844355696,0.5294813655696223,1.2839116354107267,0.9817894212278184,0.2839424899625719,0.7429661456581842
0.0675,1.6862118318439,1.0,2640.2408251653665,0.5321206031846856,1.2831752151486906,0.9819302746330669,0.2838738969374438,0.744297823742005
0.068,1.6845786645789453,1.0,2640.547240227035,0.5347450367483049,1.2824348239352,0.9820680182276247,0.28380530391231573,0.7456331958823107
0.0685,1.6829454973139908,1.0,2641.24871336688,0.5373547491498811,1.2816907823224337,0.9822027485045817,0.2837367108871876,0.7469716299571916
0.069,1.681312330049036,1.0,2642.319776238565,0.5399498207948933,1.2809433270495003,0.9823345546680801,0.2836681178620595,0.7483126498289462
0.0695,1.6796791627840812,1.0,2643.7157089946027,0.5425303377410939,1.280192873218667,0.9824635316945225,0.2835995248369314,0.7496554649153955
0.07,1.6780459955191267,1.0,2645.407773769368,0.545096382133998,1.2794396885393302,0.9825897644168957,0.28353093181180333,0.7509995550670987
0.07050000000000001,1.676412828254172,1.0,2647.376170260087,0.5476480336996534,1.2786839583781273,0.9827133309877705,0.2834623387866752,0.7523445514754408
0.07100000000000001,1.6747796609892172,1.0,2649.6011135592257,0.5501853721641078,1.2779258681016947,0.9828343070493424,0.28339374576154713,0.7536900887752531
0.07150000000000001,1.6731464937242624,1.0,2652.062824072932,0.5527084772534089,1.2771656030766687,0.9829527658356451,0.283325152736419,0.7550358050738091
0.07200000000000001,1.6715133264593078,1.0,2654.7415182029513,0.5552174286936045,1.276403348669686,0.9830687782699956,0.28325655971129093,0.7563813419776275
0.0725,1.669880159194353,1.0,2657.6173997889296,0.5577123062107423,1.2756392902473832,0.9831824130579208,0.2831879666861628,0.7577263446170881
0.073,1.6682469919293985,1.0,2660.6706523141183,0.56019318953087,1.274873613176397,0.9832937367758023,0.28311937366103473,0.7590704616688537
0.0735,1.6666138246644437,1.0,2663.888756015999,0.5626601547516454,1.274106435434744,0.9834028107464319,0.2830507806359066,0.7604134631800336
0.074,1.664980657399489,1.0,2667.2507536665216,0.5651132843332249,1.2733379524438277,0.9835096981982631,0.28298218761077854,0.7617549864598717
