Time [s],Phi [rad],STIM [ ],Fsee [N],Gamma [ ],Lcerel [ ],q [ ],Lmtc [m],fisomrel [ ]
0.0,1.8,1.0,17.966894938429533,1.0308978722095847e-05,1.379339775710297,0.005000028317384019,0.288653,0.5411394597068291
0.0005,1.79999375,1.0,18.27635526277024,0.005619460462298804,1.3793024309870987,0.012941372856732268,0.2886527375,0.5412298018089198
0.001,1.799975,1.0,21.618219035131986,0.011197149040973211,1.378938318713028,0.03561019011505088,0.28865195,0.5421101741420398
0.0015,1.79994375,1.0,31.069472258915862,0.016743551197626636,1.3780461836009292,0.07060391508049595,0.2886506375,0.5442636577320552
0.002,1.7999,1.0,53.58332720387039,0.022258842423488485,1.376368070746107,0.11472045430875978,0.2886488,0.5483006228407316
0.0025,1.79984375,1.0,97.12075292249854,0.027743197225702346,1.3739350797861514,0.16457752135213663,0.28864643749999996,0.554121671254224
0.003,1.7997750000000001,1.0,160.9607984587665,0.03319678913504031,1.3712142452519633,0.21728316420596264,0.28864354999999997,0.5605866840625485
0.0035,1.79969375,1.0,237.68645429454347,0.03861979070549635,1.368584638044461,0.2706155827211513,0.2886401375,0.5667900656812297
0.004,1.7996,1.0,321.470209909683,0.04401237352506812,1.366156001321803,0.3229184094718038,0.2886362,0.5724801744133539
0.0045000000000000005,1.7994937500000001,1.0,409.2714166005897,0.04937470822094152,1.3639227281162065,0.3730369826567866,0.2886317375,0.5776793621188063
0.005,1.799375,1.0,499.41731942138813,0.05470696445058294,1.3618582612731456,0.4202497764215396,0.28862675,0.5824572664170151
0.0055,1.79924375,1.0,590.794329781424,0.06000931094918403,1.359938758594557,0.46417584253919936,0.2886212375,0.586875287185616
0.006,1.7991000000000001,1.0,682.5220794690272,0.06528191547286705,1.3581463425627303,0.5046819332265562,0.2886152,0.5909795832555469
0.006500000000000001,1.79894375,1.0,773.8850609999874,0.07052494485468211,1.3564671886952788,0.541802565467571,0.2886086375,0.5948059419122593
0.007,1.798775,1.0,864.2899241302104,0.07573856498581466,1.354890328559505,0.5756784238534836,0.28860155,0.5983828274710667
0.0075,1.79859375,1.0,953.2423250359495,0.08092294076693782,1.353406792886031,0.6065114578487913,0.2885939375,0.6017335419069197
0.008,1.7984,1.0,1040.361557910248,0.08607823645529149,1.3520086006545164,0.6345334268840332,0.2885858,0.6048786513560241
0.0085,1.79819375,1.0,1125.3241430951653,0.09120461490862147,1.3506891011306295,0.6599856249686222,0.2885771375,0.6078353136103034
0.009000000000000001,1.797975,1.0,1207.8907216018713,0.09630223842436865,1.3494421642965406,0.6831054209324254,0.28856795,0.6106191766956299
0.0095,1.79774375,1.0,1287.877059135051,0.10137126816373941,1.348262324233841,0.7041186368731452,0.2885582375,0.6132441119873822
0.01,1.7975,1.0,1365.164795520855,0.10641186480049575,1.3471444142459825,0.7232352005085314,0.288548,0.6157230728884365
0.0105,1.79724375,1.0,1439.672493309563,0.11142418801725529,1.3460837837564674,0.7406474539492595,0.2885372375,0.6180676486632868
0.011,1.796975,1.0,1511.3297756280153,0.1164083957227979,1.3450764612768706,0.7565298824170779,0.28852595000000003,0.6202877419407922
0.0115,1.79669375,1.0,1580.119909529407,0.12136464571454574,1.3441184962349253,0.7710393453588068,0.2885141375,0.6223930502200692
0.012,1.7964,1.0,1646.0606360642412,0.12629309508970474,1.34320612252418,0.784316239708107,0.28850180000000003,0.6243927214984615
0.0125,1.79609375,1.0,1709.1829062223994,0.13119390045828372,1.3423359322002253,0.7964858978112082,0.2884889375,0.626294992106514
0.013000000000000001,1.7957750000000001,1.0,1769.506881677627,0.1360672158967796,1.3415050690579724,0.8076600562191739,0.28847555,0.6281067851011145
0.0135,1.79544375,1.0,1827.0841642652363,0.14091319548168915,1.3407106768923334,0.8179380180281014,0.2884616375,0.629834931924643
0.014,1.7951000000000001,1.0,1881.9804932263899,0.14573199243283394,1.3399500587192366,0.8274080588224583,0.2884472,0.6314858341096544
0.0145,1.79474375,1.0,1934.2839894943606,0.15052376073127174,1.3392205490947071,0.8361486205421255,0.2884322375,0.6330657495914713
0.015,1.794375,1.0,1984.0603275487542,0.1552886514879338,1.3385199657755982,0.8442295934498222,0.28841675,0.6345798238880352
0.0155,1.79399375,1.0,2031.374423536524,0.16002681450761735,1.3378463308073896,0.8517132159637951,0.2884007375,0.6360327065050507
0.016,1.7936,1.0,2076.3073506509363,0.1647383995951196,1.3371976662355611,0.8586549109356099,0.2883842,0.6374289983587089
0.0165,1.7931937500000001,1.0,2118.949805731408,0.1694235560601265,1.3365720472081382,0.865104109208262,0.2883671375,0.6387731410654427
0.017,1.792775,1.0,2159.394053098031,0.17408243286696948,1.335967668527377,0.8711049787207698,0.28834955,0.6400692783937455
0.0175,1.7923437500000001,1.0,2197.728169959591,0.17871517815836113,1.3353828857109693,0.876697055371977,0.2883314375,0.6413211733806854
0.018000000000000002,1.7919,1.0,2234.0212826077677,0.183321937212477,1.334816346315724,0.8819158184960153,0.2883128,0.6425319331625928
0.0185,1.79144375,1.0,2268.3508519404454,0.1879028553074925,1.334266697898451,0.8867930865241824,0.2882936375,0.6437046386354137
0.019,1.790975,1.0,2300.8019774226855,0.19245807772158324,1.3337325880159594,0.8913574410202179,0.28827395,0.6448423459699296
0.0195,1.79049375,1.0,2331.4530367328025,0.19698774806422908,1.3332127990121465,0.8956346295134521,0.2882537375,0.6459478015768203
0.02,1.79,1.0,2360.39906816557,0.20149201218303536,1.3327060093098784,0.899647832659945,0.288233,0.6470239520698187
0.0205,1.78949375,1.0,2387.7087345788996,0.20597101177419855,1.332211209556183,0.9034180433702261,0.2882117375,0.6480730620064343
0.021,1.788975,1.0,2413.4460394847865,0.21042488731204573,1.3317274792500038,0.9069642592729016,0.28818995000000003,0.6490971923164488
0.021500000000000002,1.78844375,1.0,2437.6789512192486,0.21485377927090396,1.3312538978902841,0.9103036825414211,0.2881676375,0.6500983900908585
0.022,1.7879,1.0,2460.479071209038,0.21925782812510028,1.330789544975968,0.913451914338283,0.2881448,0.6510786892046942
0.0225,1.78734375,1.0,2481.9149667994902,0.22363717288546042,1.3303335605758126,0.9164231371732675,0.28812143749999997,0.6520399832822255
0.023,1.786775,1.0,2502.056906907828,0.2279919539968472,1.3298850963545432,0.9192302564949792,0.28809755,0.6529841301120973
0.0235,1.78619375,1.0,2520.9671999667507,0.2323223099956939,1.3294434042899153,0.9218850481732338,0.28807313749999996,0.6539127658478043
0.024,1.7856,1.0,2538.697786156562,0.2366283762121054,1.3290078553504088,0.9243982765635569,0.2880482,0.6548272675947848
0.0245,1.78499375,1.0,2555.3024976105057,0.2409102879761866,1.328577820504504,0.9267797769373054,0.2880227375,0.6557290046955037
0.025,1.784375,1.0,2570.8368983948108,0.24516818061804244,1.3281526707206812,0.9290385484200723,0.28799675,0.6566193389632786
0.025500000000000002,1.78374375,1.0,2585.3581332618423,0.24940218946777779,1.3277317769674202,0.9311828365027158,0.2879702375,0.6574996248908711
0.026000000000000002,1.7831000000000001,1.0,2598.913593103212,0.25361244690509105,1.3273146144693113,0.9332202220669908,0.2879432,0.6583709922028256
0.0265,1.78244375,1.0,2611.56037376046,0.2577990899447085,1.3269005793773032,0.935157659006269,0.2879156375,0.6592347296007126
0.027,1.781775,1.0,2623.3467121381527,0.261962251974691,1.3264891607933453,0.9370015568872695,0.28788755,0.6600919256519677
0.0275,1.7810937500000001,1.0,2634.309673494601,0.26610206261090763,1.3260799601491553,0.9387578343741537,0.2878589375,0.6609434298122618
0.028,1.7804,1.0,2644.487107501309,0.2702186514692275,1.325672578876451,0.940431949066765,0.2878298,0.6617900872702864
0.0285,1.77969375,1.0,2653.917580518995,0.2743121481655199,1.3252666184069501,0.9420289394674514,0.2878001375,0.6626327389990672
0.029,1.778975,1.0,2662.640311395668,0.2783826823156539,1.3248616801723707,0.9435534626219424,0.28776995,0.6634722217971438
0.029500000000000002,1.7782437500000001,1.0,2670.6951107865425,0.2824303835354986,1.3244573656044305,0.9450098279273009,0.2877392375,0.6643093683196203
0.03,1.7775,1.0,2678.113656967804,0.2864553809295047,1.324053355667002,0.9464020380049731,0.287708,0.6651448427326387
0.0305,1.77674375,1.0,2684.945494312795,0.2904578020635261,1.323649171589381,0.9477337832499101,0.2876762375,0.6659796356170518
0.031,1.775975,1.0,2691.224744655922,0.29443777327067633,1.3232444801476904,0.9490085082060862,0.28764395,0.6668144325703107
0.0315,1.775196461975272,1.0,2697.0853233773773,0.29839541967023975,1.322839263583857,0.9502294529730497,0.2876112514029614,0.6676492662265079
0.032,1.774417196013273,1.0,2702.9757196598307,0.3023308663815008,1.3224335041398085,0.9513996309835488,0.2875785222325575,0.6684841690310079
0.0325,1.773637930051274,1.0,2708.9335334127304,0.30624423810157353,1.322027188195919,0.952521848006662,0.2875457930621535,0.6693191647405301
0.033,1.772858664089275,1.0,2714.941708011815,0.3101356594119321,1.321620473040192,0.9535987385970316,0.2875130638917496,0.6701539264075357
0.0335,1.772079398127276,1.0,2720.9846419492587,0.3140052533838884,1.3212135020304034,0.9546327577841088,0.2874803347213456,0.6709881572492475
0.034,1.7713001321652768,1.0,2727.052185019113,0.31785314167850426,1.3208063683212512,0.9556261913431616,0.2874476055509416,0.6718216646828117
0.0345,1.7705208662032779,1.0,2733.134141668222,0.3216794459568415,1.320399165067433,0.9565811750929251,0.28741487638053764,0.6726542570921297
0.035,1.7697416002412787,1.0,2739.224143765354,0.3254842833745839,1.3199919502819928,0.9574997015868513,0.2873821472101337,0.673485815544409
0.035500000000000004,1.7689623342792797,1.0,2745.31093992679,0.32926777767554366,1.3195848259791596,0.9583836422636569,0.28734941803972974,0.6743161320276476
0.036000000000000004,1.7681830683172808,1.0,2751.3816468411655,0.33303005592363666,1.3191779084958806,0.9592347525250488,0.2873166888693258,0.6751449704342962
0.0365,1.7674038023552816,1.0,2757.432963635314,0.3367712341027841,1.3187712269993568,0.9600546667351899,0.28728395969892184,0.6759722730782034
0.037,1.7666245363932827,1.0,2763.4615756143994,0.34049142819690725,1.31836481065679,0.9608449186456726,0.28725123052851786,0.6767979825748287
0.0375,1.7658452704312837,1.0,2769.4641544236515,0.3441907541899271,1.317958688635382,0.9616069487188289,0.2872185013581139,0.6776220418407788
0.038,1.7650660044692845,1.0,2775.4373582297026,0.347869328065765,1.317552890102334,0.9623421108403141,0.28718577218770996,0.6784443940932878
0.0385,1.7642867385072856,1.0,2781.3778319197518,0.351527265808342,1.3171474442248472,0.9630516784780272,0.287153043017306,0.6792649828496411
0.039,1.7635074725452864,1.0,2787.2822073207512,0.35516468340157925,1.3167423801701237,0.9637368503385706,0.287120313846902,0.6800837519265461
0.0395,1.7627282065832874,1.0,2793.1471034366637,0.358781696829398,1.3163377271053647,0.964398755567218,0.2870875846764981,0.6809006454394511
0.04,1.7619489406212885,1.0,2798.969126704611,0.36237842207571935,1.3159335141977717,0.9650384585327393,0.2870548555060941,0.6817156078018061
0.0405,1.7611696746592893,1.0,2804.7473736487223,0.36595496543112627,1.3155297481760606,0.965656959509591,0.28702212633569013,0.6825286288773973
0.041,1.7603904086972904,1.0,2810.4793842375534,0.36951144798731383,1.3151264496961925,0.9662552065866328,0.2869893971652862,0.6833396706054625
0.0415,1.7596111427352912,1.0,2816.162563434372,0.3730479902179697,1.314723640550669,0.9668340952226547,0.28695666799488223,0.6841486928524658
0.042,1.7588318767732922,1.0,2821.7969443695656,0.37656470050603963,1.314321318962788,0.9673944677364518,0.28692393882447825,0.6849557029511903
0.0425,1.7580526108112933,1.0,2827.382562552738,0.3800616872344692,1.313919483155847,0.9679371208315743,0.28689120965407433,0.685760708211626
0.043000000000000003,1.757273344849294,1.0,2832.9194558530367,0.38353905878620415,1.3135181313531434,0.9684628085315183,0.28685848048367035,0.6865637159210239
0.043500000000000004,1.7564940788872951,1.0,2838.40766448072,0.38699692354419013,1.313117261777975,0.9689722448975163,0.2868257513132664,0.6873647333439512
0.044,1.755714812925296,1.0,2843.84723096756,0.3904353898913728,1.3127168726536396,0.9694661065470517,0.2867930221428624,0.688163767722345
0.0445,1.754935546963297,1.0,2849.2382001483456,0.39385456621069787,1.3123169622034343,0.9699450349895482,0.2867602929724585,0.6889608262755695
0.045,1.754156281001298,1.0,2854.5806191414617,0.397254560885111,1.3119175286506572,0.9704096387941936,0.2867275638020545,0.689755916200467
0.0455,1.7533770150392989,1.0,2859.8745373306997,0.40063548229755797,1.3115185702186056,0.9708604956034825,0.2866948346316506,0.6905490446714149
0.046,1.7525977490773,1.0,2865.1200063457695,0.40399743883098427,1.3111200851305775,0.9712981540048594,0.2866621054612466,0.6913402188403769
0.0465,1.7518184831153008,1.0,2870.3170800443936,0.4073405388683357,1.3107220716098702,0.9717231352717387,0.2866293762908426,0.6921294458369601
0.047,1.7510392171533018,1.0,2875.466362619204,0.4106648544218305,1.3103245230256257,0.9721359298555347,0.28659664712043864,0.6929167423753759
0.0475,1.7502599511913028,1.0,2880.5685305881634,0.41397052594978195,1.30992743214363,0.9725370132141192,0.2865639179500347,0.6937021262909937
0.048,1.7494806852293037,1.0,2885.6241581422023,0.41725767550045345,1.3095307926723345,0.9729268354231249,0.28653118877963074,0.694485613480983
0.0485,1.7487014192673047,1.0,2890.63400895501,0.4205264018610626,1.3091345966806784,0.9733058219858262,0.2864984596092268,0.6952672230072521
0.049,1.7479221533053055,1.0,2895.598851137708,0.423776803818827,1.3087388362376013,0.9736743782926828,0.28646573043882284,0.6960469738477411
0.0495,1.7471428873433066,1.0,2900.5194571619722,0.42700898016096417,1.308343503412043,0.9740328907557543,0.28643300126841886,0.6968248848966436
0.05,1.7463636213813076,1.0,2905.396603784103,0.4302230296746918,1.3079485902729426,0.9743817278691917,0.2864002720980149,0.6976009749646279
0.0505,1.7455843554193085,1.0,2910.2310719703314,0.4334190511472274,1.3075540888892396,0.9747212412012493,0.28636754292761096,0.6983752627790488
0.051000000000000004,1.7448050894573095,1.0,2915.0236468237485,0.4365971433657886,1.3071599913298735,0.9750517663228147,0.286334813757207,0.6991477669841584
0.051500000000000004,1.7440258234953103,1.0,2919.7751175127996,0.439757405117593,1.306766289663784,0.9753736236770476,0.28630208458680306,0.6999185061413119
0.052000000000000005,1.7432465575333114,1.0,2924.486277200637,0.4428999351898582,1.3063729759599103,0.9756871193943508,0.2862693554163991,0.7006874987291716
0.0525,1.7424672915713124,1.0,2929.1579229766376,0.4460248323698017,1.3059800422871921,0.9759925460565599,0.2862366262459951,0.7014547631439034
0.053,1.7416880256093132,1.0,2933.7908557885803,0.4491321954446413,1.3055874807145686,0.9762901834139303,0.28620389707559113,0.7022203176993722
0.0535,1.7409087596473143,1.0,2938.3858803765124,0.4522221232015944,1.3051952833109797,0.9765802990582212,0.2861711679051872,0.7029841806273305
0.054,1.7401294936853153,1.0,2942.9438052080154,0.4552947144278786,1.3048034421453645,0.9768631490549158,0.28613843873478323,0.7037463700776067
0.0545,1.7393502277233162,1.0,2947.465442415245,0.45835006791071164,1.3044119492866626,0.9771389785373891,0.2861057095643793,0.7045069041182856
0.055,1.7385709617613172,1.0,2951.9516077322987,0.461388282437311,1.3040207968038133,0.9774080222656132,0.28607298039397533,0.7052658007358878
0.0555,1.737791695799318,1.0,2956.403120435249,0.46440945679489426,1.3036299767657564,0.9776705051517968,0.28604025122357135,0.7060230778355427
0.056,1.737012429837319,1.0,2960.8208032827824,0.4674136897706791,1.3032394812414312,0.9779266427551774,0.2860075220531674,0.7067787532411598
0.0565,1.7362331638753201,1.0,2965.204073752301,0.47040102841405446,1.3028493145849263,0.9781766377732029,0.28597479288276345,0.7075328209676033
0.057,1.735453897913321,1.0,2969.555167520918,0.47337161504219855,1.3024594565845136,0.9784206918214303,0.2859420637123595,0.7082853224572728
0.0575,1.734674631951322,1.0,2973.8753577891007,0.47632556302344825,1.3020698954748333,0.9786589961799343,0.28590933454195555,0.7090362826780079
0.058,1.7338953659893228,1.0,2978.165193225453,0.47926296042124983,1.3016806258347222,0.97889173258521,0.2858766053715516,0.7097857142728646
0.0585,1.7331161000273239,1.0,2982.425224866316,0.48218389529904954,1.301291642243017,0.9791190755555441,0.2858438762011476,0.7105336298294194
0.059000000000000004,1.732336834065325,1.0,2986.6560060806773,0.48508845572029347,1.3009029392785547,0.979341192734793,0.2858111470307436,0.7112800418798675
0.059500000000000004,1.7315575681033257,1.0,2990.8580925364636,0.487976729748428,1.300514511520172,0.9795582452171805,0.2857784178603397,0.7120249629011239
0.06,1.7307783021413268,1.0,2995.0320421666866,0.49084880544689924,1.300126353546706,0.979770387854299,0.2857456886899357,0.7127684053149159
0.0605,1.7299990361793276,1.0,2999.1784151372417,0.4937047708791535,1.2997384599369932,0.9799777695454235,0.28571295951953174,0.7135103814878812
0.061,1.7292197702173286,1.0,3003.2977738144286,0.49654471410863693,1.2993508252698707,0.9801805335121646,0.2856802303491278,0.7142509037316562
0.0615,1.7284405042553297,1.0,3007.390682733466,0.4993687231987958,1.2989634441241753,0.9803788175584199,0.28564750117872384,0.7149899843029691
0.062,1.7276612382933305,1.0,3011.457708568109,0.5021768862130763,1.2985763110787436,0.9805727543165169,0.28561477200831986,0.7157276354037287
0.0625,1.7268819723313316,1.0,3015.499420100087,0.5049692912149247,1.2981894207124127,0.9807624714803782,0.28558204283791594,0.7164638691811089
0.063,1.7261027063693324,1.0,3019.5163881896115,0.5077460262677872,1.2978027676040196,0.9809480920264881,0.28554931366751196,0.7171986977276349
0.0635,1.7253234404073334,1.0,3023.5091857468765,0.51050717943511,1.2974163463324007,0.9811297344233826,0.285516584497108,0.7179321330812676
0.064,1.7245441744453345,1.0,3027.4783877036243,0.5132528387803394,1.297030151476393,0.9813075128303393,0.28548385532670406,0.7186641872254819
0.0645,1.7237649084833353,1.0,3031.424570985505,0.5159830923669215,1.2966441776148334,0.9814815372859028,0.2854511261563001,0.7193948720893468
0.065,1.7229856425213363,1.0,3035.348314485531,0.5186980282583027,1.2962584193265587,0.9816519138868307,0.2854183969858961,0.7201241995476049
0.0655,1.7222063765593372,1.0,3039.2501990373576,0.521397734517929,1.295872871190406,0.9818187449580178,0.28538566781549213,0.7208521814207445
0.066,1.7214271105973382,1.0,3043.1308073903892,0.5240822992092468,1.2954875277852116,0.9819821292139123,0.2853529386450882,0.721578829475076
0.0665,1.7206478446353393,1.0,3046.9907241839805,0.5267518103957022,1.2951023836898128,0.9821421619119085,0.2853202094746842,0.7223041554228014
0.067,1.71986857867334,1.0,3050.83015362133,0.5294063378660674,1.2947174367699392,0.9822989339563797,0.2852874803042803,0.7230281647441228
0.0675,1.7190893127113411,1.0,3054.6490556208305,0.5320459454875696,1.294332686997883,0.9824525328538826,0.2852547511338763,0.7237508589432595
0.068,1.718310046749342,1.0,3058.448911438284,0.5346707704632628,1.2939481212846413,0.9826030472123292,0.28522202196347235,0.7244722640090235
0.0685,1.717530780787343,1.0,3062.2300163519467,0.5372808908512035,1.293563736753343,0.9827505593155895,0.28518929279306837,0.7251923866818046
0.069,1.716751514825344,1.0,3065.992666688877,0.5398763847094474,1.2931795305271172,0.9828951486819838,0.28515656362266445,0.7259112336731478
0.0695,1.7159722488633449,1.0,3069.7371598132627,0.542457330096051,1.2927954997290934,0.9830368921763044,0.28512383445226047,0.726628811665786
0.07,1.715192982901346,1.0,3073.463794115628,0.5450238050690702,1.2924116414824007,0.9831758641165643,0.28509110528185655,0.7273451273136733
0.07050000000000001,1.7144137169393467,1.0,3077.1728690011423,0.5475758876865611,1.2920279529101684,0.9833121363757555,0.28505837611145257,0.7280601872420169
0.07100000000000001,1.7136344509773478,1.0,3080.8646848792987,0.5501136560065798,1.2916444311355255,0.9834457784788819,0.2850256469410486,0.7287739980473078
