Time [s],Phi [rad],STIM [ ],Fsee [N],Gamma [ ],Lcerel [ ],q [ ],Lmtc [m],fisomrel [ ]
0.0,1.8,1.0,17.96765462291785,1.7413260196176888e-05,1.3793396906005044,0.005000080460987405,0.288653,0.5411396656094183
0.0005,1.79999375,1.0,18.279439888722397,0.005626524894374394,1.3793020883560094,0.012961107159865523,0.2886527375,0.5412306306402106
0.001,1.799975,1.0,21.62655869210586,0.011204173847170339,1.378937467018747,0.035647215519258375,0.28865195,0.5421122324279846
0.0015,1.79994375,1.0,31.089049470411002,0.01675053660021828,1.3780445159587342,0.07065459146714723,0.2886506375,0.5442676784232345
0.002,1.7999,1.0,53.62536300085762,0.02226578864348892,1.3763653442387425,0.1147804691591111,0.2886488,0.5483071672705768
0.0025,1.79984375,1.0,97.19137776025345,0.027750104482905102,1.3739316771940524,0.1646428136410917,0.28864643749999996,0.5541297856850862
0.003,1.7997750000000001,1.0,161.05270407533644,0.033203657647990804,1.3712108056563064,0.21735052595014273,0.28864354999999997,0.5605948270535586
0.0035,1.79969375,1.0,237.79029706319932,0.03862662069151567,1.3685814397827865,0.2706825845156299,0.2886401375,0.5667975836978577
0.004,1.7996,1.0,321.58067690445876,0.04401916520026378,1.3661530757399998,0.3229832879581721,0.2886362,0.5724870061420216
0.0045000000000000005,1.7994937500000001,1.0,409.38579269996166,0.04938146180022193,1.3639200434727672,0.37309857114448364,0.2886317375,0.5776855929808012
0.005,1.799375,1.0,499.53400159656724,0.0547136801476821,1.36185578194089,0.42030739839733594,0.28862675,0.5824629881248311
0.0055,1.79924375,1.0,590.9120549321244,0.060015988976431754,1.3599364586527882,0.464229192132539,0.2886212375,0.5868805667490105
0.006,1.7991000000000001,1.0,682.639948256831,0.0652885560416218,1.3581442001206316,0.5047309614608994,0.2886152,0.5909844767855643
0.006500000000000001,1.79894375,1.0,774.0045722095891,0.07053154817309545,1.3564651486442891,0.5418473684634757,0.2886086375,0.5948105797257808
0.007,1.798775,1.0,864.4102106761171,0.07574513126981257,1.3548883856185747,0.575719230788049,0.28860155,0.5983872249778119
0.0075,1.79859375,1.0,953.367080290944,0.08092947028125999,1.3534048740831635,0.6065485105389279,0.2885939375,0.6017378666271154
0.008,1.7984,1.0,1040.4798677657493,0.08608472924919264,1.352006858832373,0.6345671266574134,0.2885858,0.6048825616548654
0.0085,1.79819375,1.0,1125.43770912286,0.09121107130109642,1.3506874935008646,0.6600162541439019,0.2885771375,0.607838909126534
0.009000000000000001,1.797975,1.0,1207.9931963610316,0.09630865841065052,1.3494407641249844,0.6831333158987407,0.28856795,0.6106222970910301
0.0095,1.79774375,1.0,1287.9837456801422,0.10137765235308291,1.34826091250648,0.7041439556436292,0.2885582375,0.613247247513246
0.01,1.7975,1.0,1365.2777302021402,0.10641821351496185,1.3471429627588607,0.7232581899892915,0.288548,0.6157262863743631
0.0105,1.79724375,1.0,1439.769430243564,0.11143050075384611,1.346082570542243,0.7406684892232586,0.2885372375,0.6180703264249789
0.011,1.796975,1.0,1511.4145676626172,0.11641467279192416,1.3450754255226212,0.7565491395726078,0.28852595000000003,0.6202900213660139
0.0115,1.79669375,1.0,1580.2097145768823,0.12137088777939134,1.3441174233900484,0.7710569127004379,0.2885141375,0.622395404717456
0.012,1.7964,1.0,1646.1597250772386,0.12629930270745832,1.34320496272331,0.7843322694357765,0.28850180000000003,0.6243952600831996
0.0125,1.79609375,1.0,1709.2701389151905,0.1312000727998776,1.342334930202247,0.7965006467980763,0.2884889375,0.6262971797303021
0.013000000000000001,1.7957750000000001,1.0,1769.581944204993,0.13607335322013267,1.3415042216748154,0.8076736542182,0.28847555,0.628108630670531
0.0135,1.79544375,1.0,1827.155360776522,0.1409192981566614,1.3407098859176492,0.8179505434772054,0.2884616375,0.6298366506313218
0.014,1.7951000000000001,1.0,1882.0678259510114,0.14573806218169377,1.339949102732668,0.8274195383161406,0.2884472,0.6314879067323149
0.0145,1.79474375,1.0,1934.3681323265978,0.15052979655968743,1.3392196405638903,0.8361592283854199,0.2884322375,0.6330677151011004
0.015,1.794375,1.0,1984.125791083111,0.15529465255509992,1.3385192678553341,0.8442394677742918,0.28841675,0.6345813306463283
0.0155,1.79399375,1.0,2031.4261374839941,0.16003278115983866,1.3378457859318476,0.8517224084611765,0.2884007375,0.6360338805104983
0.016,1.7936,1.0,2076.3567537201593,0.1647443324913736,1.3371971513711123,0.8586634473030684,0.2883842,0.6374301055714515
0.0165,1.7931937500000001,1.0,2119.015372088738,0.16942945712014532,1.336571370806361,0.8651119932825351,0.2883671375,0.6387745929640534
0.017,1.792775,1.0,2159.467732544559,0.17408830183735619,1.335966915580948,0.8711122925335405,0.28834955,0.640070891693317
0.0175,1.7923437500000001,1.0,2197.7902321794645,0.1787210134342086,1.3353822570382279,0.8767039035124522,0.2883314375,0.641322518061046
0.018000000000000002,1.7919,1.0,2234.069037026298,0.18332773870190494,1.334815866521555,0.8819222482939415,0.2883128,0.6425329576703451
0.0185,1.79144375,1.0,2268.388881344862,0.18790862325741656,1.3342663187144825,0.8867991215940701,0.2882936375,0.6437054469804464
0.019,1.790975,1.0,2300.844408329686,0.19246381381086938,1.3337321679397658,0.8913630803497685,0.28827395,0.6448432400581121
0.0195,1.79049375,1.0,2331.512330000682,0.1969934543242046,1.333212215866997,0.8956398772535527,0.2882537375,0.6459490408067787
0.02,1.79,1.0,2360.4593464253817,0.2014976868281012,1.3327054201236406,0.8996527552738243,0.288233,0.6470252022332648
0.0205,1.78949375,1.0,2387.75722191392,0.2059766533532384,1.3322107383371606,0.9034226936958031,0.2882117375,0.6480740603746129
0.021,1.788975,1.0,2413.4823625435897,0.21043049593029522,1.3317271281350216,0.9069686593904421,0.28818995000000003,0.6490979351380453
0.021500000000000002,1.78844375,1.0,2437.7070288164527,0.2148593550999023,1.3312536278318077,0.910307843652927,0.2881676375,0.650098960613094
0.022,1.7879,1.0,2460.5098176140223,0.21926337307796034,1.3307892506215715,0.9134558340823524,0.2881448,0.651079310182459
0.0225,1.78734375,1.0,2481.956867104234,0.22364268948850818,1.3303331611746934,0.9164268187191796,0.28812143749999997,0.6520408247076979
0.023,1.786775,1.0,2502.103457033911,0.2279974413298829,1.3298846544203264,0.9192337283903255,0.28809755,0.6529850598787685
0.0235,1.78619375,1.0,2521.0072718526053,0.23232776560042154,1.3294430252876235,0.9218883436837675,0.28807313749999996,0.6539135621471246
0.024,1.7856,1.0,2538.7281994391283,0.2366337992984612,1.3290075687057379,0.9244014131538814,0.2880482,0.6548278690508265
0.0245,1.78499375,1.0,2555.328140850663,0.240915679422339,1.3285775796038226,0.9267827579558406,0.2880227375,0.6557295095079516
0.025,1.784375,1.0,2570.859563462711,0.24517353965880612,1.3281524584420965,0.9290413811366425,0.28799675,0.6566197832219647
0.025500000000000002,1.78374375,1.0,2585.3874710809077,0.24940751950748768,1.327731502965494,0.9311855173854173,0.2879702375,0.6575001975892171
0.026000000000000002,1.7831000000000001,1.0,2598.95641292025,0.25361775167912604,1.327314215596461,0.9332227524094642,0.2879432,0.6583718248356933
0.0265,1.78244375,1.0,2611.6085612721504,0.2578043677067607,1.3269001315919948,0.9351600595679587,0.2879156375,0.6592356631541342
0.027,1.781775,1.0,2623.3871130954026,0.2619674991234311,1.3264887862090933,0.9370038531919146,0.28788755,0.6600927056113297
0.0275,1.7810937500000001,1.0,2634.3362012350603,0.2661072774621768,1.3260797147047532,0.9387600408473389,0.2878589375,0.6609439402361823
0.028,1.7804,1.0,2644.5008104295675,0.2702238342560372,1.3256724523359724,0.9404340700773633,0.2878298,0.6617903500939852
0.0285,1.77969375,1.0,2653.9229462985745,0.27431729957688766,1.3252665689444265,0.9420309746670454,0.2878001375,0.6626328416043388
0.029,1.778975,1.0,2662.6390025945566,0.2783878021510199,1.324861692217316,0.9435554150073481,0.28776995,0.6634721968421615
0.029500000000000002,1.7782437500000001,1.0,2670.700134351216,0.28243547694183396,1.3244573194421754,0.9450116879504488,0.2877392375,0.6643094638405553
0.03,1.7775,1.0,2678.1344847396194,0.28646044940548343,1.3240531645431708,0.9464037998272075,0.287708,0.6651452377218007
0.0305,1.77674375,1.0,2684.970606396691,0.2904628449981217,1.3236489414444683,0.9477354658920706,0.2876762375,0.6659801106564895
0.031,1.775975,1.0,2691.237425144884,0.2944427891759023,1.323244364070234,0.9490101351327191,0.28764395,0.6668146718648915
0.0315,1.7751937500000001,1.0,2696.964205526025,0.29840040739497864,1.322839146344634,0.9502310126739645,0.2876111375,0.6676495076130994
0.032,1.7744,1.0,2702.180518149923,0.3023358251115042,1.3224330021918342,0.9514010800351775,0.2875778,0.6684852012039562
0.0325,1.77359375,1.0,2706.916208857708,0.30624916778163247,1.3220256455360009,0.9525231134700285,0.2875439375,0.6693223329627612
0.033,1.772775,1.0,2711.197823813129,0.3101405590655578,1.3216168226406566,0.9535997038627757,0.28750955,0.6701614138856136
0.0335,1.7719437500000002,1.0,2715.0497474549366,0.3140101219718437,1.3212063013747533,0.9546332705897107,0.2874746375,0.6710029080266301
0.034,1.7711000000000001,1.0,2718.505412869873,0.3178579838303348,1.3207937688324822,0.9556260648630868,0.2874392,0.6718474422138137
0.0345,1.7702437500000001,1.0,2721.5831796890448,0.3216842639415976,1.3203790509617064,0.956580203927445,0.2874032375,0.6726953562017741
0.035,1.7693750000000001,1.0,2724.301533160182,0.3254890816061984,1.3199619737102886,0.9574976682543044,0.28736675,0.6735469878170173
0.035500000000000004,1.76849375,1.0,2726.67907113192,0.3292725561247035,1.3195423630260916,0.9583803119616442,0.2873297375,0.6744026729327216
0.036000000000000004,1.7676,1.0,2728.734491709874,0.3330348067976794,1.3191200448569786,0.9592298723250393,0.2872922,0.6752627454415814
0.0365,1.76669375,1.0,2730.4865815844823,0.3367759529256923,1.3186948451508123,0.960047978469029,0.2872541375,0.6761275372267213
0.037,1.765775,1.0,2731.9542050298905,0.3404961138093086,1.3182665898554555,0.9608361593177848,0.28721555,0.6769973781306737
0.0375,1.76484375,1.0,2733.155867995743,0.3441954079063472,1.3178351087845428,0.9615958510740045,0.2871764375,0.6778725880864728
0.038,1.7639,1.0,2734.1071174981107,0.34787395260352394,1.3174002591450167,0.9623284060981218,0.28713679999999997,0.6787534295110851
0.0385,1.76294375,1.0,2734.8221344688955,0.3515318649990432,1.3169619109748252,0.9630350976132014,0.28709663750000003,0.6796401370892443
0.039,1.761975,1.0,2735.3143686339467,0.3551692594683275,1.316519941309061,0.9637171242265206,0.28705595,0.680532929699326
0.0395,1.7609937500000001,1.0,2735.5973029697725,0.3587862503867992,1.3160742271828176,0.9643756150177887,0.2870147375,0.681432024587961
0.04,1.76,1.0,2735.6844483536743,0.36238295212988075,1.3156246456311882,0.9650116343120652,0.286973,0.6823376373411572
0.0405,1.7589937500000001,1.0,2735.5893385495233,0.3659594790729946,1.315171073689266,0.9656261860761567,0.2869307375,0.6832499818544494
0.041,1.757975,1.0,2735.3173670240662,0.3695159447521771,1.3147134624709143,0.9662202242449862,0.28688795,0.6841691216185218
0.0415,1.7569466687976896,1.0,2735.0327991952436,0.37305246206147313,1.3142516387603798,0.9667946390772205,0.286844760089503,0.6850953684196932
0.042,1.7559177110422566,1.0,2735.1528816646337,0.3765691422403951,1.313785857773431,0.9673503077173232,0.28680154386377477,0.6860281743029087
0.0425,1.7548887532868234,1.0,2735.67493774806,0.38006609630176885,1.3133164270140636,0.967888063748166,0.2867583276380466,0.6869668895508322
0.043000000000000003,1.7538597955313904,1.0,2736.5659210113286,0.38354343503222466,1.3128436475175413,0.9684086951861997,0.2867151114123184,0.6879108807650521
0.043500000000000004,1.7528308377759572,1.0,2737.7932200671175,0.3870012689609373,1.3123678168940702,0.9689129476558465,0.2866718951865902,0.6888595247730632
0.044,1.7518018800205242,1.0,2739.3284138048725,0.39043970745694045,1.311889195067564,0.9694015242494995,0.286628678960862,0.6898122767860557
0.0445,1.750772922265091,1.0,2741.1469829156827,0.39385885876462334,1.3114080067807266,0.9698750884448568,0.2865854627351338,0.6907686649006854
0.045,1.7497439645096577,1.0,2743.224421689347,0.3972588311283752,1.310924476776263,0.9703342694651522,0.28654224650940563,0.6917282198386707
0.0455,1.7487150067542248,1.0,2745.537808473576,0.40063973222549265,1.3104388154529178,0.9707796632238503,0.2864990302836774,0.6926905033807054
0.046,1.7476860489987915,1.0,2748.0651872268913,0.4040016696878766,1.309951224400232,0.9712118348529042,0.28645581405794923,0.6936550972346844
0.0465,1.7466570912433586,1.0,2750.789160161321,0.4073447492668812,1.3094618638055688,0.9716313179240722,0.28641259783222106,0.6946216672512231
0.047,1.7456281334879253,1.0,2753.69280443101,0.4106690765074983,1.3089708894414593,0.9720386192724078,0.28636938160649283,0.6955898899163058
0.0475,1.7445991757324921,1.0,2756.76333970186,0.41397475383988125,1.3084784194520358,0.9724342178297803,0.28632616538076466,0.6965595176414983
0.048,1.7435702179770591,1.0,2759.983584608954,0.4172618872811259,1.3079846116423413,0.9728185725941587,0.2862829491550365,0.6975302263760084
0.0485,1.742541260221626,1.0,2763.3309695517614,0.4205305878995673,1.307489672242061,0.9731921245310902,0.28623973292930827,0.6985015990576209
0.049,1.741512302466193,1.0,2766.796866648497,0.42378095650446074,1.306993681200417,0.9735552836981329,0.2861965167035801,0.6994734684407421
0.0495,1.7404833447107597,1.0,2770.3726335670167,0.42701309390506137,1.306496718466631,0.9739084409025127,0.2861533004778519,0.7004456682690905
0.05,1.7394543869553267,1.0,2774.049611731932,0.43022710091062444,1.3059988639899245,0.9742519687813682,0.2861100842521237,0.7014180332808537
0.0505,1.7384254291998935,1.0,2777.8191246731903,0.4334230783304051,1.3055001977195195,0.974586222812037,0.2860668680263955,0.702390399213439
0.051000000000000004,1.7373964714444603,1.0,2781.6724765157674,0.4366011269736587,1.3050007996046382,0.9749115422574972,0.28602365180066736,0.7033626028078167
0.051500000000000004,1.7363675136890273,1.0,2785.6009506119462,0.4397613476496405,1.3045007495945018,0.9752282510516674,0.28598043557493913,0.7043344818124571
0.052000000000000005,1.735338555933594,1.0,2789.595808314841,0.4429038411676055,1.3040001276383324,0.9755366586288832,0.28593721934921096,0.7053058749868546
0.0525,1.734309598178161,1.0,2793.648287893483,0.44602870833680913,1.303499013685352,0.975837060701531,0.2858940031234828,0.706276622104651
0.053,1.733280640422728,1.0,2797.7559146766507,0.44913603943007474,1.3029974310234407,0.9761297353674265,0.28585078689775456,0.7072466734476892
0.0535,1.732251682667295,1.0,2801.9073102028015,0.4522259447182556,1.3024954827651312,0.9764149556066386,0.2858075706720264,0.7082158255953133
0.054,1.7312227249118617,1.0,2806.0958709414435,0.45529852502791623,1.301993228921319,0.9766929790229156,0.2857643544462982,0.7091839594568745
0.0545,1.7301937671564285,1.0,2810.3185057242854,0.4583538746341506,1.3014906978665355,0.9769640496611092,0.28572113822057,0.7101510175381041
0.055,1.7291648094009955,1.0,2814.5721144087383,0.46139208781205276,1.300987917975311,0.9772284012485956,0.2856779219948418,0.7111169427069115
0.0555,1.7281358516455623,1.0,2818.8535877120125,0.46441325883671664,1.3004849176221769,0.9774862577182398,0.2856347057691136,0.712081678193857
0.056,1.7271068938901293,1.0,2823.1598070640653,0.46741748198323635,1.2999817251816637,0.9777378337006817,0.2855914895433854,0.7130451675925791
0.0565,1.726077936134696,1.0,2827.4876444771985,0.4704048515267058,1.2994783690283023,0.9779833349879802,0.2855482733176572,0.7140073548601659
0.057,1.725048978379263,1.0,2831.8339624348396,0.47337546174221906,1.2989748775366234,0.9782229589705016,0.285505057091929,0.7149681843174778
0.0575,1.7240200206238299,1.0,2836.1956137968086,0.47632940690487013,1.2984712790811581,0.9784568950488045,0.28546184086620086,0.7159276006494179
0.058,1.7229910628683967,1.0,2840.569441723469,0.479266781289753,1.2979676020364372,0.978685325022138,0.28541862464047263,0.7168855489051511
0.0585,1.7219621051129637,1.0,2844.9522796174256,0.48218767917196165,1.2974638747769913,0.9789084234550615,0.28537540841474446,0.717841974498273
0.059000000000000004,1.7209331473575304,1.0,2849.340951082777,0.48509219482659016,1.2969601256773517,0.9791263580235785,0.2853321921890163,0.7187968232069243
0.059500000000000004,1.7199041896020975,1.0,2853.736799216519,0.4879804010593327,1.2964563428484095,0.9793392858791817,0.28528897596328806,0.7197501172989358
0.06,1.7188752318466642,1.0,2858.1336130736295,0.49085241687796816,1.2959525815381434,0.9795473654878475,0.2852457597375599,0.7207017521712646
0.0605,1.7178462740912313,1.0,2862.530022886514,0.4937083323842263,1.2954488538548345,0.9797507445531974,0.2852025435118317,0.7216517052164051
0.061,1.716817316335798,1.0,2866.9252144345046,0.49654823460048475,1.2949451669424414,0.9799495646420872,0.2851593272861035,0.7225999633204572
0.0615,1.7157883585803648,1.0,2871.318371036223,0.49937221054912123,1.2944415279449233,0.9801439619723293,0.2851161110603753,0.723546513461285
0.062,1.7147594008249318,1.0,2875.7086735564408,0.5021803472525135,1.293937944006238,0.9803340676557458,0.28507289483464715,0.7244913427085005
0.0625,1.7137304430694986,1.0,2880.0953004142293,0.5049727317330391,1.2934344222703444,0.9805200079284084,0.2850296786089189,0.7254344382234349
0.063,1.7127014853140656,1.0,2884.477427592453,0.507749451013076,1.2929309698812013,0.9807019043688323,0.28498646238319075,0.7263757872591159
0.0635,1.7116725275586324,1.0,2888.85422864805,0.5105105921150016,1.292427593982767,0.9808798741048417,0.2849432461574626,0.727315377160236
0.064,1.7106435698031994,1.0,2893.2248747233484,0.5132562420611937,1.2919243017190003,0.9810540300097726,0.28490002993173436,0.7282531953631189
0.0645,1.7096146120477662,1.0,2897.588534559352,0.51598648787403,1.2914211002338596,0.9812244808886376,0.2848568137060062,0.7291892293956849
0.065,1.708585654292333,1.0,2901.944374508947,0.5187014165758883,1.2909179966713034,0.9813913316548343,0.284813597480278,0.7301234668774093
0.0655,1.7075566965369,1.0,2906.2915585519827,0.5214011151891462,1.2904149981752906,0.9815546834979468,0.2847703812545498,0.7310558955192792
0.066,1.7065277387814668,1.0,2910.629248311783,0.5240856707361814,1.2899121118897794,0.9817146340431454,0.2847271650288216,0.7319865031237501
0.0665,1.7054987810260338,1.0,2914.956603071717,0.5267551702393715,1.2894093449587287,0.9818712775026647,0.28468394880309345,0.7329152775846925
0.067,1.7044698232706006,1.0,2919.2745688379932,0.5294096596229412,1.2889066888018086,0.9820247013404738,0.2846407325773652,0.733842235859614
0.0675,1.7034408655151674,1.0,2923.5815652709775,0.5320492617276723,1.288404157053038,0.9821749961478613,0.284597516351637,0.7347673539366282
0.068,1.7024119077597344,1.0,2927.8766343196053,0.5346740782180796,1.2879017578457372,0.9823222477488649,0.2845543001259088,0.735690618078235
0.0685,1.7013829500043012,1.0,2932.1597182475875,0.5372841874459701,1.2873994913947022,0.9824665371811893,0.28451108390018065,0.7366120291647529
0.069,1.7003539922488682,1.0,2936.430759364426,0.539879667763151,1.2868973579147291,0.9826079427616943,0.2844678676744525,0.7375315880789153
0.0695,1.699325034493435,1.0,2940.689700025403,0.5424605975214296,1.2863953576206149,0.9827465401966126,0.28442465144872425,0.7384492957058677
0.07,1.698296076738002,1.0,2944.936482632995,0.5450270550726131,1.2858934907271553,0.9828824026865789,0.2843814352229961,0.7393651529331695
0.07050000000000001,1.6972671189825688,1.0,2949.1710496367946,0.5475791187685085,1.285391757449147,0.983015601026751,0.28433821899726786,0.7402791606507886
0.07100000000000001,1.6962381612271356,1.0,2953.393343534724,0.5501168669609231,1.2848901580013858,0.9831462037022781,0.2842950027715397,0.7411913197511015
0.07150000000000001,1.6952092034717026,1.0,2957.6033068731613,0.5526403780016641,1.2843886925986687,0.9832742769793673,0.2842517865458115,0.7421016311288899
0.07200000000000001,1.6941802457162694,1.0,2961.800882247818,0.5551497302425386,1.283887361455792,0.9833998849921761,0.2842085703200833,0.743010095681341
