Time [s],Phi [rad],STIM [ ],Fsee [N],Gamma [ ],Lcerel [ ],q [ ],Lmtc [m],fisomrel [ ]
0.0,1.8,1.0,18.57751115648373,0.0007964937340398095,1.379271937338695,0.005163283403263022,0.288653,0.5413035636076308
0.0005,1.79999375,1.0,19.12478753075807,0.006401235342908342,1.3792092547734545,0.015267388672890049,0.2886527375,0.5414551693053613
0.001,1.799975,1.0,23.050807362531923,0.011974538782824628,1.3787943472560835,0.03982393736311979,0.28865195,0.5424580436442527
0.0015,1.79994375,1.0,33.814033395636,0.017516580397450042,1.3778173049256286,0.07629484048689471,0.2886506375,0.5448153191923935
0.002,1.7999,1.0,58.91037708248809,0.02302753554054014,1.3760306693567783,0.12141074137431089,0.2886488,0.5491101266042515
0.0025,1.79984375,1.0,105.58803485588946,0.028507578582052294,1.3735355907273896,0.17182440959130957,0.28864643749999996,0.555073859885013
0.003,1.7997750000000001,1.0,171.6668722919811,0.03395688291613234,1.3708199607709648,0.22473885502987634,0.28864354999999997,0.5615196323144775
0.0035,1.79969375,1.0,249.61223578959542,0.03937562096176258,1.368221790554062,0.27801663199994653,0.2886401375,0.5676425795955375
0.004,1.7996,1.0,334.06123160851075,0.04476396417137286,1.3658257180217206,0.3300743187516542,0.2886362,0.5732510970468514
0.0045000000000000005,1.7994937500000001,1.0,422.23945367849007,0.05012208301702297,1.3636206940989049,0.37982272129858674,0.2886317375,0.5783800727775212
0.005,1.799375,1.0,512.6044117421752,0.055450147103071556,1.3615798635228313,0.4265934618720437,0.28862675,0.5830994971135544
0.0055,1.79924375,1.0,604.0537973311166,0.060748324895537394,1.3596811390591357,0.4700460331113668,0.2886212375,0.587466448358172
0.006,1.7991000000000001,1.0,695.765036886677,0.06601678417227187,1.3579067780297658,0.5100746260214954,0.2886152,0.5915265887766326
0.006500000000000001,1.79894375,1.0,787.0182063789165,0.07125569147577128,1.3562439410041676,0.546732187607806,0.2886086375,0.5953133115364133
0.007,1.798775,1.0,877.2523821947315,0.07646521274146752,1.3546817230697545,0.5801701359065936,0.28860155,0.5988548320161668
0.0075,1.79859375,1.0,965.9783245936386,0.08164551265842872,1.3532115499418536,0.6105963282085014,0.2885939375,0.6021734725372242
0.008,1.7984,1.0,1052.8122192987819,0.08679675510792288,1.3518258352146195,0.6382450133839844,0.2885858,0.6052888446286205
0.0085,1.79819375,1.0,1137.465692006432,0.09191910339655929,1.3505176833282468,0.6633573873006721,0.2885771375,0.6082186022774199
0.009000000000000001,1.797975,1.0,1219.6887042696599,0.09701271917671542,1.3492813499879377,0.6861697462424536,0.28856795,0.6109774826230988
0.0095,1.79774375,1.0,1299.3077185770048,0.10207776358316199,1.3481113992987341,0.7069058676451236,0.2885582375,0.6135792528006292
0.01,1.7975,1.0,1376.2220523799056,0.10711439759343896,1.3470025850976635,0.7257732123049402,0.288548,0.6160370087230193
0.0105,1.79724375,1.0,1450.3367809176837,0.11212277998062824,1.345950558873916,0.7429617314818888,0.2885372375,0.6183616416289068
0.011,1.796975,1.0,1521.6016177735078,0.11710306900422035,1.344951199074847,0.7586433232346432,0.28852595000000003,0.6205633617883458
0.0115,1.79669375,1.0,1590.0048968633703,0.12205542236788165,1.3440005888952304,0.7729724838742077,0.2885141375,0.6226517692593581
0.012,1.7964,1.0,1655.5675294545747,0.12697999757597803,1.3430950063270926,0.7860874267649028,0.28850180000000003,0.6246358948769526
0.0125,1.79609375,1.0,1718.3014318520559,0.131876949706556,1.3422313302832207,0.7981115899474537,0.2884889375,0.6265233309074525
0.013000000000000001,1.7957750000000001,1.0,1778.2451050305065,0.13674643344274215,1.3414065434279732,0.8091548200068729,0.28847555,0.6283213396191438
0.0135,1.79544375,1.0,1835.4557470932689,0.14158860285315847,1.3406177761776517,0.8193147899617522,0.2884616375,0.630036768341171
0.014,1.7951000000000001,1.0,1890.0126315876073,0.1464036122999214,1.3398622276121768,0.8286782950710253,0.2884472,0.6316762316405897
0.0145,1.79474375,1.0,1941.9765684897834,0.15119161360611846,1.339137570118282,0.8373226188039544,0.2884322375,0.6332452440505976
0.015,1.794375,1.0,1991.4104189930483,0.15595275754953608,1.3384416767256746,0.8453165293170962,0.28841675,0.634748824793093
0.0155,1.79399375,1.0,2038.3952396334064,0.16068719490796085,1.3377724204640622,0.8527212089942312,0.2884007375,0.6361919386921199
0.016,1.7936,1.0,2083.0117800055473,0.16539507539356085,1.337127850516708,0.8595912052152732,0.2883842,0.6375791211925519
0.0165,1.7931937500000001,1.0,2125.365187570443,0.17007654953691842,1.336505913753997,0.8659751314735098,0.2883671375,0.6389150829355471
0.017,1.792775,1.0,2165.5282179277688,0.1747317645092091,1.335905026071834,0.8719165342095376,0.28834955,0.6402034867974509
0.0175,1.7923437500000001,1.0,2203.575363800376,0.17936086686743552,1.3353236942168176,0.8774543799378091,0.2883314375,0.6414477681657723
0.018000000000000002,1.7919,1.0,2239.590633418775,0.18396400316860034,1.3347604249355478,0.8826235679367818,0.2883128,0.6426513325796284
0.0185,1.79144375,1.0,2273.6582260161344,0.18854131897746185,1.3342138097759797,0.8874554259048658,0.2882936375,0.643817376769851
0.019,1.790975,1.0,2305.8702583461263,0.19309296070979587,1.3336824381861199,0.8919781018463562,0.28827395,0.6449490766778263
0.0195,1.79049375,1.0,2336.301802615874,0.1976190720473487,1.3331651362034846,0.8962169830917354,0.2882537375,0.6460490816916886
0.02,1.79,1.0,2365.0211983425684,0.20211979508953917,1.3326608523827816,0.9001949806273158,0.288233,0.6471197617728354
0.0205,1.78949375,1.0,2392.10181442256,0.20659527193578628,1.3321685352787185,0.9039327788224807,0.2882117375,0.6481634699323685
0.021,1.788975,1.0,2417.6216263054644,0.21104564468550885,1.331687133446003,0.9074490821710041,0.28818995000000003,0.6491825430687928
0.021500000000000002,1.78844375,1.0,2441.6470197477256,0.215471053052205,1.3312157472651038,0.910760862624349,0.2881676375,0.650178982026846
0.022,1.7879,1.0,2464.2671160740206,0.21987164065792805,1.3307532935081525,0.9138834806827757,0.2881448,0.6511551620966516
0.0225,1.78734375,1.0,2485.538733484089,0.22424754532018265,1.3302990306441551,0.9168309574328423,0.28812143749999997,0.6521127243479958
0.023,1.786775,1.0,2505.5172483465844,0.22859890418588927,1.3298522560133343,0.919616057456629,0.28809755,0.6530532181215362
0.0235,1.78619375,1.0,2524.2604098347374,0.23292585440196842,1.3294122669559136,0.9222504122583134,0.28807313749999996,0.6539781836063964
0.024,1.7856,1.0,2541.828140794855,0.2372285331153406,1.328978360812116,0.924744636491481,0.2880482,0.6548891521599913
0.0245,1.78499375,1.0,2558.279891858234,0.24150707695504348,1.3285498579972055,0.9271084346768697,0.2880227375,0.6557875982462249
0.025,1.784375,1.0,2573.6671402561446,0.2457616205875948,1.3281261702134695,0.9293507029490414,0.28799675,0.6566747972609734
0.025500000000000002,1.78374375,1.0,2588.061093170757,0.2499923024833647,1.3277065390707163,0.931479567190027,0.2879702375,0.657552373247108
0.026000000000000002,1.7831000000000001,1.0,2601.50280664843,0.2541992544177434,1.327290501471869,0.9335025297041015,0.2879432,0.6584213254027185
0.0265,1.78244375,1.0,2614.0344385670214,0.25838260816612096,1.3268775943198512,0.935426483677227,0.2879156375,0.6592826477412844
0.027,1.781775,1.0,2625.699156154896,0.26254249550388775,1.3264673545175862,0.9372577707926977,0.28788755,0.6601373291909716
0.0275,1.7810937500000001,1.0,2636.5410482639277,0.2666790482064339,1.3260593189679974,0.9390022326960948,0.2878589375,0.6609863536802478
0.028,1.7804,1.0,2646.605042397655,0.2707923980491496,1.3256530245740081,0.9406652570325527,0.2878298,0.6618307002098229
0.0285,1.77969375,1.0,2655.932082472172,0.27488267393777366,1.3252480519530352,0.9422518238284243,0.2878001375,0.6626712522345528
0.029,1.778975,1.0,2664.5643033956603,0.27895000899678146,1.3248439768019784,0.9437665378205689,0.28776995,0.6635088990289404
0.029500000000000002,1.7782437500000001,1.0,2672.5349424018787,0.2829945309274267,1.324440462031054,0.9452136705811619,0.2877392375,0.6643443450161871
0.03,1.7775,1.0,2679.87597850428,0.2870163661661661,1.3240371865391256,0.9465971814014821,0.287708,0.6651782580988773
0.0305,1.77674375,1.0,2686.619821544227,0.2910156411494565,1.323633829225057,0.9479207425299203,0.2876762375,0.6660113028734909
0.031,1.775975,1.0,2692.7992714408283,0.2949924823137547,1.3232300689877121,0.9491877635905751,0.28764395,0.6668441406320117
0.0315,1.7751937500000001,1.0,2698.44747972698,0.29894701609551744,1.3228255847259547,0.9504014136378753,0.2876111375,0.6676774293569689
0.032,1.7744,1.0,2703.5888219736753,0.3028793636532352,1.3224201383709997,0.9515646496123794,0.2875778,0.6685116529745708
0.0325,1.77359375,1.0,2708.2548956678593,0.30678965345761994,1.3220134282350584,0.952680219796577,0.2875439375,0.669347423585156
0.033,1.772775,1.0,2712.4820416545917,0.3106780163125026,1.3216051116386733,0.9537506819181619,0.28750955,0.6701854342087897
0.0335,1.7719437500000002,1.0,2716.2895990212032,0.31454457205518543,1.3211950029316044,0.9547784373992307,0.2874746375,0.6710260525885416
0.034,1.7711000000000001,1.0,2719.697065992103,0.3183894405229708,1.3207829164636111,0.9557657288493577,0.2874392,0.671869644467793
0.0345,1.7702437500000001,1.0,2722.724084450947,0.32221274155316104,1.3203686665844536,0.9567146524396375,0.2874032375,0.6727165735679184
0.035,1.7693750000000001,1.0,2725.3904252272305,0.32601459498305835,1.3199520676438916,0.9576271691746087,0.28736675,0.673567201563771
0.035500000000000004,1.76849375,1.0,2727.7159741470114,0.3297951206499651,1.319532933991685,0.958505115171725,0.2873297375,0.674421888056969
0.036000000000000004,1.7676,1.0,2729.720718847599,0.33355443839118354,1.3191110799775938,0.9593502110460715,0.2872922,0.6752809905469825
0.0365,1.76669375,1.0,2731.4247363568993,0.3372926680440159,1.3186863199513779,0.960164070487445,0.2872541375,0.6761448644000256
0.037,1.765775,1.0,2732.8481814362995,0.34100992944576464,1.3182584682627967,0.9609482081075912,0.28721555,0.6770138628157476
0.0375,1.76484375,1.0,2734.005927311662,0.3447063372751454,1.3178273878362299,0.9617040502703373,0.2871764375,0.6778882383329041
0.038,1.7639,1.0,2734.9150025837075,0.3483820111752233,1.3173929225063934,0.9624329370182064,0.28713679999999997,0.6787682804300081
0.0385,1.76294375,1.0,2735.59586249596,0.35203707373445114,1.3169548854228728,0.9631361266543219,0.28709663750000003,0.6796543386689209
0.039,1.761975,1.0,2736.059627545499,0.355671637599938,1.3165131748516326,0.9638148096777516,0.28705595,0.6805465884736603
0.0395,1.7609937500000001,1.0,2736.3174487984825,0.35928581541879273,1.3160676890586387,0.9644701076354317,0.2870147375,0.6814452038684047
0.04,1.76,1.0,2736.38050355722,0.3628797198381245,1.3156183263098558,0.9651030778486739,0.286973,0.6823503574533336
0.0405,1.7589937500000001,1.0,2736.2599912574055,0.3664534635050423,1.3151649848712492,0.9657147177674199,0.2869307375,0.6832622203798
0.041,1.757975,1.0,2735.967129594101,0.3700071590666551,1.314707563008784,0.9663059689851748,0.28688795,0.6841809623248476
0.0415,1.75694375,1.0,2735.5131508777463,0.373540919170072,1.3142459589884259,0.9668777209443289,0.2868446375,0.6851067514650655
0.042,1.7559,1.0,2734.9092986196433,0.3770548564624019,1.3137800710761394,0.9674308143587078,0.28680079999999997,0.6860397544497862
0.0425,1.75484375,1.0,2734.166824346711,0.3805490835907539,1.31330979753789,0.9679660443776149,0.2867564375,0.6869801363736172
0.043000000000000003,1.753775,1.0,2733.2918844769383,0.38402370451323814,1.3128350829660567,0.9684841658975037,0.28671155,0.6879279683214938
0.043500000000000004,1.75269375,1.0,2732.294830573572,0.3874788331691876,1.3123558338951198,0.9689858922945586,0.28666613750000003,0.6888833961469527
0.044,1.7516,1.0,2731.1904471116345,0.390914591134944,1.3118719165892136,0.9694718974560143,0.2866202,0.6898466442696766
0.0445,1.75049375,1.0,2729.9842683550223,0.3943310834490047,1.311383281341024,0.9699428242963695,0.2865737375,0.6908177681801553
0.045,1.7493750000000001,1.0,2728.6818296636243,0.39772841514986673,1.3108898784432372,0.9703992826859116,0.28652675,0.6917968223263686
0.0455,1.74824375,1.0,2727.288666499,0.4011066912760273,1.3103916581885389,0.9708418514668444,0.2864792375,0.692783860098754
0.046,1.7471,1.0,2725.8103134846115,0.40446601686598366,1.309888570869615,0.9712710803275987,0.2864312,0.6937789338150113
0.0465,1.7459437500000001,1.0,2724.252303521065,0.4078064969582329,1.3093805667791514,0.9716874915465652,0.28638263750000004,0.6947820947047547
0.047,1.744775,1.0,2722.6201669555808,0.4111282365912722,1.308867596209834,0.9720915816155123,0.28633355,0.6957933928940019
0.0475,1.74359375,1.0,2720.9194308072238,0.41443134080359867,1.3083496094543487,0.9724838227520419,0.28628393750000003,0.6968128773895108
0.048,1.7424,1.0,2719.1556180456405,0.4177159146337096,1.3078265568053815,0.9728646643096444,0.2862338,0.6978405960629568
0.0485,1.74119375,1.0,2717.334246926019,0.4209820631201021,1.307298388555618,0.9732345340931702,0.2861831375,0.6988765956349504
0.049,1.739975,1.0,2715.460830377389,0.4242298913012733,1.3067650549977445,0.973593839586883,0.28613195,0.6999209216588992
0.0495,1.73874375,1.0,2713.5408722596703,0.4274595041880128,1.306226506453501,0.9739429691003383,0.2860802375,0.7009736184479717
0.05,1.7375,1.0,2711.5778739231955,0.4306709830919448,1.3056827114485614,0.9742822913143662,0.286028,0.7020346936270905
0.0505,1.73624375,1.0,2709.579833435645,0.433864461213287,1.305133597449744,0.9746121611490169,0.2859752375,0.7031042337607705
0.051000000000000004,1.734975,1.0,2707.5491220167637,0.43704003555182397,1.3045791431772014,0.9749329164959832,0.28592195,0.7041822243030673
0.051500000000000004,1.73369375,1.0,2705.48810803725,0.44019780310734047,1.3040193273510865,0.9752448799497407,0.2858681375,0.7052686498628601
0.052000000000000005,1.7324,1.0,2703.3991568801866,0.4433378608796212,1.3034541286915522,0.9755483596314445,0.2858138,0.7063634941965908
0.0525,1.73109375,1.0,2701.284630812126,0.4464603058684507,1.3028835259187517,0.9758436499615118,0.28575893750000003,0.7074667402009722
0.053,1.729775,1.0,2699.146888864372,0.4495652350736138,1.3023074977528375,0.9761310323845017,0.28570355000000003,0.7085783699056701
0.0535,1.72844375,1.0,2696.988286724208,0.4526527454948951,1.3017260229139627,0.9764107760496213,0.2856476375,0.7096983644659531
0.054,1.7271,1.0,2694.8111766364577,0.4557229341320793,1.3011390801222802,0.9766831384499315,0.2855912,0.7108267041553155
0.0545,1.7257437500000001,1.0,2692.617907314626,0.45877589798495116,1.3005466480979428,0.9769483660230851,0.2855342375,0.7119633683580717
0.055,1.724375,1.0,2690.410823862249,0.46181173405329523,1.2999487055611036,0.9772066947162175,0.28547675,0.7131083355619208
0.0555,1.72299375,1.0,2688.1922677046364,0.4648305393368962,1.2993452312319154,0.9774583505174081,0.2854187375,0.714261583350482
0.056,1.7216,1.0,2685.964576530107,0.46783241083553884,1.298736203830531,0.9777035499559549,0.2853602,0.7154230883958017
0.0565,1.72019375,1.0,2683.7300842416453,0.47081744554900773,1.2981216020771034,0.9779425005735268,0.28530113749999997,0.716592826450833
0.057,1.718775,1.0,2681.4879203085975,0.4737857190882414,1.2975014340434061,0.9781754011314314,0.28524155,0.7177707166521584
0.0575,1.71734375,1.0,2679.2386634030613,0.4767373206612147,1.2968756945193756,0.9784024427715798,0.2851814375,0.7189567028177245
0.058,1.7159,1.0,2676.9902851550733,0.47967238864006745,1.2962443104314456,0.9786238093662586,0.2851208,0.7201508563042005
0.0585,1.71444375,1.0,2674.7433884589295,0.48259101071400373,1.2956072762444786,0.9788396767376435,0.2850596375,0.7213531193600782
0.059000000000000004,1.7129750000000001,1.0,2672.498575196247,0.48549327457222774,1.294964586423338,0.9790502137214858,0.28499795,0.7225634335335116
0.059500000000000004,1.71149375,1.0,2670.2564462373625,0.48837926790394354,1.2943162354328863,0.979255582497565,0.2849357375,0.7237817396703248
0.06,1.71,1.0,2668.017601442499,0.49124907839835524,1.2936622177379866,0.9794559389020175,0.284873,0.7250079779120132
0.0605,1.7084937500000001,1.0,2665.7826396645632,0.4941027937446671,1.2930025278035018,0.9796514327226653,0.2848097375,0.7262420876937442
0.061,1.7069750000000001,1.0,2663.552158751671,0.49694050163208314,1.2923371600942948,0.979842207978394,0.28474595,0.7274840077423554
0.0615,1.7054437500000001,1.0,2661.326755550972,0.4997622897498076,1.2916661090752284,0.9800284031835571,0.2846816375,0.7287336760743526
0.062,1.7039,1.0,2659.107025913286,0.5025682457870445,1.2909893692111656,0.9802101515983138,0.2846168,0.729991029993903
0.0625,1.70234375,1.0,2656.893564697604,0.5053584574329981,1.2903069349669694,0.980387581465753,0.2845514375,0.7312560060908285
0.063,1.7007750000000001,1.0,2654.6869657770785,0.5081330123768724,1.2896188008075025,0.9805608162365882,0.28448555,0.7325285402385977
0.0635,1.69919375,1.0,2652.48782204557,0.5108919983078716,1.288924961197628,0.9807299747821674,0.28441913750000003,0.7338085675923126
0.064,1.6976,1.0,2650.296725424185,0.5136355029151999,1.2882254106022086,0.9808951715964848,0.2843522,0.7350960225866972
0.0645,1.69599375,1.0,2648.114266869726,0.5163636138880613,1.2875201434861072,0.9810565169878378,0.2842847375,0.7363908389340826
0.065,1.694375,1.0,2645.941036382432,0.51907641891566,1.286809154314187,0.9812141172607322,0.28421675,0.7376929496223879
0.0655,1.69274375,1.0,2643.777623015397,0.5217740056872001,1.286092437551311,0.9813680748885977,0.2841482375,0.7390022869131034
0.066,1.6911,1.0,2641.624614884413,0.5244564618918859,1.2853699876623415,0.9815184886778426,0.2840792,0.7403187823392701
0.0665,1.6894437500000001,1.0,2639.4825991783914,0.5271238752189212,1.284641799112142,0.9816654539237365,0.2840096375,0.7416423667034535
0.067,1.687775,1.0,2637.351301132853,0.5297763237463384,1.2839078743276324,0.9818090622985081,0.28393955,0.7429729556593281
0.0675,1.68609375,1.0,2635.2278470723645,0.532413861818864,1.2831682397821234,0.9819494018552792,0.2838689375,0.744310420850427
0.068,1.6844000000000001,1.0,2633.1170686594755,0.5350366267465017,1.2824228506829451,0.9820865596576559,0.2837978,0.7456547621559912
0.0685,1.68269375,1.0,2631.018903690287,0.5376446967671248,1.2816717074744277,0.9822206180204683,0.2837261375,0.7470058967105881
0.069,1.680975,1.0,2628.933290116757,0.5402381501186068,1.2809148106009007,0.9823516564421032,0.28365395,0.7483637410237884
0.0695,1.67924375,1.0,2626.860166045276,0.5428170650388209,1.2801521605066946,0.9824797517186741,0.28358123749999997,0.7497282109803293
0.07,1.6775,1.0,2624.79946973602,0.5453815197656404,1.2793837576361389,0.9826049780528076,0.283508,0.7510992218402781
0.07050000000000001,1.67574375,1.0,2622.7511396015,0.5479315925369386,1.2786096024335638,0.9827274071573252,0.2834342375,0.7524766882391949
0.07100000000000001,1.673975,1.0,2620.715114205634,0.5504673615905888,1.2778296953432993,0.9828471083540966,0.28335995,0.7538605241882956
0.07150000000000001,1.67219375,1.0,2618.6913322628225,0.5529889051644644,1.2770440368096754,0.9829641486683204,0.2832851375,0.7552506430746149
0.07200000000000001,1.6704,1.0,2616.6797326368974,0.5554963014964387,1.2762526272770218,0.9830785929184701,0.2832098,0.7566469576611698
0.0725,1.66859375,1.0,2614.68025433966,0.5579896288243847,1.275455467189669,0.9831905038021331,0.2831339375,0.7580493800871213
0.073,1.6667750000000001,1.0,2612.6928365305503,0.5604689653861762,1.2746525569919462,0.9832999419779556,0.28305755,0.7594578218679392
0.0735,1.66494375,1.0,2610.7174185150275,0.5629343894196862,1.273843897128184,0.9834069661438932,0.2829806375,0.760872193895563
0.074,1.6631,1.0,2608.7539397436067,0.5653859791627881,1.2730294880427122,0.9835116331119585,0.2829032,0.7622924064385665
0.0745,1.6612437500000001,1.0,2606.802339811151,0.5678238128533553,1.2722093301798607,0.9836139978796401,0.2828252375,0.76371836914232
0.075,1.659375,1.0,2604.8625584556553,0.5702479687292608,1.2713834239839594,0.9837141136981654,0.28274675,0.7651499910291535
0.0755,1.65749375,1.0,2602.93453555723,0.5726585250283781,1.2705517698993383,0.9838120321377638,0.2826677375,0.7665871804985189
