Time [s],Phi [rad],STIM [ ],Fsee [N],Gamma [ ],Lcerel [ ],q [ ],Lmtc [m],fisomrel [ ]
0.0,1.8,1.0,17.971595757165005,7.289267414137648e-05,1.3793392490919751,0.005001394071660868,0.288653,0.5411407337319402
0.0005,1.79999375,1.0,18.30188032268244,0.005681693112698217,1.3792995966089177,0.013116039622788712,0.2886527375,0.5412366582025266
0.001,1.799975,1.0,21.69029898833409,0.01125903261541005,1.3789309629054343,0.03593705896304134,0.28865195,0.5421279507383941
0.0015,1.79994375,1.0,31.24095401854536,0.01680508765416594,1.3780315941026482,0.07105087361170792,0.2886506375,0.5442988324624064
0.002,1.7999,1.0,53.95312605496694,0.02232003370911034,1.3763441215620815,0.11524949691724312,0.2886488,0.5483581063956161
0.0025,1.79984375,1.0,97.74237830289381,0.027804045276633632,1.3739051732008998,0.1651528970611354,0.28864643749999996,0.554192989329098
0.003,1.7997750000000001,1.0,161.7695752931981,0.03325729587650861,1.3711840101456685,0.2178766468720164,0.28864354999999997,0.5606582608806769
0.0035,1.79969375,1.0,238.600233239066,0.03867995805194843,1.3685565184209953,0.2712058004287059,0.2886401375,0.5668561630401612
0.004,1.7996,1.0,322.442336671099,0.0440722033802586,1.3661302729706353,0.3234898557389091,0.2886362,0.5725402525970922
0.0045000000000000005,1.7994937500000001,1.0,410.27802787977754,0.04943420247805964,1.3638991137295462,0.373579403680976,0.2886317375,0.577734167815213
0.005,1.799375,1.0,500.4443994959422,0.054766124992721876,1.3618364471999242,0.42075723020617056,0.28862675,0.5825076067529862
0.0055,1.79924375,1.0,591.8304018920609,0.0600681396463129,1.359918525191988,0.464645652796512,0.2886212375,0.5869217322181896
0.006,1.7991000000000001,1.0,683.5593086009804,0.06534041418718725,1.358127495710477,0.5051136764529508,0.2886152,0.5910226301535151
0.006500000000000001,1.79894375,1.0,774.9164651079385,0.07058311544094895,1.3564495878561773,0.5421973143047543,0.2886086375,0.5948459544552339
0.007,1.798775,1.0,865.2901683723765,0.07579640889622563,1.3548741761202976,0.5760383476796264,0.28860155,0.5984193849583546
0.0075,1.79859375,1.0,954.2408001672333,0.08098046041814144,1.353391439318944,0.6068386677073473,0.2885939375,0.6017681460972104
0.008,1.7984,1.0,1041.3616720209457,0.08613543386358476,1.3519938795482076,0.6348305388262437,0.2885858,0.6049116988539602
0.0085,1.79819375,1.0,1126.3014601841348,0.09126149154418725,1.3506752689774524,0.6602555171404964,0.2885771375,0.6078662491313502
0.009000000000000001,1.797975,1.0,1208.8265473336066,0.09635879577158063,1.3494293797760417,0.6833508010636964,0.28856795,0.6106476675680192
0.0095,1.79774375,1.0,1288.7873013608607,0.1014275083638569,1.3482502813517077,0.7043417902424615,0.2885582375,0.613270859497629
0.01,1.7975,1.0,1366.044278446491,0.10646778964016562,1.3471331123235935,0.7234383924667965,0.288548,0.6157480941598708
0.0105,1.79724375,1.0,1440.5049815887787,0.11147979878466718,1.3460733660795794,0.7408328143028203,0.2885372375,0.6180906418697367
0.011,1.796975,1.0,1512.1198829587681,0.1164636940488805,1.3450668110594104,0.7566992062748763,0.28852595000000003,0.6203089792898252
0.0115,1.79669375,1.0,1580.9002322369515,0.12141963464396194,1.34410917522452,0.7711940985981036,0.2885141375,0.6224135061425402
0.012,1.7964,1.0,1646.822086685791,0.12634777619401755,1.3431972109178645,0.7844579574999799,0.28850180000000003,0.6244122270988484
0.0125,1.79609375,1.0,1709.8999700848105,0.13124827422519864,1.3423276964076434,0.796616023030156,0.2884889375,0.6263129728068761
0.013000000000000001,1.7957750000000001,1.0,1770.183437376849,0.13612128411165553,1.3414974320490027,0.8077797347554889,0.28847555,0.6281234180610229
0.0135,1.79544375,1.0,1827.7354267315272,0.14096696031670675,1.3407034421102388,0.8180482223222404,0.2884616375,0.62985065221376
0.014,1.7951000000000001,1.0,1882.6230103171958,0.14578545699937218,1.3399430259326177,0.8275096535869576,0.2884472,0.6315010813768355
0.0145,1.79474375,1.0,1934.8974356354902,0.1505769254833962,1.3392139258733644,0.8362425155531428,0.2884322375,0.6330800781045269
0.015,1.794375,1.0,1984.6307951397564,0.1553415170925231,1.3385138842897037,0.8443165719444303,0.28841675,0.6345929532624268
0.0155,1.79399375,1.0,2031.9085332222485,0.16007938267080457,1.3378407035821716,0.8517939039631537,0.2884007375,0.6360448310047937
0.016,1.7936,1.0,2076.8211003455062,0.16479067277467835,1.3371923123846687,0.8587298377365592,0.2883842,0.6374405116985968
0.0165,1.7931937500000001,1.0,2119.4605928323062,0.16947553754033762,1.3365667780553148,0.8651737459663199,0.2883671375,0.6387844512419149
0.017,1.792775,1.0,2159.8933339749588,0.17413412378592774,1.3359625665179298,0.8711698234403007,0.28834955,0.6400802101361149
0.0175,1.7923437500000001,1.0,2198.196320603922,0.17876657832959414,1.3353781436963337,0.8767575833532202,0.2883314375,0.6413313161058717
0.018000000000000002,1.7919,1.0,2234.456331921774,0.18337304798948226,1.3348119755143466,0.8819724078537508,0.2883128,0.6425412661102696
0.0185,1.79144375,1.0,2268.7585282618384,0.18795367839623592,1.3342626332008682,0.8868460569000849,0.2882936375,0.6437133037169063
0.019,1.790975,1.0,2301.1972589967822,0.19250861624769564,1.3337286747832453,0.89140705848951,0.28827395,0.6448506748323306
0.0195,1.79049375,1.0,2331.8487926750167,0.19703800544802888,1.3332089069205013,0.8956811399095137,0.2882537375,0.6459560725409589
0.02,1.79,1.0,2360.779985523549,0.20154198803615223,1.3327022861824231,0.899691520186491,0.288233,0.6470318519419294
0.0205,1.78949375,1.0,2388.062756803498,0.2060207060509821,1.3322077691387977,0.9034591573398904,0.2882117375,0.6480803511601508
0.021,1.788975,1.0,2413.77366613136,0.21047430153143507,1.3317243123594116,0.9070029993241725,0.28818995000000003,0.6491038921864654
0.021500000000000002,1.78844375,1.0,2437.98452633978,0.21490291495488356,1.3312509588637533,0.9103402217583976,0.2881676375,0.6501045990173597
0.022,1.7879,1.0,2460.7747481381944,0.21930668866501538,1.3307867143536096,0.9134863958445282,0.2881448,0.6510846607370646
0.0225,1.78734375,1.0,2482.209782079752,0.22368576212554145,1.3303307504159796,0.916455697677906,0.28812143749999997,0.6520459034745403
0.023,1.786775,1.0,2502.344856534512,0.2280402723479528,1.3298823627051584,0.9192610462781521,0.28809755,0.6529898813012192
0.0235,1.78619375,1.0,2521.237601396498,0.23237035634374043,1.3294408468754408,0.9219142116438577,0.28807313749999996,0.6539181390624756
0.024,1.7856,1.0,2538.947847113015,0.23667615112439544,1.3290054985811224,0.9244259328174996,0.2880482,0.6548322127021271
0.0245,1.78499375,1.0,2555.537434712846,0.24095779370140885,1.3285756134764977,0.926806022397017,0.2880227375,0.6557336295553036
0.025,1.784375,1.0,2571.0593494422565,0.24521541772924468,1.3281505873086088,0.9290634747473601,0.28799675,0.65662369913589
0.025500000000000002,1.78374375,1.0,2585.5777642921425,0.2494491627564773,1.3277297257509366,0.9312065189147244,0.2879702375,0.6575039121786221
0.026000000000000002,1.7831000000000001,1.0,2599.1368650446925,0.2536591613383793,1.3273125346946661,0.9332427346513654,0.2879432,0.6583753336471715
0.0265,1.78244375,1.0,2611.7792130960843,0.2578455450365025,1.3268985458330265,0.9351790888904441,0.2879156375,0.6592389691717242
0.027,1.781775,1.0,2623.54839784258,0.2620084454123988,1.3264872908592467,0.9370219901460627,0.28788755,0.6600958192199926
0.0275,1.7810937500000001,1.0,2634.488947248612,0.26614799402762024,1.3260783014665551,0.9387773407117862,0.2878589375,0.6609468791858623
0.028,1.7804,1.0,2644.646243277778,0.27026432244371856,1.3256711093481812,0.94045058334563,0.2878298,0.6617931394640466
0.0285,1.77969375,1.0,2654.060731340657,0.27435756020046587,1.325265298839327,0.9420467498604922,0.2878001375,0.6626354763104698
0.029,1.778975,1.0,2662.7699639740863,0.27842783706087376,1.324860486989533,0.943570495914038,0.28776995,0.6634746938549854
0.029500000000000002,1.7782437500000001,1.0,2670.8249789928823,0.2824752874458232,1.324456172240835,0.9450261150685464,0.2877392375,0.6643118376748266
0.03,1.7775,1.0,2678.253748438641,0.28650003677958596,1.3240520701468423,0.9464176109006317,0.287708,0.6651474994692155
0.0305,1.77674375,1.0,2685.084652240973,0.290502210486434,1.3236478962611653,0.947748696146085,0.2876762375,0.66598226800294
0.031,1.775975,1.0,2691.346442171571,0.29448193399063916,1.3232433661374132,0.9490228174864879,0.28764395,0.6668167291076346
0.0315,1.7751937500000001,1.0,2697.068207592023,0.2984393327164732,1.3228381953291966,0.9502431779325964,0.2876111375,0.667651465677894
0.032,1.7744,1.0,2702.2793429955955,0.3023745320882081,1.3224320993901246,0.9514127570634767,0.2875778,0.6684870576622347
0.0325,1.77359375,1.0,2707.0095173429568,0.30628765753011555,1.322024793873808,0.9525343293499001,0.2875439375,0.6693240820488888
0.033,1.772775,1.0,2711.2870512916265,0.31017883333447827,1.3216160088703828,0.9536104821421949,0.28750955,0.6701630830302483
0.0335,1.7719437500000002,1.0,2715.135809092177,0.31404818069842294,1.321205517034246,0.9546436332898208,0.2874746375,0.6710045147537076
0.034,1.7711000000000001,1.0,2718.5885612376037,0.31789582872603017,1.3207930115242386,0.9556360337199833,0.2874392,0.6718489915727353
0.0345,1.7702437500000001,1.0,2721.663457456679,0.32172189657690026,1.3203783202119883,0.9565897994374044,0.2874032375,0.6726968492925531
0.035,1.7693750000000001,1.0,2724.378772522914,0.3255265034106334,1.319961270969123,0.9575069097701717,0.28736675,0.6735484218106613
0.035500000000000004,1.76849375,1.0,2726.7528933810913,0.32930976838682974,1.319541691667271,0.9583892177806508,0.2873297375,0.6744040410918962
0.036000000000000004,1.7676,1.0,2728.8043069302803,0.3330718106650896,1.3191194101780597,0.959238459768918,0.2872922,0.675264037141605
0.0365,1.76669375,1.0,2730.551588464145,0.33681274940501316,1.3186942543731168,0.9600562639571888,0.2872541375,0.6761287379769232
0.037,1.765775,1.0,2732.013390767789,0.34053270376620065,1.3182660521240706,0.9608441584342284,0.28721555,0.6769984695961684
0.0375,1.76484375,1.0,2733.207962162771,0.34423179235158713,1.317834635587298,0.9616035787306891,0.2871764375,0.677873547261127
0.038,1.7639,1.0,2734.14440411969,0.34791012183585235,1.3173999205105418,0.962335879727444,0.28713679999999997,0.6787541149869316
0.0385,1.76294375,1.0,2734.8548331739257,0.3515678280783608,1.3169616140461842,0.9630423221272302,0.28709663750000003,0.6796407373126205
0.039,1.761975,1.0,2735.349620859605,0.355205023198753,1.3165196212214267,0.96372410631055,0.28705595,0.6805335758349635
0.0395,1.7609937500000001,1.0,2735.6391688609733,0.3588218193166693,1.3160738470634716,0.9643823630302409,0.2870147375,0.6814327908242894
0.04,1.76,1.0,2735.7339049877296,0.36241832855175005,1.3156241965995206,0.9650181581911732,0.286973,0.6823385412018725
0.0405,1.7589937500000001,1.0,2735.644279350437,0.3659946630236357,1.3151705748567755,0.9656324972530096,0.2869307375,0.68325098451674
0.041,1.757975,1.0,2735.3807607357207,0.36955093485196655,1.3147128868624383,0.9662263292894202,0.28688795,0.6841702769219073
0.0415,1.75694375,1.0,2734.9538331815165,0.3730872561563831,1.3142510376437109,0.9668005507338631,0.2868446375,0.6850965731500351
0.042,1.7559,1.0,2734.373992752697,0.3766037390565257,1.313784932227795,0.9673560088391371,0.28680079999999997,0.6860300264885144
0.0425,1.75484375,1.0,2733.6517445161558,0.38010049567203474,1.3133144756418929,0.9678935048752992,0.2867564375,0.6869707887539724
0.043000000000000003,1.753775,1.0,2732.7975997158696,0.38357763812255063,1.312839572913206,0.9684137970881989,0.28671155,0.687919010266208
0.043500000000000004,1.75269375,1.0,2731.8217469410893,0.3870352778082474,1.3123601320327796,0.9689176035646972,0.28666613750000003,0.6888748339172976
0.044,1.7516,1.0,2730.729596359905,0.3904735144684223,1.311876104428506,0.9694056063051034,0.2866202,0.689838314689093
0.0445,1.75049375,1.0,2729.53704929672,0.39389247396958693,1.3113873461991852,0.9698784483264619,0.2865737375,0.6908096958770051
0.045,1.7493750000000001,1.0,2728.2493791914276,0.3972922611201031,1.310893809999657,0.9703367438295385,0.28652675,0.6917890271170191
0.0455,1.74824375,1.0,2726.8718597576812,0.4006729807283327,1.3103954484847622,0.9707810757263429,0.2864792375,0.6927763570151255
0.046,1.7471,1.0,2725.409764097935,0.40403473760263764,1.3098922143093414,0.9712119975326114,0.2864312,0.6937717331328228
0.0465,1.7459437500000001,1.0,2723.8683638673597,0.40737763655137993,1.3093840601282352,0.9716300351282918,0.28638263750000004,0.6947752019724763
0.047,1.744775,1.0,2722.2529284876573,0.4107017823829214,1.308870938596284,0.9720356883964061,0.28633355,0.6957868089625336
0.0475,1.74359375,1.0,2720.568724411263,0.41400727990562397,1.3083528023683284,0.9724294327497687,0.28628393750000003,0.6968065984425976
0.048,1.7424,1.0,2718.821014433932,0.4172942339278496,1.3078296040992092,0.9728117205542148,0.2862338,0.697834613648355
0.0485,1.74119375,1.0,2717.0150570585693,0.4205627492579601,1.3073012964437665,0.9731829824562515,0.2861831375,0.6988708966963659
0.049,1.739975,1.0,2715.1561059072487,0.4238129307043175,1.3067678320568412,0.9735436286223752,0.28613195,0.6999154885687042
0.0495,1.73874375,1.0,2713.249283415982,0.4270448812813117,1.3062291647398767,0.9738940497618055,0.2860802375,0.7009684268581551
0.05,1.7375,1.0,2711.2991650414833,0.43025868321276195,1.3056852532305987,0.9742346162716581,0.286028,0.7020297383843901
0.0505,1.73624375,1.0,2709.3125242260453,0.43345447261738923,1.3051360361646662,0.9745656863151274,0.2859752375,0.7030994879901643
0.051000000000000004,1.734975,1.0,2707.2918773892316,0.4366323463585199,1.304581490948749,0.9748875996832775,0.28592195,0.7041776638119808
0.051500000000000004,1.73369375,1.0,2705.2397379572008,0.43979240129948016,1.304021594989516,0.9752006807670491,0.2858681375,0.7052642531250979
0.052000000000000005,1.7324,1.0,2703.158616209733,0.4429347343035965,1.3034563256936371,0.9755052393875565,0.2858138,0.7063592423358331
0.0525,1.73109375,1.0,2701.051019138565,0.4460594422341951,1.3028856604677814,0.9758015715746166,0.28575893750000003,0.7074626169738387
0.053,1.729775,1.0,2698.9194503164636,0.44916662195460233,1.3023095767186188,0.9760899602971568,0.28570355000000003,0.7085743616843416
0.0535,1.72844375,1.0,2696.7664097784927,0.45225637032814453,1.3017280518528183,0.9763706761488683,0.2856476375,0.7096944602203541
0.054,1.7271,1.0,2694.5943939139465,0.455328784218148,1.3011410632770495,0.9766439779922007,0.2855912,0.7108228954348472
0.0545,1.7257437500000001,1.0,2692.4058953697004,0.45838396048793906,1.3005485883979822,0.9769101135635634,0.2855342375,0.7119596492728963
0.055,1.724375,1.0,2690.2034029651377,0.461421996000844,1.299950604622285,0.9771693200423763,0.28547675,0.7131047027637935
0.0555,1.72299375,1.0,2687.989401618101,0.4644429876201891,1.2993470893566283,0.9774218245864122,0.2854187375,0.7142580360131211
0.056,1.7216,1.0,2685.7663722824573,0.46744703220930084,1.298738020007681,0.9776678448356915,0.2853602,0.7154196281948035
0.0565,1.72019375,1.0,2683.5367918965844,0.47043422663150536,1.2981233739821127,0.977907589387017,0.28530113749999997,0.7165894575431165
0.057,1.718775,1.0,2681.3031333438007,0.47340466775012907,1.2975031286865928,0.9781412582410909,0.28524155,0.7177675013446704
0.0575,1.71734375,1.0,2679.063870127549,0.47635840811373215,1.2968772981837504,0.9783690413868984,0.2851814375,0.7189536665277951
0.058,1.7159,1.0,2676.8227072683303,0.4792955818777546,1.296245848541768,0.9785911256110738,0.2851208,0.7201479503245147
0.0585,1.71444375,1.0,2674.5823841184047,0.48221630302973967,1.2956087546393142,0.9788076888714083,0.2850596375,0.721350332208526
0.059000000000000004,1.7129750000000001,1.0,2672.3435486751505,0.48512065877486366,1.2949660105248135,0.97901890079212,0.28499795,0.7225607545761339
0.059500000000000004,1.71149375,1.0,2670.106847850867,0.4880087363183028,1.2943176102466907,0.9792249243049042,0.2849357375,0.7237791591156795
0.06,1.71,1.0,2667.8729274734737,0.49088062286523354,1.293663547853371,0.9794259159632034,0.284873,0.7250054868053921
0.0605,1.7084937500000001,1.0,2665.6424322888447,0.4937364056208321,1.2930038173932783,0.9796220262393611,0.2848097375,0.726239677911245
0.061,1.7069750000000001,1.0,2663.41600596305,0.49657617179027486,1.2923384129148379,0.9798133998057137,0.28474595,0.7274816719848015
0.0615,1.7054437500000001,1.0,2661.1942910857006,0.4994000085787381,1.2916673284664746,0.9800001758006064,0.2846816375,0.7287314078610638
0.062,1.7039,1.0,2658.977929174771,0.5022080031913981,1.2909905580966128,0.9801824880802454,0.2846168,0.7299888236563197
0.0625,1.70234375,1.0,2656.7675606808025,0.5050002428334314,1.2903080958536777,0.9803604654572473,0.2845514375,0.7312538567659819
0.063,1.7007750000000001,1.0,2654.5638249931653,0.507776814710014,1.2896199357860936,0.980534231926678,0.28448555,0.7325264438624332
0.0635,1.69919375,1.0,2652.367360446642,0.5105378060263225,1.2889260719422855,0.9807039068803236,0.28441913750000003,0.7338065208928612
0.064,1.6976,1.0,2650.178804328223,0.5132833039875331,1.288226498370678,0.9808696053098954,0.2843522,0.7350940230770969
0.0645,1.69599375,1.0,2647.9987928859764,0.516013395798822,1.287521209119696,0.9810314379998072,0.2842847375,0.7363888849054467
0.065,1.694375,1.0,2645.8279613374434,0.5187281686653656,1.2868101982377642,0.9811895117101396,0.28421675,0.7376910401365255
0.0655,1.69274375,1.0,2643.6669438795307,0.5214277097923404,1.2860934597733074,0.9813439293503544,0.2841482375,0.7390004217950861
0.066,1.6911,1.0,2641.5163736989275,0.5241121063849226,1.2853709877747501,0.9814947901442913,0.2840792,0.7403169621698451
0.0665,1.6894437500000001,1.0,2639.376882983603,0.5267814456482883,1.2846427762905173,0.9816421897869395,0.2840096375,0.7416405928113092
0.067,1.687775,1.0,2637.2491029342436,0.5294358147876141,1.2839088193690336,0.9817862205934552,0.28393955,0.7429712445295966
0.0675,1.68609375,1.0,2635.133663777901,0.5320753010080762,1.283169111058724,0.9819269716408566,0.2838689375,0.7443088473922578
0.068,1.6844000000000001,1.0,2633.0314470807975,0.5346999428041459,1.2824236430730718,0.9820645255950048,0.2837978,0.7456533349277237
0.0685,1.68269375,1.0,2630.941251329559,0.537309869578724,1.2816724263988906,0.9821989691123806,0.2837261375,0.7470046052505153
0.069,1.680975,1.0,2628.8627771879405,0.539905177683018,1.2809154636852271,0.9823303833276877,0.28365395,0.7483625709901589
0.0695,1.67924375,1.0,2626.7959990508407,0.5424859444987807,1.2801527550496674,0.9824588452814218,0.28358123749999997,0.7497271487183708
0.07,1.6775,1.0,2624.7408914007074,0.5450522474077645,1.2793843006097987,0.982584429411137,0.283508,0.751098254377467
0.07050000000000001,1.67574375,1.0,2622.69742880734,0.5476041637917217,1.278610100483207,0.9827072076555243,0.2834342375,0.7524758032804125
0.07100000000000001,1.673975,1.0,2620.665585927432,0.550141771032405,1.2778301547874789,0.9828272495536421,0.28335995,0.7538597101108595
0.07150000000000001,1.67219375,1.0,2618.645337504472,0.552665146511567,1.2770444636402012,0.9829446223395538,0.2832851375,0.7552498889231928
0.07200000000000001,1.6704,1.0,2616.6366583685785,0.5551743676109601,1.2762530271589605,0.9830593910326134,0.2832098,0.7566462531425722
0.0725,1.66859375,1.0,2614.639523435948,0.5576695117123367,1.2754558454613434,0.9831716185236283,0.2831339375,0.7580487155649761
0.073,1.6667750000000001,1.0,2612.653907708948,0.5601506561974495,1.2746529186649362,0.9832813656571113,0.28305755,0.7594571883572447
0.0735,1.66494375,1.0,2610.6797862754706,0.5626178784480511,1.2738442468873257,0.9833886913098242,0.2829806375,0.7608715830571219
0.074,1.6631,1.0,2608.7171343088667,0.5650712558458938,1.2730298302460983,0.9834936524658033,0.2829032,0.7622918105732996
0.0745,1.6612437500000001,1.0,2606.7659270678437,0.5675108657727302,1.272209668858841,0.9835963042880442,0.2828252375,0.7637177811854597
0.075,1.659375,1.0,2604.826139895918,0.5699367856103128,1.2713837628431397,0.9836967001870167,0.28274675,0.7651494045443192
0.0755,1.65749375,1.0,2602.897748221381,0.5723490927403942,1.2705521123165817,0.9837948918861679,0.2826677375,0.7665865896716701
