Time [s],Phi [rad],STIM [ ],Fsee [N],Gamma [ ],Lcerel [ ],q [ ],Lmtc [m],fisomrel [ ]
0.0,1.8,1.0,18.050495056407996,0.00029418418860586374,1.379330420502478,0.005022457193375015,0.288653,0.5411620920963435
0.0005,1.79999375,1.0,18.45158383446967,0.005901743356796199,1.3792830127297344,0.013748274443320482,0.2886527375,0.541276773771225
0.001,1.799975,1.0,22.004193175399493,0.011477848551648623,1.37889907139397,0.037104822816378606,0.28865195,0.5422050181657758
0.0015,1.79994375,1.0,31.91328482654845,0.01702267620607903,1.3779747755340799,0.07263979880558014,0.2886506375,0.5444358069514093
0.002,1.7999,1.0,55.33675902484295,0.022536401761136877,1.3762552337953318,0.11712513511991311,0.2886488,0.5485714255153706
0.0025,1.79984375,1.0,100.01413639070823,0.028019199675095734,1.3737966790754332,0.16718953211352658,0.28864643749999996,0.5544516668117908
0.003,1.7997750000000001,1.0,164.69090869328252,0.03347124342887002,1.371075424470241,0.21997522657917454,0.28864354999999997,0.5609152721754799
0.0035,1.79969375,1.0,241.88194611564106,0.038892705527603766,1.3684559719465463,0.2732913144822098,0.2886401375,0.5670924640845851
0.004,1.7996,1.0,325.92261921066034,0.04428375751073813,1.3660384801582475,0.325507955691188,0.2886362,0.5727545632762764
0.0045000000000000005,1.7994937500000001,1.0,413.87450073470643,0.04964456995745067,1.363814978787735,0.37549424261244196,0.2886317375,0.577929404367602
0.005,1.799375,1.0,504.1081410677729,0.05497531247834453,1.3617588150520294,0.4225481241072936,0.28862675,0.582686733839769
0.0055,1.79924375,1.0,595.5224027073447,0.06027615375332172,1.3598465679021692,0.4663033574236845,0.2886212375,0.5870868863808341
0.006,1.7991000000000001,1.0,687.2511951936968,0.06554726149986145,1.3580605284689984,0.5066368632020181,0.2886152,0.5911755674505792
0.006500000000000001,1.79894375,1.0,778.5817140161926,0.07078880247775599,1.356387135219735,0.5435898945343547,0.2886086375,0.5949879140620866
0.007,1.798775,1.0,868.9289517880976,0.07600094261569158,1.3548154938595856,0.5773071444703122,0.28860155,0.5985521853226352
0.0075,1.79859375,1.0,957.8014190418437,0.0811838466441131,1.3533367529214257,0.6079927470078662,0.2885939375,0.6018913872287734
0.008,1.7984,1.0,1044.8251610872812,0.0863376788447141,1.3519429535270095,0.6358793333864898,0.2885858,0.605026012317236
0.0085,1.79819375,1.0,1129.6795710552115,0.09146260207589837,1.3506275040992148,0.6612082799316745,0.2885771375,0.6079730655904181
0.009000000000000001,1.797975,1.0,1212.1204454073634,0.09655877831839489,1.3493844204292955,0.6842165852481734,0.28856795,0.6107478531928741
0.0095,1.79774375,1.0,1291.9858354608814,0.10162636933182238,1.3482079971116574,0.7051292056818984,0.2885582375,0.6133647664141837
0.01,1.7975,1.0,1369.1404775273293,0.10666553523031551,1.3470933530913822,0.7241553531302756,0.288548,0.6158361104584855
0.0105,1.79724375,1.0,1443.494414575113,0.11167643512238813,1.346035981399026,0.7414865155345323,0.2885372375,0.6181731491620313
0.011,1.796975,1.0,1515.0013529873195,0.11665922751833138,1.3450316386901207,0.7572961302623854,0.28852595000000003,0.6203863785166137
0.0115,1.79669375,1.0,1583.6674226794344,0.12161407114112877,1.344076139466678,0.7717400937362521,0.2885141375,0.6224860020717702
0.012,1.7964,1.0,1649.480741900496,0.1265411219969111,1.3431661115988351,0.7849581905996271,0.28850180000000003,0.6244802928894637
0.0125,1.79609375,1.0,1712.4551831455155,0.13144053554549975,1.3422983626981462,0.7970751072876876,0.2884889375,0.6263770117798737
0.013000000000000001,1.7957750000000001,1.0,1772.6373607880969,0.1363124669944655,1.3414697442258026,0.8082017923822831,0.28847555,0.6281837174055006
0.0135,1.79544375,1.0,1830.092279797672,0.1411570710886945,1.3406772709314785,0.818436912841296,0.2884616375,0.6299075161692602
0.014,1.7951000000000001,1.0,1884.881213364787,0.14597450129527045,1.3399183178803917,0.8278682548655472,0.2884472,0.6315546465859853
0.0145,1.79474375,1.0,1937.0590199464289,0.15076490918209515,1.3391905961633785,0.8365739296187248,0.2884322375,0.6331305467931501
0.015,1.794375,1.0,1986.7014954700383,0.1555284463170703,1.3384918168712745,0.8446233691005626,0.28841675,0.6346405928290293
0.0155,1.79399375,1.0,2033.8872633639508,0.16026526317797019,1.337819862696227,0.8520783979573782,0.2884007375,0.6360897333160151
0.016,1.7936,1.0,2078.7196209177455,0.16497551146576772,1.3371725334032032,0.8589940512085571,0.2883842,0.637483044382863
0.0165,1.7931937500000001,1.0,2121.2708442415596,0.1696593393688428,1.336548109062216,0.8654195458444115,0.2883671375,0.6388245225977257
0.017,1.792775,1.0,2161.613640399893,0.17431689417874427,1.3359449917100295,0.8713988595911292,0.28834955,0.6401178652581259
0.0175,1.7923437500000001,1.0,2199.831611983098,0.178948323187021,1.3353615833834078,0.8769713145830703,0.2883314375,0.6413667359393291
0.018000000000000002,1.7919,1.0,2236.0076863158392,0.18355377317159982,1.3347963930155968,0.8821721532299445,0.2883128,0.6425745383410268
0.0185,1.79144375,1.0,2270.23815971725,0.18813339049261335,1.3342478837448177,0.8870329728208293,0.2882936375,0.643744745574333
0.019,1.7909758990243818,1.0,2302.6601876614914,0.19268732107908315,1.3337146009264464,0.8915821807195863,0.288273987759024,0.6448806285985414
0.0195,1.7905056398691948,1.0,2333.724714936418,0.19721570760763313,1.33319583213156,0.895845517793509,0.2882542368745062,0.6459838566650424
0.02,1.790035380714008,1.0,2363.5842186649493,0.20171869275488724,1.3326908649312361,0.8998461788373037,0.28823448598998835,0.6470560854314604
0.0205,1.789565121558821,1.0,2392.285215255639,0.20619641919746937,1.3321989868965516,0.9036050985325956,0.28821473510547047,0.6480989576049259
0.021,1.789094862403634,1.0,2419.8749566559127,0.2106490290927308,1.331719506957003,0.9071412066577995,0.28819498422095263,0.649114058367994
0.021500000000000002,1.7886246032484472,1.0,2446.3958993189676,0.21507666404642442,1.3312518059931668,0.9104716585979395,0.2881752333364348,0.6501028093949788
0.022,1.7881543440932604,1.0,2471.8867964937454,0.21947946378444344,1.3307953227790195,0.9136120229639617,0.2881554824519169,0.6510665000877689
0.0225,1.7876840849380733,1.0,2496.385452126306,0.22385756690655265,1.330349524886558,0.9165764455660566,0.2881357315673991,0.6520063501505913
0.023,1.7872138257828865,1.0,2519.931557652646,0.22821111201251673,1.32991387988778,0.9193777945449776,0.28811598068288125,0.6529235709738246
0.0235,1.7867435666276996,1.0,2542.554001826805,0.23254023289293466,1.3294879737104721,0.9220278128600735,0.28809622979836336,0.6538191172836966
0.024,1.7862733074725126,1.0,2564.3106755102617,0.23684507428808918,1.3290711337458854,0.9245371734364015,0.2880764789138455,0.6546944800229516
0.0245,1.7858030483173257,1.0,2585.237320155086,0.24112577238554334,1.3286629110151311,0.9269156638488837,0.2880567280293277,0.6555506725862883
0.025,1.785332789162139,1.0,2605.3624809533903,0.2453824601857478,1.3282629355049718,0.9291722516581905,0.2880369771448098,0.6563885369057996
0.025500000000000002,1.7848625300069518,1.0,2624.7157849530386,0.24961527068915315,1.327870837202169,0.9313151533244403,0.28801722626029197,0.6572089097970306
0.026000000000000002,1.784392270851765,1.0,2643.32787491686,0.2538243368962101,1.3274862460934849,0.9333519073277858,0.28799747537577414,0.6580126231492267
0.0265,1.7839220116965782,1.0,2661.2303462180953,0.2580097918073692,1.3271087921656812,0.935289439279776,0.28797772449125625,0.6588005041068532
0.027,1.783451752541391,1.0,2678.4556867707347,0.26217176842308126,1.3267381054055203,0.9371341199880454,0.2879579736067384,0.6595733752423825
0.0275,1.7829814933862043,1.0,2695.0372199957305,0.2663103997437968,1.326373815799764,0.9388918173126795,0.2879382227222206,0.66033205472035
0.028,1.7825112342310174,1.0,2710.9995653934916,0.2704258138397352,1.326015639847752,0.9405679532607446,0.28791847183770275,0.6610771765773624
0.0285,1.7820409750758304,1.0,2726.378819721712,0.2745181464977563,1.325663195331663,0.9421675227289771,0.28789872095318486,0.6618095765509281
0.029,1.7815707159206435,1.0,2741.202229399091,0.27858752817785876,1.325316186687309,0.9436951530125295,0.28787897006866703,0.6625299065026399
0.029500000000000002,1.7811004567654567,1.0,2755.4901278618104,0.2826340851677827,1.3249743859266863,0.9451551340060486,0.2878592191841492,0.6632386750369044
0.03,1.7806301976102696,1.0,2769.2632960179426,0.2866579437552684,1.32463756506179,0.9465514400162721,0.2878394682996313,0.6639363882358165
0.0305,1.7801599384550828,1.0,2782.5429364982974,0.2906592302280559,1.3243054961046172,0.9478877569970233,0.2878197174151135,0.664623549733221
0.031,1.779689679299896,1.0,2795.350649060147,0.2946380708738855,1.3239779510671632,0.9491675071121938,0.28779996653059564,0.6653006607854681
0.0315,1.779219420144709,1.0,2807.7084071430863,0.29859459198049726,1.3236547019614244,0.9503938709178972,0.28778021564607775,0.6659682203388442
0.032,1.778749160989522,1.0,2819.638535578207,0.30252891983563146,1.323335520799397,0.951569807420361,0.2877604647615599,0.6666267250936947
0.0325,1.7782789018343352,1.0,2831.159328561938,0.3064411770193389,1.323020218513705,0.9526980757819344,0.2877407138770421,0.6672765893857089
0.033,1.7778086426791482,1.0,2842.290275028038,0.31033148859285264,1.3227085978532929,0.9537812477343388,0.28772096299252425,0.667918242575133
0.0335,1.7773383835239613,1.0,2853.056118132612,0.31419998452007797,1.3224004172282544,0.954821719063734,0.28770121210800637,0.6685522033515545
0.034,1.7768681243687745,1.0,2863.4699220403436,0.3180467842239724,1.3220955412471416,0.9558217362306191,0.28768146122348853,0.6691787701170628
0.0345,1.7763978652135874,1.0,2873.5449366474472,0.3218720071274934,1.3217938345185072,0.9567833990475522,0.2876617103389707,0.669798240005981
0.035,1.7759276060584006,1.0,2883.2945878652945,0.3256757726535984,1.3214951616509032,0.9577086719753999,0.2876419594544528,0.6704109089128176
0.035500000000000004,1.7754573469032138,1.0,2892.7324683100937,0.32945820022524486,1.321199387252882,0.9585993944242566,0.287622208569935,0.6710170715190471
0.036000000000000004,1.774987087748027,1.0,2901.872328398688,0.3332194092653903,1.3209063759329958,0.9594572901571001,0.28760245768541715,0.6716170213187207
0.0365,1.7745168285928399,1.0,2910.728067851112,0.3369595191969921,1.3206159922997969,0.9602839758836439,0.28758270680089926,0.6722110506429101
0.037,1.774046569437653,1.0,2919.313727599813,0.34067864944300774,1.3203281009618377,0.961080969122447,0.2875629559163814,0.6727994506829806
0.0375,1.7735763102824662,1.0,2927.643482104541,0.34437691942639476,1.3200425665276705,0.9618496954010871,0.2875432050318636,0.6733825115126965
0.038,1.7731060511272791,1.0,2935.7217039111024,0.3480544352177584,1.3197593406217196,0.9625915003985838,0.2875234541473457,0.6739603446593211
0.0385,1.7726357919720923,1.0,2943.571098296905,0.3517113315739378,1.319478214984987,0.9633076409529909,0.28750370326282787,0.6745333869579286
0.039,1.7721655328169055,1.0,2951.1999550919522,0.35534772142992904,1.3191991087558357,0.9639993077475766,0.28748395237831004,0.6751018143159444
0.0395,1.7716952736617184,1.0,2958.616062402074,0.35896371687476436,1.3189219461140327,0.9646676228999098,0.28746420149379215,0.6756657917309886
0.04,1.7712250145065316,1.0,2965.8272776901913,0.3625594299974759,1.3186466512393449,0.965313644373532,0.2874444506092743,0.676225483590406
0.0405,1.7707547553513447,1.0,2972.8415245720325,0.36613497288709596,1.3183731483115388,0.965938370327681,0.2874246997247565,0.6767810536804812
0.041,1.7702844961961577,1.0,2979.666789740459,0.3696904576326566,1.3181013615103816,0.966542743128006,0.2874049488402386,0.6773326651952855
0.0415,1.7698142370409709,1.0,2986.311120017018,0.3732259963231901,1.31783121501564,0.967127653047959,0.28738519795572076,0.6778804807451597
0.042,1.769343977885784,1.0,2992.782619530195,0.3767417010477286,1.3175626330070809,0.9676939416876927,0.28736544707120293,0.678424662364828
0.0425,1.768873718730597,1.0,2999.089447022154,0.38023768389530427,1.3172955396644712,0.9682424051347188,0.28734569618668504,0.6789653715211479
0.043000000000000003,1.7684034595754101,1.0,3005.2398132825897,0.38371405695494937,1.3170298591675775,0.9687737968882759,0.2873259453021672,0.6795027691204909
0.043500000000000004,1.7679332004202233,1.0,3011.241212695983,0.3871709302694347,1.3167655223252128,0.9692888307772589,0.2873061944176494,0.6800370021238364
0.044,1.7674629412650362,1.0,3017.0950899932845,0.39060839978320094,1.3165025126319176,0.9697881852460424,0.2872864435331315,0.6805681106431212
0.0445,1.7669926821098494,1.0,3022.8165379652246,0.3940265997245172,1.3162406958648245,0.9702725002184952,0.28726669264861365,0.6810963720629195
0.045,1.7665224229546626,1.0,3028.4097459956142,0.3974256342556169,1.3159800324867468,0.9707423855550901,0.2872469417640958,0.6816218720334006
0.0455,1.7660521637994755,1.0,3033.8789294543335,0.4008056075387337,1.3157204829604972,0.9711984201873126,0.287227190879578,0.6821446959157859
0.046,1.7655819046442887,1.0,3039.228328703426,0.4041666237361011,1.3154620077488888,0.9716411539847303,0.28720743999506015,0.6826649287852042
0.0465,1.7651116454891018,1.0,3044.462208138063,0.40750878700995274,1.3152045673147348,0.9720711094920632,0.28718768911054227,0.6831826554334529
0.047,1.7646413863339148,1.0,3049.5848552622665,0.4108322015225222,1.3149481221208479,0.9724887835464632,0.28716793822602443,0.6836979603716566
0.0475,1.764171127178728,1.0,3054.600579798774,0.41413697143604306,1.3146926326300414,0.9728946487843263,0.2871481873415066,0.6842109278328246
0.048,1.763700868023541,1.0,3059.5137128342512,0.4174232009127488,1.3144380593051286,0.9732891550461467,0.2871284364569887,0.6847216417743127
0.0485,1.763230608868354,1.0,3064.3286059990273,0.42069099411487315,1.3141843626089218,0.9736727306872065,0.2871086855724709,0.6852301858801835
0.049,1.7627603497131672,1.0,3069.0496306806876,0.42394045520464957,1.3139315030042347,0.9740457838012222,0.28708893468795305,0.6857366435634638
0.0495,1.7622900905579804,1.0,3073.6811772735437,0.4271716883443117,1.3136794409538801,0.9744087033634802,0.28706918380343516,0.6862410979683076
0.05,1.7618198314027933,1.0,3078.2276544620963,0.43038479769609306,1.3134281369206708,0.974761860299441,0.2870494329189173,0.6867436319720575
0.0505,1.7613495722476065,1.0,3082.6914053377686,0.43357987604365456,1.3131775691851948,0.9751056083652231,0.2870296820343995,0.6872442925996574
0.051000000000000004,1.7608793130924196,1.0,3087.073636096801,0.43675701395507033,1.3129277258393994,0.9754402856285741,0.2870099311498816,0.6877431071459874
0.051500000000000004,1.7604090539372326,1.0,3091.3837918080717,0.43991634864240486,1.3126785246705575,0.9757662155180924,0.28699018026536377,0.6882402430160829
0.052000000000000005,1.7599387947820457,1.0,3095.6238775588968,0.44305797529231683,1.3124299472222811,0.9760837064436583,0.28697042938084594,0.6887357400468197
0.0525,1.759468535626859,1.0,3099.79590700178,0.44618198909146495,1.312181975038182,0.9763930531799077,0.28695067849632805,0.6892296379504461
0.053,1.7589982764716718,1.0,3103.901902102926,0.4492884852265079,1.3119345896618726,0.9766945375865248,0.2869309276118102,0.6897219763153035
0.0535,1.758528017316485,1.0,3107.943892898235,0.4523775588841043,1.3116877726369647,0.9769884292845106,0.2869111767272924,0.6902127946065301
0.054,1.7580577581612982,1.0,3111.923917256845,0.455449305250913,1.3114415055070705,0.9772749862914742,0.2868914258427745,0.690702132166739
0.0545,1.757587499006111,1.0,3115.844020652725,0.45850381951359254,1.3111957698158019,0.9775544556187563,0.28687167495825666,0.6911900282166787
0.055,1.7571172398509243,1.0,3119.706255942971,0.4615411968588017,1.310950547106771,0.9778270738329793,0.28685192407373883,0.6916765218558666
0.0555,1.7566469806957374,1.0,3123.5126831544003,0.46456153247319915,1.3107058189235898,0.9780930675844216,0.28683217318922094,0.6921616520632061
0.056,1.7561767215405504,1.0,3127.265369277406,0.46756492154344353,1.3104615668098707,0.9783526541044405,0.2868124223047031,0.6926454576975771
0.0565,1.7557064623853635,1.0,3130.96638806727,0.4705514592561936,1.3102177723092252,0.9786060416739903,0.2867926714201853,0.6931279774984112
0.057,1.7552362032301767,1.0,3134.6178198530206,0.47352124079810803,1.3099744169652658,0.9788534300651425,0.2867729205356674,0.6936092500862358
0.0575,1.7547659440749899,1.0,3138.221751354304,0.47647436135584553,1.3097314823216044,0.979095010957368,0.28675316965114955,0.6940893139632068
0.058,1.7542956849198028,1.0,3141.780275505171,0.47941091611606473,1.309488949921853,0.9793309683302192,0.2867334187666317,0.6945682075136124
0.0585,1.753825425764616,1.0,3145.29549128567,0.48233100026542436,1.3092468013096237,0.9795614788339236,0.2867136678821139,0.6950459690043563
0.059000000000000004,1.7533551666094291,1.0,3148.769503561226,0.48523470899058313,1.3090050180285286,0.9797867121392997,0.28669391699759605,0.6955226365854231
0.059500000000000004,1.752884907454242,1.0,3152.2010948658694,0.48812209892985653,1.3087636097717579,0.9800068296566778,0.28667416611307817,0.6959981928594186
0.06,1.7524146482990552,1.0,3155.5943865378913,0.49099330012844333,1.3085225410865124,0.9802219900396719,0.28665441522856033,0.6964727093160754
0.0605,1.7519443891438684,1.0,3158.9515298022184,0.49384841428115006,1.308281793249066,0.9804323444157342,0.2866346643440425,0.6969462243339928
0.061,1.7514741299886813,1.0,3162.2734144630926,0.49668752711036424,1.3080413582338937,0.9806380374447895,0.2866149134595246,0.6974187551575829
0.0615,1.7510038708334945,1.0,3165.560932984309,0.4995107243384732,1.3078012280154707,0.9808392083152053,0.2865951625750068,0.6978903189801282
0.062,1.7505336116783077,1.0,3168.8149804339146,0.5023180916878645,1.3075613945682723,0.981035990992121,0.28657541169048895,0.69836093294394
0.0625,1.7500633525231206,1.0,3172.036454430861,0.5051097148809255,1.3073218498667738,0.9812285144527024,0.28655566080597106,0.6988306141405107
0.063,1.7495930933679338,1.0,3175.2262550929177,0.5078856796400437,1.3070825858854505,0.9814169029091026,0.2865359099214532,0.6992993796106663
0.0635,1.749122834212747,1.0,3178.385284985965,0.5106460716876066,1.3068435945987773,0.9816012760198553,0.2865161590369354,0.6997672463447105
0.064,1.7486525750575599,1.0,3181.5144490746216,0.5133909767460015,1.3066048679812297,0.9817817490903865,0.2864964081524175,0.7002342312825661
0.0645,1.748182315902373,1.0,3184.614654674856,0.5161204805376162,1.3063663980072828,0.981958433263276,0.28647665726789967,0.7007003513139132
0.065,1.7477120567471862,1.0,3187.686811407007,0.5188346687848377,1.3061281766514121,0.9821314356988663,0.28645690638338184,0.7011656232783221
0.0655,1.7472417975919992,1.0,3190.731831151361,0.5215336272100538,1.3058901958880924,0.9823008597467724,0.28643715549886395,0.7016300639653841
0.066,1.7467715384368123,1.0,3193.7506280044504,0.5242174415356518,1.3056524476917992,0.9824668051088163,0.2864174046143461,0.702093690114834
0.0665,1.7463012792816255,1.0,3196.7441182367097,0.5268861974840191,1.3054149240370077,0.9826293679938691,0.2863976537298283,0.7025565184166735
0.067,1.7458310201264384,1.0,3199.713220252089,0.5295399807775434,1.305177616898193,0.9827886412650613,0.2863779028453104,0.7030185655112875
0.0675,1.7453607609712516,1.0,3202.6588545489217,0.5321788771386119,1.3049405182498304,0.9829447145797852,0.28635815196079256,0.7034798479895563
0.068,1.7448905018160648,1.0,3205.5819436817574,0.5348029722896123,1.304703620066395,0.9830976745228915,0.28633840107627473,0.7039403823929655
0.0685,1.7444202426608777,1.0,3208.4834122250813,0.5374123519529318,1.3044669143223626,0.9832476047334583,0.28631865019175684,0.704400185213709
0.069,1.7439499835056909,1.0,3211.3634989516017,0.5400070837711843,1.3042303987558455,0.9833945851881217,0.286298899307239,0.7048592617119237
0.0695,1.743479724350504,1.0,3214.222541474884,0.5425872470013627,1.3039940702831263,0.9835386938573965,0.2862791484227212,0.7053176187267145
