Time [s],Phi [rad],STIM [ ],Fsee [N],Gamma [ ],Lcerel [ ],q [ ],Lmtc [m],fisomrel [ ]
0.0,1.8,1.0,20.306332814286925,0.0015629734095541615,1.3790856963072626,0.005624831558688972,0.288653,0.5417539376761411
0.0005,1.79999375,1.0,21.043257965958055,0.007163415673444222,1.3790059062245663,0.017806816078549736,0.2886527375,0.5419468209403548
0.001,1.799975,1.0,25.552808630032906,0.012732443884493677,1.3785532459231633,0.044151231347294526,0.28865195,0.5430403061257558
0.0015,1.79994375,1.0,37.74467686265757,0.01827023425063521,1.3775051294692617,0.08199619605760337,0.2886506375,0.5455672105369769
0.002,1.7999,1.0,65.52029500270214,0.02377696199149831,1.3756325731203511,0.12802131792800506,0.2886488,0.5500643176370665
0.0025,1.79984375,1.0,115.14929134010167,0.029252801344098134,1.3731032945651795,0.17892646148191424,0.28864643749999996,0.5561030981652069
0.003,1.7997750000000001,1.0,183.17285684031637,0.0346979255673021,1.3704096932430985,0.2320063735127939,0.28864354999999997,0.5624893467842911
0.0035,1.79969375,1.0,262.1209931356791,0.0401125069483281,1.3678504031429444,0.285202883744301,0.2886401375,0.5685142886083332
0.004,1.7996,1.0,347.0826151569752,0.04549671680609952,1.3654906292075237,0.33700271218952005,0.2886362,0.5740325253873992
0.0045000000000000005,1.7994937500000001,1.0,435.53986275548135,0.050850725513087405,1.3633156991530255,0.386378789927043,0.2886317375,0.5790870623372075
0.005,1.799375,1.0,526.0241746463014,0.05617470245499064,1.3613002062318134,0.4327133494226915,0.28862675,0.5837441357680139
0.0055,1.79924375,1.0,617.4984093836293,0.06146881611252469,1.3594227933748058,0.47570281963573285,0.2886212375,0.5880588507737619
0.006,1.7991000000000001,1.0,709.1237354924726,0.06673323393409707,1.357667418642105,0.5152676181999497,0.2886152,0.5920727603376699
0.006500000000000001,1.79894375,1.0,800.2305684289289,0.071968122610844,1.3560212184988572,0.5514769023610895,0.2886086375,0.5958191708500926
0.007,1.798775,1.0,890.2356540663844,0.07717364757021938,1.3544743218934974,0.5844923568580913,0.28860155,0.5993238364736775
0.0075,1.79859375,1.0,978.6972414323945,0.082349973816077,1.3530178492164597,0.6145266054188208,0.2885939375,0.6026096879291611
0.008,1.7984,1.0,1065.229332949915,0.08749726490621543,1.351644635437189,0.6418159902019402,0.2885858,0.6056953136742554
0.0085,1.79819375,1.0,1149.5320616141364,0.09261568357156418,1.3503482309602461,0.6666017874183604,0.2885771375,0.6085973120632209
0.009000000000000001,1.797975,1.0,1231.399557365406,0.09770539226238086,1.3491224906774597,0.6891186646392269,0.28856795,0.6113312707371399
0.0095,1.79774375,1.0,1310.6544115957013,0.10276655167391091,1.3479622381895038,0.7095884795605201,0.2885582375,0.6139103341650225
0.01,1.7975,1.0,1387.1734199663526,0.1077993217846799,1.346862674676441,0.7282165344001501,0.288548,0.6163465717994436
0.0105,1.79724375,1.0,1460.8907177965243,0.11280386192170254,1.3458191939225548,0.7451901567037649,0.2885372375,0.6186514193710282
0.011,1.796975,1.0,1531.7778498620833,0.11778033107373906,1.3448275190420356,0.7606787445100648,0.28852595000000003,0.6208354021406716
0.0115,1.79669375,1.0,1599.7996447707317,0.12272888591176866,1.3438841188847541,0.7748346804923912,0.2885141375,0.6229072473815571
0.012,1.7964,1.0,1664.9653863369278,0.12764968305056465,1.3429854776750514,0.7877941339785521,0.28850180000000003,0.624875516913319
0.0125,1.79609375,1.0,1727.307657820051,0.13254287806940335,1.3421282886855466,0.7996785168851355,0.2884889375,0.6267481954116687
0.013000000000000001,1.7957750000000001,1.0,1786.8924260895542,0.13740862713974036,1.3413092807697027,0.8105958323919983,0.28847555,0.628533083100983
0.0135,1.79544375,1.0,1843.7520393172845,0.14224708306614364,1.340525919753462,0.8206423328468866,0.2884616375,0.6302362818114118
0.014,1.7951000000000001,1.0,1897.9431516439197,0.14705839855564432,1.3397756906129956,0.8299035266857244,0.2884472,0.6318637757285137
0.0145,1.79474375,1.0,1949.5433020196895,0.15184272608581267,1.339056108807291,0.8384554005716307,0.2884322375,0.633421412884115
0.015,1.794375,1.0,1998.6365616082524,0.1566002173191865,1.338364848628351,0.8463655649898227,0.28841675,0.6349146339691106
0.0155,1.79399375,1.0,2045.3133207637497,0.16133102390354107,1.3376997160443889,0.853694226489355,0.2884007375,0.6363485388505712
0.016,1.7936,1.0,2089.637187535852,0.16603529423232297,1.3370589679717133,0.8604951557889521,0.2883842,0.6377272069829195
0.0165,1.7931937500000001,1.0,2131.6851632107173,0.17071317669897884,1.3364408613266336,0.8668163100791578,0.2883671375,0.6390546773909211
0.017,1.792775,1.0,2171.546515442714,0.17536481969695528,1.3358436530254585,0.8727005218640156,0.28834955,0.6403349512835315
0.0175,1.7923437500000001,1.0,2209.302320411455,0.17999036994705617,1.3352657959697505,0.8781861569123064,0.2883314375,0.6415715754233726
0.018000000000000002,1.7919,1.0,2245.058481662705,0.18458997616739517,1.3347055903361935,0.8833075454341772,0.2883128,0.6427683922120542
0.0185,1.79144375,1.0,2278.884108587105,0.1891637825953671,1.33416179399811,0.888095606650105,0.2882936375,0.6439282379845812
0.019,1.790975,1.0,2310.850546429026,0.19371193300421005,1.3336332126903916,0.8925781375452316,0.28827395,0.6450538245851019
0.0195,1.79049375,1.0,2341.0355047339426,0.1982345711671621,1.3331186521479288,0.8967801583214976,0.2882537375,0.6461478430840153
0.02,1.79,1.0,2369.5225208097627,0.20273184085746132,1.3326169181056131,0.9007242267720071,0.288233,0.647212964891339
0.0205,1.78949375,1.0,2396.3829257462276,0.20720388347695703,1.332126986344646,0.9044307505224809,0.2882117375,0.648251482594462
0.021,1.788975,1.0,2421.7071302283953,0.2116508435792418,1.331647691758929,0.9079181592892532,0.28818995000000003,0.6492659711446888
0.021500000000000002,1.78844375,1.0,2445.5540865971457,0.21607286012412122,1.331178213412223,0.9112032187328762,0.2881676375,0.6502582619932656
0.022,1.7879,1.0,2467.985813070454,0.2204700720319199,1.330717732789423,0.9143011406357662,0.2881448,0.6512301697022442
0.0225,1.78734375,1.0,2489.067368758139,0.22484261822296253,1.330265431375425,0.9172257479765892,0.28812143749999997,0.6521834975714429
0.023,1.786775,1.0,2508.8665953542327,0.22919063761757372,1.329820490655124,0.9199896209600181,0.28809755,0.6531200380867768
0.0235,1.78619375,1.0,2527.4433396439886,0.23351426655589627,1.3293821916175557,0.9226042430704925,0.28807313749999996,0.6540413643023465
0.024,1.7856,1.0,2544.8659095466837,0.2378136456198664,1.3289497559869805,0.9250800877591775,0.2880482,0.6549491646559502
0.0245,1.78499375,1.0,2561.185743470923,0.24208891002266947,1.3285225830756249,0.92742675721159,0.2880227375,0.6558447462031861
0.025,1.784375,1.0,2576.450787540464,0.24634019344150668,1.3281001201965363,0.9296530479839122,0.28799675,0.6567293084407475
0.025500000000000002,1.78374375,1.0,2590.7104282279706,0.25056762955357914,1.3276818146627627,0.9317670227270368,0.2879702375,0.6576040444493586
0.026000000000000002,1.7831000000000001,1.0,2604.0153688493456,0.2547713520360881,1.3272671137873515,0.9337760813715053,0.2879432,0.6584701410500533
0.0265,1.78244375,1.0,2616.417512831236,0.2589514945662347,1.3268554648833508,0.935687024539171,0.2879156375,0.6593287789409714
0.027,1.781775,1.0,2627.959309267994,0.2631081876752406,1.3264464129431908,0.9375061237959623,0.28788755,0.6601809294532008
0.0275,1.7810937500000001,1.0,2638.6913911484985,0.2672415665634545,1.3260394356297376,0.939239149050189,0.2878589375,0.661027699025007
0.028,1.7804,1.0,2648.659830251402,0.27135176374825143,1.3256340607668835,0.9408914290041385,0.2878298,0.6618700844020078
0.0285,1.77969375,1.0,2657.8978723690702,0.27543890699208234,1.3252299412355595,0.9424679009279915,0.2878001375,0.6627088179971765
0.029,1.778975,1.0,2666.439353089836,0.27950312405739813,1.3248267299166958,0.9439731296465865,0.28776995,0.6635446286085012
0.029500000000000002,1.7782437500000001,1.0,2674.3186460258457,0.28354454270664964,1.3244240796912234,0.9454113404324899,0.2877392375,0.6643782414429296
0.03,1.7775,1.0,2681.5706137134134,0.2875632907022878,1.3240216434400731,0.9467864486017411,0.287708,0.6652103781326344
0.0305,1.77674375,1.0,2688.2305611845404,0.29155949580676355,1.3236190740441753,0.9481020861786851,0.2876762375,0.6660417567435923
0.031,1.775975,1.0,2694.334192209524,0.2955332857825278,1.3232160243844613,0.9493616259519881,0.28764395,0.6668730917764775
0.0315,1.7751937500000001,1.0,2699.909745310663,0.2994847831743494,1.322812218837621,0.9505682104479786,0.2876111375,0.6677049469678951
0.032,1.7744,1.0,2704.993210402441,0.30341411974916643,1.322407313650423,0.9517247583035704,0.2875778,0.668538023293105
0.0325,1.77359375,1.0,2709.6077786652304,0.307321418036292,1.322001084442303,0.9528339994201471,0.2875439375,0.6693727730165209
0.033,1.772775,1.0,2713.7758162327464,0.31120679976438415,1.3215933162901325,0.9538984796741028,0.28750955,0.6702096266502384
0.0335,1.7719437500000002,1.0,2717.519877854671,0.31507038666210097,1.3211837942707836,0.9549205747219072,0.2874746375,0.6710490124292825
0.034,1.7711000000000001,1.0,2720.862687841737,0.31891230045810065,1.3207723034611283,0.9559025034038242,0.2874392,0.6718913562890365
0.0345,1.7702437500000001,1.0,2723.8271220353204,0.3227326628810413,1.3203586289380385,0.9568463399415597,0.2874032375,0.6727370818397327
0.035,1.7693750000000001,1.0,2726.4361908006836,0.326531595659581,1.319942555778386,0.9577540250510255,0.28736675,0.6735866103379924
0.035500000000000004,1.76849375,1.0,2728.707368339965,0.3303092153426469,1.3195239204656124,0.9586273802362756,0.2873297375,0.6744402559001434
0.036000000000000004,1.7676,1.0,2730.6606089674337,0.3340656415886231,1.3191025378122128,0.9594681111123637,0.2872922,0.6752983748782058
0.0365,1.76669375,1.0,2732.327402640271,0.33780100603039787,1.3186781186248455,0.9602778096618476,0.2872541375,0.676161532875411
0.037,1.765775,1.0,2733.720627608871,0.3415154232720154,1.3182505435485807,0.9610579833882076,0.28721555,0.6770299474841611
0.0375,1.76484375,1.0,2734.853218084411,0.3452090079175199,1.3178196932284891,0.9618100484649531,0.2871764375,0.6779038348091488
0.038,1.7639,1.0,2735.7381578096592,0.3488818745709555,1.3173854483096405,0.9625353362751063,0.28713679999999997,0.6787834094428842
0.0385,1.76294375,1.0,2736.388473945243,0.35253413783636633,1.3169476894371055,0.9632350994135624,0.28709663750000003,0.6796688844403065
0.039,1.761975,1.0,2736.8172312719503,0.3561659123177966,1.316506297255954,0.9639105172017991,0.28705595,0.6805604712924926
0.0395,1.7609937500000001,1.0,2737.037526709022,0.3597773126192904,1.3160611524112569,0.9645627007593801,0.2870147375,0.6814583798994523
0.04,1.76,1.0,2737.0624841480117,0.363368453344892,1.315612135548084,0.9651926976722335,0.286973,0.6823628185420211
0.0405,1.7589937500000001,1.0,2736.9052496029026,0.36693944909864545,1.315159127311506,0.9658014962937032,0.2869307375,0.6832739938528379
0.041,1.757975,1.0,2736.5789866754676,0.370490414484595,1.3147020083465926,0.9663900297108219,0.28688795,0.6841921107864196
0.0415,1.75694375,1.0,2736.09551642977,0.37402146169369493,1.314240671608232,0.9669591800392816,0.2868446375,0.6851173479183906
0.042,1.7559,1.0,2735.462047548171,0.37753269559954955,1.3137750520219864,0.9675097834387155,0.28680079999999997,0.6860497982417083
0.0425,1.75484375,1.0,2734.696709975701,0.3810242431446281,1.313304985423147,0.9680426262713305,0.2867564375,0.6869897516230918
0.043000000000000003,1.753775,1.0,2733.8061747096694,0.38449621133439815,1.3128304117256282,0.9685584580119512,0.28671155,0.68793728794507
0.043500000000000004,1.75269375,1.0,2732.7971173640335,0.3879487071743272,1.3123512708433436,0.9690579884424069,0.28666613750000003,0.6888924859775135
0.044,1.7516,1.0,2731.6762166927765,0.3913818376698827,1.3118675026902074,0.969541890145308,0.2866202,0.6898554233602472
0.0445,1.75049375,1.0,2730.450153194304,0.3947957098265323,1.3113790471801334,0.9700108008173371,0.2865737375,0.6908261765854344
0.045,1.7493750000000001,1.0,2729.125607795211,0.39819043064974335,1.3108858442270357,0.9704653254167632,0.28652675,0.69180482097973
0.0455,1.74824375,1.0,2727.7092606142164,0.4015661071449836,1.3103878337448283,0.9709060381585597,0.2864792375,0.6927914306862017
0.046,1.7471,1.0,2726.207789806576,0.40492284631772035,1.309884955647425,0.971333484369316,0.2864312,0.693786078646025
0.0465,1.7459437500000001,1.0,2724.627870487885,0.4082607551734212,1.30937714984874,0.9717481822130474,0.28638263750000004,0.6947888365799433
0.047,1.744775,1.0,2722.9761737383224,0.4115799407175537,1.3088643562626874,0.972150624298033,0.28633355,0.6957997749695017
0.0475,1.74359375,1.0,2721.2593656871654,0.41488050995558534,1.308346514803181,0.9725412791739306,0.28628393750000003,0.6968189630380475
0.048,1.7424,1.0,2719.4800680970548,0.4181625481199443,1.3078236021608478,0.97292059258009,0.2862338,0.6978463965329085
0.0485,1.74119375,1.0,2717.6495014706143,0.42142618770316154,1.3072955166867413,0.9732889893621953,0.2861831375,0.6988822239293009
0.049,1.739975,1.0,2715.771238335117,0.4246715303611003,1.3067622263032672,0.9736468751581224,0.28613195,0.6999264557189512
0.0495,1.73874375,1.0,2713.848320778452,0.42789867519844343,1.3062237037361746,0.9739946365789048,0.2860802375,0.7009790920602665
0.05,1.7375,1.0,2711.883787835322,0.43110772131987385,1.3056799217112127,0.9743326422565858,0.286028,0.7020401322150092
0.0505,1.73624375,1.0,2709.880675245691,0.43429876783007443,1.3051308529541301,0.9746612438385178,0.2859752375,0.7031095745391742
0.051000000000000004,1.734975,1.0,2707.842015229822,0.4374719138337281,1.3045764701906761,0.974980776918114,0.28592195,0.7041874164738144
0.051500000000000004,1.73369375,1.0,2705.7708362798185,0.44062725843551764,1.3040167461466,0.9752915619066322,0.2858681375,0.7052736545358222
0.052000000000000005,1.7324,1.0,2703.6701629675076,0.443764900740126,1.3034516535476501,0.9755939048502148,0.2858138,0.7063682843086636
0.0525,1.73109375,1.0,2701.5430157690043,0.44688493985223593,1.3028811651195762,0.9758880981960744,0.28575893750000003,0.7074713004330613
0.053,1.729775,1.0,2699.3924109057784,0.44998747487653046,1.302305253588127,0.9761744215113936,0.28570355000000003,0.7085826965976347
0.0535,1.72844375,1.0,2697.2213602019065,0.4530726049176924,1.3017238916790512,0.9764531421582477,0.2856476375,0.7097024655294903
0.054,1.7271,1.0,2695.032870958293,0.45614042908040464,1.3011370521180985,0.9767245159275867,0.2855912,0.7108305989847629
0.0545,1.7257437500000001,1.0,2692.8299458429365,0.45919104646935005,1.3005447076310173,0.9769887876350878,0.2855342375,0.7119670877391147
0.055,1.724375,1.0,2690.6135351476914,0.46222454005197344,1.2999468496899365,0.9772461912529813,0.28547675,0.7131118857177381
0.0555,1.72299375,1.0,2688.3851241102197,0.46524100059853685,1.29934346485454,0.9774969513705424,0.2854187375,0.7142649555130061
0.056,1.7216,1.0,2686.1509985737753,0.4682405603702446,1.298734495676749,0.9777412844731803,0.2853602,0.7154263427702756
0.0565,1.72019375,1.0,2683.912125451361,0.47122330945737506,1.2981199333692532,0.9779793969584339,0.28530113749999997,0.7165959991323725
0.057,1.718775,1.0,2681.669470077234,0.47418933795020657,1.2974997691447427,0.9782114867547621,0.28524155,0.7177738755064567
0.0575,1.71734375,1.0,2679.4239961974286,0.4771387359390174,1.2968739942159069,0.9784377437352358,0.2851814375,0.7189599220608855
0.058,1.7159,1.0,2677.1766659623154,0.48007159351408596,1.296242599795436,0.9786583501078092,0.2851208,0.7201540882220698
0.0585,1.71444375,1.0,2674.92843992094,0.4829880007656905,1.2956055770960198,0.9788734807836752,0.2850596375,0.7213563226713301
0.059000000000000004,1.7129750000000001,1.0,2672.6802770164586,0.4858880477841094,1.294962917330348,0.9790833037250977,0.28499795,0.7225665733417419
0.059500000000000004,1.71149375,1.0,2670.4331345840565,0.4887718246596209,1.2943146117111106,0.9792879802740158,0.2849357375,0.7237847874149815
0.06,1.71,1.0,2668.1879683500692,0.4916394214825034,1.2936606514509974,0.979487665462626,0.284873,0.7250109113181626
0.0605,1.7084937500000001,1.0,2665.9457324330024,0.49449092834303526,1.2930010277626982,0.979682508307059,0.2848097375,0.7262448907206713
0.061,1.7069750000000001,1.0,2663.7073793462387,0.49732643533149473,1.2923357318589028,0.9798726520851966,0.28474595,0.7274866705309939
0.0615,1.7054437500000001,1.0,2661.4738600023193,0.5001460325381601,1.2916647549523013,0.9800582345995971,0.2846816375,0.7287361948935398
0.062,1.7039,1.0,2659.246123719559,0.50294981005331,1.2909880882555833,0.9802393884264372,0.2846168,0.7299934071854619
0.0625,1.70234375,1.0,2657.025118229139,0.5057378579672223,1.2903057229814388,0.980416241151309,0.2845514375,0.7312582500134699
0.063,1.7007750000000001,1.0,2654.8117896852086,0.5085102663701756,1.2896176503425574,0.9805889155926631,0.28448555,0.7325306652106383
0.0635,1.69919375,1.0,2652.607082676117,0.5112671253524482,1.2889238615516292,0.9807575300136302,0.28441913750000003,0.7338105938332111
0.064,1.6976,1.0,2650.411940236901,0.5140085250043185,1.288224347821344,0.9809221983229046,0.2843522,0.7350979761574009
0.0645,1.69599375,1.0,2648.2257039691217,0.516734511296326,1.2875191151283039,0.9810830278496763,0.2842847375,0.7363927246040726
0.065,1.694375,1.0,2646.050298162061,0.5194452149210091,1.2868081456163636,0.9812401268794492,0.28421675,0.7376947946686951
0.0655,1.69274375,1.0,2643.886331185423,0.5221407331434113,1.286091433553797,0.9813935980141413,0.2841482375,0.7390041187727467
0.066,1.6911,1.0,2641.733829922853,0.5248211465960829,1.2853689785726239,0.9815435392965551,0.2840792,0.7403206188406165
0.0665,1.6894437500000001,1.0,2639.5928212567705,0.5274865359115748,1.2846407803048643,0.9816900452987573,0.2840096375,0.7416442161589222
0.067,1.687775,1.0,2637.4633320685875,0.5301369817224374,1.283906838382538,0.9818332072679428,0.28393955,0.7429748313763758
0.0675,1.68609375,1.0,2635.3453892400894,0.5327725646612212,1.2831671524376647,0.9819731132651678,0.2838689375,0.7443123845036492
0.068,1.6844000000000001,1.0,2633.239019653919,0.5353933653604771,1.2824217221022645,0.982109848297348,0.2837978,0.7456567949132376
0.0685,1.68269375,1.0,2631.1442501943206,0.5379994644527553,1.2816705470083571,0.9822434944428929,0.2837261375,0.7470079813393268
0.069,1.680975,1.0,2629.0611077483036,0.5405909425706066,1.2809136267879624,0.9823741309713278,0.28365395,0.7483658618776574
0.0695,1.67924375,1.0,2626.989619205944,0.5431678803465815,1.2801509610731003,0.9825018344572239,0.28358123749999997,0.7497303539853898
0.07,1.6775,1.0,2624.9298114617777,0.5457303584132306,1.2793825494957907,0.9826266788887486,0.283508,0.7511013744809697
0.07050000000000001,1.67574375,1.0,2622.8817114151734,0.5482784574031044,1.2786083916880533,0.9827487357711244,0.2834342375,0.7524788395439933
0.07100000000000001,1.673975,1.0,2620.8453459713455,0.5508122579487537,1.277828487281908,0.9828680742252655,0.28335995,0.7538626647150726
0.07150000000000001,1.67219375,1.0,2618.820742042055,0.5533318406827287,1.2770428359093748,0.9829847610818462,0.2832851375,0.755252764895699
0.07200000000000001,1.6704,1.0,2616.807926546724,0.5558372862375803,1.2762514372024736,0.983098860971048,0.2832098,0.7566490543481116
0.0725,1.66859375,1.0,2614.8069264129495,0.5583286752458589,1.275454290793224,0.9832104364082009,0.2831339375,0.7580514466951593
0.073,1.6667750000000001,1.0,2612.817768577531,0.5608060883401151,1.274651396313646,0.9833195478755418,0.28305755,0.7594598549201674
0.0735,1.66494375,1.0,2610.840479987243,0.5632696061528997,1.2738427533957597,0.9834262539002824,0.2829806375,0.7608741913668021
0.074,1.6631,1.0,2608.8750875995784,0.565719309316763,1.2730283616715845,0.9835306111291813,0.2829032,0.7622943677389364
0.0745,1.6612437500000001,1.0,2606.9216065575633,0.5681552778091028,1.272208220883134,0.9836326743676511,0.2828252375,0.763720294909563
0.075,1.659375,1.0,2604.9801293035607,0.5705775848988522,1.2713823300534843,0.9837324962751927,0.28274675,0.7651518843582324
0.0755,1.65749375,1.0,2603.0503398156275,0.5729863056398827,1.2705506920068268,0.9838301281164109,0.2826677375,0.7665890403527651
