Time [s],Phi [rad],STIM [ ],Fsee [N],Gamma [ ],Lcerel [ ],q [ ],Lmtc [m],fisomrel [ ]
0.0,1.8,1.0,18.06274868465073,0.0003132945416695651,1.379329051091412,0.005025456809067064,0.288653,0.5411654049683958
0.0005,1.79999375,1.0,18.46966994409662,0.005920746515892731,1.3792810137456901,0.013803937655932616,0.2886527375,0.5412816090945205
0.001,1.799975,1.0,22.036395145062023,0.011496745118049635,1.378895812589634,0.03720653396787747,0.28865195,0.5422128928636509
0.0015,1.79994375,1.0,31.976958171780026,0.017041466777687087,1.377969425669031,0.07277762252756573,0.2886506375,0.5444487029956089
0.002,1.7999,1.0,55.46260305151598,0.022555086932485598,1.3762472047035572,0.11728745926534175,0.2886488,0.5485906918136465
0.0025,1.79984375,1.0,100.2164676428042,0.02803778003741571,1.373787076224845,0.16736555379657728,0.28864643749999996,0.5544745588242409
0.003,1.7997750000000001,1.0,164.94837279633484,0.03348971957004495,1.3710659009038073,0.22015644785819202,0.28864354999999997,0.5609378099057585
0.0035,1.79969375,1.0,242.16965633254458,0.03891107803223065,1.3684471895741501,0.27347129853345564,0.2886401375,0.5671131010679538
0.004,1.7996,1.0,326.2268479730538,0.04430202696013857,1.366030479437975,0.3256820438957822,0.2886362,0.5727732401862443
0.0045000000000000005,1.7994937500000001,1.0,414.18829646682394,0.04966273692970627,1.3638076553030187,0.37565936885009393,0.2886317375,0.5779463965016579
0.005,1.799375,1.0,504.42727645647085,0.054993377548220486,1.361752066171042,0.4227025264868623,0.28862675,0.5827023042760906
0.0055,1.79924375,1.0,595.8437839571777,0.060294117492445426,1.3598403147315261,0.46644625140425944,0.2886212375,0.5871012369066206
0.006,1.7991000000000001,1.0,687.5722366019831,0.06556512447659418,1.3580547135995598,0.5067681474081346,0.2886152,0.5911888458837284
0.006500000000000001,1.79894375,1.0,778.9003957312043,0.07080656525817887,1.3563817121150181,0.54370991094601,0.2886086375,0.5950002400190317
0.007,1.798775,1.0,869.243408360662,0.0760186057593395,1.3548104284258973,0.5774165054605938,0.28860155,0.598563647577268
0.0075,1.79859375,1.0,958.1103652929743,0.0812014107116169,1.3533320127117474,0.6080922052682495,0.2885939375,0.6019020688554387
0.008,1.7984,1.0,1045.1274272977087,0.08635514439489193,1.351938513109963,0.6359697018450523,0.2885858,0.6050359789220292
0.0085,1.79819375,1.0,1129.9741680877735,0.09147996965295797,1.3506233420252156,0.6612903756921507,0.2885771375,0.6079823725352955
0.009000000000000001,1.797975,1.0,1212.4068709534197,0.09657604847743362,1.3493805138145443,0.6842911935294557,0.28856795,0.6107565579294805
0.0095,1.79774375,1.0,1292.26332695947,0.10164354263337079,1.3482043311757588,0.7051970665272163,0.2885582375,0.6133729073674825
0.01,1.7975,1.0,1369.4078313754285,0.1066826121864425,1.3470899220290136,0.7242171519638984,0.288548,0.6158437054397108
0.0105,1.79724375,1.0,1443.752046210339,0.11169341628692106,1.3460327613711045,0.7415428664818701,0.2885372375,0.6181802552866335
0.011,1.796975,1.0,1515.2514048719681,0.11667611345785231,1.345028588035226,0.7573475784938489,0.28852595000000003,0.620393091321487
0.0115,1.79669375,1.0,1583.9084861416497,0.12163086238574332,1.3440732629277856,0.7717871492248549,0.2885141375,0.6224923142162848
0.012,1.7964,1.0,1649.7100221227636,0.12655781901185922,1.3431634307936409,0.7850013157396779,0.28850180000000003,0.6244861599679148
0.0125,1.79609375,1.0,1712.673469210138,0.13145713887390403,1.3422958578007405,0.797114696358814,0.2884889375,0.6263824800142068
0.013000000000000001,1.7957750000000001,1.0,1772.8461728458187,0.13632897712065373,1.3414673890669078,0.8082381932358766,0.28847555,0.6281888463132304
0.0135,1.79544375,1.0,1830.2941177351113,0.14117348871781413,1.3406750304481883,0.818470431605687,0.2884616375,0.6299123840214478
0.014,1.7951000000000001,1.0,1885.0752708622347,0.14599082686551668,1.3399161952976253,0.8278991772593788,0.2884472,0.6315592480050596
0.0145,1.79474375,1.0,1937.2448910850173,0.15078114316524263,1.3391885906872685,0.8366025081708506,0.2884322375,0.6331348850369409
0.015,1.794375,1.0,1986.8791928535682,0.15554458921847317,1.3384899236891683,0.8446498270526334,0.28841675,0.6346446797222609
0.0155,1.79399375,1.0,2034.0566127888337,0.1602813156006263,1.3378180795020969,0.8521029349929031,0.2884007375,0.636093575132382
0.016,1.7936,1.0,2078.8820566653762,0.16499147384262336,1.3371708415505061,0.8590168398333944,0.2883842,0.6374866824238632
0.0165,1.7931937500000001,1.0,2121.427348029574,0.16967521214061707,1.3365464954240394,0.865440741700121,0.2883671375,0.6388279860261386
0.017,1.792775,1.0,2161.763856497977,0.174332677848118,1.335943457420667,0.8714186060313177,0.28834955,0.6401211524752822
0.0175,1.7923437500000001,1.0,2199.973792345989,0.17896401831863673,1.3353601438383598,0.876989743991053,0.2883314375,0.6413698148109523
0.018000000000000002,1.7919033935663906,1.0,2236.296812803922,0.18356938020362062,1.33479502207562,0.8821893727756837,0.2883129425297884,0.6425774655401313
0.0185,1.7914626043839312,1.0,2271.186409944235,0.1881489103260667,1.334246948682881,0.8870491825076993,0.2882944293841251,0.6437467388271159
0.019,1.7910218152014719,1.0,2304.707799296603,0.1927027538339308,1.3337150780069584,0.891597713458382,0.2882759162384618,0.6448796132360002
0.0195,1.7905810260190125,1.0,2336.903087332977,0.1972310535997697,1.3331986440688217,0.8958606594301702,0.2882574030927985,0.6459778813478911
0.02,1.790140236836553,1.0,2367.81817518428,0.20173395249614032,1.33269688088944,0.8998611734860744,0.2882388899471352,0.6470433209388962
0.0205,1.7896994476540937,1.0,2397.502502983671,0.20621159339559944,1.3322090224897825,0.9036201533068242,0.28822037680147194,0.6480776957155077
0.021,1.7892586584716341,1.0,2425.9964773627307,0.21066411592302345,1.3317344217683398,0.9071565152500403,0.28820186365580863,0.6490825045090092
0.021500000000000002,1.7888178692891747,1.0,2453.3654619872177,0.2150916661589367,1.3312722190898507,0.9104873470916157,0.2881833505101453,0.650059683862519
0.022,1.7883770801067154,1.0,2479.6507748740255,0.21949438324376383,1.3308218134790966,0.913628195639369,0.28816483736448206,0.6510106113724549
0.0225,1.787936290924256,1.0,2504.8896283916656,0.22387240462728156,1.330382664716645,0.9165931934508069,0.28814632421881875,0.6519365269602326
0.023,1.7874955017417966,1.0,2529.12125560546,0.2282258677592665,1.3299542325830642,0.9193951969300793,0.28812781107315544,0.6528386619914579
0.0235,1.7870547125593372,1.0,2552.3867786840474,0.23255491008949541,1.3295359768589214,0.9220459192255679,0.2881092979274922,0.6537182396544527
0.024,1.7866139233768776,1.0,2574.729083775992,0.23685966906774486,1.329127357324785,0.9245560477023392,0.28809078478182887,0.6545764753201635
0.0245,1.7861731341944183,1.0,2596.1924675489286,0.2411402820566565,1.3287278359496568,0.9269353482705963,0.28807227163616556,0.6554145722954576
0.025,1.7857323450119589,1.0,2616.8070733684276,0.24539688127222553,1.3283370202894587,0.929192779649838,0.2880537584905023,0.6562334218987232
0.025500000000000002,1.7852915558294995,1.0,2636.628086228207,0.24962960871644177,1.3279542972840745,0.9313365183092915,0.288035245344839,0.6570343714697349
0.026000000000000002,1.7848507666470401,1.0,2655.6834350440035,0.2538385957214559,1.327579318465912,0.9333741049089325,0.2880167321991757,0.6578182082697981
0.0265,1.7844099774645807,1.0,2674.0020035152374,0.25802397361941865,1.327211735367378,0.9353124671312814,0.2879982190535124,0.6585857150442251
0.027,1.7839691882821211,1.0,2691.6135716391473,0.26218587374248076,1.326851199520881,0.9371579777461305,0.2879797059078491,0.6593376701905653
0.0275,1.7835283990996618,1.0,2708.5487599176413,0.2663244274227929,1.3264973624588277,0.9389165064685483,0.2879611927621858,0.6600748479190973
0.028,1.7830876099172024,1.0,2724.838976255605,0.27043976599250574,1.3261498757136259,0.940593466340729,0.2879426796165225,0.660798018405569
0.0285,1.782646820734743,1.0,2740.5163655520805,0.2745320207837701,1.3258083908176832,0.9421938552754542,0.2879241664708592,0.6615079479361984
0.029,1.7822060315522836,1.0,2755.604095132719,0.2786013180501997,1.325472646754168,0.9437223036356694,0.2879056533251959,0.6622052175218004
0.029500000000000002,1.7817652423698243,1.0,2770.1391260781065,0.2826477929933339,1.3251422629430727,0.9451830834272582,0.2878871401795326,0.6628906532151078
0.03,1.7813244531873647,1.0,2784.146650278027,0.2866715738935113,1.3248169705200123,0.946580165083827,0.2878686270338693,0.6635648458616117
0.0305,1.7808836640049053,1.0,2797.646403792225,0.29067278569374416,1.324496553910544,0.9479172368717632,0.287850113888206,0.6642282732786398
0.031,1.780442874822446,1.0,2810.6585175759856,0.294651553337045,1.324180797540225,0.949197723129601,0.2878316007425427,0.6648814110528813
0.0315,1.7800020856399865,1.0,2823.2034946914896,0.29860800176642616,1.323869485834613,0.9504248064580822,0.2878130875968794,0.6655247326059421
0.032,1.7795612964575271,1.0,2835.302188548598,0.3025422559249,1.3235624032192648,0.951601447785726,0.28779457445121615,0.6661587092569321
0.0325,1.7791205072750678,1.0,2846.975782176072,0.3064544407554789,1.3232593341197378,0.9527304045362376,0.28777606130555283,0.6667838102820909
0.033,1.7786797180926082,1.0,2858.245768523773,0.3103446812011752,1.3229600629615896,0.9538142470977462,0.2877575481598895,0.6674005029714479
0.0335,1.7782389289101488,1.0,2869.1281837400898,0.31421309720048085,1.322664425130804,0.9548553782061103,0.28773903501422626,0.6680091478157137
0.034,1.7777981397276894,1.0,2879.644575780344,0.31805981529248406,1.3223722092853805,0.9558560383219946,0.28772052186856295,0.668610199873925
0.0345,1.77735735054523,1.0,2889.8162811923858,0.32188496190244903,1.3220832082104568,0.9568183221011205,0.28770200872289964,0.6692041039185572
0.035,1.7769165613627707,1.0,2899.655783954756,0.32568865517053214,1.3217972948516288,0.9577441957292452,0.2876834955772364,0.6697911384763198
0.035500000000000004,1.7764757721803113,1.0,2909.175731095169,0.32947101323688976,1.3215143421544924,0.9586355002451645,0.28766498243157307,0.6703715809597067
0.036000000000000004,1.7760349829978517,1.0,2918.3889241717516,0.3332321542416783,1.3212342230646439,0.9594939609499746,0.28764646928590976,0.6709457076915006
0.0365,1.7755941938153923,1.0,2927.308311111916,0.33697219632505404,1.3209568105276788,0.960321196006251,0.2876279561402465,0.6715137939282516
0.037,1.775153404632933,1.0,2935.9469784084345,0.34069125762717345,1.3206819774891934,0.9611187243052167,0.2876094429945832,0.6720761138827185
0.0375,1.7747126154504735,1.0,2944.3181436748487,0.3443894562881929,1.3204095968947833,0.9618879726717009,0.2875909298489199,0.6726329407452885
0.038,1.7742718262680142,1.0,2952.435148557636,0.34806691044826876,1.3201395416900448,0.9626302824693552,0.2875724167032566,0.6731845467043626
0.0385,1.7738310370855548,1.0,2960.3113667548773,0.351723738115698,1.3198716855646562,0.9633469157052744,0.2875539035575933,0.6737312014477861
0.039,1.7733902479030954,1.0,2967.9504038323257,0.3553600434521934,1.3196059883186073,0.9640390657641814,0.28753539041193,0.674272998185224
0.0395,1.7729494587206358,1.0,2975.3746686914496,0.3589759613210628,1.3193422465306714,0.9647078481422668,0.28751687726626673,0.6748103621834944
0.04,1.7725086695381764,1.0,2982.5914314050974,0.3625716025324199,1.31908038966977,0.9653543218279265,0.2874983641206034,0.6753434468373333
0.0405,1.772067880355717,1.0,2989.608025555481,0.3661470778963782,1.3188203472048248,0.9659794859559423,0.2874798509749401,0.6758724050006217
0.041,1.7716270911732577,1.0,2996.4318453415394,0.3697024982230514,1.3185620486047576,0.966584283820667,0.28746133782927685,0.6763973889947069
0.0415,1.7711863019907983,1.0,3003.0703427965977,0.373237974322553,1.31830542333849,0.9671696065797902,0.28744282468361354,0.676918550616405
0.042,1.7707455128083387,1.0,3009.5310251170436,0.3767536170049967,1.318050400874944,0.9677362966755054,0.28742431153795023,0.6774360411456868
0.0425,1.7703047236258793,1.0,3015.821452100128,0.3802495370804961,1.3177969106830412,0.9682851509973397,0.2874057983922869,0.6779500113530459
0.043000000000000003,1.76986393444342,1.0,3021.949233693095,0.3837258453591647,1.317544882231703,0.9688169238085875,0.2873872852466236,0.6784606115065492
0.043500000000000004,1.7694231452609606,1.0,3027.9220276521237,0.3871826526511162,1.3172942449898517,0.9693323294562439,0.28736877210096035,0.6789679913785713
0.044,1.7689823560785012,1.0,3033.7475373112206,0.39062006976646413,1.3170449284264087,0.9698320448824682,0.28735025895529703,0.679472300252211
0.0445,1.7685415668960418,1.0,3039.4335094625817,0.39403820751532215,1.3167968620102959,0.970316711953953,0.2873317458096337,0.6799736869273902
0.045,1.7681007777135824,1.0,3044.979591876651,0.39743715528123913,1.3165500452662735,0.9707869418485382,0.28731323266397046,0.6804721582969394
0.0455,1.7676599885311228,1.0,3050.401172660649,0.4008170498200841,1.3163043424710064,0.9712433113627092,0.28729471951830715,0.6809679940496949
0.046,1.7672191993486634,1.0,3055.702315309603,0.404177994472759,1.316059715747419,0.9716863708175032,0.28727620637264384,0.6814612757706018
0.0465,1.766778410166204,1.0,3060.8869373447574,0.407520092096499,1.3158161286704546,0.9721166432310004,0.2872576932269806,0.6819520818609912
0.047,1.7663376209837447,1.0,3065.9589780291626,0.4108434455485393,1.3155735448150574,0.9725346258957638,0.28723918008131727,0.6824404904746779
0.0475,1.7658968318012853,1.0,3070.9223975435666,0.4141481576861152,1.315331927756171,0.9729407918862928,0.28722066693565396,0.6829265795203346
0.048,1.765456042618826,1.0,3075.781176190435,0.41743433136646185,1.3150912410687388,0.9733355914645169,0.2872021537899907,0.6834104266637818
0.0485,1.7650152534363663,1.0,3080.539313627805,0.42070206944681443,1.314851448327705,0.9737194533911099,0.2871836406443274,0.6838921093301867
0.049,1.764574464253907,1.0,3085.200828133084,0.42395147478440826,1.3146125131080129,0.9740927861497518,0.2871651274986641,0.6843717047061877
0.0495,1.7641336750714476,1.0,3089.769755895457,0.42718265023647845,1.3143743989846064,0.9744559790908626,0.2871466143530008,0.6848492897419245
0.05,1.7636928858889882,1.0,3094.250150337852,0.43039569866026023,1.3141370695324293,0.9748094035007929,0.2871281012073375,0.6853249411529901
0.0505,1.7632520967065288,1.0,3098.6460814691636,0.43359072291298884,1.3139004883264251,0.9751534136019596,0.2871095880616742,0.6857987354222954
0.051000000000000004,1.7628113075240694,1.0,3102.96163526484,0.43676782585189955,1.313664618941538,0.9754883474889667,0.28709107491601094,0.6862707488018488
0.051500000000000004,1.7623705183416098,1.0,3107.2009130771007,0.43992711033422743,1.3134294249527112,0.9758145280053444,0.2870725617703476,0.686741057314454
0.052000000000000005,1.7619297291591505,1.0,3111.3611685557985,0.44306864054086553,1.313194928359459,0.9761322631328009,0.2870540486246843,0.6872096200571216
0.0525,1.761488939976691,1.0,3115.4531636190427,0.4461925652811991,1.3129610362011535,0.9764418489894516,0.28703553547902105,0.6876766257012128
0.053,1.7610481507942317,1.0,3119.4794416688246,0.44929898261941165,1.3127277256620633,0.9767435676817183,0.28701702233335774,0.6881421224561011
0.0535,1.7606073616117723,1.0,3123.441850571416,0.45238798639518035,1.3124949799150007,0.9770376889983022,0.28699850918769443,0.688606146453837
0.054,1.760166572429313,1.0,3127.3422453838534,0.4554596704481825,1.3122627821327781,0.9773244711211325,0.28697999604203117,0.6890687337203353
0.0545,1.7597257832468534,1.0,3131.1824881459006,0.45851412861809515,1.3120311154882078,0.9776041612224194,0.28696148289636786,0.6895299201759717
0.055,1.759284994064394,1.0,3134.9644476793887,0.4615514547445956,1.3117999631541017,0.9778769960261524,0.28694296975070455,0.6899897416361633
0.0555,1.7588442048819346,1.0,3138.689999392911,0.46457174266736107,1.3115693083032722,0.9781432023364467,0.28692445660504123,0.6904482338119275
0.056,1.7584034156994752,1.0,3142.3610250930465,0.46757508622606875,1.3113391341085314,0.9784029975349475,0.286905943459378,0.6909054323104269
0.0565,1.7579626265170158,1.0,3145.9794128017206,0.4705615792603958,1.3111094237426917,0.9786565900493495,0.28688743031371466,0.6913613726354921
0.057,1.7575218373345565,1.0,3149.547056580511,0.47353131561001954,1.3108801603785651,0.9789041797949278,0.28686891716805135,0.6918160901881303
0.0575,1.7570810481520969,1.0,3153.065856360353,0.4764843891146171,1.310651327188964,0.9791459585908434,0.28685040402238804,0.6922696202670131
0.058,1.7566402589696375,1.0,3156.53771777812,0.4794208936138657,1.3104229073467002,0.9793821105528547,0.2868318908767248,0.6927219980689476
0.0585,1.7561994697871781,1.0,3159.964552018813,0.4823409229474425,1.3101948840245865,0.9796128124639517,0.28681337773106147,0.6931732586893282
0.059000000000000004,1.7557586806047187,1.0,3163.3482756652247,0.48524457095502477,1.3099672403954348,0.9798382341243165,0.28679486458539816,0.6936234371225726
0.059500000000000004,1.7553178914222594,1.0,3166.6908105526554,0.48813193147628975,1.3097399596320574,0.9800585386819219,0.2867763514397349,0.6940725682625366
0.06,1.7548771022398,1.0,3169.9940836303867,0.4910030983509145,1.3095130249072664,0.9802738829449789,0.2867578382940716,0.6945206869029142
0.0605,1.7544363130573406,1.0,3173.2597042470416,0.4938581610589155,1.3092864221132892,0.9804844174795861,0.2867393251484083,0.694967822373598
0.061,1.753995523874881,1.0,3176.4860210215593,0.49669717106419053,1.3090601646521598,0.980690285604492,0.286720812002745,0.6954139496976399
0.0615,1.7535547346924216,1.0,3179.678434266023,0.49952027828466206,1.3088342065184724,0.9808916296693767,0.2867022988570817,0.6958591609824795
0.062,1.7531139455099622,1.0,3182.8377532432614,0.5023275670781363,1.3086085404496253,0.9810885836562414,0.2866837857114184,0.6963034718161736
0.0625,1.7526731563275029,1.0,3185.9647895062903,0.5051191218024195,1.3083831591830168,0.981281276560922,0.28666527256575514,0.6967468977433102
0.063,1.7522323671450435,1.0,3189.0603568517954,0.5078950268153181,1.308158055456045,0.9814698326158302,0.2866467594200918,0.6971894542651438
0.0635,1.7517915779625841,1.0,3192.1252712748956,0.5106553664746383,1.3079332220061082,0.9816543715011505,0.2866282462744285,0.6976311568397222
0.064,1.7513507887801245,1.0,3195.1603509253187,0.5134002251381865,1.3077086515706047,0.981835008545168,0.28660973312876525,0.6980720208820159
0.0645,1.7509099995976651,1.0,3198.1664160638265,0.5161296871637688,1.3074843368869324,0.9820118549143658,0.28659121998310194,0.6985120617640416
0.065,1.7504692104152058,1.0,3201.1442890211256,0.5188438369091918,1.3072602706924898,0.9821850177938818,0.28657270683743863,0.6989512948149805
0.0655,1.7500284212327464,1.0,3204.094794157018,0.5215427587322614,1.3070364457246753,0.9823546005588824,0.28655419369177537,0.6993897353212964
0.066,1.749587632050287,1.0,3207.018757820656,0.5242265369907843,1.3068128547208868,0.9825207029373717,0.28653568054611206,0.6998273985268495
0.0665,1.7491468428678276,1.0,3209.91700831278,0.5268952560425666,1.306589490418523,0.9826834211649194,0.28651716740044875,0.7002642996330053
0.067,1.748706053685368,1.0,3212.79037584842,0.5295490002454145,1.3063663455549814,0.9828428481317689,0.28649865425478543,0.7007004537987427
0.0675,1.7482652645029086,1.0,3215.6396925210047,0.5321878539571345,1.3061434128676608,0.9829990735227442,0.2864801411091222,0.7011358761407558
0.068,1.7478244753204493,1.0,3218.4657922673705,0.5348119015355328,1.3059206850939593,0.9831521839503641,0.28646162796345886,0.7015705817335542
0.0685,1.7473836861379899,1.0,3221.269510834566,0.5374212273384157,1.3056981549712752,0.9833022630815306,0.28644311481779555,0.7020045856095607
0.069,1.7469428969555305,1.0,3224.0516857472676,0.5400159157235894,1.3054758152370065,0.9834493917581506,0.2864246016721323,0.7024379027592036
0.0695,1.7465021077730711,1.0,3226.813156276464,0.5425960510488604,1.3052536586285515,0.9835936481120167,0.286406088526469,0.7028705481310069
