Time [s],Phi [rad],STIM [ ],Fsee [N],Gamma [ ],Lcerel [ ],q [ ],Lmtc [m],fisomrel [ ]
0.0,1.8,1.0,17.969624879074036,4.188233857204463e-05,1.3793394698750243,0.005000462252079084,0.288653,0.5411401996011975
0.0005,1.79999375,1.0,18.28951334243016,0.005650856720578993,1.3793009696280027,0.013029260703411892,0.2886527375,0.5412333368598755
0.001,1.799975,1.0,21.654801198129515,0.011228369191068278,1.3789345839487928,0.03577489849995483,0.28865195,0.5421191998965413
0.0015,1.79994375,1.0,31.156088793367964,0.016774596227377633,1.3780388093336573,0.0708292562144039,0.2886506375,0.5442814369821132
0.002,1.7999,1.0,53.76985782366561,0.022289713315143036,1.3763559802198062,0.11498725834344058,0.2886488,0.5483296433443522
0.0025,1.79984375,1.0,97.43433947685554,0.027773894956083095,1.373919981117697,0.16486774472990562,0.28864643749999996,0.5541576776815725
0.003,1.7997750000000001,1.0,161.36890492600793,0.03322731467542181,1.3711989792337662,0.21758255702692494,0.28864354999999997,0.5606228246677616
0.0035,1.79969375,1.0,238.14759452889135,0.038650145021713,1.368570440681506,0.2709133545355052,0.2886401375,0.5668234383158177
0.004,1.7996,1.0,321.9608042535891,0.04404255757756058,1.3661430123746734,0.32320672957156155,0.2886362,0.5725105053864789
0.0045000000000000005,1.7994937500000001,1.0,409.77940865128403,0.04940472296482098,1.3639108073577848,0.3733106713171273,0.2886317375,0.5777070289802463
0.005,1.799375,1.0,499.93561307726037,0.05473681083581743,1.3618472504740673,0.420505830907407,0.28862675,0.5824826764169567
0.0055,1.79924375,1.0,591.3172214197656,0.060038989919251905,1.3599285448532719,0.46441290771208354,0.2886212375,0.5868987327799946
0.006,1.7991000000000001,1.0,683.0456286042158,0.06531142796719751,1.3581368276850123,0.5048997927698958,0.2886152,0.5910013158664407
0.006500000000000001,1.79894375,1.0,774.4062010242958,0.07055429178616344,1.356458294012181,0.5420017538490436,0.2886086375,0.594826162722977
0.007,1.798775,1.0,864.8091844132009,0.0757677473592254,1.3548819421214586,0.5758599018770033,0.28860155,0.5984018085334875
0.0075,1.79859375,1.0,953.7517736831886,0.08095195943446395,1.3533989580823518,0.6066765221901154,0.2885939375,0.6017512003389929
0.008,1.7984,1.0,1040.8601762146159,0.08610709231921244,1.3520012603949076,0.6346834085604783,0.2885858,0.604895129720652
0.0085,1.79819375,1.0,1125.8113634723456,0.09123330893138565,1.3506822046582203,0.6601218664475417,0.2885771375,0.6078507376787312
0.009000000000000001,1.797975,1.0,1208.35567488254,0.09633077132666354,1.3494358118490386,0.6832292997117181,0.28856795,0.6106333335376382
0.0095,1.79774375,1.0,1288.3356842718545,0.10139964136407913,1.3482562559013278,0.704231249838617,0.2885582375,0.6132575900050666
0.01,1.7975,1.0,1365.6092035287909,0.10644007895356372,1.347138702861808,0.7233377313564203,0.288548,0.615735717396114
0.0105,1.79724375,1.0,1440.0848600139313,0.11145224346690141,1.3460786230635093,0.7407410376228195,0.2885372375,0.6180790390894944
0.011,1.796975,1.0,1511.7231621424612,0.11643629362379951,1.3450716562151714,0.7566153566342876,0.28852595000000003,0.6202983165718066
0.0115,1.79669375,1.0,1580.5157575516953,0.12139238768418012,1.3441137675145025,0.7711174246461524,0.2885141375,0.622403427955915
0.012,1.7964,1.0,1646.4463567753814,0.12632068171854158,1.3432016080000113,0.7843877444746297,0.28850180000000003,0.6244026028896894
0.0125,1.79609375,1.0,1709.538367384333,0.1312213317031663,1.3423318493571748,0.7965515902834209,0.2884889375,0.6263039059811755
0.013000000000000001,1.7957750000000001,1.0,1769.838975285581,0.13609449263634282,1.3415013201792472,0.8077204877766411,0.28847555,0.628114949986707
0.0135,1.79544375,1.0,1827.4177520571814,0.14094031999492307,1.3407069709519546,0.8179936065437537,0.2884616375,0.6298429845176785
0.014,1.7951000000000001,1.0,1882.314994520662,0.14575896590241028,1.3399463972252494,0.8274592829680052,0.2884472,0.6314937723647096
0.0145,1.79474375,1.0,1934.5946770666535,0.15055058248230774,1.3392171945490838,0.8361959957735905,0.2884322375,0.6330730067673758
0.015,1.794375,1.0,1984.3385964087583,0.1553153215455523,1.3385169991733372,0.8442735166164734,0.28841675,0.6345862285417054
0.0155,1.79399375,1.0,2031.6334147607627,0.16005333420521992,1.3378436020583584,0.851753965858687,0.2884007375,0.6360385859318674
0.016,1.7936,1.0,2076.5726592073884,0.16476477161333497,1.3371949013386637,0.8586926987162348,0.2883842,0.6374349442321712
0.0165,1.7931937500000001,1.0,2119.2209660407807,0.16944978145691875,1.336569249906686,0.8651392060638075,0.2883671375,0.6387791454631722
0.017,1.792775,1.0,2159.65512297955,0.17410851142299266,1.3359650006548567,0.8711376718544228,0.28834955,0.6400749946906319
0.0175,1.7923437500000001,1.0,2197.9630513550774,0.1787411091985781,1.3353805064756086,0.876727600445234,0.2883314375,0.6413262623602177
0.018000000000000002,1.7919,1.0,2234.22966074598,0.18334772112623857,1.334814252754087,0.8819444015169853,0.2883128,0.642536403548222
0.0185,1.79144375,1.0,2268.5530264051695,0.18792849497300876,1.3342646820917299,0.8868198231477346,0.2882936375,0.6437089359251109
0.019,1.790975,1.0,2301.007250002202,0.1924835750013214,1.3337305558039638,0.8913824630589888,0.28827395,0.6448466713098768
0.0195,1.79049375,1.0,2331.6618298173134,0.19701310419664286,1.3332107455796558,0.8956580769973881,0.2882537375,0.6459521652750315
0.02,1.79,1.0,2360.5920437939617,0.20151722554443952,1.3327041231076726,0.8996698751278474,0.288233,0.6470279542957738
0.0205,1.78949375,1.0,2387.8784642947257,0.20599608203017772,1.332209560076881,0.9034388078919896,0.2882117375,0.6480765567395572
0.021,1.788975,1.0,2413.592425180619,0.21044981465558382,1.331726064236327,0.9069838453498665,0.28818995000000003,0.649100185925626
0.021500000000000002,1.78844375,1.0,2437.8215929518105,0.2148785672407495,1.3312525259368329,0.9103221423198791,0.2881676375,0.6501012884581246
0.022,1.7879,1.0,2460.628020147779,0.2192824789799328,1.3307881190125601,0.9134693137331993,0.2881448,0.6510816974494017
0.0225,1.78734375,1.0,2482.0693748327817,0.22366168788972193,1.3303320887477952,0.916439556583216,0.28812143749999997,0.6520430840035676
0.023,1.786775,1.0,2502.2060519320476,0.22801633198670498,1.3298836804268248,0.9192457858234329,0.28809755,0.6529871090180246
0.0235,1.78619375,1.0,2521.1009449165285,0.23234654928747012,1.3294421393339353,0.921899767881363,0.28807313749999996,0.6539154235684947
0.024,1.7856,1.0,2538.809791971895,0.23665247704114245,1.3290067997059858,0.9244122545686444,0.2880482,0.6548294826123258
0.0245,1.78499375,1.0,2555.391049433196,0.24093425151583772,1.3285769886258878,0.9267930680302069,0.2880227375,0.6557307479130843
0.025,1.7843762495944406,1.0,2570.9888711288086,0.24519201123893508,1.3281518117112951,0.9290511584193798,0.2879968024829665,0.6566211367047026
0.025500000000000002,1.7837568388574523,1.0,2586.059951539141,0.24942588893178363,1.3277311338260527,0.9311948525861015,0.28797078723201297,0.6575009691361287
0.026000000000000002,1.783137428120464,1.0,2600.706422515562,0.25363601731573265,1.3273148198340057,0.9332317883693061,0.2879447719810595,0.6583705635109451
0.0265,1.7825180173834756,1.0,2614.9388713728677,0.25782252911213127,1.3269027345989992,0.9351689808758308,0.287918756730106,0.6592302363255622
0.027,1.7818986066464872,1.0,2628.7681655635174,0.26198555704232873,1.326494742984878,0.9370128815822805,0.28789274147915245,0.6600803023062454
0.0275,1.781279195909499,1.0,2642.2054402095773,0.26612523382767417,1.3260907098554873,0.9387694311133227,0.287866726228199,0.6609210744449758
0.028,1.7806597851725103,1.0,2655.261473603617,0.2702416903567268,1.3256905057187713,0.9404441065175916,0.28784071097724545,0.6617528523107493
0.0285,1.780040374435522,1.0,2667.9473570054,0.27433505797893526,1.3252940003943894,0.9420419635813811,0.2878146957262919,0.6625759352915019
0.029,1.7794209636985336,1.0,2680.273922445741,0.2784054650527129,1.3249010681710967,0.9435676741147885,0.2877886804753384,0.6633906119301034
0.029500000000000002,1.7788015529615453,1.0,2692.252191061302,0.2824530398331531,1.324511583557699,0.9450255606106298,0.2877626652243849,0.6641971688038091
0.03,1.778182142224557,1.0,2703.8933871465597,0.28647791057534916,1.3241254210630022,0.9464196268505818,0.2877366499734314,0.6649958910099857
0.0305,1.7775627314875686,1.0,2715.1944070324844,0.29048017310376784,1.3237425875396995,0.9477535917455925,0.2877106347224779,0.6657867889448341
0.031,1.7769433207505803,1.0,2726.182518406101,0.29445998836637355,1.323362814220164,0.9490308940176284,0.28768461947152435,0.6665704412615294
0.0315,1.776323910013592,1.0,2736.8765815701827,0.29841750040030957,1.3229859114181115,0.9502547331339376,0.2876586042205709,0.6673472609228694
0.032,1.7757044992766036,1.0,2747.284329554511,0.3023528286820524,1.322611792262111,0.951428090049419,0.28763258896961735,0.6681174473642492
0.0325,1.7750850885396152,1.0,2757.413620735293,0.30626609268807853,1.3222403698807317,0.952553740455058,0.2876065737186638,0.6688811990405907
0.033,1.7744656778026269,1.0,2767.27243355693,0.31015741189486457,1.3218715574025426,0.9536342714102145,0.28758055846771036,0.6696387134415234
0.0335,1.7738462670656385,1.0,2776.868861421329,0.314026905778887,1.3215052679561134,0.9546720964377087,0.28755454321675683,0.6703901871060832
0.034,1.7732268563286502,1.0,2786.2111077453706,0.3178746938166223,1.321141414670013,0.9556694692401139,0.2875285279658033,0.6711358156369351
0.0345,1.7726074455916618,1.0,2795.307481184368,0.32170089548454717,1.3207799106728106,0.9566284961777834,0.2875025127148498,0.671875793714106
0.035,1.7719880348546735,1.0,2804.166391023942,0.325505630259138,1.3204206690930753,0.9575511476334297,0.28747649746389625,0.672610315108246
0.035500000000000004,1.7713686241176851,1.0,2812.796342738551,0.3292890176168713,1.3200636030593766,0.9584392683742753,0.2874504822129428,0.6733395726933986
0.036000000000000004,1.7707492133806968,1.0,2821.205933717544,0.33305117703422366,1.3197086257002835,0.9592945870106341,0.28742446696198926,0.6740637584592987
0.0365,1.7701298026437084,1.0,2829.4038491587617,0.33679222798767156,1.3193556501443653,0.9601187246390721,0.28739845171103573,0.6747830635231817
0.037,1.76951039190672,1.0,2837.3988581292656,0.34051228995369165,1.3190045895201912,0.9609132027488339,0.28737243646008226,0.6754976781411172
0.0375,1.7688909811697315,1.0,2845.199809793048,0.34421148240876037,1.3186553569563302,0.9616794504618751,0.28734642120912873,0.6762077917188578
0.038,1.7682715704327432,1.0,2852.815629806801,0.34788992482935427,1.3183078655813516,0.9624188111694406,0.2873204059581752,0.6769135928222073
0.0385,1.7676521596957548,1.0,2860.2553168823665,0.3515477366919499,1.3179620285238247,0.9631325486215835,0.2872943907072217,0.6776152691869084
0.039,1.7670327489587665,1.0,2867.527100038218,0.35518503504460397,1.3176177663569513,0.9638218527334057,0.2872683754562682,0.6783129926480265
0.0395,1.7664133382217782,1.0,2874.631271399471,0.3588019181402428,1.3172750705062632,0.9644878473782044,0.2872423602053147,0.6790067909287172
0.04,1.7657939274847898,1.0,2881.58214012321,0.3623985264557266,1.3169338085826028,0.9651315889635211,0.28721634495436116,0.6796969418919838
0.0405,1.7651745167478015,1.0,2888.384235784221,0.36597496949651387,1.3165939353769087,0.9657540760080789,0.28719032970340763,0.6803835461816382
0.041,1.7645551060108131,1.0,2895.0421251803996,0.36953135676806315,1.3162554056801195,0.966356251186093,0.28716431445245416,0.6810667040118084
0.0415,1.7639356952738248,1.0,2901.560410962749,0.3730677977758331,1.315918174283174,0.9669390050339908,0.28713829920150064,0.681746515170874
0.042,1.7633162845368364,1.0,2907.9437303121103,0.37658440202528215,1.3155821959770109,0.967503179374133,0.2871122839505471,0.682423079025279
0.0425,1.762696873799848,1.0,2914.196753660059,0.38008127902186906,1.315247425552569,0.968049570479839,0.28708626869959364,0.6830964945232062
0.043000000000000003,1.7620774630628597,1.0,2920.324183455356,0.38355853827105224,1.3149138178007873,0.9685789320037089,0.2870602534486401,0.6837668601981267
0.043500000000000004,1.7614580523258714,1.0,2926.330752976454,0.3870162892782903,1.3145813275126041,0.9690919776891664,0.2870342381976866,0.6844342741722185
0.044,1.760838641588883,1.0,2932.221225188309,0.3904546415490418,1.3142499094789581,0.9695893838832981,0.2870082229467331,0.6850988341596512
0.0445,1.7602192308518947,1.0,2938.0003916448068,0.3938737045887654,1.3139195184907886,0.9700717918673819,0.2869822076957796,0.6857606374697431
0.045,1.7595998201149063,1.0,2943.6730714371884,0.3972735879029196,1.3135901093390336,0.9705398100200131,0.28695619244482606,0.6864197810099902
0.0455,1.758980409377918,1.0,2949.244110186803,0.40065440099696303,1.3132616368146326,0.9709940158263792,0.28693017719387254,0.6870763612889581
0.046,1.7583609986409297,1.0,2954.718379083788,0.40401625337635416,1.3129340557085236,0.971434957746019,0.286904161942919,0.6877304744190518
0.0465,1.7577415879039413,1.0,2960.0936155639406,0.4073592202189267,1.3126073832930494,0.9718631569041792,0.28687814669196554,0.6883820915518895
0.047,1.757122177166953,1.0,2965.381831391731,0.41068345285483004,1.3122815123440814,0.9722791099375894,0.286852131441012,0.6890314319135629
0.0475,1.7565027664299646,1.0,2970.5854685074646,0.41398905201294983,1.3119564194420756,0.9726832885295651,0.2868261161900585,0.6896785470946422
0.048,1.755883355692976,1.0,2975.7069148813957,0.4172761180756951,1.3116320817551028,0.9730761416195877,0.286800100939105,0.6903234873118014
0.0485,1.7552639449559877,1.0,2980.748571386753,0.42054475142547465,1.3113084764512328,0.9734580967144053,0.2867740856881515,0.6909663025816717
0.049,1.7546445342189994,1.0,2985.7128514233227,0.4237950524446975,1.3109855806985362,0.9738295611083245,0.28674807043719797,0.6916070427219203
0.0495,1.754025123482011,1.0,2990.602180552304,0.4270271215157727,1.3106633716650833,0.9741909230232438,0.28672205518624444,0.6922457573523033
0.05,1.7534057127450227,1.0,2995.418996143044,0.4302410590211091,1.3103418265189442,0.9745425526743913,0.28669603993529097,0.6928824958956811
0.0505,1.7527863020080343,1.0,3000.165747030906,0.43343696534311565,1.3100209224281893,0.9748848032672376,0.28667002468433744,0.6935173075790007
0.051000000000000004,1.752166891271046,1.0,3004.844893187497,0.4366149408642014,1.3097006365608888,0.9752180119306069,0.2866440094333839,0.6941502414342484
0.051500000000000004,1.7515474805340576,1.0,3009.4589054013445,0.43977508596677517,1.3093809460851134,0.9755425005906,0.2866179941824304,0.6947813462993628
0.052000000000000005,1.7509280697970693,1.0,3014.0102649712394,0.44291750103324606,1.3090618281689328,0.9758585767895778,0.2865919789314769,0.6954106708191233
0.0525,1.750308659060081,1.0,3018.501463410096,0.4460422864460229,1.3087432599804176,0.976166534454107,0.2865659636805234,0.6960382634459957
0.053,1.7496892483230926,1.0,3022.9350021614114,0.4491495425875147,1.3084252186876382,0.9764666546154683,0.28653994842956987,0.6966641724409521
0.0535,1.7490698375861042,1.0,3027.3133923264136,0.45223936984013047,1.308107681458665,0.9767592060860426,0.2865139331786164,0.6972884458742534
0.054,1.748450426849116,1.0,3031.6391544032244,0.4553118685862791,1.3077906254615679,0.9770444460946279,0.28648791792766287,0.6979111316262017
0.0545,1.7478310161121275,1.0,3035.9117675764724,0.45836710869715175,1.3074740541554817,0.9773226194998013,0.28646190267670935,0.6985322258328823
0.055,1.7472116053751392,1.0,3040.134919001962,0.4614052104369476,1.307157934761062,0.9775939635241047,0.2864358874257559,0.6991517956419617
0.0555,1.7465921946381509,1.0,3044.312058250209,0.46442628940528385,1.3068422366471326,0.9778587050683191,0.28640987217480235,0.6997699037289065
0.056,1.7459727839011625,1.0,3048.4443109605113,0.4674304364023006,1.3065269492653082,0.9781170604376745,0.2863838569238488,0.7003865732592576
0.0565,1.7453533731641742,1.0,3052.5328072397774,0.47041774222813787,1.306212062067204,0.9783692370386444,0.2863578416728953,0.7010018273104299
0.057,1.7447339624271858,1.0,3056.57868156763,0.4733882976829357,1.3058975645044348,0.9786154338173484,0.28633182642194177,0.7016156888719871
0.0575,1.7441145516901972,1.0,3060.583072704116,0.47634219356683427,1.305583446028616,0.9788558416729308,0.2863058111709883,0.7022281808459054
0.058,1.743495140953209,1.0,3064.5471235996406,0.4792795206799736,1.3052696960913623,0.9790906438475342,0.2862797959200348,0.7028393260468344
0.0585,1.7428757302162206,1.0,3068.4719813077522,0.48220036982249376,1.304956304144289,0.9793200162943658,0.28625378066908125,0.7034491472023465
0.059000000000000004,1.7422563194792322,1.0,3072.3587969002874,0.4851048317945348,1.3046432596390112,0.9795441280252563,0.2862277654181278,0.7040576669531825
0.059500000000000004,1.7416369087422439,1.0,3076.208725384359,0.4879929973962368,1.304330552027144,0.9797631414390036,0.28620175016717425,0.7046649078534879
0.06,1.7410174980052555,1.0,3080.0229256230286,0.4908649574277398,1.304018170760302,0.9799772126317065,0.2861757349162207,0.7052708923710455
0.0605,1.7403980872682672,1.0,3083.8025602571206,0.4937208026891839,1.303706105290101,0.9801864916902092,0.2861497196652672,0.7058756428874942
0.061,1.7397786765312788,1.0,3087.548795630693,0.4965606239807092,1.303394345068155,0.980391122969697,0.2861237044143137,0.7064791816985498
0.0615,1.7391592657942905,1.0,3091.2628017179586,0.49938451210245577,1.3030828795460803,0.980591245356417,0.2860976891633602,0.7070815310142099
0.062,1.7385398550573021,1.0,3094.945752053164,0.5021925578545636,1.302771698175491,0.9807869925164254,0.2860716739124067,0.7076827129589582
0.0625,1.7379204443203138,1.0,3098.598823663357,0.5049848520371728,1.3024607904080028,0.9809784931312073,0.28604565866145315,0.7082827495719586
0.063,1.7373010335833254,1.0,3102.2231970027074,0.5077614854504235,1.3021501456952302,0.9811658711209525,0.2860196434104997,0.7088816628072422
0.0635,1.736681622846337,1.0,3105.8200558897515,0.5105225488944557,1.3018397534887889,0.9813492458562226,0.28599362815954615,0.7094794745338877
0.064,1.7360622121093487,1.0,3109.388806546256,0.5132680976017475,1.3015296184069418,0.9815287305927696,0.2859676129085926,0.7100761773704212
0.0645,1.7354428013723604,1.0,3112.9316482775744,0.5159982546376455,1.3012197212879097,0.98170443810567,0.28594159765763916,0.7106718096531696
0.065,1.734823390635372,1.0,3116.4496426626683,0.5187131135630719,1.3009100526951096,0.9818764755211918,0.28591558240668563,0.7112663909025074
0.0655,1.7342039798983837,1.0,3119.9433192520523,0.5214127560578885,1.300600607739528,0.9820449455615249,0.2858895671557321,0.7118599318451098
0.066,1.7335845691613954,1.0,3123.4132092217574,0.5240972638019569,1.3002913815321524,0.9822099473315334,0.28586355190477863,0.7124524431680844
0.0665,1.732965158424407,1.0,3126.859845349673,0.5267667184751388,1.2999823691839698,0.9823715764719867,0.2858375366538251,0.7130439355190448
0.067,1.7323457476874187,1.0,3130.283761992133,0.5294212017572959,1.2996735658059677,0.9825299253052523,0.2858115214028716,0.7136344195061746
0.0675,1.7317263369504303,1.0,3133.685495061001,0.5320607953282898,1.2993649665091327,0.9826850829738704,0.28578550615191806,0.7142239056982967
0.068,1.7311069262134418,1.0,3137.0655820010006,0.5346855808679821,1.2990565664044524,0.9828371355724078,0.28575949090096453,0.7148124046249341
0.0685,1.7304875154764534,1.0,3140.4245617683173,0.5372956400562346,1.2987483606029138,0.982986166272959,0.28573347565001106,0.7153999267763758
0.069,1.729868104739465,1.0,3143.762974808779,0.5398910545729089,1.298440344215504,0.9831322554446429,0.28570746039905753,0.7159864826037358
0.0695,1.7292486940024767,1.0,3147.0813630374805,0.5424719060978667,1.29813251235321,0.9832754807674233,0.285681445148104,0.7165720825190152
0.07,1.7286292832654884,1.0,3150.380269818341,0.5450382763109696,1.297824860127019,0.983415917340556,0.28565542989715054,0.717156736895158
0.07050000000000001,1.7280098725285,1.0,3153.6602399441917,0.5475902468920791,1.2975173826479185,0.9835536377859561,0.285629414646197,0.7177404560661098
