Time [s],Phi [rad],STIM [ ],Fsee [N],Gamma [ ],Lcerel [ ],q [ ],Lmtc [m],fisomrel [ ]
0.0,1.8,1.0,17.967456884844072,2.2891144933555386e-05,1.3793397127535367,0.005000138746753955,0.288653,0.541139612015511
0.0005,1.79999375,1.0,18.281110384145986,0.005631972052512465,1.3793019028144062,0.012976341471743633,0.2886527375,0.5412310794686567
0.001,1.799975,1.0,21.632326834153048,0.011209590451057886,1.3789368780385942,0.03567578345463098,0.28865195,0.5421136558111084
0.0015,1.79994375,1.0,31.103495239698056,0.0167559228212433,1.3780432857639262,0.07069368542799352,0.2886506375,0.5442706444158624
0.002,1.7999,1.0,53.657123109821065,0.022271144652067972,1.376363284937176,0.11482676210267591,0.2886488,0.548312110176333
0.0025,1.79984375,1.0,97.2451930629829,0.027755430448514397,1.3739290852883856,0.16469317275040812,0.28864643749999996,0.5541359667582628
0.003,1.7997750000000001,1.0,161.12296967151448,0.03320895373914345,1.3712081766069388,0.21740247722300213,0.28864354999999997,0.5606010510846675
0.0035,1.79969375,1.0,237.8698250671481,0.03863188707578092,1.3685789908656614,0.2707342550732427,0.2886401375,0.5668033402182739
0.004,1.7996,1.0,321.665370700515,0.044024402044275344,1.3661508330697991,0.32303331877634966,0.2886362,0.5724922431195539
0.0045000000000000005,1.7994937500000001,1.0,409.473552407945,0.049386669269689334,1.3639179838253048,0.3731460632601397,0.2886317375,0.5776903732414707
0.005,1.799375,1.0,499.623587984093,0.05471885840741449,1.361853878552548,0.42035183064868187,0.28862675,0.5824673806647891
0.0055,1.79924375,1.0,591.0024812980554,0.060021138190135395,1.35993469219031,0.4642703291681093,0.2886212375,0.5868846216768713
0.006,1.7991000000000001,1.0,682.7305224777721,0.06529367637227342,1.358142553923918,0.5047687657408491,0.2886152,0.5909882368267012
0.006500000000000001,1.79894375,1.0,774.0945457186933,0.07053663978180827,1.3564636129044398,0.5418819350428061,0.2886086375,0.594814071030337
0.007,1.798775,1.0,864.4994756027901,0.07575019432181884,1.3548869438449553,0.5757507280049582,0.28860155,0.598390488164501
0.0075,1.79859375,1.0,953.4539592154727,0.08093450492368533,1.35340353791277,0.6065771656766222,0.2885939375,0.601740878159239
0.008,1.7984,1.0,1040.5672381304933,0.08608973566711721,1.3520055725818352,0.6345931429988945,0.2885858,0.6048854492070612
0.0085,1.79819375,1.0,1125.5239899428677,0.09121604961821549,1.3506862721720954,0.6600398794850338,0.2885771375,0.6078416406570124
0.009000000000000001,1.797975,1.0,1208.0857972883587,0.09631360901971721,1.34943949891635,0.6831547202295061,0.28856795,0.6106251166999049
0.0095,1.79774375,1.0,1288.0614471603599,0.10138257488384941,1.348259884360151,0.7041635083059483,0.2885582375,0.613249531076066
0.01,1.7975,1.0,1365.34863379923,0.10642310841126104,1.3471420515047408,0.7232760211699862,0.288548,0.6157283038172192
0.0105,1.79724375,1.0,1439.8408431147839,0.11143536836115192,1.34608167680056,0.740684728268671,0.2885372375,0.6180722990526557
0.011,1.796975,1.0,1511.485505148816,0.11641951319914795,1.3450745590271946,0.7565639553734973,0.28852595000000003,0.6202919282914132
0.0115,1.79669375,1.0,1580.270011730431,0.12137570080991839,1.3441167030746772,0.7710705060455034,0.2885141375,0.6223969855389491
0.012,1.7964,1.0,1646.2124695276386,0.1263040887141781,1.3432043453829305,0.7843447489168733,0.28850180000000003,0.6243966113210273
0.0125,1.79609375,1.0,1709.3208625244731,0.13120483210486955,1.342334347577467,0.7965120984593431,0.2884889375,0.6262984517497132
0.013000000000000001,1.7957750000000001,1.0,1769.6325103089423,0.13607808588224346,1.3415036508426594,0.8076841725274665,0.28847555,0.6281098739194355
0.0135,1.79544375,1.0,1827.1988039292237,0.14092400419854123,1.3407094032831155,0.8179602510031945,0.2884616375,0.6298376993445899
0.014,1.7951000000000001,1.0,1882.1055391694526,0.1457427416377034,1.3399486899122552,0.8274285084334152,0.2884472,0.6314888017440732
0.0145,1.79474375,1.0,1934.4082498806956,0.1505344498552887,1.3392192074022309,0.8361675013617391,0.2884322375,0.6330686521983491
0.015,1.794375,1.0,1984.1700300837738,0.1552992798830403,1.3385187962207281,0.8442471039415625,0.28841675,0.634582348868843
0.0155,1.79399375,1.0,2031.4725580146287,0.16003738275270152,1.3378452968354326,0.8517294745946893,0.2884007375,0.6360349343309262
0.016,1.7936,1.0,2076.398809132296,0.16474890830285255,1.33719671308664,0.8586700174935019,0.2883842,0.6374310480981065
0.0165,1.7931937500000001,1.0,2119.0516331134654,0.16943400701423258,1.3365709967314858,0.8651181166884181,0.2883671375,0.638775395915734
0.017,1.792775,1.0,2159.499412945533,0.1740928259774029,1.3359665918359287,0.8711180054369507,0.28834955,0.6400715853640003
0.0175,1.7923437500000001,1.0,2197.8188126860864,0.17872551210171334,1.335381967528761,0.8767092378889776,0.2883314375,0.641323137297631
0.018000000000000002,1.7919,1.0,2234.0962672367896,0.18333221229651378,1.3348155929387753,0.8819272323247928,0.2883128,0.6425335418528582
0.0185,1.79144375,1.0,2268.409700137356,0.18791307182757558,1.3342661111356031,0.8868037981842176,0.2882936375,0.6437058894970683
0.019,1.790975,1.0,2300.8644031689246,0.19246823799108947,1.3337319699873866,0.8913674616000505,0.28827395,0.644843661378629
0.0195,1.79049375,1.0,2331.527308050211,0.19699785354551366,1.3332120685600988,0.8956439967944787,0.2882537375,0.6459493538453445
0.02,1.79,1.0,2360.4678222504303,0.20150206093813658,1.3327053372778,0.8996566373873771,0.288233,0.6470253780193411
0.0205,1.78949375,1.0,2387.760491258929,0.20598100261624663,1.33221070656455,0.9034263544402026,0.2882117375,0.6480741276909515
0.021,1.788975,1.0,2413.4831435397264,0.21043482074756312,1.3317271205855918,0.9069721104124417,0.28818995000000003,0.6490979511096691
0.021500000000000002,1.78844375,1.0,2437.7072900050202,0.21486365598971474,1.3312536253196274,0.9103110972325514,0.2881676375,0.650098965920293
0.022,1.7879,1.0,2460.5121717915245,0.21926765093275127,1.3307892280836466,0.9134589004061267,0.2881448,0.6510793577290345
0.0225,1.78734375,1.0,2481.9545357964253,0.22364694320763262,1.330333183397043,0.9164297237508909,0.28812143749999997,0.6520407778915035
0.023,1.786775,1.0,2502.0938339201102,0.22800167044531852,1.3298847457792107,0.919236488334677,0.28809755,0.6529848676727856
0.0235,1.78619375,1.0,2520.991997866361,0.23233197027676875,1.329443169749543,0.9218909660681552,0.28807313749999996,0.6539132586268297
0.024,1.7856,1.0,2538.713226265114,0.23663798033294312,1.3290077098274338,0.9244038977894712,0.2880482,0.6548275729403927
0.0245,1.78499375,1.0,2555.3108876069755,0.24091983505916673,1.3285777416860993,0.9267851176314386,0.2880227375,0.6557291698611702
0.025,1.784375,1.0,2570.8534940839295,0.2451776747005851,1.3281525152871527,0.9290436050248846,0.28799675,0.6566196642561065
0.025500000000000002,1.78374375,1.0,2585.388194521126,0.24941163296290392,1.3277314962089102,0.9311876207767874,0.2879702375,0.6575002117113173
0.026000000000000002,1.7831000000000001,1.0,2598.958326843154,0.25362184207058763,1.3273141977680665,0.9332247509416648,0.2879432,0.6583718620518083
0.0265,1.78244375,1.0,2611.608379478316,0.2578084342481008,1.326900133281317,0.935161964490572,0.2879156375,0.6592356596321975
0.027,1.781775,1.0,2623.383892922889,0.2619715417199079,1.326488816065357,0.9370056717854139,0.28788755,0.6600926434446477
0.0275,1.7810937500000001,1.0,2634.331366556747,0.2661112967104735,1.3260797594368814,0.9387617768002753,0.2878589375,0.6609438472116886
0.028,1.7804,1.0,2644.491053422459,0.27022783071425,1.3256725424375817,0.9404357332295933,0.2878298,0.6617901629535764
0.0285,1.77969375,1.0,2653.884446541973,0.27432127201917306,1.3252669238417976,0.9420326006046162,0.2878001375,0.6626321054033619
0.029,1.778975,1.0,2662.622683591083,0.2783917566655736,1.3248618424019616,0.9435569427332213,0.28776995,0.6634718856862343
0.029500000000000002,1.7782437500000001,1.0,2670.718968990133,0.2824394109051012,1.3244571463683685,0.9450131056625835,0.2877392375,0.664309821972242
0.03,1.7775,1.0,2678.1868533676384,0.28646436098940553,1.324052683991313,0.9464051148696523,0.287708,0.6651462308610532
0.0305,1.77674375,1.0,2685.0402135259924,0.2904667331701363,1.3236483035210893,0.9477367029702244,0.2876762375,0.6659814273849518
0.031,1.7759760154196251,1.0,2691.3433293779635,0.2944466536989431,1.3232438532079924,0.9490113347072733,0.28764399264762425,0.666815725010363
0.0315,1.7752060538212193,1.0,2697.5680707133206,0.29840424882747546,1.3228391813023166,0.9502322295150598,0.2876116542604912,0.6676494356379145
0.032,1.7744360922228137,1.0,2703.840882057643,0.3023396448073832,1.3224341360543566,0.9514023819203279,0.28757931587335817,0.6684828696010225
0.0325,1.7736661306244081,1.0,2710.1756199467786,0.30625296475866964,1.3220285923634887,0.9525245822748136,0.28754697748622515,0.6693162809323663
0.033,1.7728961690260023,1.0,2716.533111544502,0.3101443357182313,1.3216229088900475,0.9536014887765385,0.2875146390990921,0.6701489300928067
0.0335,1.7721262074275967,1.0,2722.895275116321,0.31401388221289406,1.3212172506795183,0.954635557230047,0.28748230071195907,0.6709804778886845
0.034,1.7713562458291912,1.0,2729.255657823151,0.31786172453707695,1.320811676299869,0.9556290670286709,0.287449962324826,0.6718108046864417
0.0345,1.7705862842307853,1.0,2735.607776810769,0.32168798298519896,1.3204062443190672,0.9565841481324664,0.287417623937693,0.6726397914583873
0.035,1.7698163226323798,1.0,2741.945119355974,0.3254927778516792,1.3200010133050808,0.9575027926180377,0.28738528555056,0.6734673197822753
0.035500000000000004,1.7690463610339742,1.0,2748.2611430898564,0.32927622943093665,1.3195960418258779,0.9583868652084345,0.2873529471634269,0.6742932718406625
0.036000000000000004,1.7682763994355684,1.0,2754.549276297015,0.3330384580173903,1.3191913884494262,0.9592381128837519,0.28732060877629384,0.6751175304200495
0.0365,1.7675064378371628,1.0,2760.8029182903356,0.33677958390545926,1.3187871117436933,0.9600581736621534,0.2872882703891608,0.6759399789098022
0.037,1.7667364762387572,1.0,2767.021486803002,0.340499717089008,1.3183832156861457,0.9608485769246098,0.2872559320020278,0.6767606121471595
0.0375,1.7659665146403516,1.0,2773.194803901666,0.34419899024588724,1.3179797907760602,0.9616107724504103,0.28722359361489475,0.6775792495472353
0.038,1.7651965530419458,1.0,2779.321149599138,0.34787751830316305,1.317576850934361,0.962346111575445,0.28719125522776173,0.6783958665517048
0.0385,1.7644265914435402,1.0,2785.3994322160497,0.35153541491143087,1.3171744043809663,0.9630558646163412,0.28715891684062866,0.6792104502728931
0.039,1.7636566298451346,1.0,2791.428557684835,0.3551727937212859,1.316772459335794,0.9637412273720936,0.28712657845349565,0.6800229879029107
0.0395,1.7628866682467288,1.0,2797.4074296397494,0.35878976838332355,1.316371024018762,0.9644033263029445,0.28709424006636264,0.6808334667133925
0.04,1.7621167066483232,1.0,2803.3349495094812,0.36238645254813906,1.3159701066497886,0.9650432232960753,0.28706190167922957,0.6816418740552335
0.0405,1.7613467450499176,1.0,2809.2100166107994,0.3659629598663278,1.315569715448792,0.9656619200551197,0.28702956329209656,0.6824481973583179
0.041,1.7605767834515118,1.0,2815.031528243296,0.36951940398848515,1.31516985863569,0.9662603621468503,0.2869972249049635,0.6832524241312476
0.0415,1.7598068218531062,1.0,2820.798379786565,0.3730558985652064,1.3147705444304008,0.9668394427351275,0.2869648865178305,0.6840545419610622
0.042,1.7590368602547006,1.0,2826.5094647978362,0.37657255724708677,1.3143717810528424,0.967400006029276,0.2869325481306974,0.6848545385129584
0.0425,1.7582668986562948,1.0,2832.1662832217803,0.3800694679325396,1.313973553449848,0.9679428443651369,0.2869002097435644,0.6856524481316182
0.043000000000000003,1.7574969370578892,1.0,2837.7667967420466,0.38354677328836906,1.3135758781876616,0.9684687190463195,0.2868678713564313,0.68644824176925
0.043500000000000004,1.7567269754594836,1.0,2843.3110719857004,0.3870045867137169,1.3131787530385828,0.9689783447372269,0.2868355329692983,0.6872419280778009
0.044,1.7559570138610778,1.0,2848.799860141826,0.3904430133132767,1.3127821697108215,0.9694723968685494,0.2868031945821653,0.6880335277773943
0.0445,1.7551870522626722,1.0,2854.2339179653236,0.3938621581917423,1.3123861199125872,0.9699515158558409,0.28677085619503223,0.6888230614985926
0.045,1.7544170906642667,1.0,2859.6140076779284,0.39726212645380726,1.3119905953520894,0.9704163092594481,0.28673851780789916,0.6896105497826812
0.0455,1.7536471290658608,1.0,2864.9408968708544,0.40064302320416534,1.3115955877375378,0.9708673537908746,0.28670617942076615,0.6903960130819464
0.046,1.7528771674674553,1.0,2870.2153584089315,0.40400495354751015,1.311201088777142,0.9713051971778831,0.28667384103363314,0.6911794717599535
0.0465,1.7521072058690497,1.0,2875.4381703362924,0.40734802258853536,1.3108070901791116,0.9717303598995516,0.28664150264650007,0.6919609460918164
0.047,1.7513372442706439,1.0,2880.6101157839976,0.4106723354319347,1.3104135836516562,0.9721433368015095,0.28660916425936706,0.6927404562644652
0.0475,1.7505672826722383,1.0,2885.731982878339,0.41397799718240186,1.3100205609029851,0.9725445986006913,0.286576825872234,0.6935180223769084
0.048,1.7497973210738327,1.0,2890.8045646514042,0.4172651129446305,1.3096280136413085,0.9729345932881309,0.286544487485101,0.69429366444049
0.0485,1.7490273594754269,1.0,2895.828658952771,0.4205337878233142,1.3092359335748356,0.9733137474376005,0.2865121490979679,0.695067402379145
0.049,1.7482573978770213,1.0,2900.805068363122,0.4237841269231468,1.3088443124117761,0.9736824674272244,0.2864798107108349,0.6958392560296468
0.0495,1.7474874362786157,1.0,2905.7346001086084,0.4270162353488219,1.3084531418603396,0.9740411405806069,0.2864474723237018,0.6966092451418535
0.05,1.7467174746802099,1.0,2910.618043431903,0.4302302173589106,1.3080624138271912,0.9743901361489185,0.2864151339365688,0.6973773889890447
0.0505,1.7459475130818043,1.0,2915.4549179101855,0.4334261165732613,1.3076721314244022,0.9747298002725864,0.2863827955494358,0.6981436847728488
0.051000000000000004,1.7451775514833987,1.0,2920.2486158494194,0.43660411605271837,1.3072822637327108,0.9750604768136886,0.28635045716230273,0.6989081964135866
0.051500000000000004,1.744407589884993,1.0,2924.999924697089,0.43976431051914994,1.3068928028171167,0.9753824856834808,0.2863181187751697,0.6996709425352498
0.052000000000000005,1.7436376282865873,1.0,2929.709635952641,0.442906794694424,1.3065037407426188,0.975696132522902,0.28628578038803665,0.7004319416797882
0.0525,1.7428676666881817,1.0,2934.37854509699,0.4460316633004086,1.3061150695742167,0.9760017094633722,0.28625344200090364,0.7011912123073101
0.053,1.742097705089776,1.0,2939.0074515226747,0.4491390110589719,1.30572678137691,0.9762994958406694,0.28622110361377057,0.7019487727962854
0.0535,1.7413277434913703,1.0,2943.597158466056,0.4522289326919819,1.305338868215698,0.9765897588651583,0.28618876522663755,0.7027046414437395
0.054,1.7405577818929647,1.0,2948.1484729404674,0.45530152292130666,1.3049513221555795,0.9768727542513888,0.2861564268395045,0.7034588364654464
0.0545,1.7397878202945591,1.0,2952.6622056711385,0.4583568764688143,1.3045641352615545,0.9771487268098564,0.2861240884523715,0.7042113759961146
0.055,1.7390178586961533,1.0,2957.139171030966,0.46139508805637275,1.3041772995986223,0.9774179110034944,0.28609175006523846,0.7049622780895727
0.0555,1.7382478970977477,1.0,2961.5801869782626,0.4644162524058502,1.303790807231782,0.9776805314712796,0.2860594116781054,0.7057115607189484
0.056,1.7374779354993422,1.0,2965.9860749958675,0.46742046423911465,1.3034046502260332,0.9779368035211523,0.2860270732909724,0.7064592417768445
0.0565,1.7367079739009363,1.0,2970.3576600309366,0.4704078182780342,1.303018820646375,0.9781869335942851,0.2859947349038393,0.7072053390755102
0.057,1.7359380123025308,1.0,2974.6957704370484,0.4733784092444769,1.3026333105578074,0.9784311197025912,0.2859623965167063,0.707949870347008
0.0575,1.7351680507041252,1.0,2979.001237917162,0.47633233186031076,1.302248112025329,0.9786695518412153,0.2859300581295733,0.7086928532433805
0.058,1.7343980891057194,1.0,2983.2748974679707,0.47926968084740396,1.3018632171139397,0.9789024123776311,0.2858977197424402,0.7094343053368064
0.0585,1.7336281275073138,1.0,2987.517587326058,0.4821905509276244,1.3014786178886386,0.9791298764188477,0.28586538135530715,0.7101742441197584
0.059000000000000004,1.7328581659089082,1.0,2991.730148915117,0.48509503682284033,1.3010943064144251,0.9793521121581225,0.28583304296817413,0.7109126870051539
0.059500000000000004,1.7320882043105024,1.0,2995.9134267943455,0.48798323325491966,1.3007102747562989,0.9795692812024736,0.2858007045810411,0.7116496513265027
0.06,1.7313182427120968,1.0,3000.0682686088376,0.49085523494573047,1.3003265149792589,0.9797815388822034,0.28576836619390805,0.7123851543380517
0.0605,1.7305482811136912,1.0,3004.194287817218,0.49371109569419835,1.2999430298677321,0.9799890318694563,0.28573602780677504,0.713119192709709
0.061,1.7297783195152854,1.0,3008.2931116937166,0.49655094001425226,1.2995598047668049,0.9801919059087342,0.28570368941964197,0.7138517964543167
0.0615,1.7290083579168798,1.0,3012.365887270105,0.4993748755069737,1.299176829220748,0.9803903000817495,0.28567135103250896,0.7145829874279956
0.062,1.7282383963184742,1.0,3016.4130805246523,0.5021829866529924,1.298794098694529,0.9805843467724834,0.28563901264537594,0.715312776101161
0.0625,1.7274684347200684,1.0,3020.4351592476983,0.504975357932938,1.2984116086531161,0.980774173443288,0.2856066742582429,0.7160411728987865
0.063,1.7266984731216628,1.0,3024.4325930175896,0.5077520738274404,1.2980293545614774,0.9809599028547097,0.2855743358711098,0.7167681882004757
0.0635,1.7259285115232572,1.0,3028.405853176523,0.510513218817129,1.2976473318845807,0.9811416532739173,0.2855419974839768,0.7174938323405302
0.064,1.7251585499248514,1.0,3032.3554128068363,0.5132588773826336,1.2972655360873941,0.9813195386724058,0.2855096590968438,0.7182181156080172
0.0645,1.7243885883264458,1.0,3036.281746708249,0.5159891340045841,1.2968839626348856,0.9814936689136005,0.2854773207097107,0.7189410482468364
0.065,1.7236186267280402,1.0,3040.18533137545,0.5187040731636099,1.2965026069920231,0.9816641499309494,0.2854449823225777,0.719662640455784
0.0655,1.7228486651296344,1.0,3044.066644975379,0.5214037793403408,1.2961214646237744,0.9818310838970511,0.28541264393544463,0.7203829023886184
0.066,1.7220787035312288,1.0,3047.92616732618,0.5240883370154066,1.295740530995108,0.9819945693843285,0.2853803055483116,0.7211018441541186
0.0665,1.7213087419328232,1.0,3051.764379875531,0.5267578306694368,1.2953598015709915,0.9821547015177315,0.2853479671611786,0.7218194758161496
0.067,1.7205387803344174,1.0,3055.5817656800264,0.5294123447830612,1.2949792718163928,0.9823115721199167,0.28531562877404554,0.7225358073937201
0.0675,1.7197688187360118,1.0,3059.378809385042,0.5320519638369096,1.2945989371962803,0.9824652698493225,0.28528329038691247,0.7232508488610399
0.068,1.7189988571376063,1.0,3063.1559972048904,0.5346767723116115,1.2942187931756215,0.9826158803315402,0.28525095199977946,0.7239646101475794
0.0685,1.7182288955392004,1.0,3066.913816902868,0.5372868546877967,1.2938388352193846,0.9827634862843464,0.28521861361264644,0.724677101138123
0.069,1.7174589339407949,1.0,3070.652757773019,0.5398822954460949,1.2934590587925376,0.9829081676367442,0.2851862752255134,0.7253883316728251
0.0695,1.7166889723423893,1.0,3074.373310621372,0.5424631790671357,1.2930794593600488,0.9830500016423436,0.28515393683838036,0.7260983115472626
0.07,1.7159190107439835,1.0,3078.07596774778,0.5450295900315489,1.2927000323868856,0.9831890629873848,0.2851215984512473,0.7268070505124877
0.07050000000000001,1.7151490491455779,1.0,3081.7608698393083,0.5475815941824309,1.2923207763584728,0.9833254229155123,0.2850892600641143,0.7275145526440681
0.07100000000000001,1.7143790875471723,1.0,3085.4281656077496,0.5501192642221602,1.2919416896969194,0.9834591507566879,0.2850569216769812,0.7282208221202413
