Time [s],Phi [rad],STIM [ ],Fsee [N],Gamma [ ],Lcerel [ ],q [ ],Lmtc [m],fisomrel [ ]
0.0,1.8,1.0,18.10243409739469,0.00037590473285791887,1.3793246192112296,0.005036594831166083,0.288653,0.541176126467652
0.0005,1.79999375,1.0,18.528732237706386,0.005983005513424219,1.3792744926385143,0.013987500621311214,0.2886527375,0.5412973827608341
0.001,1.799975,1.0,22.141988606237124,0.01155865489183658,1.3788851433173186,0.03754076763286974,0.28865195,0.542238674022369
0.0015,1.79994375,1.0,32.186285160471954,0.01710302928660471,1.3779518753496058,0.07322991191786307,0.2886506375,0.5444910073970537
0.002,1.7999,1.0,55.876329851919145,0.022616304124372745,1.3762208721332305,0.11781974648135693,0.2886488,0.5486538755462738
0.0025,1.79984375,1.0,100.88063511687875,0.02809865384928578,1.3737556220957776,0.16794248931503009,0.28864643749999996,0.5545495374738465
0.003,1.7997750000000001,1.0,165.792517247697,0.03355025192795038,1.3710347281223896,0.2207502429483004,0.28864354999999997,0.5610115769360473
0.0035,1.79969375,1.0,243.1124665674173,0.03897127085145659,1.3684184467311393,0.2740609080912173,0.2886401375,0.5671806381001743
0.004,1.7996,1.0,327.2235925120312,0.04436188214523585,1.3660042927821905,0.3262522447826811,0.2886362,0.5728343675542366
0.0045000000000000005,1.7994937500000001,1.0,415.2163126000659,0.049722256374608025,1.3637836824806495,0.37620014993986167,0.2886317375,0.5780020164566899
0.005,1.799375,1.0,505.4726969058319,0.05505256313591479,1.3617299731938237,0.42320814305273374,0.28862675,0.5827532732563634
0.0055,1.79924375,1.0,596.8966239724064,0.060352971095872086,1.3598198412436961,0.4669141508398189,0.2886212375,0.5871482201765348
0.006,1.7991000000000001,1.0,688.6237790927241,0.06562364795768547,1.3580356770126516,0.5071980138923743,0.2886152,0.5912323150066716
0.006500000000000001,1.79894375,1.0,779.9442031114811,0.07086476047302738,1.3563639570874,0.544102871144797,0.2886086375,0.5950405933960771
0.007,1.798775,1.0,870.2728747445896,0.07607647453724489,1.3547938516404867,0.5777745755606826,0.28860155,0.598601157009274
0.0075,1.79859375,1.0,959.1217472581039,0.08125895489804155,1.3533165002669587,0.6084178487212873,0.2885939375,0.6019370237216459
0.008,1.7984,1.0,1046.1166035040972,0.08641236581129016,1.3519239861850356,0.636265585316389,0.2885858,0.6050685840166928
0.0085,1.79819375,1.0,1130.9378460014245,0.0915368700771011,1.3506097309491663,0.6615591760670807,0.2885771375,0.6080128079201316
0.009000000000000001,1.797975,1.0,1213.3412000413346,0.09663262975595305,1.3493677735218284,0.684535499139244,0.28856795,0.6107849452308689
0.0095,1.79774375,1.0,1293.1704416059952,0.10169980658222598,1.3481923500437467,0.7054192651516512,0.2885582375,0.613399513300424
0.01,1.7975,1.0,1370.2873752814976,0.10673856045469642,1.3470786368414787,0.7244194660431087,0.288548,0.6158686857406281
0.0105,1.79724375,1.0,1444.6027365054924,0.11174905069433909,1.34602213099598,0.7417273280943023,0.2885372375,0.6182037144802326
0.011,1.796975,1.0,1516.0822028768364,0.11673143609469694,1.3450184540338792,0.7575159641370289,0.28852595000000003,0.6204153902298214
0.0115,1.79669375,1.0,1584.7111070863168,0.12168587461745756,1.3440636870671618,0.7719411506262812,0.2885141375,0.6225133266637441
0.012,1.7964,1.0,1650.478184611443,0.12661252236623588,1.3431544505913366,0.7851424324415176,0.28850180000000003,0.6245058132632586
0.0125,1.79609375,1.0,1713.4090036219836,0.1315115351243719,1.342287418499918,0.797244224936501,0.2884889375,0.6264009028592536
0.013000000000000001,1.7957750000000001,1.0,1773.5581459227994,0.1363830685153883,1.3414593598752305,0.8083572568216634,0.28847555,0.6282063314846871
0.0135,1.79544375,1.0,1830.9828543834105,0.1412272772666731,1.3406673861208003,0.8185800686867053,0.2884616375,0.6299289924541505
0.014,1.7951000000000001,1.0,1885.7268324793906,0.146044313538521,1.3399090693766844,0.828000367349745,0.2884472,0.6315746956488404
0.0145,1.79474375,1.0,1937.8574793566904,0.15083432949122663,1.33918198178294,0.8366960742475861,0.2884322375,0.6331491812302212
0.015,1.794375,1.0,1987.4588038645543,0.15559747688108777,1.3384837491207837,0.8447364732122697,0.28841675,0.6346580088684259
0.0155,1.79399375,1.0,2034.6185482779013,0.16033390698984487,1.337812163036698,0.8521832582888584,0.2884007375,0.6361063217616947
0.016,1.7936,1.0,2079.425552258919,0.16504377061864262,1.3371651812420606,0.8590914266320262,0.2883842,0.6374988538201799
0.0165,1.7931937500000001,1.0,2121.945332789449,0.1697272154574791,1.336541155147207,0.8655101345732906,0.2883671375,0.6388394479980342
0.017,1.792775,1.0,2162.255504175304,0.17438438919635244,1.335938436162473,0.8714832711450097,0.28834955,0.6401319104231888
0.0175,1.7923437500000001,1.0,2200.4447627652253,0.1790154395252607,1.3353553756981935,0.877050080567601,0.2883314375,0.6413800127242458
0.018000000000000002,1.7919,1.0,2236.597102628659,0.1836205126591308,1.334790474071122,0.8822457471222481,0.2883128,0.6425871762475555
0.0185,1.79144375,1.0,2270.8114976932807,0.18819975646649417,1.3342421698142315,0.8871018148855888,0.2882936375,0.6437569257585283
0.019,1.790975,1.0,2303.1601836639697,0.1927533149306315,1.3337092470781329,0.8916467073663935,0.28827395,0.6448920230055666
0.0195,1.79049375,1.0,2333.713204407342,0.19728133104598403,1.3331905756642113,0.8959060200505777,0.2882537375,0.64599502643033
0.02,1.79,1.0,2362.5463597903886,0.20178394780699296,1.3326850253738507,0.8999028209396787,0.288233,0.6470684754209194
0.0205,1.78949375,1.0,2389.7407212701683,0.20626130820809957,1.3321914660084362,0.9036579341832865,0.2882117375,0.648114891298361
0.021,1.788975,1.0,2415.366624778128,0.2107135531000182,1.3317089176331016,0.9071902204384361,0.28818995000000003,0.6491364603401666
0.021500000000000002,1.78844375,1.0,2439.5125957541863,0.2151408264467364,1.3312362646296916,0.9105167333501939,0.2881676375,0.6501356409252836
0.022,1.7879,1.0,2462.238981435956,0.2195432671260224,1.330772699223431,0.9136530021796133,0.2881448,0.6511142265575436
0.0225,1.78734375,1.0,2483.6037514935047,0.2239210131636279,1.3303174654507848,0.9166131435557138,0.28812143749999997,0.6520738903640613
0.023,1.786775,1.0,2503.6675909300807,0.2282742025853044,1.329869807348218,0.9194100004904391,0.28809755,0.6530162952807702
0.0235,1.78619375,1.0,2522.4936721544427,0.23260297341680355,1.3294289689521956,0.9220552749100299,0.28807313749999996,0.6539430944358844
0.024,1.7856,1.0,2540.141459312539,0.23690746263290735,1.3289942506485755,0.9245596545318294,0.2880482,0.6548558132658875
0.0245,1.78499375,1.0,2556.671253274731,0.2411878071126443,1.328564963671539,0.9269329076653137,0.2880227375,0.6557559459423477
0.025,1.784375,1.0,2572.152056272784,0.2454441446925966,1.3281403546414416,0.9291839625143973,0.28799675,0.6566451136983065
0.025500000000000002,1.78374375,1.0,2586.626033293085,0.24967660810427672,1.327719936773964,0.931321043051038,0.2879702375,0.6575243719415467
0.026000000000000002,1.7831000000000001,1.0,2600.136598893515,0.25388533007919706,1.3273032232847863,0.9333516948904718,0.2879432,0.6583947704955017
0.0265,1.78244375,1.0,2612.7283136689866,0.25807044334886997,1.326889727389589,0.9352828503976476,0.2879156375,0.6592573537218118
0.027,1.781775,1.0,2624.44678597146,0.26223208064480785,1.3264789623040525,0.9371208867517078,0.28788755,0.6601131606277713
0.0275,1.7810959014082595,1.0,2635.443696299655,0.2663703746087056,1.3260704404597545,0.9388716776485713,0.2878590278591469,0.6609632265892273
0.028,1.780415735248078,1.0,2646.199204921555,0.27048545418090997,1.325663877193198,0.9405406682491972,0.2878304608804193,0.6618081603682836
0.0285,1.7797355690878969,1.0,2656.752354905012,0.2745774547037168,1.3252593800519747,0.9421329445177371,0.28780189390169164,0.6626477541077967
0.029,1.7790554029277155,1.0,2667.1042296581495,0.27864650346326564,1.3248569267748802,0.9436531846806675,0.28777332692296403,0.6634820699183039
0.029500000000000002,1.778375236767534,1.0,2677.25595938842,0.28269272774569587,1.3244564951007098,0.9451057170544752,0.28774475994423643,0.6643111696012853
0.03,1.7776950706073527,1.0,2687.2087200994797,0.28671625483714686,1.324058062768259,0.9464945506895783,0.2877161929655088,0.6651351146520508
0.0305,1.7770149044471715,1.0,2696.9637325991207,0.2907172120237581,1.3236616075163226,0.9478234029691404,0.2876876259867812,0.6659539662625956
0.031,1.77633473828699,1.0,2706.5222615176,0.29469572659166904,1.3232671070836959,0.9490957244982575,0.28765905900805355,0.6667677853244207
0.0315,1.7756545721268087,1.0,2715.8864283244875,0.29865191882262976,1.32287453179182,0.9503147184483586,0.28763049202932595,0.6675766477047609
0.032,1.7749744059666273,1.0,2725.0589665634798,0.3025859192115875,1.3224838468251479,0.9514833668756044,0.28760192505059834,0.6683806394670109
0.0325,1.774294239806446,1.0,2734.0426957729796,0.3064978611461919,1.3220950170398498,0.952604447029284,0.28757335807187073,0.6691798469327133
0.033,1.7736140736462647,1.0,2742.8416485707717,0.31038786484616526,1.3217079967335077,0.953680542147379,0.2875447910931431,0.66997437767128
0.0335,1.7729339074860833,1.0,2751.4599120881135,0.3142560505312299,1.3213227402037042,0.9547140621747758,0.28751622411441546,0.6707643387371901
0.034,1.7722537413259019,1.0,2759.9016261597535,0.318102538421108,1.320939201748021,0.9557072574589853,0.28748765713568786,0.6715498366752011
0.0345,1.7715735751657204,1.0,2768.17098155921,0.32192744873552204,1.3205573356640405,0.9566622312098287,0.28745909015696025,0.6723309775254198
0.035,1.7708934090055393,1.0,2776.272218281543,0.32573090169419416,1.3201770962493447,0.9575809508476284,0.28743052317823264,0.6731078668282459
0.035500000000000004,1.7702132428453579,1.0,2784.209623871577,0.3295130175168467,1.3197984378015157,0.9584652583506847,0.28740195619950504,0.6738806096291776
0.036000000000000004,1.7695330766851765,1.0,2791.9875317989336,0.3332739164232019,1.3194213146181357,0.9593168797006819,0.2873733892207774,0.6746493104834884
0.0365,1.7688529105249953,1.0,2799.6103198793708,0.3370137186329821,1.3190456809967868,0.9601374335139947,0.2873448222420498,0.6754140734607672
0.037,1.7681727443648139,1.0,2807.0824087416017,0.34073254436590955,1.318671491235051,0.9609284389374314,0.28731625526332216,0.6761750021493266
0.0375,1.7674925782046325,1.0,2814.40277540642,0.34443047800396726,1.3182987487287114,0.961691320035868,0.28728768828459456,0.6769320999927826
0.038,1.766812412044451,1.0,2821.5804727711393,0.34810766258428955,1.3179273669010798,0.9624274193080734,0.28725912130586695,0.677685552855058
0.0385,1.7661322458842699,1.0,2828.624679222911,0.3517642452923511,1.3175572586099575,0.9631380002084928,0.28723055432713934,0.6784355468881651
0.039,1.7654520797240885,1.0,2835.5385825484614,0.35540033581391134,1.3171883906720658,0.9638242495621671,0.28720198734841174,0.6791821582361766
0.0395,1.764771913563907,1.0,2842.325399109082,0.35901604383472957,1.3168207299041264,0.964487285543192,0.2871734203696841,0.6799254627009459
0.04,1.7640917474037257,1.0,2848.988372940382,0.3626114790405651,1.3164542431228605,0.9651281623819077,0.28714485339095647,0.6806655357446987
0.0405,1.7634115812435445,1.0,2855.5307748760456,0.36618675111717736,1.3160888971449898,0.9657478747012936,0.28711628641222886,0.6814024524925513
0.041,1.762731415083363,1.0,2861.9559016967173,0.3697419697503257,1.315724658787236,0.966347361515384,0.28708771943350125,0.6821362877349599
0.0415,1.7620512489231817,1.0,2868.267075302555,0.3732772446257694,1.3153614948663201,0.9669275099193124,0.28705915245477365,0.6828671159301019
0.042,1.7613710827630003,1.0,2874.467641910601,0.3767926854292678,1.3149993721989641,0.9674891584977181,0.287030585476046,0.6835950112061813
0.0425,1.7606909166028188,1.0,2880.560971276905,0.38028840184658036,1.3146382576018891,0.9680331004757006,0.2870020184973184,0.6843200473636711
0.043000000000000003,1.7600107504426377,1.0,2886.550455941985,0.3837645035634663,1.3142781178918168,0.9685600866341948,0.28697345151859077,0.6850422978774786
0.043500000000000004,1.7593305842824563,1.0,2892.4395105017757,0.387221100265685,1.3139189198854686,0.9690708280095962,0.28694488453986317,0.6857618358990458
0.044,1.7586504181222748,1.0,2898.2315709026534,0.39065830163899584,1.3135606303995662,0.9695659983956136,0.28691631756113556,0.6864787342583758
0.0445,1.7579702519620937,1.0,2903.930093760479,0.3940762173691582,1.3132032162508307,0.9700462366636652,0.2868877505824079,0.687193065465993
0.045,1.7572900858019123,1.0,2909.538555704883,0.3974749571419314,1.312846644255984,0.9705121489166496,0.28685918360368035,0.687904901714827
0.0455,1.7566099196417309,1.0,2915.0604527467303,0.40085463064307475,1.3124908812317475,0.9709643104895749,0.2868306166249527,0.6886143148820341
0.046,1.7559297534815494,1.0,2920.4992996716096,0.4042153475583476,1.3121358939948424,0.9714032678093223,0.2868020496462251,0.6893213765307413
0.0465,1.755249587321368,1.0,2925.8586294561514,0.4075572175735094,1.3117816493619907,0.9718295401247318,0.28677348266749747,0.6900261579117242
0.047,1.7545694211611869,1.0,2931.140343268888,0.41088033694992887,1.3114281286178229,0.9722436204001369,0.28674491568876986,0.6907287012295944
0.0475,1.7538892550010055,1.0,2936.344308215748,0.4141847907434523,1.31107533097123,0.972645977465263,0.28671634871004226,0.6914290129500629
0.048,1.753209088840824,1.0,2941.4785205147355,0.41747073125954853,1.310723184486023,0.9730370610714784,0.2866877817313146,0.6921272405065846
0.0485,1.7525289226806429,1.0,2946.544671055866,0.42073825706462714,1.3103716726654082,0.9734172965199186,0.286659214752587,0.6928234209402956
0.049,1.7518487565204615,1.0,2951.544459942073,0.4239874667250978,1.3100207790125922,0.9737870890245864,0.2866306477738594,0.693517591136561
0.0495,1.75116859036028,1.0,2956.479596260743,0.4272184588073702,1.309670487030781,0.9741468248442207,0.2866020807951318,0.6942097878256344
0.05,1.7504884242000986,1.0,2961.351797860252,0.430431331877854,1.309320780223181,0.974496872340476,0.28657351381640417,0.6949000475832989
0.0505,1.7498082580399172,1.0,2966.162791133021,0.4336261845029588,1.3089716420929987,0.9748375829678327,0.2865449468376765,0.6955884068314921
0.051000000000000004,1.749128091879736,1.0,2970.914310804808,0.4368031152490944,1.3086230561434402,0.9751692922002175,0.2865163798589489,0.6962749018389125
0.051500000000000004,1.7484479257195547,1.0,2975.6080997292115,0.4399622226826703,1.308275005877712,0.9754923203989023,0.2864878128802213,0.6969595687216092
0.052000000000000005,1.7477677595593732,1.0,2980.2459086890312,0.4431036053700963,1.3079274747990202,0.9758069736258983,0.2864592459014937,0.6976424434435549
0.0525,1.747087593399192,1.0,2984.8294962031514,0.446227361877782,1.3075804464105714,0.9761135444067055,0.2864306789227661,0.6983235618171991
0.053,1.7464074272390107,1.0,2989.3606283399968,0.4493335907721371,1.3072339042155718,0.976412312445993,0.2864021119440384,0.6990029595040077
0.0535,1.7457272610788293,1.0,2993.8410785364526,0.45242239061957124,1.3068878317172279,0.9767035452994915,0.2863735449653108,0.6996806720149822
0.054,1.7450470949186478,1.0,2998.2726274230145,0.4554938599864941,1.3065422124187458,0.9769874990051306,0.2863449779865832,0.7003567347111624
0.0545,1.7443669287584667,1.0,3002.657062655078,0.45854809743931535,1.306197029823332,0.97726441867622,0.2863164110078556,0.7010311828041119
0.055,1.7436867625982853,1.0,3006.9961787501948,0.4615852015444446,1.3058522674341928,0.9775345390592569,0.286287844029128,0.7017040513563871
0.0555,1.7430065964381039,1.0,3011.2917769313954,0.4646052708682916,1.3055079087545343,0.9777980850587489,0.28625927705040033,0.7023753752819871
0.056,1.7423264302779224,1.0,3015.5456649765138,0.46760840397726594,1.3051639372875632,0.9780552722312602,0.2862307100716727,0.7030451893467864
0.0565,1.7416462641177413,1.0,3019.7578197899775,0.47059467162796687,1.3048203524138136,0.9783063056532884,0.2862021430929451,0.7037134973033117
0.057,1.7409660979575599,1.0,3023.9296251169417,0.47356417468778583,1.3044771413749745,0.97855138406757,0.2861735761142175,0.7043803264672315
0.0575,1.7402859317973784,1.0,3028.0644857319844,0.47651704335373296,1.3041342740148851,0.9787906997363648,0.2861450091354899,0.7050457377852002
0.058,1.739605765637197,1.0,3032.1632062458543,0.4794533658970526,1.3037917426908339,0.9790244347831678,0.28611644215676224,0.7057097483190886
0.0585,1.7389255994770156,1.0,3036.226594428644,0.4823732305889892,1.303449539760109,0.9792527640990902,0.28608787517803463,0.7063723750617923
0.059000000000000004,1.7382454333168345,1.0,3040.2554611532196,0.48527672570078695,1.303107657579999,0.9794758556871761,0.286059308199307,0.707033634937392
0.059500000000000004,1.737565267156653,1.0,3044.2506203404287,0.48816393950369036,1.3027660885077925,0.9796938709877128,0.2860307412205794,0.7076935448013124
0.06,1.7368851009964716,1.0,3048.212888905538,0.49103496026894367,1.3024248249007782,0.9799069651857277,0.2860021742418518,0.7083521214404773
0.0605,1.7362049348362905,1.0,3052.143086705682,0.4938898762677913,1.302083859116244,0.9801152875017761,0.2859736072631242,0.7090093815734606
0.061,1.735524768676109,1.0,3056.042036488649,0.49672877577147767,1.3017431835114786,0.980318981467049,0.2859450402843966,0.709665341850632
0.0615,1.7348446025159276,1.0,3059.910563843094,0.499551747051247,1.3014027904437706,0.9805181851837605,0.28591647330566894,0.7103200188543002
0.062,1.7341644363557462,1.0,3063.7494971504343,0.5023588783783438,1.3010626722704084,0.9807130315717106,0.28588790632694133,0.7109734290988542
0.0625,1.7334842701955648,1.0,3067.5596675368556,0.5051502580240123,1.3007228213486803,0.9809036486018504,0.2858593393482137,0.7116255890308982
0.063,1.7328041040353837,1.0,3071.3419088281075,0.5079259742594969,1.300383230035875,0.9810901595176351,0.2858307723694861,0.7122765150293832
0.0635,1.7321239378752022,1.0,3075.0970575043457,0.510686115356042,1.3000438906892808,0.9812726830448831,0.2858022053907585,0.7129262234057363
0.064,1.7314437717150208,1.0,3078.82595265703,0.513430769584892,1.2997047956661862,0.9814513335908207,0.28577363841203085,0.7135747304039846
0.0645,1.7307636055548397,1.0,3082.5294359470518,0.5161600252172911,1.2993659373238797,0.9816262214329462,0.28574507143330324,0.7142220522008766
0.065,1.7300834393946583,1.0,3086.2083515634586,0.5188739705244838,1.29902730801965,0.9817974528983038,0.28571650445457564,0.7148682049059993
0.0655,1.7294032732344768,1.0,3089.863546184586,0.5215726937777143,1.2986889001107849,0.9819651305337191,0.28568793747584803,0.7155132045618928
0.066,1.7287231070742954,1.0,3093.495868939374,0.5242562832482272,1.2983507059545734,0.9821293532675163,0.2856593704971204,0.7161570671441573
0.0665,1.728042940914114,1.0,3097.105676972602,0.52692481191071,1.2980127221270779,0.9822902157543175,0.28563080351839276,0.7167998005433964
0.067,1.7273627747539329,1.0,3100.692899760855,0.5295783479955951,1.2976749488621238,0.9824478092401357,0.2856022365396652,0.7174414056758036
0.0675,1.7266826085937514,1.0,3104.2594180575193,0.5322170204650564,1.29733736976416,0.9826022249696529,0.28557366956093755,0.7180819149927654
0.068,1.72600244243357,1.0,3107.805612791891,0.5348409081204302,1.2969999812537363,0.9827535484270624,0.28554510258220994,0.7187213365283174
0.0685,1.7253222762733889,1.0,3111.3318660965856,0.5374500897630529,1.2966627797514039,0.982901862201319,0.28551653560348234,0.719359678284981
0.069,1.7246421101132074,1.0,3114.838561293394,0.5400446441942608,1.296325761677713,0.9830472461042553,0.28548796862475473,0.7199969482338112
0.0695,1.723961943953026,1.0,3118.326082878198,0.5426246502153904,1.2959889234532145,0.983189777283098,0.2854594016460271,0.7206331543144361
0.07,1.7232817777928446,1.0,3121.7948165066255,0.545190186627778,1.2956522614984587,0.9833295303276887,0.28543083466729946,0.7212683044350989
0.07050000000000001,1.7226016116326632,1.0,3125.2451489801992,0.54774133223276,1.2953157722339959,0.9834665773726892,0.28540226768857185,0.7219024064726999
