Time [s],Phi [rad],STIM [ ],Fsee [N],Gamma [ ],Lcerel [ ],q [ ],Lmtc [m],fisomrel [ ]
0.0,1.8,1.0,18.56732886958032,0.0007901690326938428,1.3792730593531801,0.005160711520991775,0.288653,0.5413008496456604
0.0005,1.79999375,1.0,19.11292948918192,0.0063949461181356864,1.3792105426355832,0.015247542700527972,0.2886527375,0.5414520547003399
0.001,1.799975,1.0,23.034242719864793,0.011968284835632344,1.378795985974833,0.039789121662954424,0.28865195,0.5424540848512565
0.0015,1.79994375,1.0,33.78630564067013,0.0175103615299544,1.3778195697923754,0.07624841720048725,0.2886506375,0.5448098618683176
0.002,1.7999,1.0,58.86113324891768,0.023021351555973745,1.3760337167894403,0.12135655252923466,0.2886488,0.5491028183594355
0.0025,1.79984375,1.0,105.51385501570104,0.02850142928475819,1.3735390195278763,0.17176595944325182,0.28864643749999996,0.555065691614008
0.003,1.7997750000000001,1.0,171.5756751712387,0.033950768111542844,1.3708232666194773,0.2246788845185674,0.28864354999999997,0.5615118142017221
0.0035,1.79969375,1.0,249.51212090731116,0.0393695404563931,1.368224800069929,0.2779572167273212,0.2886401375,0.5676355121602703
0.004,1.7996,1.0,333.9563814265843,0.044757917772869284,1.3658284424639853,0.3300169542943692,0.2886362,0.5732447407027252
0.0045000000000000005,1.7994937500000001,1.0,422.13237468693626,0.050116070535443306,1.3636231688970493,0.37976837710059724,0.2886317375,0.5783743336775128
0.005,1.799375,1.0,512.4960168627413,0.05544416834415024,1.3615821371954704,0.42654269566672354,0.28862675,0.5830942540215436
0.0055,1.79924375,1.0,603.9461616063556,0.06074237967426612,1.3596832188772483,0.4699990686860757,0.2886212375,0.5874616774811909
0.006,1.7991000000000001,1.0,695.6570264111955,0.0660108722986154,1.35790872266796,0.5100315063252138,0.2886152,0.591522149994226
0.006500000000000001,1.79894375,1.0,786.9102369006354,0.07124981275770083,1.3562457687293141,0.5466927913770468,0.2886086375,0.5953091590001914
0.007,1.798775,1.0,877.1462046380835,0.07645936700668321,1.3546834255064384,0.5801342422934563,0.28860155,0.5988509810938099
0.0075,1.79859375,1.0,965.8737018596033,0.08163969970975532,1.353213148548124,0.6105636919762887,0.2885939375,0.6021698714691355
0.008,1.7984,1.0,1052.71101877655,0.08679097477985227,1.3518273163853118,0.6382153514738521,0.2885858,0.6052855211897631
0.0085,1.79819375,1.0,1137.366021789604,0.09191335547559376,1.3505190867659573,0.6633304489907778,0.2885771375,0.6082154649641559
0.009000000000000001,1.797975,1.0,1219.5906035155087,0.09700700348831884,1.3492826839514673,0.6861452726335803,0.28856795,0.610974511134118
0.0095,1.79774375,1.0,1299.2134896874018,0.10207207995175464,1.3481126407318222,0.7068835997304711,0.2885582375,0.6135764966923383
0.01,1.7975,1.0,1376.1341714626892,0.10710874588300497,1.3470037100772345,0.7257529122153094,0.288548,0.6160345191091664
0.0105,1.79724375,1.0,1450.2530053333278,0.11211715995679306,1.3459516035380514,0.7429432130663323,0.2885372375,0.6183593367648306
0.011,1.796975,1.0,1521.5209926807797,0.11709748048991009,1.3449521806258646,0.7586264097763323,0.28852595000000003,0.6205612024281277
0.0115,1.79669375,1.0,1589.9267879936513,0.1220498651726253,1.3440015191327122,0.7729570144770544,0.2885141375,0.6226497284259767
0.012,1.7964,1.0,1655.4934012512397,0.12697447158045083,1.34309587149871,0.7860732467863369,0.28850180000000003,0.6246340017874383
0.0125,1.79609375,1.0,1718.2311726279795,0.1318714547351513,1.3422321351898254,0.798098569436597,0.2884889375,0.6265215741180263
0.013000000000000001,1.7957750000000001,1.0,1778.1776629464382,0.13674096929168572,1.3414073029260303,0.8091428474299563,0.28847555,0.62831968593359
0.0135,1.79544375,1.0,1835.391720555428,0.14158316934758752,1.3406184858848742,0.8193037588291119,0.2884616375,0.6300352266374227
0.014,1.7951000000000001,1.0,1889.950604939184,0.1463982091942604,1.3398629051552395,0.8286681188173257,0.2884472,0.6316747630721959
0.0145,1.79474375,1.0,1941.917263314524,0.15118624084151458,1.3391382092072117,0.8373132122998095,0.2884322375,0.633243861784839
0.015,1.794375,1.0,1991.3539645225635,0.1559474149806356,1.3384422774959086,0.845307818900531,0.28841675,0.6347475280720103
0.0155,1.79399375,1.0,2038.3411423247726,0.160681882302909,1.337772989476449,0.8527131310666275,0.2884007375,0.6361907129468836
0.016,1.7936,1.0,2082.962489257178,0.1653897925234893,1.3371283633893063,0.859583693335232,0.2883842,0.6375780184899484
0.0165,1.7931937500000001,1.0,2125.3179884662973,0.17007129618427808,1.336506399944827,0.865968142765194,0.2883671375,0.6389140395286101
0.017,1.792775,1.0,2165.483093520591,0.17472654071796953,1.3359054865607978,0.871910022340069,0.28834955,0.6402025003136279
0.0175,1.7923437500000001,1.0,2203.531542466456,0.17935567251895898,1.335324137530542,0.8774483053469514,0.2883314375,0.6414468201192542
0.018000000000000002,1.7919,1.0,2239.546565233281,0.1839588379816418,1.3347608671473834,0.8826178970129415,0.2883128,0.6426503884780992
0.0185,1.79144375,1.0,2273.6147558900643,0.18853618285321955,1.3342142427060606,0.8874501223034885,0.2882936375,0.6438164539936685
0.019,1.790975,1.0,2305.824356146347,0.19308785282874688,1.3336828921335941,0.8919731418804936,0.28827395,0.6449481106420925
0.0195,1.79049375,1.0,2336.259941762526,0.19761399286331374,1.3331655474790696,0.8962123237096316,0.2882537375,0.6460482078219766
0.02,1.79,1.0,2364.9865580526325,0.20211474472739027,1.3326611906445913,0.9001905905544673,0.288233,0.6471190441292183
0.0205,1.78949375,1.0,2392.0741865993796,0.2065902501914466,1.3321688035322634,0.9039286371361162,0.2882117375,0.6481629016579866
0.021,1.788975,1.0,2417.597336146999,0.21104065102595293,1.3316873680441899,0.9074451770442606,0.28818995000000003,0.6491820468109635
0.021500000000000002,1.78844375,1.0,2441.629401073143,0.21546608791773164,1.3312159165896638,0.9107571695759089,0.2881676375,0.6501786243548116
0.022,1.7879,1.0,2464.244535372317,0.2198667021448849,1.330753509522161,0.9138800054867405,0.2881448,0.6511547064374164
0.0225,1.78734375,1.0,2485.512655327626,0.22424263426039667,1.3302992790461827,0.9168276819395429,0.28812143749999997,0.6521122010891962
0.023,1.786775,1.0,2505.48886563393,0.22859402101001167,1.3298525252869549,0.9196129653710365,0.28809755,0.653052651663963
0.0235,1.78619375,1.0,2524.2306367527885,0.23292099913947464,1.3294125483697026,0.922247488970049,0.28807313749999996,0.6539775923998035
0.024,1.7856,1.0,2541.7976067267764,0.23722370539453033,1.328978648419651,0.9247418689210555,0.2880482,0.6548885487371798
0.0245,1.78499375,1.0,2558.2513938535803,0.24150227652092346,1.328550125562026,0.9271058073228235,0.2880227375,0.6557870376057939
0.025,1.784375,1.0,2573.6434973379646,0.24575684644623297,1.3281263915297006,0.9293482012280571,0.28799675,0.6566743341253114
0.025500000000000002,1.78374375,1.0,2588.0370616441323,0.24998755362385847,1.3277067633982,0.9314771904216591,0.2879702375,0.6575519044103193
0.026000000000000002,1.7831000000000001,1.0,2601.4820232952957,0.2541945321756557,1.3272906949766559,0.9335002648510753,0.2879432,0.6584209214977603
0.0265,1.78244375,1.0,2614.018787522618,0.2583779132670048,1.3268777396901554,0.9354243210567944,0.2879156375,0.6592823446908641
0.027,1.781775,1.0,2625.688749292925,0.26253782806328624,1.3264674509637862,0.9372557037595751,0.28788755,0.6601371283839537
0.0275,1.7810937500000001,1.0,2636.5342088012476,0.2666744077298801,1.3260593822226354,0.9390002573568261,0.2878589375,0.6609862221447492
0.028,1.7804,1.0,2646.598291385266,0.2707877834321667,1.3256530868917906,0.9406633719881623,0.2878298,0.6618305707839537
0.0285,1.77969375,1.0,2655.924871861754,0.2748780863355262,1.3252481183963394,0.9422500248017642,0.2878001375,0.66267111441212
0.029,1.778975,1.0,2664.5491594971836,0.2789454434562002,1.3248441161216948,0.9437648274344547,0.28776995,0.6635086103989631
0.029500000000000002,1.7782437500000001,1.0,2672.5187221974584,0.2829899889682292,1.3244406110298175,0.9452120356882752,0.2877392375,0.6643440367174703
0.03,1.7775,1.0,2679.8661252160678,0.28701185027311216,1.3240372769273,0.946595609421247,0.287708,0.6651780713059319
0.0305,1.77674375,1.0,2686.6197611614157,0.2910111526076498,1.3236338297782766,0.947919226151616,0.2876762375,0.6660113017316502
0.031,1.775975,1.0,2692.808389315196,0.294988021208643,1.3232299855468805,0.9491863003264343,0.28764395,0.6668443126382761
0.0315,1.7751937500000001,1.0,2698.4611016882045,0.2989425813128923,1.322825460197246,0.95040000541732,0.2876111375,0.6676776857411872
0.032,1.7744,1.0,2703.6072908648975,0.30287495815719856,1.3224199696935062,0.9515632939028058,0.2875778,0.668511999817725
0.0325,1.77359375,1.0,2708.276619636839,0.3067852769783625,1.3220132299997949,0.9526789153621851,0.2875439375,0.6693478306922807
0.033,1.772775,1.0,2712.497338033374,0.3106736621127244,1.3216049721650895,0.9537494343838869,0.28750955,0.6701857202764413
0.0335,1.7719437500000002,1.0,2716.2940179530233,0.31454023694572747,1.3211949626676462,0.9547772476229892,0.2874746375,0.671026135066739
0.034,1.7711000000000001,1.0,2719.692339496772,0.31838512523478946,1.3207829595030434,0.9557645924093577,0.2874392,0.6718695564173114
0.0345,1.7702437500000001,1.0,2722.7123518956973,0.3222084470229284,1.3203687733616805,0.9567135648317634,0.2874032375,0.6727163554041207
0.035,1.7693750000000001,1.0,2725.3742332534025,0.3260103223531622,1.3199522149339564,0.9576261258185483,0.28736675,0.6735669010167582
0.035500000000000004,1.76849375,1.0,2727.698276411588,0.3297908712685088,1.3195330949102708,0.9585041114165528,0.2873297375,0.6744215601309435
0.036000000000000004,1.7676,1.0,2729.7048756101067,0.3335502138119863,1.3191112239810228,0.9593492421753207,0.2872922,0.6752806974787422
0.0365,1.76669375,1.0,2731.42165830764,0.33728846515027444,1.318686347919831,0.9601631240457721,0.2872541375,0.6761448075558688
0.037,1.7657768508715925,1.0,2732.951267303563,0.34100574642075404,1.3182583677117135,0.9609472812647669,0.2872156277366069,0.6770140669052163
0.0375,1.764858653208677,1.0,2734.7269509051553,0.3447021836117708,1.3178275703201796,0.9617031841675865,0.28717706343476446,0.6778878684450615
0.038,1.7639404555457614,1.0,2736.7929703250843,0.34837789051406687,1.3173941425694684,0.9624322021825471,0.287138499132922,0.6787658107863264
0.0385,1.7630222578828456,1.0,2739.12906390808,0.35203298091838436,1.3169582712838193,0.9631356232594187,0.28709993483107954,0.6796474944667501
0.039,1.76210406021993,1.0,2741.7149766874263,0.3556675686154655,1.3165201432874716,0.9638146596075378,0.2870613705292371,0.6805325219811176
0.0395,1.7611858625570145,1.0,2744.530450650639,0.3592817673960524,1.3160799454046646,0.9644704529709318,0.2870228062273946,0.6814204978092611
0.04,1.760267664894099,1.0,2747.555215778406,0.36287569105088724,1.3156378644596376,0.9651040794823095,0.28698424192555216,0.682311028441835
0.0405,1.7593494672311834,1.0,2750.768981857815,0.3664494533707122,1.3151940872766301,0.9657165541336314,0.2869456776237097,0.6832037224038651
0.041,1.7584312695682678,1.0,2754.151431069444,0.3700031681462694,1.3147488006798813,0.9663088348972246,0.28690711332186725,0.6840981902760725
0.0415,1.7575130719053522,1.0,2757.682211347908,0.373536949168301,1.3143021914936308,0.9668818265281025,0.2868685490200248,0.6849940447139702
0.042,1.7565948742424367,1.0,2761.3416344612874,0.37705090971964467,1.3138544401805259,0.9674363834581317,0.28682998471818233,0.685890913198242
0.0425,1.755676676579521,1.0,2765.119501120626,0.380545158899859,1.3134056411186859,0.9679733059280073,0.28679142041633987,0.6867885973054384
0.043000000000000003,1.7547584789166055,1.0,2768.9997277013,0.3840198114528051,1.312955941601961,0.968493356448012,0.2867528561144974,0.6876867940562181
0.043500000000000004,1.75384028125369,1.0,2772.9737329112254,0.3874749752585813,1.3125054209091724,0.9689972505067288,0.28671429181265495,0.6885853376989189
0.044,1.7529220835907744,1.0,2777.0329150396674,0.39091075819728605,1.3120541583191418,0.9694856660551106,0.2866757275108125,0.6894840633792474
0.0445,1.7520038859278588,1.0,2781.1686505837697,0.39432726814901775,1.31160223311069,0.9699592458498896,0.28663716320897004,0.6903828071442322
0.045,1.7510856882649433,1.0,2785.3722930140098,0.39772461299387474,1.3111497245626385,0.9704185996285709,0.28659859890712763,0.6912814059457725
0.0455,1.7501674906020277,1.0,2789.635171679104,0.4011029006119555,1.310696711953808,0.9708643061296369,0.2865600346052852,0.6921796976437897
0.046,1.7492492929391121,1.0,2793.948590850428,0.4044622388833584,1.3102432745630204,0.9712969149703743,0.2865214703034427,0.6930775210089744
0.0465,1.7483310952761966,1.0,2798.31109290035,0.4078027239489922,1.3097894264589516,0.9717169420429185,0.28648290600160026,0.6939748445606946
0.047,1.747412897613281,1.0,2802.7075281153684,0.41112447796662266,1.3093353044962956,0.9721248901745297,0.2864443416997578,0.6948713947454849
0.0475,1.7464946999503654,1.0,2807.1326883691863,0.4144276060373917,1.3088809559998584,0.9725212289839993,0.28640577739791534,0.695767075958589
0.048,1.7455765022874499,1.0,2811.5834112197585,0.41771220971054257,1.3084264098277683,0.9729064036763966,0.2863672130960729,0.6966618294666886
0.0485,1.744658304624534,1.0,2816.0565243065444,0.42097839053531816,1.307971694838153,0.9732808381996054,0.2863286487942304,0.6975555968702665
0.049,1.7437401069616185,1.0,2820.548845233124,0.4242262500609616,1.3075168398891408,0.9736449364557686,0.28629008449238796,0.6984483201039431
0.0495,1.742821909298703,1.0,2825.0571814686205,0.42745588983671595,1.3070618738388595,0.9739990834330202,0.2862515201905455,0.6993399414367613
0.05,1.7419037116357874,1.0,2829.5783302672107,0.43066741141182424,1.306606825545437,0.9743436462634318,0.28621295588870305,0.7002304034724169
0.0505,1.7409855139728718,1.0,2834.1090786064433,0.4338609163355296,1.3061517238670017,0.9746789752126055,0.28617439158686064,0.701119649149436
0.051000000000000004,1.7400673163099563,1.0,2838.6462031435785,0.437036506157075,1.3056965976616814,0.9750054046059017,0.2861358272850182,0.7020076217413012
0.051500000000000004,1.7391491186470407,1.0,2843.1864701909317,0.4401942824257036,1.305241475787604,0.9753232536958913,0.2860972629831757,0.7028942648565227
0.052000000000000005,1.7382309209841251,1.0,2847.72663570938,0.44333434669065835,1.3047863871028975,0.9756328274752428,0.28605869868133327,0.7037795224386566
0.0525,1.7373127233212096,1.0,2852.2657403592184,0.44645678821823603,1.3043313400585308,0.9759344148702813,0.2860201343794908,0.7046633783742949
0.053,1.736394525658294,1.0,2856.801870417678,0.4495617089906975,1.3038763515581713,0.976228294012894,0.28598157007764835,0.7055458002668836
0.0535,1.7354763279953784,1.0,2861.330256352888,0.4526492268365967,1.3034214638051773,0.9765147340992303,0.2859430057758059,0.7064267069589396
0.054,1.7345581303324629,1.0,2865.8502493881474,0.45571943539745363,1.3029666823156156,0.9767939880581453,0.28590444147396343,0.7073060886692246
0.0545,1.7336399326695473,1.0,2870.3611988570833,0.45877242831478837,1.3025120126055534,0.9770662980498841,0.285865877172121,0.7081839356802855
0.055,1.7327217350066317,1.0,2874.8624522170126,0.4618082992301209,1.3020574601910573,0.9773318960151143,0.2858273128702785,0.7090602383384179
0.0555,1.7318035373437162,1.0,2879.3533550628526,0.46482714178497125,1.3016030305881943,0.9775910041915482,0.28578874856843606,0.7099349870536249
0.056,1.7308853396808006,1.0,2883.8332511419017,0.4678290496208594,1.3011487293130315,0.977843835600324,0.2857501842665936,0.7108081722995743
0.0565,1.729967142017885,1.0,2888.301482369267,0.4708141163793054,1.3006945618816355,0.9780905945041506,0.28571161996475114,0.7116797846135565
0.057,1.7290489443549695,1.0,2892.757388843657,0.4737824357018293,1.300240533810073,0.978331476839071,0.2856730556629087,0.7125498145964362
0.0575,1.728130746692054,1.0,2897.2003088642587,0.476734101229951,1.2997866506144116,0.9785666706215673,0.2856344913610663,0.7134182529126043
0.058,1.7272125490291383,1.0,2901.6295789480832,0.4796692066051907,1.2993329178107178,0.9787963563326025,0.2855959270592238,0.71428509028993
0.0585,1.7262943513662226,1.0,2906.044533848024,0.4825878454690682,1.2988793409150583,0.9790207072800785,0.28555736275738136,0.7151503175197078
0.059000000000000004,1.725376153703307,1.0,2910.444506571617,0.48549011146310367,1.2984259254435002,0.9792398899410879,0.2855187984555389,0.7160139254566023
0.059500000000000004,1.7244579560403914,1.0,2914.8288284004143,0.48837609822881706,1.2979726769121105,0.9794540642852348,0.28548023415369644,0.7168759050185938
0.06,1.7235397583774759,1.0,2919.1968289099946,0.49124589940772834,1.2975196008369558,0.9796633840802117,0.285441669851854,0.7177362471869212
0.0605,1.7226215607145603,1.0,2923.549053813778,0.49409957618078426,1.297066692038227,0.9798679940324059,0.2854031055500115,0.7185949632699784
0.061,1.7217033630516447,1.0,2927.884826057304,0.4969372465605668,1.296613956084548,0.9800680384031849,0.28536454124816907,0.7194520441832712
0.0615,1.7207851653887292,1.0,2932.2035097970033,0.49975901826393443,1.2961613981683515,0.9802636551361509,0.2853259769463266,0.7203074816166044
0.062,1.7198669677258136,1.0,2936.5051759864127,0.5025649759611395,1.2957090172746542,0.9804549749018375,0.28528741264448415,0.721161279025696
0.0625,1.718948770062898,1.0,2940.789896128034,0.5053552043224346,1.2952568123884718,0.9806421235200518,0.28524884834264175,0.7220134398539502
0.063,1.7180305723999825,1.0,2945.057742268813,0.5081297880180723,1.2948047824948206,0.9808252221763395,0.2852102840407993,0.7228639675324666
0.0635,1.717112374737067,1.0,2949.3087869967367,0.510888811718305,1.2943529265787164,0.9810043876272406,0.28517171973895683,0.7237128654800536
0.064,1.7161941770741513,1.0,2953.5431034363974,0.5136323600933854,1.2939012436251758,0.9811797323949887,0.28513315543711437,0.7245601371032369
0.0645,1.7152759794112358,1.0,2957.7607652455285,0.516360517813566,1.2934497326192147,0.9813513649522779,0.2850945911352719,0.7254057857962737
0.065,1.7143577817483202,1.0,2961.9618466107854,0.5190733695490991,1.2929983925458493,0.9815193898976684,0.28505602683342945,0.726249814941162
0.0655,1.7134395840854046,1.0,2966.146422244092,0.5217709999702375,1.2925472223900956,0.9816839081221672,0.285017462531587,0.727092227907653
0.066,1.712521386422489,1.0,2970.3145673786316,0.5244534937472336,1.29209622113697,0.9818450169674949,0.28497889822974454,0.72793302805326
0.0665,1.7116031887595735,1.0,2974.4663577653473,0.5271209355503399,1.2916453877714882,0.9820028103765035,0.2849403339279021,0.7287722187232726
0.067,1.710684991096658,1.0,2978.601869668738,0.529773410049809,1.2911947212786667,0.9821573790361916,0.2849017696260596,0.7296098032507641
0.0675,1.7097667934337424,1.0,2982.721179863367,0.5324110019158934,1.2907442206435216,0.9823088105137278,0.28486320532421716,0.7304457849566048
0.068,1.7088485957708266,1.0,2986.8243656300497,0.5350337958188456,1.290293884851069,0.9824571893858738,0.2848246410223747,0.7312801671494716
0.0685,1.707930398107911,1.0,2990.9115047522,0.5376418764289183,1.2898437128863247,0.9826025973621697,0.28478607672053224,0.7321129531258603
0.069,1.7070122004449955,1.0,2994.9826755119984,0.5402353284163637,1.2893937037343053,0.9827451134022216,0.2847475124186898,0.732944146170093
0.0695,1.70609400278208,1.0,2999.037956686711,0.5428142364514346,1.2889438563800268,0.9828848138274168,0.2847089481168473,0.7337737495543317
0.07,1.7051758051191643,1.0,3003.0773753162953,0.5453786617093243,1.288494170261106,0.9830217710155524,0.28467038381500487,0.7346017657058548
0.07050000000000001,1.7042576074562488,1.0,3007.1011303472,0.547928659182406,1.2880446433294788,0.9831560545457548,0.28463181951316247,0.7354281997742136
0.07100000000000001,1.7033394097933332,1.0,3011.1096276920025,0.5504643815603303,1.287595271752915,0.9832877374803711,0.28459325521132,0.73625306015742
0.07150000000000001,1.7024212121304176,1.0,3015.103013318359,0.5529859036700004,1.287146053958908,0.9834168859681967,0.28455469090947755,0.73707635107088
