Time [s],Phi [rad],STIM [ ],Fsee [N],Gamma [ ],Lcerel [ ],q [ ],Lmtc [m],fisomrel [ ]
0.0,1.8,1.0,17.965950672509855,1.0115946013724231e-05,1.379339881501824,0.005000027270917354,0.288653,0.5411392037697133
0.0005,1.79999375,1.0,18.275433295930647,0.0056192685123515424,1.3793025334020494,0.012940838846632541,0.2886527375,0.54122955406501
0.001,1.799975,1.0,21.617204672712326,0.01119695816771312,1.3789384223168237,0.03560919043791991,0.28865195,0.5421099237628717
0.0015,1.79994375,1.0,31.06815855998044,0.016743361395014863,1.3780462955243251,0.07060254873587324,0.2886506375,0.5442633878837202
0.002,1.7999,1.0,53.58138836870758,0.022258653685519138,1.3763681965277768,0.11471883662277989,0.2886488,0.5483003209261124
0.0025,1.79984375,1.0,97.11805143991513,0.027743009546403838,1.3739352099638382,0.1645757602458953,0.28864643749999996,0.5541213608077176
0.003,1.7997750000000001,1.0,160.9575776630195,0.03319660250847421,1.3712143658090308,0.21728134548861813,0.28864354999999997,0.560586398651145
0.0035,1.79969375,1.0,237.6829849148731,0.038619605125757586,1.3685847449102204,0.2706137721327429,0.2886401375,0.5667898144753436
0.004,1.7996,1.0,321.4666327498979,0.04401218898628489,1.3661560960668595,0.3229166550596874,0.2886362,0.5724799531666989
0.0045000000000000005,1.7994937500000001,1.0,409.26779624945397,0.049374524717275124,1.3639228130994545,0.3730353163292292,0.2886317375,0.5776791648781234
0.005,1.799375,1.0,499.4136946815791,0.05470678197623223,1.3618583382984109,0.4202482167006861,0.28862675,0.5824570886604364
0.0055,1.79924375,1.0,590.7907214841658,0.06000912949836216,1.3599388290918095,0.464174397988072,0.2886212375,0.5868751253571975
0.006,1.7991000000000001,1.0,682.5185140118851,0.06528173503983764,1.3581464073731468,0.5046806052264524,0.2886152,0.590979435222283
0.006500000000000001,1.79894375,1.0,773.8820091326901,0.07052476543429059,1.3564672407925793,0.5418013459167249,0.2886086375,0.5948058234748894
0.007,1.798775,1.0,864.2865212670238,0.07573838657011883,1.3548903835265727,0.5756773163718505,0.28860155,0.5983827030623794
0.0075,1.79859375,1.0,953.2434729887957,0.0809227634133506,1.3534067752293268,0.6065104084095205,0.2885939375,0.6017335817028319
0.008,1.7984,1.0,1040.3594900194228,0.08607806000753368,1.3520086311000123,0.634532500888128,0.2885858,0.6048785830073196
0.0085,1.79819375,1.0,1125.3226345364499,0.09120443946573312,1.3506891224861874,0.6599847796567581,0.2885771375,0.6078352658477928
0.009000000000000001,1.797975,1.0,1207.8883418015314,0.09630206397896876,1.3494421968138266,0.6831046598201188,0.28856795,0.6106191042280832
0.0095,1.79774375,1.0,1287.860884311737,0.10137109423638975,1.3482625382719389,0.7041180418688282,0.2885582375,0.6132436365956196
0.01,1.7975,1.0,1365.1643601960936,0.10641169244106935,1.3471444198410876,0.7232345587800634,0.288548,0.6157230605012587
0.0105,1.79724375,1.0,1439.6747355181924,0.1114240167748058,1.3460837556936434,0.7406468528919327,0.2885372375,0.6180677106026231
0.011,1.796975,1.0,1511.3273424334516,0.11640822533487853,1.345076490999332,0.7565293604313688,0.28852595000000003,0.6202876765292983
0.0115,1.79669375,1.0,1580.1136572719872,0.121364476218567,1.3441185709278791,0.7710388892300086,0.2885141375,0.6223928862964102
0.012,1.7964,1.0,1646.0547613822866,0.12629292661228966,1.3432061912862925,0.7843158210460536,0.28850180000000003,0.6243925709909337
0.0125,1.79609375,1.0,1709.1757795557296,0.13119373272391233,1.3423360140617837,0.7964855200472694,0.2884889375,0.6262948133810275
0.013000000000000001,1.7957750000000001,1.0,1769.499737002401,0.13606704893902177,1.3415051497153652,0.8076597096052656,0.28847555,0.6281066094320346
0.0135,1.79544375,1.0,1827.0769837104501,0.14091302935501837,1.340710756667281,0.8179376996605816,0.2884616375,0.629834758581661
0.014,1.7951000000000001,1.0,1881.9794611927218,0.1457318276142708,1.3399500700165128,0.8274077416289876,0.2884472,0.6314858096166074
0.0145,1.79474375,1.0,1934.2900037809404,0.15052359724397474,1.3392204841548931,0.8361483011749385,0.2884322375,0.633065890082015
0.015,1.794375,1.0,1984.062983470919,0.15528848862226835,1.3385199374600392,0.8442293092214231,0.28841675,0.6345798850192959
0.0155,1.79399375,1.0,2031.3708642419265,0.1600266521272898,1.3378463683095694,0.8517129732651999,0.2884007375,0.6360326257016415
0.016,1.7936,1.0,2076.302663778701,0.16473823813717728,1.3371977150811012,0.8586546896697759,0.2883842,0.637428893316596
0.0165,1.7931937500000001,1.0,2118.9416340717644,0.16942339529766237,1.33657213151011,0.8651039145217352,0.2883671375,0.638772960110782
0.017,1.792775,1.0,2159.3945352028854,0.1740822739870385,1.3359676636006,0.871104773282036,0.28834955,0.6400692889501088
0.0175,1.7923437500000001,1.0,2197.727527657467,0.17871502012286594,1.3353828922173545,0.8766968669203825,0.2883314375,0.6413211594640382
0.018000000000000002,1.7919,1.0,2234.01556832328,0.1833217795743776,1.334816403728145,0.8819156558819679,0.2883128,0.6425318105693618
0.0185,1.79144375,1.0,2268.3421664028097,0.1879026982108062,1.3342667845007428,0.8867929422088825,0.2882936375,0.6437044540163712
0.019,1.790975,1.0,2300.7907454899523,0.1924579209155413,1.3337326992154457,0.8913573121642646,0.28827395,0.6448421092932808
0.0195,1.79049375,1.0,2331.4517760216327,0.19698759325683685,1.3332128114112334,0.8956344863014487,0.2882537375,0.6459477752277483
0.02,1.79,1.0,2360.404353013655,0.20149185894195065,1.3327059576531468,0.8996476837210589,0.288233,0.6470240616776228
0.0205,1.78949375,1.0,2387.712625502632,0.20597085907898738,1.3322111717424772,0.9034179059219651,0.2882117375,0.6480731421220993
0.021,1.788975,1.0,2413.445188036569,0.21042473477605161,1.3317274874805158,0.9069641393078112,0.28818995000000003,0.6490971749039037
0.021500000000000002,1.78844375,1.0,2437.674711574407,0.2148536271412481,1.3312539386685536,0.9103035761697096,0.2881676375,0.6500983039431446
0.022,1.7879,1.0,2460.472565526791,0.21925767627915602,1.330789607259133,0.9134518182539406,0.2881448,0.6510785578104228
0.0225,1.78734375,1.0,2481.910058815034,0.22363702253399428,1.3303336073598095,0.9164230440561728,0.28812143749999997,0.652039884721477
0.023,1.786775,1.0,2502.0576064347847,0.227991806113609,1.3298850897133947,0.9192301593044192,0.28809755,0.6529841440841375
0.0235,1.78619375,1.0,2520.967969099538,0.2323221630401344,1.3294433970153832,0.9218849560902395,0.28807313749999996,0.6539127811319025
0.024,1.7856,1.0,2538.6960237334447,0.23662822933570468,1.3290078719612692,0.9243981932370434,0.2880482,0.654827232740807
0.0245,1.78499375,1.0,2555.2985865284763,0.24091014102245412,1.3285778572465479,0.9267797010686629,0.2880227375,0.655728927701745
0.025,1.784375,1.0,2570.8342455807674,0.2451680341225169,1.3281526955667131,0.9290384742858825,0.28799675,0.6566192869652427
0.025500000000000002,1.78374375,1.0,2585.3536840202755,0.24940204236072264,1.3277318185214546,0.9311827682429309,0.2879702375,0.6574995380376925
0.026000000000000002,1.7831000000000001,1.0,2598.915202715302,0.25361230252085876,1.32731459947548,0.9332201489528175,0.2879432,0.6583710235019327
0.0265,1.78244375,1.0,2611.5705672793674,0.2577989489221488,1.3269004846530799,0.93515757782194,0.2879156375,0.6592349270841247
0.027,1.781775,1.0,2623.3585535255584,0.2619621120440252,1.326489051003637,0.9370014770201531,0.28788755,0.6600921542562008
0.0275,1.7810937500000001,1.0,2634.318824934265,0.2661019223659203,1.3260798754765335,0.9387577612043821,0.2878589375,0.6609436058967105
0.028,1.7804,1.0,2644.4918565389476,0.27021851036726646,1.3256725350211527,0.9404318843355984,0.2878298,0.6617901783574494
0.0285,1.77969375,1.0,2653.9188627803674,0.27431200652749615,1.3252666065868768,0.9420288816102985,0.2878001375,0.6626327635186797
0.029,1.778975,1.0,2662.641729328147,0.2783825413260416,1.3248616671230886,0.9435534070694104,0.28776995,0.6634722488329323
0.029500000000000002,1.7782437500000001,1.0,2670.694320246931,0.2824302413649047,1.324457372868816,0.9450097768270345,0.2877392375,0.6643093532878384
0.03,1.7775,1.0,2678.12159950025,0.28645523977333565,1.3240532827831104,0.9464019784684047,0.287708,0.6651449933593415
0.0305,1.77674375,1.0,2684.9556860465636,0.2904576636809467,1.3236490781849886,0.9477337240366667,0.2876762375,0.6659798284120126
0.031,1.775975,1.0,2691.223831361043,0.29443763769953496,1.323244488508021,0.9490084648993914,0.28764395,0.6668144153354205
0.0315,1.7751937500000001,1.0,2696.9536151909506,0.29839528644089747,1.3228392431857787,0.9502294083711199,0.2876111375,0.6676493082245971
0.032,1.7744,1.0,2702.1729148125905,0.3023307345168313,1.322433071651832,0.9513995379873558,0.2875778,0.6684850583710605
0.0325,1.77359375,1.0,2706.909875911546,0.3062441065391336,1.3220257033397518,0.9525216318594059,0.2875439375,0.669322214249165
0.033,1.772775,1.0,2711.192885085749,0.3101355271196014,1.3216168676831088,0.9535982793123259,0.28750955,0.670161321497786
0.0335,1.7719437500000002,1.0,2715.0467146642372,0.31400511783043694,1.3212063290149445,0.9546318991464313,0.2874746375,0.6710028514054311
0.034,1.7711000000000001,1.0,2718.4948776218484,0.3178530003617558,1.3207938647874495,0.9556247514791609,0.2874392,0.6718472459015674
0.0345,1.7702437500000001,1.0,2721.5708561265187,0.3216793059618862,1.320379163141164,0.9565789412620669,0.2874032375,0.6726951269928807
0.035,1.7693750000000001,1.0,2724.2914932374624,0.3254841525664906,1.3199620650565043,0.9574964506475399,0.28736675,0.673546801418295
0.035500000000000004,1.76849375,1.0,2726.6737394791917,0.32926765811123154,1.3195424115138863,0.9583791353233307,0.2873297375,0.6744025741195476
0.036000000000000004,1.7676,1.0,2728.7346416678065,0.3330299405317715,1.3191200434937267,0.959228734031948,0.2872922,0.6752627482160778
0.0365,1.76669375,1.0,2730.4913322981115,0.33677111776377283,1.3186948019764413,0.9600468772696825,0.2872541375,0.6761276249783064
0.037,1.765775,1.0,2731.9610194908873,0.34049130774289815,1.3182665279424468,0.9608350952443773,0.28721555,0.6769975037992977
0.0375,1.76484375,1.0,2733.1609775015463,0.3441906284048099,1.3178350623721593,0.961594825162668,0.2871764375,0.6778726821648138
0.038,1.7639,1.0,2734.1085377887225,0.34786919768517055,1.3174002462459948,0.9623274179099875,0.28713679999999997,0.6787534556217534
0.0385,1.76294375,1.0,2734.8210806441043,0.3515271335196426,1.3169619205443701,0.9630341441800547,0.28709663750000003,0.6796401177449758
0.039,1.761975,1.0,2735.307717552694,0.3551645477706055,1.3165200017006244,0.9637162059118425,0.28705595,0.6805328077915711
0.0395,1.7609937500000001,1.0,2735.587241656027,0.3587815610349774,1.3160743185344657,0.9643747289873366,0.2870147375,0.6814318404431542
0.04,1.76,1.0,2735.6772853664324,0.3623782910349266,1.3156247106664416,0.9650107751356651,0.286973,0.6823375064308834
0.0405,1.7589937500000001,1.0,2735.587253842339,0.3659548488171807,1.315171092617368,0.9656253512710854,0.2869307375,0.6832499438085918
0.041,1.757975,1.0,2735.326570038587,0.3695113454284671,1.3147133789080614,0.9662194078350037,0.28688795,0.6841692893375988
0.0415,1.75694375,1.0,2734.904671689072,0.37304789191551324,1.3142514840593376,0.9667938425478916,0.2868446375,0.685095678464617
0.042,1.7559,1.0,2734.331008451161,0.37656459932504655,1.3137853225920126,0.9673495038745116,0.28680079999999997,0.6860292452991918
0.0425,1.75484375,1.0,2733.6150392121403,0.3800615787037946,1.3133148090269025,0.967887194227087,0.2867564375,0.6869701225906749
0.043000000000000003,1.753775,1.0,2732.766229557105,0.3835389410984847,1.3128398578848235,0.9684076729287004,0.28671155,0.6879184417047304
0.043500000000000004,1.75269375,1.0,2731.794049400129,0.3869967975558443,1.3123603836865914,0.9689116589571186,0.28666613750000003,0.6888743325993796
0.044,1.7516,1.0,2730.7079707757657,0.3904352591226009,1.3118763009530225,0.9693998334873509,0.2866202,0.6898379238005731
0.0445,1.75049375,1.0,2729.5145704784645,0.3938544284211058,1.3113875505221828,0.9698728430513245,0.2865737375,0.6908092901141424
0.045,1.7493750000000001,1.0,2728.224638643452,0.39725442407280204,1.3108940349339357,0.9703313002958058,0.28652675,0.6917885811304105
0.0455,1.74824375,1.0,2726.844374707121,0.4006353526151355,1.3103956984344782,0.9707757880415053,0.2864792375,0.6927758622237643
0.046,1.7471,1.0,2725.3793181966594,0.40399731860829957,1.309892491259439,0.9712068598819615,0.2864312,0.6937711857813091
0.0465,1.7459437500000001,1.0,2723.8350069243847,0.40734042661248765,1.3093843636444464,0.971625041770721,0.28638263750000004,0.6947746031005132
0.047,1.744775,1.0,2722.216976160731,0.4106647811878932,1.3088712658251291,0.9720308336603781,0.28633355,0.6957861643736685
0.0475,1.74359375,1.0,2720.5307578622796,0.41397048689470944,1.3083531480371156,0.9724247110294594,0.28628393750000003,0.6968059186721962
0.048,1.7424,1.0,2718.78187995407,0.41725764829312995,1.3078299605160344,0.972807126305803,0.2862338,0.6978339139307931
0.0485,1.74119375,1.0,2716.9758656679355,0.4205263699433481,1.307301653497514,0.9731785101943549,0.2861831375,0.6988701969314218
0.049,1.739975,1.0,2715.11823293411,0.4237767564055571,1.3067681772171829,0.9735392729166205,0.28613195,0.69991481328714
0.0495,1.7387437522245555,1.0,2713.215443519282,0.4270089119331909,1.3062294742571194,0.9738898048122836,0.2860802375934313,0.700967822373113
0.05,1.7375064880505233,1.0,2711.580970791416,0.43022293830116826,1.3056856132936674,0.9742304861750745,0.28602827249812196,0.7020290364326354
0.0505,1.7362692238764912,1.0,2710.4702016085425,0.4334189377171946,1.3051369796432002,0.9745617007333307,0.28597630740281266,0.7030976519586264
0.051000000000000004,1.735031959702459,1.0,2709.846638579177,0.43659701016835284,1.304583903319094,0.9748838107164246,0.2859243423075033,0.7041729778026301
0.051500000000000004,1.733794695528427,1.0,2709.673938984636,0.4397572556417259,1.3040267143347253,0.9751971618904511,0.28587237721219394,0.7052543270753551
0.052000000000000005,1.732557431354395,1.0,2709.9158834795376,0.44289977412439674,1.3034657427034697,0.9755020844605313,0.2858204121168846,0.7063410172367077
0.0525,1.7313201671803629,1.0,2710.5365616180943,0.44602466554029907,1.3029013164829863,0.9757988937859455,0.2857684470215752,0.7074323739568678
0.053,1.7300829030063307,1.0,2711.5049595084997,0.4491320287305856,1.3023337196973472,0.9760878884451918,0.28571648192626586,0.7085278122894321
0.0535,1.7288456388322986,1.0,2712.790304473248,0.4522219629137967,1.3017632346161634,0.9763693539032555,0.2856645168309565,0.7096267545726733
0.054,1.7276083746582664,1.0,2714.3695419858304,0.45529456495316206,1.3011900734315571,0.9766435587543517,0.2856125517356472,0.7107287616909861
0.0545,1.7263711104842343,1.0,2716.2196406795188,0.45834993171191163,1.3006144483356505,0.9769107600886735,0.28556058664033784,0.7118333974867745
0.055,1.7251338463102022,1.0,2718.317580256788,0.4613881600532754,1.3000365715205664,0.9771712040874084,0.2855086215450285,0.7129402287952298
0.0555,1.72389658213617,1.0,2720.6423082538267,0.4644093460953648,1.2994566372622514,0.9774251254512988,0.2854566564497191,0.7140488596925524
0.056,1.722659317962138,1.0,2723.1727729298536,0.4674135864420767,1.2988748397712624,0.9776727491480802,0.2854046913544098,0.7151588971674179
0.0565,1.7214220537881058,1.0,2725.892973488575,0.47040097555779053,1.2982913271811407,0.9779142879935279,0.28535272625910046,0.7162700386751073
0.057,1.7201847896140736,1.0,2728.7879626552,0.4733716074402611,1.2977062379410524,0.9781499455054038,0.2853007611637911,0.7173820022033977
0.0575,1.7189475254400415,1.0,2731.8427783768007,0.4763255760872432,1.297119710500164,0.9783799169560444,0.28524879606848175,0.7184945077560547
0.058,1.7177102612660093,1.0,2735.047013371437,0.47926297184053196,1.296531841772273,0.9786043871208321,0.2851968309731724,0.7196073559156365
0.0585,1.7164729970919772,1.0,2738.3844629476052,0.48218389018541485,1.2959427811688646,0.9788235367913677,0.28514486587786303,0.7207202495983339
0.059000000000000004,1.715235732917945,1.0,2741.836312610653,0.48508842965440235,1.2953527014993431,0.9790375411715734,0.28509290078255367,0.72183284986301
0.059500000000000004,1.713998468743913,1.0,2745.3951787180936,0.4879766797261632,1.294761671607406,0.9792465621703741,0.2850409356872443,0.7229450157882901
0.06,1.712761204569881,1.0,2749.0536642343673,0.4908487298793662,1.2941697603367506,0.9794507554213414,0.284988970591935,0.7240566074726362
0.0605,1.7115239403958489,1.0,2752.8043573326563,0.4937046695926801,1.293577036531074,0.9796502705763322,0.28493700549662565,0.7251674860383689
0.061,1.7102866762218167,1.0,2756.6398301023855,0.4965445883447737,1.2929835690340736,0.9798452515832272,0.2848850404013163,0.7262775136353834
0.0615,1.7090494120477846,1.0,2760.5526373614666,0.4993685756143159,1.292389426689447,0.9800358369487424,0.28483307530600693,0.7273865534445682
0.062,1.7078121478737525,1.0,2764.535315573625,0.5021767208799753,1.291794678340891,0.980222159987228,0.28478111021069763,0.7284944696809184
0.0625,1.7065748836997203,1.0,2768.5803818707764,0.5049691136204207,1.2911993928321033,0.9804043490562961,0.28472914511538827,0.729601127596347
0.063,1.7053376195256882,1.0,2772.6803331809438,0.5077458433143212,1.2906036390067808,0.980582527780073,0.2846771800200789,0.730706393482196
0.0635,1.704100355351656,1.0,2776.8303883114168,0.5105069941277769,1.2900074609905252,0.9807568136104763,0.28462521492476955,0.7318101803884853
0.064,1.702863091177624,1.0,2781.0261829788024,0.5132526528598921,1.2894108990343804,0.9809273197373685,0.2845732498294602,0.7329124091840296
0.0645,1.7016258270035918,1.0,2785.257450747909,0.515982918775738,1.2888140463860531,0.9810941588235327,0.28452128473415084,0.7340129037312333
0.065,1.7003885628295596,1.0,2789.521556700388,0.5186978752944311,1.2882169273990396,0.9812574349566908,0.2844693196388415,0.7351116159459719
0.0655,1.6991512986555275,1.0,2793.8158581359626,0.5213976058350875,1.2876195664268362,0.9814172485384195,0.2844173545435321,0.7362084981136441
0.066,1.6979140344814954,1.0,2798.1377044352607,0.5240821938168236,1.2870219878229388,0.9815736964419238,0.2843653894482228,0.7373035028895689
0.0665,1.6966767703074632,1.0,2802.484436935361,0.5267517226587556,1.2864242159408437,0.9817268721619781,0.28431342435291346,0.7383965832993398
0.067,1.695439506133431,1.0,2806.8533888193897,0.5294062757799997,1.285826275134047,0.9818768659574747,0.2842614592576041,0.7394876927391456
0.0675,1.694202241959399,1.0,2811.241885018369,0.532045936599672,1.2852281897560451,0.9820237649869972,0.28420949416229474,0.7405767849760507
0.068,1.6929649777853668,1.0,2815.647242126746,0.5346707885368891,1.2846299841603341,0.9821676534378018,0.28415752906698544,0.7416638141482397
0.0685,1.6917277136113347,1.0,2820.0667683306065,0.5372809150107669,1.2840316827004101,0.9823086126485759,0.2841055639716761,0.7427487347652217
0.069,1.6904904494373025,1.0,2824.497763349904,0.5398763994404219,1.2834333097297694,0.9824467212263097,0.2840535988763667,0.7438315017079993
0.0695,1.6892531852632704,1.0,2828.9375183926713,0.5424573252449701,1.2828348896019082,0.9825820551576071,0.28400163378105736,0.7449120702291978
0.07,1.6880159210892385,1.0,2833.383316123386,0.545023775843528,1.2822364466703224,0.9827146879147318,0.283949668685748,0.7459903959531576
0.07050000000000001,1.6867786569152063,1.0,2837.837216559342,0.5475758072727924,1.2816379626247774,0.9828446869250038,0.28389770359043864,0.7470665115069022
0.07100000000000001,1.6855413927411742,1.0,2842.2928543414387,0.5501135349831956,1.2810394942610548,0.9829721244463636,0.2838457384951293,0.7481403146221
0.07150000000000001,1.684304128567142,1.0,2846.748895575102,0.5526370395649879,1.2804410534145796,0.9830970662588925,0.28379377339982,0.7492117843103345
0.07200000000000001,1.68306686439311,1.0,2851.204654786806,0.5551463973925078,1.2798426461170307,0.983219575518833,0.2837418083045106,0.7502809101218697
0.0725,1.6818296002190778,1.0,2855.659444389364,0.5576416848400936,1.2792442784000877,0.9833397133691723,0.28368984320920126,0.7513476816990252
