Time [s],Phi [rad],STIM [ ],Fsee [N],Gamma [ ],Lcerel [ ],q [ ],Lmtc [m],fisomrel [ ]
0.0,1.8,1.0,17.967194691805194,1.0000031393906615e-05,1.3793397421277884,0.005000026651939032,0.288653,0.541139540951604
0.0005,1.79999375,1.0,18.27652324399975,0.005619153247920576,1.3793024123274982,0.012940514528917462,0.2886527375,0.5412298469468768
0.001,1.799975,1.0,21.61814045450619,0.01119684354982485,1.37893832673892,0.035608578239597316,0.28865195,0.5421101547458788
0.0015,1.79994375,1.0,31.068903136113928,0.01674324742004183,1.3780462320882754,0.07060170788670372,0.2886506375,0.5442635408286283
0.002,1.7999,1.0,53.581787193329944,0.022258540349856106,1.3763681706538973,0.11471783999469654,0.2886488,0.548300383031374
0.0025,1.79984375,1.0,97.11796450853215,0.027742896846463954,1.373935214152874,0.1645746774175991,0.28864643749999996,0.5541213508177432
0.003,1.7997750000000001,1.0,160.9570630104411,0.033196490440692006,1.3712143850730172,0.2172802306764503,0.28864354999999997,0.5605863530448397
0.0035,1.79969375,1.0,237.6821721703472,0.03861949368658745,1.3685847699449414,0.2706126653669195,0.2886401375,0.5667897556270237
0.004,1.7996,1.0,321.4656135650152,0.04401207817220061,1.3661561230612014,0.3229155849502706,0.2886362,0.5724798901300714
0.0045000000000000005,1.7994937500000001,1.0,409.26662748132424,0.04937441452476931,1.3639228405349155,0.3730343016484461,0.2886317375,0.5776791012021634
0.005,1.799375,1.0,499.4124089789325,0.05470667240180905,1.3618583656194978,0.42024726831052045,0.28862675,0.5824570256096488
0.0055,1.79924375,1.0,590.789357769848,0.060009020538581134,1.3599388557354886,0.464173520547595,0.2886212375,0.5868750641958774
0.006,1.7991000000000001,1.0,682.5170842731134,0.0652816266912413,1.3581464333619981,0.504679799473596,0.2886152,0.5909793758612241
0.006500000000000001,1.79894375,1.0,773.8805043187168,0.07052465769223067,1.3564672664807411,0.5418006100006745,0.2886086375,0.594805765075728
0.007,1.798775,1.0,864.284604442138,0.07573827943484158,1.3548904144894411,0.575676650062128,0.28860155,0.5983826329831399
0.0075,1.79859375,1.0,953.2416431782405,0.08092265688164664,1.353406803373714,0.6065098018955289,0.2885939375,0.6017335182690465
0.008,1.7984,1.0,1040.3531550571465,0.08607795401075492,1.3520087243696641,0.6345319895344098,0.2885858,0.6048783736213068
0.0085,1.79819375,1.0,1125.3184214218734,0.09120433415623054,1.3506891821282327,0.6599842994332877,0.2885771375,0.6078351324560944
0.009000000000000001,1.797975,1.0,1207.8832890998722,0.09630195923361419,1.349442265853399,0.6831042305632672,0.28856795,0.6106189503674819
0.0095,1.79774375,1.0,1287.8703214593156,0.10137099058028742,1.3482624133919496,0.7041175509502217,0.2885582375,0.6132439139617818
0.01,1.7975,1.0,1365.1628924930571,0.10641158896359414,1.3471444387050626,0.7232341815633623,0.288548,0.6157230187377137
0.0105,1.79724375,1.0,1439.659830228153,0.11142391337662565,1.3460839422442825,0.740646591462911,0.2885372375,0.6180672988541331
0.011,1.796975,1.0,1511.3092998569307,0.1164081222858123,1.34507671139749,0.7565291416295873,0.28852595000000003,0.6202871914894561
0.0115,1.79669375,1.0,1580.112455291231,0.12136437424100492,1.3441185852874287,0.7710386007589607,0.2885141375,0.6223928547824575
0.012,1.7964,1.0,1646.0655178300706,0.12629282571774145,1.3432060653840685,0.784315496765582,0.28850180000000003,0.624392846567559
0.0125,1.79609375,1.0,1709.1777618759284,0.1311936320792304,1.3423359912915391,0.796485263030899,0.2884889375,0.6262948630945129
0.013000000000000001,1.7957750000000001,1.0,1769.493052490885,0.13606694852804668,1.341505225178043,0.8076595120577916,0.28847555,0.6281064450768308
0.0135,1.79544375,1.0,1827.0751717524497,0.14091292962018537,1.3407107767979025,0.8179374977462766,0.2884616375,0.6298347148398273
0.014,1.7951000000000001,1.0,1881.9896397383482,0.14573172931173736,1.339949958596019,0.8274075084199678,0.2884472,0.6314860511816484
0.0145,1.79474375,1.0,1934.289919687494,0.15052349906060922,1.3392204850628993,0.8361481236500125,0.2884322375,0.6330658881176383
0.015,1.794375,1.0,1984.0504869687215,0.1552883903247075,1.3385200706890503,0.8442291893077638,0.28841675,0.6345795973873737
0.0155,1.79399375,1.0,2031.3534151552371,0.16002655366444732,1.3378465521607412,0.85171287927407,0.2884007375,0.6360322295698329
0.016,1.7936,1.0,2076.296327171601,0.16473814055214447,1.337197781119899,0.858654567523989,0.2883842,0.637428751300436
0.0165,1.7931937500000001,1.0,2118.95958258689,0.1694233000564096,1.336571946346565,0.8651037274150769,0.2883671375,0.6387733575653218
0.017,1.792775,1.0,2159.4119958241245,0.17408217918425456,1.3359674851655394,0.8711045991320789,0.28834955,0.6400696712740531
0.0175,1.7923437500000001,1.0,2197.7331857972235,0.17871492494269134,1.3353828349016226,0.8766967360915604,0.2883314375,0.6413212820578794
0.018000000000000002,1.7919,1.0,2234.012666867034,0.1833216843387318,1.3348164328796142,0.8819155561306313,0.2883128,0.6425317483219734
0.0185,1.79144375,1.0,2268.333580343739,0.18790260280194418,1.3342668701113107,0.8867928632465216,0.2882936375,0.6437042715114417
0.019,1.790975,1.0,2300.79251919344,0.19245782749227053,1.3337326816552337,0.891357214119219,0.28827395,0.6448421466683878
0.0195,1.79049375,1.0,2331.4601496021155,0.19698750157116782,1.333212729057182,0.8956343794982529,0.2882537375,0.6459479502368144
0.02,1.79,1.0,2360.4052075197787,0.20149176727013843,1.332705949300785,0.8996475999629133,0.288233,0.6470240794000751
0.0205,1.78949375,1.0,2387.7015509760577,0.20597076682068471,1.3322112793696723,0.9034178527485437,0.2882117375,0.6480729140930024
0.021,1.788975,1.0,2413.427729092293,0.21042464245430903,1.3317276562474738,0.9069641029763764,0.28818995000000003,0.6490968178589218
0.021500000000000002,1.78844375,1.0,2437.6520954715643,0.21485353426262382,1.3312541561981128,0.9103035525277127,0.2881676375,0.6500978443924627
0.022,1.7879,1.0,2460.460350342357,0.21925758549799915,1.330789724203332,0.9134517773618119,0.2881448,0.6510783111016696
0.0225,1.78734375,1.0,2481.911819004805,0.22363693446341742,1.3303335905812845,0.9164229806197646,0.28812143749999997,0.6520399200691209
0.023,1.786775,1.0,2502.0620156587847,0.22799171837942295,1.3298850478532525,0.9192300942445408,0.28809755,0.6529842321519685
0.0235,1.78619375,1.0,2520.9688651431175,0.23232207446656006,1.3294433885405177,0.9218848998151392,0.28807313749999996,0.6539127989379512
0.024,1.7856,1.0,2538.6925008654734,0.23662813994537307,1.3290079051643626,0.9243981467682295,0.2880482,0.6548271630719317
0.0245,1.78499375,1.0,2555.2929047692896,0.24091005156932618,1.3285779106229891,0.9267796604221971,0.2880227375,0.6557288158502264
0.025,1.784375,1.0,2570.82177464858,0.2451679440019168,1.32815281236858,0.9290384462919896,0.28799675,0.656619042521019
0.025500000000000002,1.78374375,1.0,2585.350679031358,0.2494019559351817,1.3277318465868004,0.9311827287562645,0.2879702375,0.6574994793775699
0.026000000000000002,1.7831000000000001,1.0,2598.920907609679,0.2536122192429897,1.3273145463333822,0.9332200994808728,0.2879432,0.6583711344342226
0.0265,1.78244375,1.0,2611.5748706075638,0.2577988657992097,1.3269004446640575,0.9351575324998601,0.2879156375,0.6592350104542138
0.027,1.781775,1.0,2623.3560048063555,0.2619620274777106,1.326489074634558,0.9370014427465388,0.28788755,0.6600921050518817
0.0275,1.7810937500000001,1.0,2634.308684403266,0.2661018361523611,1.3260799693006156,0.9387577383254984,0.2878589375,0.6609434107809617
0.028,1.7804,1.0,2644.478136705023,0.27021842369703025,1.3256726617179624,0.9404318672623978,0.2878298,0.6617899152089848
0.0285,1.77969375,1.0,2653.9055585099763,0.27431191913655534,1.3252667292277305,0.9420288646221445,0.2878001375,0.6626325091119077
0.029,1.778975,1.0,2662.6332999831834,0.2783824556703479,1.3248617446986957,0.9435533853304809,0.28776995,0.6634720881100749
0.029500000000000002,1.7782437500000001,1.0,2670.6948329091347,0.2824301611219358,1.324457368157887,0.9450097467773477,0.2877392375,0.6643093630358972
0.03,1.7775,1.0,2678.1223249112113,0.2864551620270175,1.3240532761264516,0.9464019501592497,0.287708,0.665145007116434
0.0305,1.77674375,1.0,2684.948381888657,0.29045758492129164,1.323649145125537,0.9477337060396495,0.2876762375,0.6659796902407815
0.031,1.775975,1.0,2691.206006649154,0.29443755634045665,1.32324465167629,0.9490084591176019,0.28764395,0.6668140789626085
0.0315,1.7751937500000001,1.0,2696.928559860809,0.2983952028202111,1.322839472299858,0.9502294105944644,0.2876111375,0.6676488364960116
0.032,1.7744,1.0,2702.140499269451,0.30233064565187806,1.322433367783883,0.9513995470938384,0.2875778,0.6684844494245638
0.0325,1.77359375,1.0,2706.8737353624138,0.3062440134412422,1.3220260332126805,0.9525216439014477,0.2875439375,0.6693215367771224
0.033,1.772775,1.0,2711.1648148236363,0.3101354369426831,1.3216171236918313,0.9535982836318492,0.28750955,0.6701607963909226
0.0335,1.7719437500000002,1.0,2715.033204613202,0.314005036106876,1.3212064521427827,0.9546318907968034,0.2874746375,0.6710025991768058
0.034,1.7711000000000001,1.0,2718.4985338000447,0.31785293088449607,1.3207938314869823,0.9556247292832735,0.2874392,0.6718473140302986
0.0345,1.7702437500000001,1.0,2721.580577843451,0.3216792412262183,1.320379074645878,0.9565789148900548,0.2874032375,0.672695307809474
0.035,1.7693750000000001,1.0,2724.299243650501,0.325484087082718,1.3199619945409167,0.9574964267459829,0.28736675,0.6735469453105817
0.035500000000000004,1.76849375,1.0,2726.6745554094687,0.3292675884046702,1.3195424040935464,0.9583791177211822,0.2873297375,0.6744025892414436
0.036000000000000004,1.7676,1.0,2728.7266411991636,0.33302986514275,1.3191201162252144,0.9592287239306364,0.2872922,0.6752626001926201
0.0365,1.76669375,1.0,2730.4757203744334,0.3367710372476327,1.3186949438573683,0.960046873418586,0.2872541375,0.676127336606342
0.037,1.765775,1.0,2731.94209172714,0.3404912246699933,1.3182666999114556,0.9608350941027879,0.28721555,0.6769971547432125
0.0375,1.76484375,1.0,2733.1396209354907,0.3441905417378089,1.317835256365599,0.9615948256274224,0.2871764375,0.6778722889381822
0.038,1.7639,1.0,2734.0867425561173,0.3478691092862697,1.3174004441897824,0.9623274185839914,0.28713679999999997,0.6787530549366353
0.0385,1.76294375,1.0,2734.8039971217304,0.3515270490538175,1.3169620756762366,0.9630341417868439,0.28709663750000003,0.6796398041550118
0.039,1.761975,1.0,2735.3025525799208,0.3551644738217213,1.31652004859843,0.9637161957605903,0.28705595,0.6805327131226003
0.0395,1.7609937500000001,1.0,2735.593608157225,0.35878149637125006,1.3160742607298304,0.9643747113852933,0.2870147375,0.6814319569645766
0.04,1.76,1.0,2735.6883899713675,0.3623782294836728,1.3156246098439057,0.9650107546778971,0.286973,0.6823377093778135
0.0405,1.7589937500000001,1.0,2735.598146876778,0.36595478594025854,1.3151709937141243,0.965625331196513,0.2869307375,0.6832501426060313
0.041,1.757975,1.0,2735.3341465408184,0.3695112785222762,1.3147133101139539,0.9662193901009706,0.28688795,0.6841694274142803
0.0415,1.75694375,1.0,2734.9076717522366,0.3730478200109948,1.3142514568168626,0.9667938278997745,0.2868446375,0.6850957330627536
0.042,1.7559,1.0,2734.3300169610884,0.3765645231876833,1.3137853315963186,0.9673494919106912,0.28680079999999997,0.6860292272799375
0.0425,1.75484375,1.0,2733.612485050652,0.3800615008336106,1.3133148322257897,0.9678871834595736,0.2867564375,0.6869700762350933
0.043000000000000003,1.753775,1.0,2732.7614875336926,0.38353885998597287,1.3128399009622769,0.9684076635456942,0.28671155,0.6879183557586506
0.043500000000000004,1.75269375,1.0,2731.788305126413,0.3869967151921323,1.3123604358779684,0.9689116503696327,0.28666613750000003,0.6888742286292271
0.044,1.7516,1.0,2730.704931806437,0.3904351801440797,1.3118763285700028,0.9693998237152561,0.2866202,0.689837868870203
0.0445,1.75049375,1.0,2729.517446265283,0.3938543608821906,1.3113875243824442,0.969872831038373,0.2865737375,0.6908093420247854
0.045,1.7493750000000001,1.0,2728.2319281804953,0.39725436344684056,1.3108939686593575,0.9703312864652522,0.28652675,0.6917887125358242
0.0455,1.74824375,1.0,2726.854457099955,0.400635293878405,1.310395606744807,0.9707757728292196,0.2864792375,0.6927760437293466
0.046,1.7471,1.0,2725.391111392065,0.4039972582172594,1.3098923839828573,0.9712068435637726,0.2864312,0.6937713977978996
0.0465,1.7459437500000001,1.0,2723.8479672621966,0.4073403625037793,1.3093842457175728,0.9716250244636092,0.28638263750000004,0.6947748357837007
0.047,1.744775,1.0,2722.2310978351416,0.41066471277834016,1.3088711372930182,0.9720308153239569,0.28633355,0.6957864175615993
0.0475,1.74359375,1.0,2720.5465723044863,0.41397041508131743,1.3083530040532578,0.9724246914676893,0.28628393750000003,0.6968062018218482
0.048,1.7424,1.0,2718.800455147265,0.4172575754530867,1.3078297913423562,0.9728071051688929,0.2862338,0.6978342460526832
0.0485,1.74119375,1.0,2716.992304461375,0.4205262989585951,1.307301503731328,0.9731784909858475,0.2861831375,0.69887049044791
0.049,1.739975,1.0,2715.1403648187434,0.42377668840527755,1.3067679755150376,0.9735392508119219,0.28613195,0.699915207903078
0.0495,1.73874375,1.0,2713.2468034219933,0.4270088459854101,1.3062291873494964,0.9738897775064834,0.2860802375,0.7009683827017443
0.05,1.7375,1.0,2711.302485870921,0.4302228733971693,1.3056852229443772,0.974230452450419,0.286028,0.7020297974280818
0.0505,1.7362483980044807,1.0,2709.5283744904214,0.43341887233873166,1.3051361660093528,0.9745616393779094,0.2859754327161882,0.7030992353096706
0.051000000000000004,1.7349966776200594,1.0,2708.295783869049,0.43659694404209415,1.3045821192097444,0.9748836865402379,0.2859228604600425,0.7041764434237916
0.051500000000000004,1.7337449572356378,1.0,2707.5611675633922,0.4397571898299618,1.3040235300610161,0.9751969486934235,0.2858702882038968,0.7052605011774185
0.052000000000000005,1.7324932368512163,1.0,2707.2829680051686,0.4428997094274266,1.3034607760024854,0.9755017599498014,0.28581771594775107,0.7063506295534737
0.0525,1.7312415164667947,1.0,2707.427146403753,0.446024601680375,1.3028941670496441,0.9757984351675068,0.2857651436916054,0.707446184844714
0.053,1.7299897960823731,1.0,2707.9597647048195,0.44913196543469364,1.3023240132179843,0.976087275308169,0.2857125714354597,0.7085465275247833
0.0535,1.7287380756979516,1.0,2708.8484034239905,0.4522218991307369,1.3017506113543533,0.9763685673233176,0.28565999917931395,0.7096510476635014
0.054,1.7274863553135302,1.0,2710.0618850728374,0.45529450122711523,1.3011742474620716,0.9766425850829278,0.28560742692316826,0.7107591602858894
0.0545,1.7262346349291087,1.0,2711.5742956317868,0.45834986878564543,1.300595159855636,0.9769095876954753,0.2855548546670226,0.7118703758653209
0.055,1.724982914544687,1.0,2713.362994332395,0.46138809787992124,1.300013557220025,0.9771698214027821,0.28550228241087683,0.7129842649368199
0.0555,1.7237311941602655,1.0,2715.4053547185604,0.4644092845835363,1.2994296482402177,0.9774235220936105,0.28544971015473114,0.7141004010036336
0.056,1.722479473775844,1.0,2717.684006511286,0.46741352223913046,1.2988435937495215,0.9776709127728359,0.28539713789858545,0.7152184517693589
0.0565,1.7212277533914224,1.0,2720.1748929157825,0.4704009081276629,1.2982556154867986,0.9779122111376933,0.2853445656424397,0.7163379713985681
0.057,1.719976033007001,1.0,2722.852276960708,0.4733715411997068,1.2976659503179575,0.9781476269972817,0.2852919933862941,0.7174584885883523
0.0575,1.7187243126225795,1.0,2725.7042331718926,0.4763255132881238,1.2970747092037902,0.9783773538665939,0.28523942113014833,0.7185797740799856
0.058,1.717472592238158,1.0,2728.7188278635626,0.4792629162257752,1.2964820031050874,0.9786015774922692,0.28518684887400264,0.7197016002385042
0.0585,1.7162208718537364,1.0,2731.8841153965604,0.4821838418455227,1.295887942982641,0.9788204762292373,0.28513427661785695,0.7208237410634608
0.059000000000000004,1.7149691514693148,1.0,2735.1881347111857,0.4850883819802277,1.2952926397972424,0.9790342213962602,0.2850817043617112,0.7219459721989032
0.059500000000000004,1.7137174310848933,1.0,2738.6189061328896,0.48797662846275175,1.2946962045096828,0.9792429776117088,0.2850291321055655,0.7230680709425612
0.06,1.7124657107004717,1.0,2742.16442845003,0.49084867312595626,1.2940987480807538,0.9794469031108182,0.28497655984941983,0.7241898162542517
0.0605,1.7112139903160504,1.0,2745.812676265398,0.49370460780270287,1.2935003814712467,0.9796461500455812,0.2849239875932741,0.7253109887634971
0.061,1.7099622699316288,1.0,2749.5540789131537,0.4965445217811702,1.2929011931703387,0.9798408633709124,0.2848714153371284,0.726431412753163
0.0615,1.7087105495472072,1.0,2753.379888256734,0.4993685058387208,1.2923012640262004,0.9800311822780068,0.2848188430809827,0.7275509280889206
0.062,1.7074588291627857,1.0,2757.2790627109384,0.5021766534707132,1.2917006954392543,0.9802172420227214,0.28476627082483696,0.7286693376283655
0.0625,1.7062071087783641,1.0,2761.246381472114,0.5049690514744696,1.291099535946918,0.9803991695824026,0.2847136985686913,0.729786543914187
0.063,1.7049553883939426,1.0,2765.2766107525026,0.5077457866473122,1.2904978340866087,0.9805770872533894,0.2846611263125456,0.7309024502263686
0.0635,1.703703668009521,1.0,2769.364503170257,0.5105069457865631,1.2898956383957443,0.980751112859689,0.2846085540563999,0.732016960583941
0.064,1.7024519476250997,1.0,2773.5047971921854,0.5132526156895445,1.2892929974117422,0.9809213599508732,0.2845559818002542,0.7331299797465871
0.0645,1.701200227240678,1.0,2777.6922166281697,0.5159828831535784,1.28868995967202,0.9810879379898337,0.28450340954410847,0.7342414132160953
0.065,1.6999485068562565,1.0,2781.921470178448,0.5186978349759872,1.2880865737139953,0.9812509525309815,0.2844508372879628,0.7353511672376619
0.0655,1.698696786471835,1.0,2786.187251032361,0.5213975579540929,1.2874828880750855,0.9814105053894405,0.2843982650318171,0.7364591488010455
0.066,1.6974450660874134,1.0,2790.486726170378,0.524082132168101,1.286878928911378,0.9815666932445971,0.28434569277567134,0.7375653065901164
0.0665,1.6961933457029919,1.0,2794.8163760496873,0.5267516422704507,1.28627472847005,0.9817196100143052,0.28429312051952565,0.7386695785695127
0.067,1.6949416253185705,1.0,2799.167567755695,0.529406188088128,1.2856703647987642,0.9818693495887931,0.28424054826337997,0.7397718197568272
0.0675,1.693689904934149,1.0,2803.53847517775,0.5320458504351618,1.2850658546559823,0.9820159984368745,0.2841879760072342,0.7408719977973672
0.068,1.6924381845497274,1.0,2807.9272665309736,0.5346707101255814,1.2844612148001668,0.9821596400816066,0.28413540375108853,0.7419700805944304
0.0685,1.6911864641653058,1.0,2812.3321043046453,0.5372808479734156,1.2838564619897794,0.9823003552217022,0.28408283149494284,0.7430660363094544
0.069,1.6899347437808843,1.0,2816.7511452172907,0.5398763447926933,1.2832516129832818,0.9824382218471349,0.28403025923879716,0.7441598333621464
0.0695,1.6886830233964627,1.0,2821.1825401778237,0.5424572813974435,1.282646684539136,0.9825733153492503,0.2839776869826514,0.7452514404305937
0.07,1.6874313030120414,1.0,2825.62443425285,0.5450237386016954,1.282041693415804,0.9827057086256836,0.2839251147265057,0.7463408264513571
0.07050000000000001,1.6861795826276198,1.0,2830.0749666402994,0.5475757972194778,1.2814366563717479,0.9828354721803583,0.28387254247036003,0.7474279606195495
0.07100000000000001,1.6849278622431982,1.0,2834.53227064935,0.5501135380648197,1.280831590165429,0.9829626742188308,0.28381997021421435,0.748512812388892
0.07150000000000001,1.6836761418587767,1.0,2838.9944736860753,0.5526370419517501,1.28022651155531,0.9830873807392273,0.2837673979580686,0.7495953514717529
0.07200000000000001,1.6824244214743551,1.0,2843.4596972464624,0.555146389694298,1.2796214372998522,0.9832096556190023,0.2837148257019229,0.7506755478391736
0.0725,1.6811727010899336,1.0,2847.9260569141456,0.5576416621064924,1.279016384157518,0.9833295606977404,0.2836622534457772,0.7517533717208685
0.073,1.679920980705512,1.0,2852.3916623655023,0.5601229400023622,1.2784113688867689,0.9834471558562036,0.2836096811896315,0.7528287936052153
