Time [s],Phi [rad],STIM [ ],Fsee [N],Gamma [ ],Lcerel [ ],q [ ],Lmtc [m],fisomrel [ ]
0.0,1.8,1.0,17.977746737876352,9.887055476969384e-05,1.3793385601204602,0.005002558617362448,0.288653,0.541142400528495
0.0005,1.79999375,1.0,18.316395208836088,0.005707525277965295,1.379297985714509,0.013189074731281576,0.2886527375,0.5412405549519013
0.001,1.799975,1.0,21.724014894882423,0.01128471988265687,1.378927526370373,0.03607316650641103,0.28865195,0.5421362556085147
0.0015,1.79994375,1.0,31.31616905566783,0.016830630836162458,1.3780252075169424,0.07123669345650818,0.2886506375,0.5443142298525915
0.002,1.7999,1.0,54.11106290806572,0.022345433614032566,1.3763339181583079,0.11546925442365186,0.2886488,0.5483825958023472
0.0025,1.79984375,1.0,98.00473987116425,0.027829302708188255,1.3738925794527752,0.16539178273129196,0.28864643749999996,0.5542230198665503
0.003,1.7997750000000001,1.0,162.10905520347458,0.03328241163383871,1.371171341640669,0.21812297486728532,0.28864354999999997,0.5606882498235517
0.0035,1.79969375,1.0,238.98274103082585,0.03870493292972426,1.3685447635388561,0.2714507206039108,0.2886401375,0.566883792308956
0.004,1.7996,1.0,322.84862843377834,0.044097038168709524,1.3661195315277752,0.32372694892476617,0.2886362,0.5725653336539618
0.0045000000000000005,1.7994937500000001,1.0,410.6982902268651,0.04945889796302495,1.3638892632458406,0.3738044282639083,0.2886317375,0.5777570283622429
0.005,1.799375,1.0,500.8728605886689,0.05479068195582543,1.361827353765784,0.42096773127282466,0.28862675,0.582528590774395
0.0055,1.79924375,1.0,592.2622842809939,0.06009255886392592,1.3599100962118826,0.4648405282365397,0.2886212375,0.5869410798620963
0.006,1.7991000000000001,1.0,683.9911648191153,0.06536469643212217,1.3581196529332984,0.5052927583933952,0.2886152,0.5910405426751719
0.006500000000000001,1.79894375,1.0,775.3458584574316,0.07060726147837629,1.3564422637421416,0.5423610460225535,0.2886086375,0.5948626040126836
0.007,1.798775,1.0,865.7348599151418,0.07582041987547004,1.3548669980191144,0.5761873481305254,0.28860155,0.5984356304748147
0.0075,1.79859375,1.0,954.670672389113,0.08100433658833342,1.3533848316410106,0.6069742489165347,0.2885939375,0.6017830381570617
0.008,1.7984,1.0,1041.757349813478,0.08615917560861173,1.3519880573496594,0.6349539484734161,0.2885858,0.6049247687602451
0.0085,1.79819375,1.0,1126.6864059603743,0.09128510007470972,1.3506698224147233,0.6603676347359556,0.2885771375,0.6078784299988087
0.009000000000000001,1.797975,1.0,1209.2159042165376,0.09638227214610216,1.3494240621441163,0.6834525764346194,0.28856795,0.6106595178402576
0.0095,1.79774375,1.0,1289.1675253461428,0.1014508531198976,1.3482452520900052,0.7044343366903375,0.2885582375,0.6132820293264308
0.01,1.7975,1.0,1366.398240046576,0.1064910029121885,1.3471285647157258,0.723522748665378,0.288548,0.6157581618571433
0.0105,1.79724375,1.0,1440.861756553378,0.11150288232632818,1.3460689023540824,0.7409096331320126,0.2885372375,0.6181004936971958
0.011,1.796975,1.0,1512.4830384451207,0.11648664896912685,1.34506237639457,0.756769241654755,0.28852595000000003,0.6203187385106255
0.0115,1.79669375,1.0,1581.2321036211713,0.12144246013306982,1.3441052116944023,0.7712582494632766,0.2885141375,0.6224222043518832
0.012,1.7964,1.0,1647.1238950938368,0.12637047290788156,1.3431936792856107,0.7845168162242927,0.28850180000000003,0.6244199569464457
0.0125,1.79609375,1.0,1710.1965946115115,0.13127084376206738,1.3423242900499486,0.7966700063018199,0.2884889375,0.6263204095720621
0.013000000000000001,1.7957750000000001,1.0,1770.487288453087,0.13614372780186018,1.3414940026313018,0.8078292773981584,0.28847555,0.6281308870116469
0.0135,1.79544375,1.0,1828.0317451333497,0.1409892784715173,1.340700150777918,0.8180938292091106,0.2884616375,0.6298578037624489
0.014,1.7951000000000001,1.0,1882.8932587675863,0.14580764921529607,1.3399400682380451,0.8275517843716108,0.2884472,0.6315074936425804
0.0145,1.79474375,1.0,1935.1428803827714,0.1505989922797291,1.3392112761631874,0.8362815008717662,0.2884322375,0.6330858103435646
0.015,1.794375,1.0,1984.8803388989018,0.15536346087505146,1.338511224296194,0.8443526084312202,0.28841675,0.6345986958721039
0.0155,1.79399375,1.0,2032.1646554876177,0.1601012045072155,1.3378380054144012,0.8518272606907474,0.2884007375,0.6360506444439382
0.016,1.7936,1.0,2077.0688588491944,0.16481237256716189,1.3371897306984775,0.8587608107872581,0.2883842,0.6374460634932662
0.0165,1.7931937500000001,1.0,2119.6803462413272,0.16949711444583127,1.3365645113290905,0.8652026117788286,0.2883671375,0.6387893166894468
0.017,1.792775,1.0,2160.0796373860976,0.1741555780615918,1.3359606628873708,0.8711967860805016,0.28834955,0.6400842888784388
0.0175,1.7923437500000001,1.0,2198.375853929414,0.1787879128367009,1.33537632529246,0.8767827361783855,0.2883314375,0.6413352054634123
0.018000000000000002,1.7919,1.0,2234.638959008754,0.18339426409846218,1.3348101408451876,0.8819958809546465,0.2883128,0.6425451836327349
0.0185,1.79144375,1.0,2268.9422323013077,0.18797477678160748,1.3342608017167554,0.8868679981792716,0.2882936375,0.643717208021913
0.019,1.790975,1.0,2301.366433852014,0.1925295958208687,1.3337270000783652,0.8914276332244702,0.28827395,0.644854239217777
0.0195,1.79049375,1.0,2331.994476904523,0.19705886550209448,1.3332074742611342,0.8957004805744938,0.2882537375,0.6459591170169503
0.02,1.79,1.0,2360.910715173133,0.20156272998294375,1.3327010084859219,0.8997097073514793,0.288233,0.6470345629861305
0.0205,1.78949375,1.0,2388.195313996068,0.20604133264700064,1.3322064810026097,0.9034762469619936,0.2882117375,0.6480830802929296
0.021,1.788975,1.0,2413.910822759363,0.21049481378242127,1.3317229866457376,0.9070190712109376,0.28818995000000003,0.6491066968457646
0.021500000000000002,1.78844375,1.0,2438.123710439833,0.21492331367736175,1.331249620249845,0.9103553592231822,0.2881676375,0.6501074269270839
0.022,1.7879,1.0,2460.904039973434,0.2193269726199782,1.3307854766494716,0.913500691551522,0.2881448,0.6510872718041516
0.0225,1.78734375,1.0,2482.319107984272,0.2237059296728512,1.330329708371076,0.9164692318209003,0.28812143749999997,0.6520480987483417
0.023,1.786775,1.0,2502.439344642049,0.2280603247901323,1.3298814657167128,0.9192738654784788,0.28809755,0.6529917684202591
0.0235,1.78619375,1.0,2521.332256977962,0.23239029722761925,1.3294399516701467,0.9219263422143169,0.28807313749999996,0.6539200199093476
0.024,1.7856,1.0,2539.0483889471247,0.23669598219667484,1.3290045510292543,0.9244374140112858,0.2880482,0.6548342008993584
0.0245,1.78499375,1.0,2555.6401496198996,0.24097751490866182,1.3285746485919123,0.9268169049889518,0.2880227375,0.6557356514754507
0.025,1.784375,1.0,2571.1616569912844,0.24523503057494295,1.328149629155998,0.929073804203365,0.28799675,0.6566257043519803
0.025500000000000002,1.78374375,1.0,2585.6685901815003,0.249468664406881,1.3277288775193883,0.9312163480370144,0.2879702375,0.6575056850761537
0.026000000000000002,1.7831000000000001,1.0,2599.210526265599,0.253678549755072,1.3273118485611417,0.9332521040394891,0.2879432,0.6583767659167354
0.0265,1.78244375,1.0,2611.8399106063926,0.25786482161636276,1.3268979818221205,0.9351880228228818,0.2879156375,0.6592401450275018
0.027,1.781775,1.0,2623.6106810938577,0.2620276145840366,1.326486713413036,0.937030497434615,0.28788755,0.6600970215712821
0.0275,1.7810937500000001,1.0,2634.5597562661032,0.2661670582884819,1.326077646340552,0.9387854393390824,0.2878589375,0.6609482415720853
0.028,1.7804,1.0,2644.724835364088,0.27028328236008714,1.325670383611331,0.9404582995943533,0.2878298,0.661794646806277
0.0285,1.77969375,1.0,2654.144331014521,0.2743764164292409,1.3252645282320368,0.9420541107506669,0.2878001375,0.6626370748532862
0.029,1.778975,1.0,2662.857305406889,0.27844659012633155,1.324859683209332,0.9435775244308581,0.28776995,0.6634763591362642
0.029500000000000002,1.7782437500000001,1.0,2670.903409964688,0.28249393308174764,1.32445545154988,0.9450328450847251,0.2877392375,0.6643133289526895
0.03,1.7775,1.0,2678.316362815429,0.2865185724578199,1.3240514955899467,0.9464240674176168,0.287708,0.6651486868811185
0.0305,1.77674375,1.0,2685.1351428585476,0.29052063837610953,1.3236474335424897,0.9477548912935555,0.2876762375,0.6659832230910705
0.031,1.775975,1.0,2691.393302204708,0.2945002581851509,1.3232429371907677,0.9490287575289599,0.28764395,0.6668176133810122
0.0315,1.7751937500000001,1.0,2697.11685967635,0.29845755591716283,1.3228377504512214,0.9502488717204555,0.2876111375,0.6676523816441164
0.032,1.7744,1.0,2702.332122083902,0.30239265560436424,1.3224316172402912,0.9514182158311519,0.2875778,0.6684880491192932
0.0325,1.77359375,1.0,2707.065656820866,0.3063056812789739,1.322024281474417,0.9525395665308274,0.2875439375,0.6693251343778236
0.033,1.772775,1.0,2711.3442659123857,0.31019675697321064,1.3216154870700394,0.9536155118209763,0.28750955,0.6701641533058078
0.0335,1.7719437500000002,1.0,2715.194961518514,0.3140660067192933,1.3212049779435988,0.9546484661234385,0.2874746375,0.6710056190824369
0.034,1.7711000000000001,1.0,2718.6350105628226,0.31791354930083915,1.3207925884727867,0.9556406927393508,0.2874392,0.671849857082045
0.0345,1.7702437500000001,1.0,2721.699141321265,0.3217395133593805,1.3203779953935857,0.956594292148862,0.2874032375,0.6726975129706236
0.035,1.7693750000000001,1.0,2724.4103666894543,0.3255440205384463,1.3199609835211317,0.9575112391598588,0.28736675,0.6735490083679532
0.035500000000000004,1.76849375,1.0,2726.785185927006,0.32932718882076084,1.3195413979932793,0.9583933881243588,0.2873297375,0.6744046395679231
0.036000000000000004,1.7676,1.0,2728.84019287444,0.3330891361890486,1.319119083947883,0.959242476548196,0.2872922,0.6752647010850255
0.0365,1.76669375,1.0,2730.5920656733747,0.3368299806260339,1.3186938865227975,0.9600601337815916,0.2872541375,0.6761294856281705
0.037,1.765775,1.0,2732.057557017679,0.3405498401144412,1.3182656508558777,0.9608478889693004,0.28721555,0.6769992840729738
0.0375,1.76484375,1.0,2733.2534849369126,0.3442488326369949,1.3178342220849777,0.9616071783309681,0.2871764375,0.6778743854325162
0.038,1.7639,1.0,2734.196724111096,0.3479270761764193,1.3173994453479523,0.9623393518349168,0.28713679999999997,0.6787550768265698
0.0385,1.76294375,1.0,2734.9041270142693,0.3515846880257772,1.3169611664246867,0.9630456792435466,0.28709663750000003,0.6796416421514733
0.039,1.761975,1.0,2735.3923758863175,0.3552217802821408,1.3165192330116744,0.9637273549870423,0.28705595,0.6805343594824662
0.0395,1.7609937500000001,1.0,2735.675412323169,0.35883847651072404,1.3160735179950482,0.9643855087550888,0.2870147375,0.6814334541525316
0.04,1.76,1.0,2735.763983987697,0.36243488849703537,1.315623923505211,0.9650212058058267,0.286973,0.6823390909157422
0.0405,1.7589937500000001,1.0,2735.668860765279,0.3660111280265832,1.3151703516725652,0.965635450998717,0.2869307375,0.6832514331205088
0.041,1.757975,1.0,2735.400831038485,0.36956730688487605,1.3147127046275136,0.9662291928498787,0.28688795,0.6841706426850619
0.0415,1.75694375,1.0,2734.9706981742015,0.3731035368574223,1.3142508845004586,0.966803327274345,0.2868446375,0.6850968800723197
0.042,1.7559,1.0,2734.389277223323,0.3766199297297305,1.3137847934218028,0.9673587010424002,0.28680079999999997,0.6860303042641472
0.0425,1.75484375,1.0,2733.667391832581,0.3801165972873091,1.3133143335219488,0.967896114974564,0.2867564375,0.6869710727350034
0.043000000000000003,1.753775,1.0,2732.8158713685452,0.3835936513156666,1.3128394069312994,0.9684163268974506,0.28671155,0.6879193414249772
0.043500000000000004,1.75269375,1.0,2731.8299859610397,0.3870511664447164,1.3123600571750886,0.9689200599478568,0.28666613750000003,0.6888749830407378
0.044,1.7516,1.0,2730.725564572635,0.39048927283037405,1.3118761410676907,0.9694079930843054,0.2866202,0.6898382418135393
0.0445,1.75049375,1.0,2729.5267465186394,0.3939081210370072,1.3113874398469976,0.9698807669823609,0.2865737375,0.690809509902846
0.045,1.7493750000000001,1.0,2728.23787708274,0.39730781311829905,1.3108939145735485,0.9703389959275585,0.28652675,0.6917888197740278
0.0455,1.74824375,1.0,2726.8633021319893,0.40068845112793305,1.3103955263078826,0.9707832629292861,0.2864792375,0.6927762029593514
0.046,1.7471,1.0,2725.407367425006,0.40405013711959253,1.3098922361105387,0.9712141216114889,0.2864312,0.6937716900459507
0.0465,1.7459437500000001,1.0,2723.874417953111,0.407392973146961,1.3093840050420564,0.9716320979715912,0.28638263750000004,0.6947753106637016
0.047,1.744775,1.0,2722.268797315698,0.4107170612637217,1.3088707941629745,0.9720376920179907,0.28633355,0.6957870934730022
0.0475,1.74359375,1.0,2720.594847129196,0.4140225035235581,1.3083525645338323,0.9724313792955755,0.28628393750000003,0.6968070661524515
0.048,1.7424,1.0,2718.856906468824,0.4173094019801536,1.307829277215169,0.9728136123079024,0.2862338,0.6978352553864371
0.0485,1.74119375,1.0,2717.059311345413,0.4205778586871915,1.3073008932675234,0.97318482184393,0.2861831375,0.6988716868526218
0.049,1.739975,1.0,2715.206394214266,0.42382797569835523,1.306767373751435,0.9735454182165398,0.28613195,0.699916385209335
0.0495,1.73874375,1.0,2713.302483518822,0.4270598550673282,1.3062286797274427,0.9738957924194593,0.2860802375,0.7009693740828677
0.05,1.7375,1.0,2711.351903267543,0.4302735988477937,1.3056847722560856,0.974236317208661,0.286028,0.7020306760546718
0.0505,1.73624375,1.0,2709.3589726440573,0.4334693090934353,1.305135612397903,0.9745673481138016,0.2859752375,0.703100312648459
0.051000000000000004,1.734975,1.0,2707.3280056515764,0.43664708785793616,1.304581161213434,0.9748892243848145,0.28592195,0.7041783043172072
0.051500000000000004,1.73369375,1.0,2705.26331079041,0.4398070371949798,1.3040213797632176,0.9752022698783527,0.2858681375,0.7052646704300682
0.052000000000000005,1.7324,1.0,2703.1691907693885,0.4429492591582497,1.3034562291077931,0.9755067938883997,0.2858138,0.7063594292591792
0.0525,1.73109375,1.0,2701.049942250777,0.44607385580142894,1.3028856703076994,0.9758030919250233,0.28575893750000003,0.7074625979663763
0.053,1.729775,1.0,2698.909855628773,0.4491809291782012,1.3023096644234757,0.9760914464449331,0.28570355000000003,0.7085741925898135
0.0535,1.72844375,1.0,2696.7532148418186,0.45227058134224973,1.3017281725156615,0.9763721275372109,0.2856476375,0.7096942280304821
0.054,1.7271,1.0,2694.5816503205438,0.4553428961693613,1.3011411798594779,0.976645393233527,0.2855912,0.7108226715332959
0.0545,1.7257437500000001,1.0,2692.39600546081,0.458397984708836,1.3005486789107406,0.9769114936094668,0.2855342375,0.7119594757812774
0.055,1.724375,1.0,2690.1980129696335,0.46143594466700816,1.2999506539718626,0.9771706662730854,0.28547675,0.7131046083604973
0.0555,1.72299375,1.0,2687.9891488794724,0.46445686899668254,1.2993470916715977,0.9774231384797268,0.2854187375,0.71425803159361
0.056,1.7216,1.0,2685.770886908144,0.46746085065066406,1.2987379786386994,0.9776691279742784,0.2853602,0.7154197070116836
0.0565,1.72019375,1.0,2683.544698428846,0.4704479825817576,1.2981233015019218,0.9779088434649373,0.28530113749999997,0.7165895953494714
0.057,1.718775,1.0,2681.312052444309,0.47341835774276797,1.2975030468900182,0.9781424850696333,0.28524155,0.717767656540675
0.0575,1.71734375,1.0,2679.0744155642583,0.47637206908650004,1.2968772014317425,0.9783702447368964,0.2851814375,0.7189538497131908
0.058,1.7159,1.0,2676.8332519878845,0.47930920956575873,1.2962457517558483,0.9785923066428242,0.2851208,0.7201481331843504
0.0585,1.71444375,1.0,2674.59002348946,0.48222987213334884,1.2956086844910897,0.9788088475656882,0.2850596375,0.7213504644561461
0.059000000000000004,1.7129750000000001,1.0,2672.346189408155,0.48513414974207525,1.29496598626622,0.9790200372396016,0.28499795,0.7225608002104469
0.059500000000000004,1.71149375,1.0,2670.103206642004,0.48802213534474287,1.294317643709993,0.9792260386885794,0.2849357375,0.7237790963042016
0.06,1.71,1.0,2667.8625296455157,0.4908939218941565,1.2936636434511624,0.9794270085422155,0.284873,0.7250053077646319
0.0605,1.7084937500000001,1.0,2665.6256104314434,0.49374960234312104,1.2930039721184823,0.9796230973341323,0.2848097375,0.7262393887844123
0.061,1.7069750000000001,1.0,2663.3933333634145,0.4965892084569838,1.2923386215416484,0.9798144452072745,0.28474595,0.7274812830201814
0.0615,1.7054437500000001,1.0,2661.1685990903907,0.49941291103883834,1.291667564975636,0.9800011969202167,0.2846816375,0.7287309679246914
0.062,1.7039,1.0,2658.9516860060753,0.5022207955732748,1.2909907997803096,0.9801834862881691,0.2846168,0.7299883751378053
0.0625,1.70234375,1.0,2656.742842146453,0.505012945984122,1.29030832359106,0.9803614419847748,0.2845514375,0.7312534351203712
0.063,1.7007750000000001,1.0,2654.5423151490404,0.5077894461952089,1.2896201340432787,0.9805351878781267,0.28448555,0.7325260776682184
0.0635,1.69919375,1.0,2652.3503522565343,0.510550380130364,1.2889262287723562,0.9807048432442123,0.28441913750000003,0.7338062319113013
0.064,1.6976,1.0,2650.1672003199246,0.5132958317134162,1.288226605413684,0.9808705229693486,0.2843522,0.7350938263128334
0.0645,1.69599375,1.0,2647.993105802844,0.5160258848681945,1.2875212616026528,0.9810323377422484,0.2842847375,0.7363887886684276
0.065,1.694375,1.0,2645.828314785192,0.5187406235185273,1.2868101949746538,0.9811903942363259,0.28421675,0.7376910461052331
0.0655,1.69274375,1.0,2643.6730729669475,0.5214401315882438,1.286093403165078,0.9813447952827977,0.2841482375,0.7390005250810721
0.066,1.6911,1.0,2641.527625672631,0.5241244930011725,1.2853708838093163,0.9814956400351124,0.2840792,0.7403171513835769
0.0665,1.6894437500000001,1.0,2639.3922178555567,0.5267937916811424,1.2846426345427597,0.9816430241251958,0.2840096375,0.741640850129327
0.067,1.687775,1.0,2637.2670941016677,0.5294481115519821,1.2839086530007997,0.9817870398119799,0.28393955,0.7429715457629831
0.0675,1.68609375,1.0,2635.152498634976,0.5320875365375206,1.2831689368188268,0.9819277761226434,0.2838689375,0.7443091620564262
0.068,1.6844000000000001,1.0,2633.0486753213527,0.5347121505615866,1.2824234836322324,0.9820653189869719,0.2837978,0.7456536221078897
0.0685,1.68269375,1.0,2630.9558676737006,0.537322037548009,1.2816722910764071,0.9821997513652171,0.2837261375,0.7470048483410963
0.069,1.680975,1.0,2628.8743188567028,0.5399172814206163,1.2809153567867424,0.982331153369814,0.28365395,0.7483627625043917
0.0695,1.67924375,1.0,2626.8042716918553,0.5424979661032376,1.280152678398629,0.9824596023812884,0.28358123749999997,0.74972728566988
0.07,1.6775,1.0,2624.745968662688,0.5450641755197018,1.279384253547458,0.9825851731586706,0.283508,0.7510983382325565
0.07050000000000001,1.67574375,1.0,2622.6996519197896,0.5476159935938373,1.2786100798686206,0.9827079379447123,0.2834342375,0.7524758399094414
0.07100000000000001,1.673975,1.0,2620.66556328631,0.5501535042494731,1.2778301549975077,0.9828279665661831,0.28335995,0.7538597097387143
0.07150000000000001,1.67219375,1.0,2618.644501438688,0.5526767870807385,1.2770444713989113,0.9829453260319849,0.2832851375,0.7552498752145976
0.07200000000000001,1.6704,1.0,2616.633004485032,0.555185916815901,1.2762530610801068,0.9830600826417669,0.2832098,0.75664619337969
0.0725,1.66859375,1.0,2614.6327774088636,0.5576809722442587,1.275455908112606,0.9831722986183197,0.2831339375,0.7580486055033787
0.073,1.6667750000000001,1.0,2612.6460084062305,0.5601620321630266,1.2746529920547052,0.9832820339510394,0.28305755,0.759457059806754
0.0735,1.66494375,1.0,2610.673795942216,0.5626291751706454,1.2738443025625281,0.9833893471184698,0.2829806375,0.7608714858228398
0.074,1.6631,1.0,2608.7146818369943,0.5650824797363708,1.273029853048365,0.983494295759082,0.2829032,0.7622917708685848
0.0745,1.6612437500000001,1.0,2606.7681262116735,0.5675220233457603,1.272209648404292,0.983596935243301,0.2828252375,0.7637178166951906
0.075,1.659375,1.0,2604.832296937971,0.5699478828420667,1.2713837055543207,0.9836973196755925,0.28274675,0.7651495036977225
0.0755,1.65749375,1.0,2602.905364655591,0.572360135068543,1.270552041422464,0.9837955014592166,0.2826677375,0.7665867119966113
