Time [s],Phi [rad],STIM [ ],Fsee [N],Gamma [ ],Lcerel [ ],q [ ],Lmtc [m],fisomrel [ ]
0.0,1.8,1.0,18.024875842422578,0.00024401966031501154,1.3793332850946578,0.005015474384908483,0.288653,0.5411551620513235
0.0005,1.79999375,1.0,18.410225926303195,0.005851860211834687,1.3792875875357349,0.013602957422093904,0.2886527375,0.5412657077210531
0.001,1.799975,1.0,21.925611454408017,0.011428245211684042,1.378907033802377,0.03683846743826328,0.28865195,0.542185777216468
0.0015,1.79994375,1.0,31.752473251113116,0.016973351101619474,1.3779883108086959,0.07227844143655815,0.2886506375,0.54440317886476
0.002,1.7999,1.0,55.01334965943938,0.022487353331543343,1.376275909915699,0.11669926207029765,0.2886488,0.5485218100035486
0.0025,1.79984375,1.0,99.48974078564441,0.027970426368384118,1.3738216127406588,0.16672754802732317,0.28864643749999996,0.5543922252805258
0.003,1.7997750000000001,1.0,164.02089227301016,0.03342274370185562,1.3711002432485475,0.21949948431546654,0.28864354999999997,0.5608565352706278
0.0035,1.79969375,1.0,241.13166355207343,0.03884447784572766,1.3684788989700714,0.2728187422275159,0.2886401375,0.5670385874164667
0.004,1.7996,1.0,325.1283119747732,0.04423580034803327,1.366059386762256,0.3250508080885701,0.2886362,0.5727057568980904
0.0045000000000000005,1.7994937500000001,1.0,413.0545721686389,0.04959688179644815,1.3638341277091184,0.37506058987594176,0.2886317375,0.5778849729405132
0.005,1.799375,1.0,503.2736654455377,0.05492789181011948,1.3617764721373513,0.4221426096465309,0.28862675,0.5826459955607535
0.0055,1.79924375,1.0,594.6818706072318,0.06022899907764961,1.3598629302625687,0.4659280487822938,0.2886212375,0.5870493348942527
0.006,1.7991000000000001,1.0,686.4109414321961,0.06550037132450652,1.35807575401577,0.506292040606127,0.2886152,0.5911407984248656
0.006500000000000001,1.79894375,1.0,777.7477344449619,0.07074217532347742,1.3564013325614805,0.5432746575808991,0.2886086375,0.5949556446058704
0.007,1.798775,1.0,868.1051387836186,0.07595457699492356,1.3548287686251625,0.5770198991368367,0.28860155,0.5985221459054555
0.0075,1.79859375,1.0,956.9921740046344,0.08113774110257083,1.353349172917183,0.6077315082058188,0.2885939375,0.6018633992306848
0.008,1.7984,1.0,1044.033169183377,0.08629183192943303,1.3519545912665327,0.635641971281028,0.2885858,0.6049998905816578
0.0085,1.79819375,1.0,1128.9066829944015,0.09141701229885603,1.3506384260606947,0.6609926548815958,0.2885771375,0.6079486421227001
0.009000000000000001,1.797975,1.0,1211.3671902794688,0.09651344428045576,1.3493946964287806,0.6840206406201028,0.28856795,0.6107249556997456
0.0095,1.79774375,1.0,1291.2565957669638,0.10158128963798715,1.3482176329631383,0.7049509795330164,0.2885582375,0.6133433676452458
0.01,1.7975,1.0,1368.4359302863156,0.10662070830908464,1.3471023964420874,0.7239930615177372,0.288548,0.6158160917862245
0.0105,1.79724375,1.0,1442.8147963818467,0.11163185963698628,1.346044477036024,0.741338536080249,0.2885372375,0.618154400232349
0.011,1.796975,1.0,1514.3570906909056,0.11661490232552094,1.345039499906726,0.7571609381557954,0.28852595000000003,0.6203690800513915
0.0115,1.79669375,1.0,1583.051485067826,0.12156999452847055,1.3440834902622496,0.7716164182993157,0.2885141375,0.6224698715846568
0.012,1.7964,1.0,1648.8837229317728,0.12649729230045037,1.3431730929773662,0.7848449048779209,0.28850180000000003,0.6244650135725383
0.0125,1.79609375,1.0,1711.8782405544305,0.13139695151779668,1.3423049840544072,0.7969711528608836,0.2884889375,0.6263625570520154
0.013000000000000001,1.7957750000000001,1.0,1772.0858696442456,0.13626912744942166,1.3414759650761552,0.8081062081040203,0.28847555,0.6281701698829989
0.0135,1.79544375,1.0,1829.5732966105659,0.14111397530869477,1.3406830324235057,0.8183488387746257,0.2884616375,0.6298949981464431
0.014,1.7951000000000001,1.0,1884.3806830297838,0.14593164718033236,1.339923793138829,0.8277870108714735,0.2884472,0.6315427769710159
0.0145,1.79474375,1.0,1936.5717320022022,0.1507222951490506,1.3391958542644955,0.8364988748619528,0.2884322375,0.6331191723526121
0.015,1.794375,1.0,1986.2297531790528,0.15548607113882937,1.3384968432089732,0.8445539054570336,0.28841675,0.6346297421478311
0.0155,1.79399375,1.0,2033.4393206198183,0.16022312592160018,1.3378245797449275,0.8520139727387434,0.2884007375,0.6360795705362344
0.016,1.7936,1.0,2078.297251490164,0.16493361087342578,1.337176932909645,0.8589341934548128,0.2883842,0.637473583908306
0.0165,1.7931937500000001,1.0,2120.8679577481985,0.16961767364126126,1.3365522633123945,0.8653638592152875,0.2883671375,0.6388156060564563
0.017,1.792775,1.0,2161.227929211272,0.17427546187206167,1.335948931562445,0.8713469782525362,0.28834955,0.6401094240499094
0.0175,1.7923437500000001,1.0,2199.464722989743,0.17890712321278207,1.335365298269066,0.8769228998710277,0.2883314375,0.6413587905513405
0.018000000000000002,1.7919,1.0,2235.6623320017484,0.18351280391222605,1.334799861441235,0.8821268980477931,0.2883128,0.6425671325858731
0.0185,1.79144375,1.0,2269.9198848257633,0.18809265181245155,1.3342510560084284,0.8869905957208611,0.2882936375,0.6437379832820487
0.019,1.790975,1.0,2302.3108266325803,0.19264681106356896,1.3337176524249486,0.8915424839045583,0.28827395,0.6448741341198381
0.0195,1.79049375,1.0,2332.904708315927,0.19717542463115673,1.3331985240544322,0.8958082220048272,0.2882537375,0.6459781363773851
0.02,1.79,1.0,2361.7768379300887,0.20167863548079343,1.3326925442605164,0.8998109347152846,0.288233,0.6470525223005879
0.0205,1.78949375,1.0,2389.0077971656174,0.2061565865780576,1.3321985864068384,0.903571496538345,0.2882117375,0.6480998060883237
0.021,1.788975,1.0,2414.6688670658755,0.21060941890013574,1.331715660302426,0.9071088100103472,0.28818995000000003,0.6491221961419817
0.021500000000000002,1.78844375,1.0,2438.8474871179615,0.21503727623356828,1.3312426598872142,0.9104399701203408,0.2881676375,0.6501221309656994
0.022,1.7879,1.0,2461.605613869281,0.21944029774013127,1.3307787610851955,0.9135805380184384,0.2881448,0.6511014388231605
0.0225,1.78734375,1.0,2483.00086240483,0.223818621409725,1.3303232107150105,0.916544662499534,0.28812143749999997,0.6520617871904554
0.023,1.786775,1.0,2503.093563223144,0.22817238523224972,1.3298752555952988,0.9193452153663132,0.28809755,0.6530048333735212
0.0235,1.78619375,1.0,2521.9465348435124,0.2325017271976057,1.3294341425447016,0.9219939243540396,0.28807313749999996,0.6539322248910626
0.024,1.7856,1.0,2539.6185109267885,0.23680678451907144,1.3289991782957868,0.9245015011732054,0.2880482,0.6548454741093657
0.0245,1.78499375,1.0,2556.1661909525433,0.2410876934546728,1.3285697073621388,0.9268777400057834,0.2880227375,0.6557460057524187
0.025,1.784375,1.0,2571.6727472275024,0.24534459249304635,1.3281448428695066,0.9291315640836024,0.28799675,0.6566357209762335
0.025500000000000002,1.78374375,1.0,2586.175516806368,0.24957761432831724,1.32772414355741,0.9312712229930723,0.2879702375,0.657515579494777
0.026000000000000002,1.7831000000000001,1.0,2599.7130272510117,0.25378689165461055,1.3273071681653692,0.9333042854067658,0.2879432,0.658386535929741
0.0265,1.78244375,1.0,2612.3249028102923,0.2579725571660514,1.3268934754329038,0.9352377044682209,0.2879156375,0.6592495399215482
0.027,1.781775678865172,1.0,2624.0848461253163,0.2621347435567649,1.3264826240995335,0.9370778761024484,0.2878875785123372,0.6601055362279422
0.0275,1.7811047985289081,1.0,2635.4745717540027,0.2662735835208762,1.3260741729047785,0.9388306910933137,0.28785940153821415,0.6609554648101551
0.028,1.7804339181926443,1.0,2646.6512828319196,0.2703892070362295,1.3256679156297144,0.9405016152124986,0.28783122456409105,0.6617997727340472
0.0285,1.7797630378563807,1.0,2657.595972418723,0.2744817473384149,1.3252640134782743,0.9420957482548326,0.287803047589968,0.6626381426530772
0.029,1.7790921575201168,1.0,2668.3109759639515,0.2785513323074786,1.3248624304457879,0.9436177725750579,0.2877748706158449,0.6634706673624223
0.029500000000000002,1.778421277183853,1.0,2678.798950665053,0.2825980896175366,1.3244631281960153,0.9450720198448529,0.28774669364172184,0.6642974440091076
0.03,1.7777503968475892,1.0,2689.062621460081,0.28662214694270494,1.3240660683927166,0.9464625021742109,0.28771851666759873,0.6651185692490025
0.0305,1.7770795165113253,1.0,2699.1047791057454,0.2906236319570998,1.3236712126996515,0.9477929397418908,0.2876903396934757,0.6659341392523501
0.031,1.7764086361750615,1.0,2708.9283975201306,0.2946026643512563,1.3232785216926903,0.9490667829646124,0.2876621627193526,0.6667442519521325
0.0315,1.7757377558387977,1.0,2718.537517079671,0.29855937255403353,1.3228879468075156,0.9502872397418167,0.28763398574522947,0.6675490236174328
0.032,1.7750668755025338,1.0,2727.9367144269177,0.3024938979119499,1.3224994352219885,0.9514572972580779,0.2876058087711064,0.6683485787037577
0.0325,1.77439599516627,1.0,2737.130741389887,0.306406360745543,1.322112933148994,0.9525797302014669,0.28757763179698337,0.6691430430425755
0.033,1.7737251148300064,1.0,2746.124416984161,0.3102968813753503,1.3217283868014167,0.9536571246508353,0.28754945482286026,0.6699325418563713
0.0335,1.7730542344937426,1.0,2754.922625048498,0.3141655801219091,1.3213457423921413,0.954691893170524,0.28752127784873716,0.6707171997654451
0.034,1.7723833541574787,1.0,2763.530311944556,0.318012577305757,1.3209649461340525,0.9556862885264179,0.2874931008746141,0.6714971407945307
0.0345,1.7717124738212149,1.0,2771.9524843207937,0.3218379932474314,1.3205859442400347,0.9566424161638282,0.28746492390049105,0.6722724883792263
0.035,1.771041593484951,1.0,2780.1942069403726,0.3256419482674698,1.320208682922973,0.9575622455719947,0.28743674692636795,0.6730433653722414
0.035500000000000004,1.7703707131486872,1.0,2788.260600573911,0.3294245626864096,1.319833108395752,0.9584476206462001,0.28740856995224484,0.6738098940494617
0.036000000000000004,1.7696998328124234,1.0,2796.156839955446,0.3331859568247883,1.319459166871256,0.9593002691463358,0.2873803929781218,0.6745721961158258
0.0365,1.7690289524761595,1.0,2803.888151802705,0.3369262510031433,1.3190868045623703,0.9601218113400528,0.2873522160039987,0.6753303927110195
0.037,1.768358072139896,1.0,2811.459812902486,0.34064556554201214,1.318715967681979,0.9609137679091794,0.28732403902987563,0.6760846044149862
0.0375,1.767687191803632,1.0,2818.8751281636755,0.34434400999491777,1.3183466205114283,0.9616775666586431,0.2872958620557525,0.6768349145693644
0.038,1.7670163114673683,1.0,2826.1312652131464,0.34802165772309374,1.3179787824774012,0.9624145476136586,0.2872676850816295,0.6775812943054516
0.0385,1.7663454311311044,1.0,2833.248675688277,0.35167870682019564,1.3176122653087348,0.9631259773065939,0.28723950810750637,0.6783241356041259
0.039,1.7656745507948406,1.0,2840.230661600974,0.3553152663492109,1.3172470346080376,0.9638130441534066,0.2872113311333833,0.6790635173227251
0.0395,1.7650036704585768,1.0,2847.0805551605195,0.35893144537312693,1.3168830559779183,0.9644768678203469,0.2871831541592602,0.6797995179658658
0.04,1.764332790122313,1.0,2853.8017178059085,0.3625273529549311,1.3165202950209849,0.9651185039382852,0.28715497718513716,0.6805322156882293
0.0405,1.763661909786049,1.0,2860.3975392637185,0.36610309815761083,1.3161587173398461,0.965738948445659,0.28712680021101405,0.6812616882972682
0.041,1.7629910294497853,1.0,2866.871436633009,0.36965879004415353,1.3157982885371102,0.9663391415929046,0.28709862323689095,0.681988013255842
0.0415,1.7623201491135214,1.0,2873.226853495622,0.3731945376775466,1.3154389742153858,0.9669199716380329,0.2870704462627679,0.6827112676847742
0.042,1.7616492687772578,1.0,2879.4672590533833,0.3767104501207775,1.315080739977281,0.9674822782601252,0.28704226928864485,0.6834315283653349
0.0425,1.760978388440994,1.0,2885.596147290931,0.38020663643683356,1.3147235514254048,0.9680268557149745,0.28701409231452174,0.6841488717416473
0.043000000000000003,1.7603075081047301,1.0,2891.61703616569,0.3836832056887022,1.314367374162365,0.9685544557547812,0.28698591534039863,0.6848633739230219
0.043500000000000004,1.7596366277684663,1.0,2897.533466823064,0.38714026693937087,1.3140121737907702,0.9690657903317633,0.2869577383662756,0.685575110686209
0.044,1.7589657474322025,1.0,2903.3490028382676,0.3905779292518269,1.3136579159132291,0.9695615341036888,0.28692956139215253,0.686284157477582
0.0445,1.7582948670959386,1.0,2909.067229484592,0.39399630168905775,1.31330456613235,0.9700423267576702,0.2869013844180294,0.6869905894152423
0.045,1.7576239867596748,1.0,2914.6917530277715,0.39739549331405083,1.312952090050741,0.9705087751670813,0.2868732074439063,0.6876944812910488
0.0455,1.756953106423411,1.0,2920.2262000465457,0.40077561318979354,1.312600453271011,0.9709614553950943,0.28684503046978327,0.6883959075725719
0.046,1.7562822260871473,1.0,2925.674216779253,0.4041367703792733,1.3122496213957682,0.9714009145571384,0.2868168534956602,0.6890949424049727
0.0465,1.7556113457508835,1.0,2931.039468496997,0.40747907394547744,1.3118995600276209,0.971827672553484,0.2867886765215371,0.6897916596128078
0.047,1.7549404654146197,1.0,2936.3256389029752,0.4108026329513935,1.3115502347691779,0.9722422236821621,0.286760499547414,0.6904861327017544
0.0475,1.7542695850783558,1.0,2941.5364295579757,0.41410755646000874,1.3112016112230473,0.9726450381415501,0.28673232257329095,0.6911784348602656
0.048,1.753598704742092,1.0,2946.67095334997,0.41739392115045143,1.310853695286137,0.9730365621913126,0.28670414559916785,0.6918685590782958
0.0485,1.7529278244058282,1.0,2951.734816369305,0.42066186076401046,1.3105064361082739,0.973417223974881,0.2866759686250448,0.6925566107631965
0.049,1.7522569440695643,1.0,2956.7311653024667,0.4239114848834384,1.3101598045189409,0.9737874298332831,0.2866477916509217,0.6932426519795039
0.0495,1.7515860637333005,1.0,2961.661737735113,0.4271428918414728,1.3098137837656922,0.9741475665626752,0.28661961467679864,0.6939267199897478
0.05,1.7509151833970367,1.0,2966.5282801752865,0.43035617997085124,1.3094683570960826,0.9744980030345378,0.28659143770267553,0.6946088519013123
0.0505,1.7502443030607728,1.0,2971.3325478301217,0.43355144760431125,1.3091235077576664,0.9748390911872344,0.2865632607285524,0.695289084667079
0.051000000000000004,1.7495734227245092,1.0,2976.0763043880243,0.43672879307459045,1.3087792189979983,0.9751711669541633,0.2865350837544294,0.695967455086053
0.051500000000000004,1.7489025423882454,1.0,2980.7613218073466,0.4398883147144263,1.308435474064633,0.9754945511330898,0.2865069067803063,0.6966439998039706
0.052000000000000005,1.7482316620519815,1.0,2985.3893801113527,0.44303011085655636,1.3080922562051247,0.9758095502008716,0.2864787298061832,0.6973187553138898
0.0525,1.7475607817157177,1.0,2989.96226718944,0.4461542798337182,1.3077495486670283,0.9761164570774568,0.2864505528320601,0.6979917579567614
0.053,1.7468899013794539,1.0,2994.481778604378,0.44926091997864936,1.3074073346978983,0.9764155518427264,0.28642237585793706,0.6986630439219845
0.0535,1.74621902104319,1.0,2998.949717405808,0.45235012962408744,1.3070655975452892,0.9767071024094763,0.286394198883814,0.6993326492479417
0.054,1.7455481407069262,1.0,3003.367893949952,0.45542200710277,1.3067243204567554,0.976991365155571,0.2863660219096909,0.700000609822518
0.0545,1.7448772603706624,1.0,3007.738125726076,0.4584766507474345,1.3063834866798514,0.9772685855180779,0.2863378449355678,0.7006669613836012
0.055,1.7442063800343988,1.0,3012.06223718827,0.4615141588908185,1.3060430794621323,0.9775389985519662,0.28630966796144475,0.7013317395195631
0.0555,1.743535499698135,1.0,3016.342059593973,0.46453462986565963,1.305703082051152,0.9778028294557642,0.2862814909873217,0.701994979669728
0.056,1.742864619361871,1.0,3020.5794308486434,0.4675381620046954,1.3053634776944654,0.9780602940663914,0.2862533140131986,0.7026567171248143
0.0565,1.7421937390256073,1.0,3024.7733174053205,0.47052481274250346,1.3050242744895104,0.9783115970608589,0.2862251370390755,0.7033169386866958
0.057,1.7415228586893434,1.0,3028.9273566945963,0.47349471480459876,1.3046854402161352,0.9785569392368242,0.28619696006495243,0.703975709567283
0.0575,1.7408519783530796,1.0,3033.043838687482,0.4764479785359679,1.3043469543696802,0.9787965118789428,0.2861687830908293,0.7046330719575887
0.058,1.7401810980168158,1.0,3037.123599912016,0.4793846923956039,1.3040088090326853,0.979030497382085,0.2861406061167063,0.7052890434646947
0.0585,1.739510217680552,1.0,3041.167480148796,0.4823049448424998,1.3036709962876891,0.9792590708957778,0.28611242914258317,0.7059436416251349
0.059000000000000004,1.738839337344288,1.0,3045.1763223720086,0.4852088243356487,1.3033335082172313,0.9794824006692349,0.2860842521684601,0.7065968839050603
0.059500000000000004,1.7381684570080245,1.0,3049.150972691668,0.48809641933404374,1.3029963369038506,0.9797006483773355,0.286056075194337,0.707248787700409
0.06,1.7374975766717606,1.0,3053.0922802974915,0.49096781829667785,1.3026594744300866,0.9799139694287496,0.28602789822021396,0.7078993703370656
0.0605,1.7368266963354968,1.0,3057.0010974035736,0.49382310968254417,1.3023229128784781,0.9801225132573134,0.28599972124609085,0.7085486490710209
0.061,1.736155815999233,1.0,3060.8782791954227,0.4966623819506358,1.3019866443315646,0.9803264235976887,0.2859715442719678,0.7091966410885239
0.0615,1.7354849356629691,1.0,3064.7246837773446,0.4994857235599457,1.3016506608718852,0.9805258387462716,0.2859433672978447,0.7098433635062338
0.062,1.7348140553267053,1.0,3068.5411721221185,0.502293222969467,1.3013149545819789,0.9807208918082405,0.2859151903237216,0.7104888333713648
0.0625,1.7341431749904415,1.0,3072.3286080213024,0.5050849686381927,1.300979517544385,0.9809117109315834,0.28588701334959854,0.7111330676618279
0.063,1.7334722946541776,1.0,3076.087858037445,0.507861049025116,1.3006443418416427,0.9810984195288787,0.2858588363754755,0.7117760832863695
0.0635,1.7328014143179138,1.0,3079.819791457377,0.5106215525892297,1.300309419556291,0.9812811364875621,0.2858306594013524,0.7124178970847054
0.064,1.7321305339816502,1.0,3083.525280247274,0.5133665677895272,1.2999747427708692,0.9814599763693543,0.2858024824272293,0.7130585258276494
0.0645,1.7314596536453863,1.0,3087.2051990087953,0.5160961830850013,1.2996403035679167,0.9816350495994839,0.2857743054531062,0.7136979862172408
0.065,1.7307887733091225,1.0,3090.860424936373,0.518810486934645,1.2993060940299725,0.9818064626463009,0.2857461284789832,0.7143362948868661
0.0655,1.7301178929728587,1.0,3094.4918377766166,0.5215095677974517,1.2989721062395756,0.9819743181918328,0.28571795150486007,0.7149734684013773
0.066,1.7294470126365948,1.0,3098.100319788413,0.5241935141324142,1.2986383322792654,0.9821387152938028,0.28568977453073696,0.7156095232572037
0.0665,1.728776132300331,1.0,3101.6854382940537,0.5268623772010561,1.2983047754649426,0.982299747618733,0.2856615975566139,0.7162444545115121
0.067,1.7281052519640672,1.0,3105.248644212304,0.5295162737934417,1.2979714230555617,0.9824575091308377,0.2856334205824908,0.716878287762256
0.0675,1.7274343716278033,1.0,3108.790955780433,0.5321553024203333,1.297638266026972,0.9826120895145153,0.28560524360836775,0.7175110414427851
0.068,1.7267634912915395,1.0,3112.3127678985134,0.53477954212819,1.2973053006838273,0.9827635743826236,0.28557706663424465,0.7181427238051628
0.0685,1.7260926109552757,1.0,3115.8144766972205,0.537389071963471,1.2969725233307807,0.9829120464473948,0.2855488896601216,0.7187733430693524
0.069,1.725421730619012,1.0,3119.296479521929,0.5399839709726351,1.296639930272485,0.9830575856388094,0.2855207126859985,0.7194029074232631
0.0695,1.7247508502827482,1.0,3122.7591749174617,0.5425643182021413,1.2963075178135937,0.9832002692173614,0.28549253571187544,0.7200314250227898
0.07,1.7240799699464844,1.0,3126.20296261328,0.5451301926984489,1.29597528225876,0.9833401718815098,0.28546435873775233,0.7206589039918602
0.07050000000000001,1.7234090896102205,1.0,3129.628243508842,0.5476816735080167,1.295643219912637,0.9834773658701037,0.2854361817636293,0.7212853524224748
