Time [s],Phi [rad],STIM [ ],Fsee [N],Gamma [ ],Lcerel [ ],q [ ],Lmtc [m],fisomrel [ ]
0.0,1.8,1.0,19.295802881116174,0.0011768510180513382,1.3791935481600854,0.005355231968795601,0.288653,0.5414931538066485
0.0005,1.79999375,1.0,19.941598005384204,0.006779459123305928,1.3791214848349331,0.01649442714725194,0.2886527375,0.5416674098742206
0.001,1.799975,1.0,24.15435213763698,0.012350641026980283,1.378686470649996,0.041944836915641374,0.28865195,0.5427186127125312
0.0015,1.79994375,1.0,35.607840098088815,0.017890573005280328,1.3776727056531641,0.07910577645573104,0.2886506375,0.5451636715708497
0.002,1.7999,1.0,62.017130130798414,0.023399430345591735,1.3758409190885166,0.1246807597589047,0.2886488,0.5495650623045254
0.0025,1.79984375,1.0,110.17341172679694,0.028877387351963414,1.3733259310022408,0.17534453153086288,0.28864643749999996,0.5555731799786676
0.003,1.7997750000000001,1.0,177.24770772411225,0.03432461735103128,1.370619303027905,0.22834568806376856,0.28864354999999997,0.5619940440787944
0.0035,1.79969375,1.0,255.71522459671854,0.039741292695716815,1.3680394570750853,0.2815864858087009,0.2886401375,0.568070657002157
0.004,1.7996,1.0,340.43299639248994,0.04512758477165281,1.3656609481372608,0.3335185046000387,0.2886362,0.5736354305081617
0.0045000000000000005,1.7994937500000001,1.0,428.76391733959747,0.050483664019976,1.363470488976579,0.3830834528558675,0.2886317375,0.5787283279436435
0.005,1.799375,1.0,519.1903650509929,0.05580969986231757,1.3614421658588263,0.4296384691238682,0.28862675,0.5834169666431146
0.0055,1.79924375,1.0,610.6726538971137,0.061105860935106365,1.3595535986771967,0.47286119751825406,0.2886212375,0.5877589594332825
0.006,1.7991000000000001,1.0,702.3393206021746,0.06637231463347967,1.357788696431203,0.5126595340116836,0.2886152,0.59179607368004
0.006500000000000001,1.79894375,1.0,793.5302076756838,0.07160922777197379,1.3561339356372022,0.5490941798114698,0.2886086375,0.5955632011720572
0.007,1.798775,1.0,883.6535292241088,0.07681676589366655,1.3545792775853585,0.5823219698760662,0.28860155,0.5990865303158333
0.0075,1.79859375,1.0,972.2533916737773,0.08199509390736108,1.3531158264638699,0.6125530853809668,0.2885939375,0.602389072387558
0.008,1.7984,1.0,1058.9449989950162,0.08714437561187283,1.3517362083499525,0.6400228619859855,0.2885858,0.6054899226262719
0.0085,1.79819375,1.0,1143.4212640532007,0.09226477366605919,1.3504339353468202,0.6649726706248328,0.2885771375,0.6084057938690709
0.009000000000000001,1.797975,1.0,1225.4739522220134,0.09735645065395827,1.349202777450266,0.6876378491931114,0.28856795,0.6111524879496812
0.0095,1.79774375,1.0,1304.9249340756708,0.1024195674763718,1.3480374755769353,0.7082412643793757,0.2885582375,0.6137433532973029
0.01,1.7975,1.0,1381.6421789031153,0.10745428389801757,1.346933270362382,0.726989448280801,0.288548,0.6161903887616785
0.0105,1.79724375,1.0,1455.5536165284454,0.11246075926764511,1.34588556534957,0.7440709812053762,0.2885372375,0.618505024498751
0.011,1.796975,1.0,1526.6359450304728,0.11743915285459557,1.344889961277363,0.7596564222411589,0.28852595000000003,0.6206980695475097
0.0115,1.79669375,1.0,1594.862356254634,0.12238962169418194,1.3439427838143736,0.7738992472197784,0.2885141375,0.622778576090622
0.012,1.7964,1.0,1660.228320760901,0.1273123219137131,1.343040647728905,0.7869367567448339,0.28850180000000003,0.6247548278244048
0.0125,1.79609375,1.0,1722.766322354462,0.13220740939093972,1.3421802131289902,0.7988913206078769,0.2884889375,0.6266348907621138
0.013000000000000001,1.7957750000000001,1.0,1782.532151231464,0.13707503959757036,1.34135829443929,0.8098718494917422,0.28847555,0.6284263865353921
0.0135,1.79544375,1.0,1839.5800547835254,0.14191536678595146,1.3405720860138441,0.8199752720083644,0.2884616375,0.6301360147582231
0.014,1.7951000000000001,1.0,1893.9576889678153,0.14672854322302506,1.3398191569153084,0.8292878295144154,0.2884472,0.6317695809737532
0.0145,1.79474375,1.0,1945.7361057002845,0.1515147211757333,1.339097076206339,0.8378861458983078,0.2884322375,0.6333328217739551
0.015,1.794375,1.0,1994.9918880130185,0.15627405189962604,1.3384035812802555,0.845838396771449,0.28841675,0.6348310464818161
0.0155,1.79399375,1.0,2041.825080928071,0.16100668768784454,1.3377363597242857,0.8532052287265189,0.2884007375,0.6362696151791705
0.016,1.7936,1.0,2086.3071182527883,0.16571277752811372,1.337093576117431,0.8600408099972116,0.2883842,0.6376528091210516
0.0165,1.7931937500000001,1.0,2128.5095731200195,0.17039246941727001,1.3364735360649724,0.8663934903272142,0.2883671375,0.6389845648212171
0.017,1.792775,1.0,2168.516159193517,0.17504591135214978,1.3358745451721916,0.8723064479762057,0.28834955,0.6402687815860122
0.0175,1.7923437500000001,1.0,2206.4165495513435,0.17967325076465543,1.335294961074112,0.8778183144275101,0.2883314375,0.6415092126221611
0.018000000000000002,1.7919,1.0,2242.3018147196995,0.18427463485996984,1.3347332273569197,0.8829637171382436,0.2883128,0.642709395737311
0.0185,1.79144375,1.0,2276.258476442351,0.18885021000719868,1.3341879207419172,0.8877737566728355,0.2882936375,0.6438725562187312
0.019,1.790975,1.0,2308.35440113406,0.19340011962796128,1.3336578781173185,0.89227644240876,0.28827395,0.6450013404663542
0.0195,1.79049375,1.0,2338.6637578428904,0.19792450714387688,1.3331419363713377,0.8964969826395807,0.2882537375,0.6460983744603176
0.02,1.79,1.0,2367.266494043561,0.20242351597656477,1.3326389323921892,0.9004581019457909,0.288233,0.6471662648500784
0.0205,1.78949375,1.0,2394.237179631437,0.2068972880123642,1.3321478065426409,0.9041803416956977,0.2882117375,0.6482073807682156
0.021,1.788975,1.0,2419.6630570183197,0.21134596710085246,1.3316674211956456,0.9076822635784516,0.28818995000000003,0.6492242401703769
0.021500000000000002,1.78844375,1.0,2443.61281322953,0.2157696938747031,1.3311968588098522,0.9109807263396816,0.2881676375,0.6502188798293587
0.022,1.7879,1.0,2466.144618384054,0.2201686068433925,1.3307353361985825,0.9140910508350452,0.2881448,0.651193040145442
0.0225,1.78734375,1.0,2487.319629323923,0.22454284451639717,1.330282070175158,0.9170271574825258,0.28812143749999997,0.6521484506403443
0.023,1.786775,1.0,2507.2017414181432,0.22889254540319343,1.3298362775529011,0.919801713658123,0.28809755,0.6530868303891759
0.0235,1.78619375,1.0,2525.8569067278822,0.2332178479141763,1.3293971793710644,0.9224262645681404,0.28807313749999996,0.6540098795356724
0.024,1.7856,1.0,2543.339881124259,0.23751888739121033,1.3289641235353968,0.9249113688828403,0.2880482,0.6549190224062122
0.0245,1.78499375,1.0,2559.7279117731846,0.24179580435540637,1.3285362646489578,0.9272666454968176,0.2880227375,0.6558160803906568
0.025,1.784375,1.0,2575.0651906365138,0.24604873204197913,1.3281130851737701,0.9295009515617747,0.28799675,0.6567021790106833
0.025500000000000002,1.78374375,1.0,2589.3973027493985,0.2502778036861433,1.3276940675718576,0.9316224043630331,0.2879702375,0.6575784377493967
0.026000000000000002,1.7831000000000001,1.0,2602.7711107193377,0.25448315252311354,1.3272786943052433,0.9336384531565185,0.2879432,0.6584459701972422
0.0265,1.78244375,1.0,2615.2346451634135,0.25866491178810447,1.3268664478359506,0.9355559431550474,0.2879156375,0.6593058841808284
0.027,1.781775,1.0,2626.8370010844874,0.26282321471633086,1.326456810626003,0.9373811726054861,0.28788755,0.6601592818746747
0.0275,1.7810937500000001,1.0,2637.619006396994,0.26695819050623715,1.3260493505183581,0.9391199549199551,0.2878589375,0.661007082355092
0.028,1.7804,1.0,2647.636546131739,0.27106997570657104,1.3256435038208652,0.9407776358165416,0.2878298,0.661850473275734
0.0285,1.77969375,1.0,2656.924144088019,0.2751586988291739,1.3252389113048724,0.9423591781581642,0.2878001375,0.6626902122870579
0.029,1.778975,1.0,2665.5147456663285,0.2792244874835955,1.324835233785522,0.9438691725431441,0.28776995,0.6635270117713816
0.029500000000000002,1.7782437500000001,1.0,2673.441830520979,0.283267469279386,1.3244321320779568,0.9453118677532492,0.2877392375,0.6643615805974208
0.03,1.7775,1.0,2680.7393645019038,0.28728777182609533,1.3240292669973186,0.9466912005746558,0.287708,0.6651946241364172
0.0305,1.77674375,1.0,2687.4417541466246,0.29128552273327346,1.3236262993587498,0.9480108226632366,0.2876762375,0.6660268442709212
0.031,1.775975,1.0,2693.5838037234003,0.2952608496104704,1.3232228899773926,0.9492741247792449,0.28764395,0.6668589393962449
0.0315,1.7751937500000001,1.0,2699.187872301033,0.2992138720179606,1.3228188166899506,0.9504842707022733,0.2876111375,0.6676913634913906
0.032,1.7744,1.0,2704.300593706081,0.303144726649955,1.322413638133692,0.9516441826094875,0.2875778,0.6685250189585356
0.0325,1.77359375,1.0,2708.9461422957866,0.30705353653073586,1.3220071208706083,0.9527566028827054,0.2875439375,0.6693603766218796
0.033,1.772775,1.0,2713.1458319885583,0.31094042272114203,1.3215990595079656,0.9538240907139307,0.28750955,0.6701978473328827
0.0335,1.7719437500000002,1.0,2716.92116217172,0.31480550628201215,1.3211892486530292,0.9548490340278901,0.2874746375,0.6710378397630822
0.034,1.7711000000000001,1.0,2720.293799493196,0.318648908274185,1.320777482913065,0.9558336629797051,0.2874392,0.6718807603825201
0.0345,1.7702437500000001,1.0,2723.2855605890454,0.32247074975849926,1.3203635568953385,0.9567800622371336,0.2874032375,0.6727270134354824
0.035,1.7693750000000001,1.0,2725.9183957458736,0.32627115179579375,1.3199472652071154,0.9576901821696021,0.28736675,0.6735770009135453
0.035500000000000004,1.76849375,1.0,2728.214373499131,0.33005023544690715,1.3195284024556613,0.9585658490527537,0.2873297375,0.6744311225259342
0.036000000000000004,1.7676,1.0,2730.1956661659838,0.33380812177267816,1.319106763248242,0.959408774385362,0.2872922,0.6752897756671887
0.0365,1.76669375,1.0,2731.87412185896,0.3375449249589174,1.3186822368143551,0.96022057142816,0.2872541375,0.6761531630707885
0.037,1.765775,1.0,2733.2744276871194,0.3412607700587777,1.318254596370539,0.9610027453021176,0.28721555,0.6770217215849021
0.0375,1.76484375,1.0,2734.418045771678,0.34495577792427895,1.3178236450643728,0.9617567118984522,0.2871764375,0.6778958247385064
0.038,1.7639,1.0,2735.3172023309653,0.34863006256528245,1.3173892704179322,0.9624838089498289,0.28713679999999997,0.6787756729068007
0.0385,1.76294375,1.0,2735.9841656992407,0.3522837379916495,1.3169513599532934,0.9631852949608195,0.28709663750000003,0.6796614649992279
0.039,1.761975,1.0,2736.4312409258246,0.35591691821324145,1.3165098011925318,0.9638623547577053,0.28705595,0.6805533984345153
0.0395,1.7609937500000001,1.0,2736.670764655352,0.3595297172399196,1.3160644816577236,0.9645161045919558,0.2870147375,0.681451669114906
0.04,1.76,1.0,2736.7151002879655,0.3631222490815452,1.315615288870945,0.9651475968376685,0.286973,0.6823564713995854
0.0405,1.7589937500000001,1.0,2736.576633420664,0.3666946277479797,1.315162110354271,0.9657578243192431,0.2869307375,0.6832679980773033
0.041,1.757975,1.0,2736.267767568263,0.37024696724908424,1.3147048336297782,0.9663477243019799,0.28688795,0.6841864403381812
0.0415,1.75694375,1.0,2735.8009201654736,0.3737793815947203,1.3142433462195424,0.9669181821751125,0.2868446375,0.6851119877447219
0.042,1.7559,1.0,2735.1797529074547,0.3772919775561187,1.313777615241906,0.9674700403077836,0.28680079999999997,0.6860446689193316
0.0425,1.75484375,1.0,2734.421536977324,0.3807848738303736,1.3133074843269357,0.9680040872114386,0.2867564375,0.6869847584972162
0.043000000000000003,1.753775,1.0,2733.538790888127,0.3842581828908708,1.3128328402880107,0.9685210716553946,0.28671155,0.6879324427210969
0.043500000000000004,1.75269375,1.0,2732.538141291658,0.38771201194840893,1.3123536234732431,0.9690217061809601,0.28666613750000003,0.6888877994360187
0.044,1.7516,1.0,2731.42621797156,0.3911464682137866,1.3118697742307437,0.969506665956917,0.2866202,0.6898509053611765
0.0445,1.75049375,1.0,2730.209652464859,0.3945616588978028,1.3113812329086243,0.969976591105354,0.2865737375,0.6908218360724014
0.045,1.7493750000000001,1.0,2728.8950767618944,0.3979576912112561,1.3108879398549964,0.9704320888606988,0.28652675,0.6918006659844265
0.0455,1.74824375,1.0,2727.4891220850545,0.4013346723649452,1.310389835417971,0.9708737355754316,0.2864792375,0.6927874683329236
0.046,1.7471,1.0,2725.998417746957,0.40469270956966885,1.30988685994566,0.9713020785847439,0.2864312,0.6937823151563105
0.0465,1.7459437500000001,1.0,2724.4295900868365,0.4080319100362258,1.3093789537861742,0.9717176379413229,0.28638263750000004,0.6947852772773351
0.047,1.744775,1.0,2722.789261486219,0.41135238097541466,1.3088660572876256,0.9721209080304641,0.28633355,0.6957964242844298
0.0475,1.74359375,1.0,2721.0799648503485,0.41465421942724123,1.3083481479831027,0.972512360419708,0.28628393750000003,0.6968157513883628
0.048,1.7424,1.0,2719.3110040006745,0.4179375416177942,1.307825141741964,0.9728924419616761,0.2862338,0.6978433740801653
0.0485,1.74119375,1.0,2717.488055492163,0.4212024533434116,1.3072969873875706,0.9732615790573949,0.2861831375,0.6988793416534543
0.049,1.739975,1.0,2715.6147607579314,0.42444905499897834,1.306763652236382,0.9736201784815659,0.28613195,0.6999236660286867
0.0495,1.73874375,1.0,2713.6947577877736,0.4276774469793789,1.3062251036048576,0.9739686278972427,0.2860802375,0.7009763581702624
0.05,1.7375,1.0,2711.7316808036003,0.43088772967949796,1.3056813088094568,0.9743072969234325,0.286028,0.7020374280756937
0.0505,1.73624375,1.0,2709.7291599582377,0.4340800034942202,1.3051322351666386,0.9746365381337848,0.2859752375,0.7031068847647041
0.051000000000000004,1.734975,1.0,2707.6908210583324,0.43725436881843033,1.3045778499928622,0.9749566879913837,0.28592195,0.7041847362682574
0.051500000000000004,1.73369375,1.0,2705.620285310555,0.4404109260470129,1.3040181206045873,0.9752680677242687,0.2858681375,0.7052709896175211
0.052000000000000005,1.7324,1.0,2703.5211690917417,0.44354977557485253,1.3034530143182728,0.9755709841459258,0.2858138,0.7063656508327619
0.0525,1.73109375,1.0,2701.397083742819,0.44667101779683394,1.3028824984503784,0.9758657304246608,0.28575893750000003,0.70746872491217
0.053,1.729775,1.0,2699.25163538596,0.4497747531078418,1.3023065403173628,0.9761525868054521,0.28570355000000003,0.7085802158206209
0.0535,1.72844375,1.0,2697.082516747715,0.45286106068347054,1.3017251612590786,0.9764318224697685,0.2856476375,0.7097000225229051
0.054,1.7271,1.0,2694.894667443898,0.45593005342762255,1.3011383163594736,0.9767036943121705,0.2855912,0.7108281709827219
0.0545,1.7257437500000001,1.0,2692.695313302152,0.45898184735884034,1.3005459397095318,0.976968447196708,0.2855342375,0.7119647261610793
0.055,1.724375,1.0,2690.485686829524,0.4620165346107133,1.2999480201642712,0.9772263164951963,0.28547675,0.7131096466821873
0.0555,1.72299375,1.0,2688.267018608846,0.4650342073168309,1.2993445465787103,0.9774775276643607,0.2854187375,0.7142628904132217
0.056,1.7216,1.0,2686.040537274839,0.46803495761078273,1.2987355078078675,0.9777222967430458,0.2853602,0.7154244144603812
0.0565,1.72019375,1.0,2683.807469492913,0.47101887762615824,1.2981208927067613,0.9779608308205476,0.28530113749999997,0.7165941751649352
0.057,1.718775,1.0,2681.5690399411033,0.4739860594965469,1.29750069013041,0.9781933284779661,0.28524155,0.7177721280992658
0.0575,1.71734375,1.0,2679.326471293856,0.47693659535553823,1.2968748889338322,0.9784199802043365,0.2851814375,0.718958228062898
0.058,1.7159,1.0,2677.0809842095396,0.4798705773367217,1.296243477972046,0.9786409687891744,0.2851208,0.7201524290785266
0.0585,1.71444375,1.0,2674.8337973204543,0.4827880975736869,1.2956064461000698,0.9788564696929443,0.2850596375,0.7213546843880311
0.059000000000000004,1.7129750000000001,1.0,2672.5861272250036,0.4856892482000232,1.2949637821729223,0.9790666513968617,0.28499795,0.7225649464484849
0.059500000000000004,1.71149375,1.0,2670.339188483602,0.48857412134932016,1.2943154750456216,0.9792716757333307,0.2849357375,0.7237831669281571
0.06,1.71,1.0,2668.094193616323,0.4914428091551672,1.2936615135731864,0.9794716981982354,0.284873,0.7250092967025041
0.0605,1.7084937500000001,1.0,2665.852353104185,0.4942954037511539,1.293001886610635,0.979666868246211,0.2848097375,0.7262432858501551
0.061,1.7069750000000001,1.0,2663.614875392601,0.49713199727086976,1.2923365830129856,0.979857329569948,0.28474595,0.7274850836488896
0.0615,1.7054437500000001,1.0,2661.3829668976136,0.49995268184790426,1.2916655916352568,0.9800432203645061,0.2846816375,0.7287346385716058
0.062,1.7039,1.0,2659.1574765795367,0.5027575423003728,1.2909889046056993,0.9802246731868703,0.2846168,0.7299918922078292
0.0625,1.70234375,1.0,2656.9387318260156,0.5055466463720427,1.290306518844723,0.9804018145657987,0.2845514375,0.7312567765186816
0.063,1.7007750000000001,1.0,2654.7295073496475,0.508320123440282,1.2896184087114053,0.9805747697734495,0.28448555,0.7325292644626065
0.0635,1.69919375,1.0,2652.5299359016262,0.5110780568310078,1.28892457288281,0.9807436572248986,0.28441913750000003,0.733809283113794
0.064,1.6976,1.0,2650.340150037587,0.5138205298701373,1.288225010036,0.9809085909846139,0.2843522,0.7350967588958792
0.0645,1.69599375,1.0,2648.160282120737,0.5165476258835874,1.287519718848038,0.9810696809565035,0.2842847375,0.7363916175814578
0.065,1.694375,1.0,2645.990464323594,0.5192594281972754,1.2868086979959878,0.9812270330643139,0.28421675,0.7376937842916016
0.0655,1.69274375,1.0,2643.830828630705,0.5219560201371183,1.2860919461569122,0.9813807494229424,0.2841482375,0.7390031834953776
0.066,1.6911,1.0,2641.6815068411443,0.5246374850290333,1.2853694620078742,0.981530928501178,0.2840792,0.7403197390093638
0.0665,1.6894437500000001,1.0,2639.5426305713086,0.5273039061989374,1.2846412442259372,0.9816776652763567,0.2840096375,0.7416433739971633
0.067,1.687775,1.0,2637.414331256816,0.5299553669727478,1.2839072914881642,0.981821051381392,0.28393955,0.742974010968924
0.0675,1.68609375,1.0,2635.296740155858,0.5325919506763815,1.283167602471618,0.9819611752446016,0.2838689375,0.7443115717808535
0.068,1.6844000000000001,1.0,2633.189988351439,0.5352137406357557,1.2824221758533625,0.9820981222227338,0.2837978,0.7456559776347333
0.0685,1.68269375,1.0,2631.0942067540986,0.5378208201767873,1.2816710103104603,0.9822319747275693,0.2837261375,0.7470071490774381
0.069,1.680975,1.0,2629.0095261047695,0.5404132726253938,1.2809141045199746,0.9823628123464492,0.28365395,0.748365006000449
0.0695,1.67924375,1.0,2626.936076977485,0.5429911813074919,1.2801514571589685,0.98249071195706,0.28358123749999997,0.7497294676393707
0.07,1.6775,1.0,2624.8739897822174,0.545554629548999,1.279383066904505,0.9826157478367882,0.283508,0.7511004525734468
0.07050000000000001,1.67574375,1.0,2622.823394767568,0.548103700675832,1.2786089324336476,0.9827379917669334,0.2834342375,0.752477878725074
0.07100000000000001,1.673975,1.0,2620.7844220239062,0.5506384780139081,1.2778290524234592,0.9828575131320568,0.28335995,0.75386166335932
0.07150000000000001,1.67219375,1.0,2618.761079869831,0.5531589825882645,1.2770433895602962,0.9829743736206856,0.2832851375,0.7552517866739221
0.07200000000000001,1.6704,1.0,2616.7506256026218,0.5556653711875862,1.2762519691461,0.9830886438421412,0.2832098,0.7566481171648667
0.0725,1.66859375,1.0,2614.7526898452584,0.5581577214177524,1.2754547944816998,0.9832003863949822,0.2831339375,0.7580505618528205
0.073,1.6667750000000001,1.0,2612.7670603437573,0.5606361075289839,1.2746518674139764,0.9833096615844654,0.28305755,0.7594590297385699
0.0735,1.66494375,1.0,2610.7935252235534,0.563100603771501,1.2738431897898104,0.9834165277710729,0.2829806375,0.7608734292274932
0.074,1.6631,1.0,2608.8318729851107,0.5655512843955243,1.2730287634560824,0.983521041444413,0.2829032,0.7622936681302379
0.0745,1.6612437500000001,1.0,2606.881892499937,0.5679882236512743,1.2722085902596734,0.9836232572938424,0.2828252375,0.7637196536633969
0.075,1.659375,1.0,2604.9433730060546,0.5704114957889715,1.2713826720474637,0.9837232282759764,0.28274675,0.7651512924501874
0.0755,1.65749375,1.0,2603.016104104138,0.5728211750588367,1.2705510106663345,0.9838210056792412,0.2826677375,0.7665884905211255
