Time [s],Phi [rad],STIM [ ],Fsee [N],Gamma [ ],Lcerel [ ],q [ ],Lmtc [m],fisomrel [ ]
0.0,1.8,1.0,17.966157720782014,1.0136254309521813e-05,1.3793398583047807,0.005000027380087934,0.288653,0.5411392598893779
0.0005,1.79999375,1.0,18.275628038989318,0.005619288706733794,1.379302511769168,0.012940894809639284,0.2886527375,0.5412296063954088
0.001,1.799975,1.0,21.617403267595826,0.011196978248820915,1.378938402032774,0.03560929490161543,0.28865195,0.5421099727833156
0.0015,1.79994375,1.0,31.068387966022843,0.016743381363483457,1.378046275979415,0.07060269127191733,0.2886506375,0.5442634350066837
0.002,1.7999,1.0,53.581685304829406,0.022258673541980464,1.3763681772639382,0.11471900531340658,0.2886488,0.5483003671652449
0.0025,1.79984375,1.0,97.1184269580016,0.027743029291486084,1.3739351918684526,0.16457594402092723,0.28864643749999996,0.5541214039614273
0.003,1.7997750000000001,1.0,160.9580009259278,0.03319662214280217,1.3712143499658789,0.2172815354801924,0.28864354999999997,0.5605864361588329
0.0035,1.79969375,1.0,237.68342548112795,0.038619624649952534,1.3685847313396107,0.270613961457466,0.2886401375,0.5667898463753414
0.004,1.7996,1.0,321.4670762273726,0.04401220840096457,1.3661560843208365,0.3229168386482374,0.2886362,0.572479980595767
0.0045000000000000005,1.7994937500000001,1.0,409.2682369169907,0.04937454402305372,1.3639228027553112,0.37303549080152043,0.2886317375,0.5776791888862209
0.005,1.799375,1.0,499.4141290141612,0.05470680117371933,1.3618583290688835,0.42024838009252957,0.28862675,0.5824571099600626
0.0055,1.79924375,1.0,590.7911488600498,0.06000914858816862,1.3599388207419247,0.4641745493698532,0.2886212375,0.5868751445245937
0.006,1.7991000000000001,1.0,682.5189314281407,0.06528175402256621,1.3581463997856338,0.5046807444473448,0.2886152,0.5909794525528986
0.006500000000000001,1.79894375,1.0,773.882317844861,0.0705247843104733,1.356467235522663,0.541801474356272,0.2886086375,0.5948058354554538
0.007,1.798775,1.0,864.286892677331,0.07573840534068697,1.3548903775271093,0.5756774327504899,0.28860155,0.5983827166411539
0.0075,1.79859375,1.0,953.2438115803781,0.08092278207858793,1.3534067700214396,0.6065105145052814,0.2885939375,0.6017335934407313
0.008,1.7984,1.0,1040.3600470579352,0.08607807856776974,1.3520086228987476,0.6345325952976323,0.2885858,0.6048786014187735
0.0085,1.79819375,1.0,1125.3229030745642,0.09120445792322626,1.3506891186846894,0.6599848676856532,0.2885771375,0.6078352743499866
0.009000000000000001,1.797975,1.0,1207.887470071326,0.0963020823166726,1.3494422087250442,0.6831047484203705,0.28856795,0.6106190776829167
0.0095,1.79774375,1.0,1287.8791847420557,0.10137111309099735,1.348262296106222,0.7041179881368748,0.2885582375,0.6132441744605297
0.01,1.7975,1.0,1365.1664670104592,0.10641171066781548,1.3471443927628115,0.723234612887843,0.288548,0.6157231204506979
0.0105,1.79724375,1.0,1439.657516499775,0.11142403424795456,1.346083971202377,0.7406470202832547,0.2885372375,0.6180672349387507
0.011,1.796975,1.0,1511.316678809875,0.11640824283149416,1.345076621260114,0.7565294778438723,0.28852595000000003,0.6202873898587496
0.0115,1.79669375,1.0,1580.1226029734933,0.12136449420633312,1.3441184640575856,0.7710388922098934,0.2885141375,0.6223931208375261
0.012,1.7964,1.0,1646.0653624174984,0.1262929446150622,1.3432060672031407,0.7843158143883389,0.28850180000000003,0.624392842585948
0.0125,1.79609375,1.0,1709.1745482484664,0.13119375025707425,1.342336028205402,0.7964855691178707,0.2884889375,0.6262947825017546
0.013000000000000001,1.7957750000000001,1.0,1769.4938942021606,0.13606706637825877,1.3415052156758023,0.8076597759238907,0.28847555,0.6281064657723973
0.0135,1.79544375,1.0,1827.075067172607,0.14091304698104387,1.3407107779597716,0.8179377449943243,0.2884616375,0.6298347123152017
0.014,1.7951000000000001,1.0,1881.9821084203963,0.14573184558795546,1.3399500410383345,0.8274077658813072,0.2884472,0.6314858724427128
0.0145,1.79474375,1.0,1934.280448379815,0.15052361444493284,1.3392205873302652,0.8361483692344792,0.2884322375,0.6330656668727996
0.015,1.794375,1.0,1984.0427547400177,0.15528850494257562,1.3385201531249027,0.8442294108067513,0.28841675,0.6345794194141978
0.0155,1.79399375,1.0,2031.358294871788,0.16002666891381798,1.337846500745844,0.8517130433450654,0.2884007375,0.6360323403500907
0.016,1.7936,1.0,2076.2975581136707,0.1647382553714718,1.3371977682912695,0.8586547318270044,0.2883842,0.6374287788883526
0.0165,1.7931937500000001,1.0,2118.943284627423,0.16942341314751982,1.3365721144823324,0.8651039337977475,0.2883671375,0.638772996661007
0.017,1.792775,1.0,2159.380040969378,0.17408229004548514,1.3359678117218476,0.8711048374222492,0.28834955,0.6400689715779118
0.0175,1.7923437500000001,1.0,2197.7062625962094,0.17871503522447538,1.3353831076284866,0.8766969460671536,0.2883314375,0.6413206987163872
0.018000000000000002,1.7919,1.0,2234.005651954612,0.18332179554296069,1.3348165033598187,0.8819157011158376,0.2883128,0.6425315978249506
0.0185,1.79144375,1.0,2268.346210150776,0.18790271535532996,1.3342667441810716,0.8867929498389298,0.2882936375,0.643704539969981
0.019,1.790975,1.0,2300.8032560210045,0.19245793901597216,1.3337325753574718,0.8913572988575531,0.28827395,0.6448423729122111
0.0195,1.79049375,1.0,2331.4588179201155,0.19698761087927621,1.3332127421542468,0.895634485975034,0.2882537375,0.6459479224044881
0.02,1.79,1.0,2360.3878762221075,0.20149187435091587,1.3327061187056872,0.8996477356072652,0.288233,0.6470237199483329
0.0205,1.78949375,1.0,2387.6843094535075,0.20597087312600254,1.3322114469309858,0.9034179807758387,0.2882117375,0.648072559081699
0.021,1.788975,1.0,2413.436859915994,0.21042474975021833,1.3317275679842524,0.9069641690943703,0.28818995000000003,0.6490970045894554
0.021500000000000002,1.78844375,1.0,2437.6923089789275,0.2148536436081108,1.3312537694112818,0.9103035523413768,0.2881676375,0.6500986615140859
0.022,1.7879,1.0,2460.5006114316834,0.21925769408422752,1.3307893387578695,0.9134517752807815,0.2881448,0.6510791242478682
0.0225,1.787348700561061,1.0,2482.149203587237,0.22363704056311612,1.3303335635698108,0.9164230475385946,0.28812164542356455,0.6520399769747123
0.023,1.7867973254892193,1.0,2503.0520894073143,0.2279918224000603,1.329885731737331,0.9192302951520996,0.28809848767054724,0.6529827933549928
0.0235,1.7862459504173775,1.0,2523.247095319333,0.232322177145239,1.3294454200728834,0.9218853478272703,0.2880753299175298,0.653908530589928
0.024,1.7856945753455358,1.0,2542.745347733072,0.23662824334773247,1.3290124336767946,0.9243990399030088,0.2880521721645125,0.6548176609887528
0.0245,1.785143200273694,1.0,2561.568895891225,0.24091015591282308,1.3285864815549273,0.9267812490105408,0.28802901441149514,0.6557108550362035
0.025,1.7845918252018522,1.0,2579.740584063382,0.2451680497457932,1.328167272713145,0.9290410115226236,0.2880058566584778,0.6565887790816847
0.025500000000000002,1.7840404501300104,1.0,2597.2840071008495,0.24940205975192517,1.3277545161573105,0.931186605671096,0.28798269890546047,0.657452095467115
0.026000000000000002,1.783489075058169,1.0,2614.214046038283,0.25361231308831467,1.3273480084020834,0.9332256360108643,0.2879595411524431,0.6583012799591503
0.0265,1.7829376999863271,1.0,2630.565381914761,0.25779895236842776,1.3269473677235757,0.9351650665386182,0.28793638339942573,0.6591371771002072
0.027,1.7823863249144853,1.0,2646.3659923421706,0.26196211500494004,1.3265522812260955,0.9370113107993873,0.28791322564640837,0.6599604835013809
0.0275,1.7818349498426436,1.0,2661.6330266296086,0.2661019292920274,1.3261625413788654,0.938770287149007,0.287890067893391,0.6607716728357141
0.028,1.7812835747708018,1.0,2676.384088262751,0.270218523523866,1.3257779406511074,0.9404474525727172,0.2878669101403737,0.6615712161515419
0.0285,1.78073219969896,1.0,2690.6372107798243,0.2743120259946318,1.325398271512044,0.9420478447119465,0.2878437523873563,0.6623595819418817
0.029,1.7801808246271182,1.0,2704.410834602874,0.27838256499850084,1.3250233264308973,0.9435761195572504,0.28782059463433896,0.6631372362110791
0.029500000000000002,1.7796294495552765,1.0,2717.72378482325,0.28243026882964917,1.3246528978768897,0.9450365853014551,0.2877974368813216,0.663904642538705
0.03,1.7790780744834347,1.0,2730.5952499427526,0.2864552657822528,1.3242867783192431,0.9464332327859888,0.2877742791283042,0.6646622621407081
0.0305,1.778526699411593,1.0,2743.0447615691264,0.2904576841504878,1.3239247602271802,0.9477697629203622,0.2877511213752869,0.6654105539278183
0.031,1.7779753243397511,1.0,2755.0921750664893,0.29443765222853024,1.323566636069923,0.9490496114086441,0.28772796362226954,0.6661499745612054
0.0315,1.7774239492679096,1.0,2766.7535728719854,0.29839529394782005,1.323212235136374,0.9502759742947096,0.2877048058692522,0.6668809026088944
0.032,1.7768725741960678,1.0,2778.043843521782,0.3023307335866038,1.3228613997666643,0.9514518264142334,0.28768164811623487,0.6676036879486933
0.0325,1.776321199124226,1.0,2788.9877036568305,0.3062441064293698,1.3225138859885286,0.9525799307653322,0.2876584903632175,0.668318856328375
0.033,1.7757698240523843,1.0,2799.5966457638237,0.3101355328265726,1.3221695711227557,0.9536628725385621,0.28763533261020013,0.6690266818959811
0.0335,1.7752184489805425,1.0,2809.8823358606296,0.31400513312866674,1.321828332490134,0.9547030635914291,0.28761217485718277,0.6697274375211087
0.034,1.7746670739087007,1.0,2819.85660496221,0.3178530276861068,1.321490047411453,0.9557027561446781,0.2875890171041654,0.6704213948194568
0.0345,1.774115698836859,1.0,2829.5314408803306,0.3216793368493473,1.3211545932075013,0.956664055242248,0.2875658593511481,0.671108824176417
0.035,1.7735643237650172,1.0,2838.918980356381,0.3254841809688427,1.3208218471990674,0.9575889300995252,0.2875427015981307,0.6717899947697011
0.035500000000000004,1.7730129486931754,1.0,2848.0315015288247,0.32926768039504756,1.3204916867069403,0.9584792244507357,0.28751954384511336,0.6724651745910091
0.036000000000000004,1.7724615736213336,1.0,2856.881416733392,0.33302995547841646,1.320163989051909,0.9593366659941821,0.287496386092096,0.6731346304667383
0.0365,1.7719101985494918,1.0,2865.481265637565,0.33677112656940383,1.319838631554762,0.9601628750233306,0.2874732283390786,0.6737986280777333
0.037,1.7713588234776503,1.0,2873.8437087085063,0.34049131401846433,1.3195154915362886,0.9609593723223168,0.2874500705860613,0.6744574319780737
0.0375,1.7708074484058085,1.0,2881.9724674568974,0.34419062345031887,1.31919452640416,0.9617275910644978,0.28742691283304395,0.6751111425817091
0.038,1.7702560733339667,1.0,2889.887221617964,0.3478691906564881,1.318875553116001,0.9624688713641895,0.2874037550800266,0.6757601454877692
0.0385,1.769704698262125,1.0,2897.5965917106923,0.35152713123865,1.3185584874437537,0.9631844790491859,0.28738059732700927,0.6764046239717725
0.039,1.7691533231902832,1.0,2905.107468411248,0.3551645576320055,1.3182432610679238,0.9638756066692347,0.2873574395739919,0.6770447282680272
0.0395,1.7686019481184414,1.0,2912.426805587192,0.35878158227175566,1.3179298056690167,0.964543377756115,0.28733428182097454,0.6776806079950933
0.04,1.7680505730465996,1.0,2919.5616175627188,0.3623783175931014,1.3176180529275379,0.965188851558738,0.28731112406795717,0.6783124121636472
0.0405,1.7674991979747579,1.0,2926.5189764878837,0.3659548760312438,1.3173079345239929,0.9658130274049697,0.2872879663149398,0.678940289184048
0.041,1.766947822902916,1.0,2933.306009811358,0.3695113700213838,1.316999382138887,0.9664168487232291,0.2872648085619225,0.6795643868736094
0.0415,1.7663964478310743,1.0,2939.929897856391,0.3730479119987224,1.3166923274527258,0.9670012067536984,0.2872416508089051,0.6801848524635699
0.042,1.7658450727592325,1.0,2946.397871500574,0.3765646143984605,1.3163867021460147,0.9675669439760777,0.28721849305588776,0.6808018326057684
0.0425,1.7652936976873908,1.0,2952.717209959047,0.3800615896557992,1.3160824378992593,0.9681148572782406,0.2871953353028704,0.6814154733790208
0.043000000000000003,1.764742322615549,1.0,2958.895238670721,0.3835389502059395,1.3157794663929647,0.9686457008878265,0.287172177549853,0.6820259202951993
0.043500000000000004,1.7641909475437074,1.0,2964.9366189514735,0.386996800138394,1.31547774292777,0.9691601896767876,0.2871490197968357,0.6826332707818874
0.044,1.7636395724718656,1.0,2970.8461275604463,0.39043524707289184,1.315177222073031,0.9696590015685728,0.28712586204381835,0.6832376233620133
0.0445,1.7630881974000239,1.0,2976.6349355070492,0.39385441921771347,1.3148778030083237,0.9701427781032205,0.287102704290801,0.6838391874127911
0.045,1.762536822328182,1.0,2982.306743465511,0.39725442068852296,1.3145794503406265,0.9706121293304558,0.28707954653778367,0.6844380402531547
0.0455,1.7619854472563403,1.0,2987.8652753327183,0.40063535560098446,1.3142821286769173,0.9710676343472787,0.2870563887847663,0.6850342589104133
0.046,1.7614340721844985,1.0,2993.3142774056932,0.40399732807076205,1.3139858026241735,0.9715098431674581,0.28703323103174894,0.6856279201226197
0.0465,1.7608826971126568,1.0,2998.657517585919,0.40734044221351995,1.3136904367893734,0.9719392784607928,0.28701007327873157,0.6862191003408551
0.047,1.760331322040815,1.0,3003.898784612367,0.41066480214492224,1.3133959957794947,0.9723564371723609,0.2869869155257142,0.686807875731438
0.0475,1.7597799469689732,1.0,3009.041887321712,0.41397051198063306,1.3131024442015153,0.9727617920311098,0.2869637577726969,0.6873943221780516
0.048,1.7592285718971314,1.0,3014.0906539362177,0.41725767583631657,1.3128097466624131,0.9731557929563157,0.2869406000196795,0.6879785152837912
0.0485,1.75867719682529,1.0,3019.0489313802937,0.42052639782763684,1.312517867769166,0.9735388683697177,0.28691744226666216,0.6885605303731317
0.049,1.7581258217534481,1.0,3023.9205846237173,0.4237767820702581,1.312226772128752,0.9739114264204721,0.28689428451364485,0.6891404424938151
0.0495,1.7575744466816063,1.0,3028.7094960531876,0.4270089326798444,1.3119364243481486,0.974273856129466,0.2868711267606275,0.6897183264186599
0.05,1.7570230716097646,1.0,3033.4195648717164,0.4302229537720599,1.3116467890343337,0.9746265284589877,0.2868479690076101,0.6902942566472878
0.0505,1.7564716965379228,1.0,3038.0547065256583,0.43341894946256876,1.3113578307942857,0.9749697973132563,0.28682481125459275,0.6908683074077709
0.051000000000000004,1.755920321466081,1.0,3042.6133070149754,0.43659699149311465,1.3110695619743489,0.9753039999784533,0.2868016535015754,0.6914404579498938
0.051500000000000004,1.7553689463942392,1.0,3047.104103929144,0.4397572202942216,1.3107819058572319,0.9756294603838567,0.28677849574855807,0.6920108641318452
0.052000000000000005,1.7548175713223975,1.0,3051.5297590474943,0.44289973644061864,1.3104948382065669,0.9759464869240012,0.2867553379955407,0.6925795773184882
0.0525,1.7542661962505557,1.0,3055.892089319214,0.44602463513576457,1.310208342134117,0.9762553742360717,0.28673218024252334,0.6931466341530694
0.053,1.753714821178714,1.0,3060.192919524697,0.44913201158311816,1.3099224007516446,0.9765564040454109,0.28670902248950597,0.6937120711490339
0.0535,1.7531634461068721,1.0,3064.4340820646526,0.4522219609861381,1.3096369971709119,0.9768498458418686,0.2866858647364886,0.6942759246906274
0.054,1.7526120710350304,1.0,3068.617416755914,0.4552945785482831,1.3093521145036817,0.9771359575151501,0.2866627069834713,0.6948382310334853
0.0545,1.7520606959631888,1.0,3072.7447706324647,0.45834995947301194,1.3090677358617164,0.9774149859519781,0.2866395492304539,0.695399026305205
0.055,1.751509320891347,1.0,3076.8179977544205,0.46138819896378336,1.3087838443567787,0.9776871675976648,0.28661639147743656,0.6959583465058949
0.0555,1.7509579458195053,1.0,3080.8389590220113,0.4644093922240561,1.3085004231006312,0.977952728984498,0.28659323372441925,0.6965162275087102
0.056,1.7504065707476635,1.0,3084.809521996341,0.4674136344572888,1.308217455205036,0.9782118872291563,0.2865700759714019,0.6970727050603686
0.0565,1.7498551956758217,1.0,3088.7315607265396,0.47040102086694036,1.307934923781756,0.978464850501216,0.2865469182183845,0.6976278147816459
0.057,1.74930382060398,1.0,3092.6069555832064,0.47337164665646936,1.3076528119425535,0.9787118184646466,0.28652376046536715,0.6981815921678567
0.0575,1.7487524455321382,1.0,3096.4375930981378,0.47632560702933463,1.307371102799191,0.9789529826940645,0.2865006027123498,0.698734072589315
0.058,1.7482010704602964,1.0,3100.2253658103477,0.4792629971889949,1.3070897794634313,0.9791885270673754,0.2864774449593325,0.6992852912917766
0.0585,1.7476496953884546,1.0,3103.9721721182336,0.4821839123389089,1.3068088250470369,0.9794186281363245,0.2864542872063151,0.6998352833968645
0.059000000000000004,1.7470983203166128,1.0,3107.6799161388394,0.48508844768253534,1.30652822266177,0.9796434554763682,0.28643112945329774,0.7003840839024755
0.059500000000000004,1.746546945244771,1.0,3111.3458354912286,0.48797663648654216,1.3062479951956065,0.9798631691246181,0.2864079717002804,0.7009316499957645
0.06,1.7459955701729295,1.0,3114.9764470009573,0.49084864815275253,1.3059680865367873,0.9800779296891603,0.286384813947263,0.7014780931792635
0.0605,1.7454441951010877,1.0,3118.5727561081926,0.4937045710970491,1.3056884875781083,0.9802878875476322,0.2863616561942457,0.7020234329152064
0.061,1.744892820029246,1.0,3122.135556305372,0.49654449068755624,1.3054091910402106,0.9804931871987692,0.28633849844122833,0.7025676850387887
0.0615,1.7443414449574042,1.0,3125.6656436587064,0.49936849229239827,1.3051301896437344,0.980693967676576,0.28631534068821096,0.7031108653315647
0.062,1.7437900698855624,1.0,3129.1638167597825,0.5021766612796995,1.3048514761093204,0.9808903627983552,0.28629218293519365,0.7036529895215831
0.0625,1.7432386948137206,1.0,3132.630876678203,0.5049690830175844,1.304573043157609,0.981082501399675,0.28626902518217623,0.7041940732835243
0.063,1.7426873197418788,1.0,3136.0676269164164,0.507745842874177,1.304294883509241,0.9812705075570577,0.2862458674291589,0.7047341322388313
0.0635,1.742135944670037,1.0,3139.4748733642446,0.5105070262176019,1.3040169898848564,0.9814545007991142,0.28622270967614155,0.7052731819558391
0.064,1.7415845695981953,1.0,3142.853424255855,0.5132527184159835,1.3037393550050962,0.9816345963068097,0.2861995519231242,0.7058112379498984
0.0645,1.7410331945263535,1.0,3146.2040901273417,0.515983004837446,1.3034619715906006,0.9818109051034893,0.2861763941701069,0.7063483156834998
0.065,1.7404818194545117,1.0,3149.527683775203,0.5186979708501137,1.3031848323620105,0.9819835342352647,0.2861532364170895,0.7068844305663889
0.0655,1.73993044438267,1.0,3152.8250202169747,0.521397701822111,1.302907930039966,0.9821525869423112,0.28613007866407214,0.7074195979556859
0.066,1.7393790693108284,1.0,3156.0969166518453,0.5240822831215622,1.302631257345108,0.9823181628215991,0.2861069209110548,0.7079538331559918
0.0665,1.7388276942389866,1.0,3159.3441924232907,0.5267518001165917,1.3023548069980768,0.9824803579815443,0.2860837631580374,0.7084871514195017
0.067,1.7382763191671449,1.0,3162.5676689825286,0.5294063381753239,1.3020785717195131,0.9826392651890334,0.2860606054050201,0.7090195679461064
0.0675,1.737724944095303,1.0,3165.7681698531865,0.532045982665883,1.3018025442300571,0.9827949740092528,0.28603744765200273,0.7095510978834962
0.068,1.7371735690234613,1.0,3168.946520597213,0.5346708189563935,1.3015267172503497,0.9829475709387173,0.28601428989898536,0.7100817563272566
0.0685,1.7366221939516195,1.0,3172.1035487819995,0.5372809324149795,1.3012510835010314,0.9830971395318798,0.28599113214596805,0.7106115583209651
0.069,1.7360708188797778,1.0,3175.2400839483603,0.5398764084097656,1.3009756357027422,0.9832437605216703,0.28596797439295063,0.7111405188562826
0.0695,1.735519443807936,1.0,3178.356957580392,0.5424573323088759,1.3007003665761234,0.9833875119342944,0.2859448166399333,0.7116686528730389
0.07,1.7349680687360942,1.0,3181.453071510999,0.5450237314003115,1.3004252851041826,0.9835284664660697,0.28592165888691595,0.7121959441009904
