Time [s],Phi [rad],STIM [ ],Fsee [N],Gamma [ ],Lcerel [ ],q [ ],Lmtc [m],fisomrel [ ]
0.0,1.8,1.0,17.984117050311415,0.0001349444265628564,1.3793378467058242,0.005004754595234063,0.288653,0.5411441264559587
0.0005,1.79999375,1.0,18.334679961441637,0.005743396803872716,1.3792959573401196,0.013291024703738226,0.2886527375,0.5412454615607214
0.001,1.799975,1.0,21.769182348323724,0.011320390197669731,1.3789229267988894,0.03626262727794063,0.28865195,0.542147371001797
0.0015,1.79994375,1.0,31.419236284217387,0.01686610106892423,1.3780164684157863,0.07149508361835127,0.2886506375,0.5443352984899772
0.002,1.7999,1.0,54.329288629774794,0.022380704886806088,1.3763198443031934,0.11577465741345645,0.2886488,0.5484163736722585
0.0025,1.79984375,1.0,98.36796413887228,0.027864376137032687,1.373875171934558,0.16572364674594006,0.28864643749999996,0.5542645274582418
0.003,1.7997750000000001,1.0,162.57922071928886,0.033317288328472465,1.3711538181767415,0.21846509293909097,0.28864354999999997,0.560729729760288
0.0035,1.79969375,1.0,239.51263172484386,0.03873961399365739,1.3685284949507461,0.2717908217303774,0.2886401375,0.5669220293665111
0.004,1.7996,1.0,323.41161339805984,0.04413152469928493,1.3661046586333903,0.32405613700585406,0.2886362,0.5726000603537271
0.0045000000000000005,1.7994937500000001,1.0,411.28076758059495,0.049493191051488764,1.3638756189517478,0.3741168288206601,0.2886317375,0.5777886923867425
0.005,1.799375,1.0,501.4668448552951,0.05482478268757635,1.361814753785388,0.4212599472063478,0.28862675,0.5825576656352649
0.0055,1.79924375,1.0,592.8612161512559,0.0601264683167069,1.3598984120380926,0.46511103710641843,0.2886212375,0.5869678986366689
0.006,1.7991000000000001,1.0,684.5902060825834,0.06539841567949804,1.3581087780698355,0.5055413339334491,0.2886152,0.5910653796853612
0.006500000000000001,1.79894375,1.0,775.9406837676006,0.07064079157619928,1.3564321212235804,0.5425883180079577,0.2886086375,0.5948856599491674
0.007,1.798775,1.0,866.3216731433622,0.07585376192060901,1.3548575286456308,0.5763944629993628,0.28860155,0.5984570611081483
0.0075,1.79859375,1.0,955.2406136868664,0.08103749151901303,1.3533760732181332,0.6071626812104597,0.2885939375,0.6018027770310349
0.008,1.7984,1.0,1042.317906988135,0.08619214462513579,1.3519798109268781,0.6351251377816891,0.2885858,0.6049432802929819
0.0085,1.79819375,1.0,1127.2342470072208,0.0913178842619382,1.3506620726657346,0.6605231407143366,0.2885771375,0.6078957614597292
0.009000000000000001,1.797975,1.0,1209.7407664103116,0.09641487236160692,1.3494168952064838,0.6835939561682378,0.28856795,0.6106754889804246
0.0095,1.79774375,1.0,1289.6701652799181,0.10148327026043089,1.348238604758114,0.7045629665279425,0.2885582375,0.6132967925896748
0.01,1.7975,1.0,1366.9097251159333,0.10652323897445128,1.3471219943271429,0.7236397033677396,0.288548,0.6157727074437086
0.0105,1.79724375,1.0,1441.3492669056525,0.11153493719648216,1.3460628038498101,0.7410163055394435,0.2885372375,0.6181139534171168
0.011,1.796975,1.0,1512.9396215651698,0.11651852354124115,1.3450568015957305,0.7568667234903225,0.28852595000000003,0.6203310066088159
0.0115,1.79669375,1.0,1581.671210833593,0.12147415570576167,1.344099968089156,0.7713474074826742,0.2885141375,0.6224337116104648
0.012,1.7964,1.0,1647.56299950853,0.12640199148293488,1.3431885416522755,0.7845984125186495,0.28850180000000003,0.6244312017812002
0.0125,1.79609375,1.0,1710.6183023947992,0.13130218577723388,1.3423194477776694,0.7967448914899296,0.2884889375,0.626330981100738
0.013000000000000001,1.7957750000000001,1.0,1770.875381568132,0.13617489343834863,1.3414896228430708,0.8078981976498133,0.28847555,0.6281404256712284
0.0135,1.79544375,1.0,1828.392068816439,0.1410202685630615,1.3406961488715794,0.8181573505507943,0.2884616375,0.6298664991839114
0.014,1.7951000000000001,1.0,1883.2474991750516,0.14583846583602791,1.3399361916272452,0.827610349555655,0.2884472,0.6315158980292246
0.0145,1.79474375,1.0,1935.5031552433509,0.15062963737430482,1.3392073871035197,0.8363355445800003,0.2884322375,0.6330942236428665
0.015,1.794375,1.0,1985.2189754400615,0.15539393378839303,1.3385076148920687,0.844402660681953,0.28841675,0.6346064880742439
0.0155,1.79399375,1.0,2032.473260370738,0.16013150568879342,1.3378347545845588,0.8518737243658915,0.2884007375,0.6360576485803282
0.016,1.7936,1.0,2077.35576101553,0.16484250320429647,1.3371867413209735,0.8588039899575357,0.2883842,0.6374524919558129
0.0165,1.7931937500000001,1.0,2119.9584490967486,0.16952707611932327,1.336561642904775,0.8652427650788359,0.2883671375,0.6387954736136436
0.017,1.792775,1.0,2160.368959688249,0.17418537334333903,1.3359577067822959,0.8712341259726615,0.28834955,0.6400906226198371
0.0175,1.7923437500000001,1.0,2198.6562793822086,0.17881754098652722,1.335373485150905,0.8768175655716192,0.2883314375,0.6413412801585961
0.018000000000000002,1.7919,1.0,2234.8988405633604,0.1834237251590714,1.3348075302079714,0.8820284476498923,0.2883128,0.6425507580230814
0.0185,1.79144375,1.0,2269.183730601866,0.1880040719711551,1.3342583941508648,0.886898489009231,0.2882936375,0.6437223403688939
0.019,1.790975,1.0,2301.590715167173,0.19255872582380162,1.3337247799555283,0.8914562183263909,0.28827395,0.6448589644248541
0.0195,1.79049375,1.0,2332.2175399691623,0.1970878333696428,1.333205280744668,0.8957272798296244,0.2882537375,0.6459637783286576
0.02,1.79,1.0,2361.1329010557247,0.20159153686610792,1.3326988370158912,0.8997348641452014,0.288233,0.6470391704345455
0.0205,1.78949375,1.0,2388.4033616006736,0.20606997766643273,1.3322044593537792,0.9034999194210245,0.2882117375,0.6480873634740538
0.021,1.788975,1.0,2414.099983005715,0.21052329712385306,1.3317211583429132,0.9070413846658346,0.28818995000000003,0.6491105647564921
0.021500000000000002,1.78844375,1.0,2438.2979472239103,0.21495163659160466,1.3312479445678744,0.9103764100125413,0.2881676375,0.6501109668991021
0.022,1.7879,1.0,2461.0655980745823,0.21935513555362796,1.3307839301077133,0.9135205700995715,0.2881448,0.6510905343829574
0.0225,1.78734375,1.0,2482.4810877342243,0.22373393602079647,1.3303281644957994,0.9164880016416935,0.28812143749999997,0.6520513512144008
0.023,1.786775,1.0,2502.605230767544,0.22808817620183228,1.329879890978143,0.9192916013240764,0.28809755,0.6529950814038534
0.0235,1.78619375,1.0,2521.491453246955,0.23241799236494692,1.329438446109106,0.9219431356752527,0.28807313749999996,0.6539231831161278
0.024,1.7856,1.0,2539.1953067391614,0.2367235207783521,1.3290031664430508,0.924453340561642,0.2880482,0.6548371060919841
0.0245,1.78499375,1.0,2555.774289699803,0.24100489771025935,1.3285733885343392,0.9268320256608333,0.2880227375,0.65573829192303
0.025,1.784375,1.0,2571.287678627336,0.24526225942888039,1.3281484489373332,0.9290881670790522,0.28799675,0.6566281742985409
0.025500000000000002,1.78374375,1.0,2585.785649282734,0.2494957386877833,1.327727784315373,0.9312300046584141,0.2879702375,0.6575079699864043
0.026000000000000002,1.7831000000000001,1.0,2599.3314526919717,0.2537054744925261,1.3273107221866234,0.9332650836449392,0.2879432,0.6583791171609409
0.0265,1.78244375,1.0,2611.9671503080576,0.25789159858335525,1.3268967995118723,0.9352003662080932,0.2879156375,0.6592426099135674
0.027,1.781775,1.0,2623.7331147814552,0.262054241738797,1.3264855783145444,0.9370422600042366,0.28788755,0.6600993850529895
0.0275,1.7810937500000001,1.0,2634.6706229593783,0.2661935347373778,1.3260766206180645,0.9387966665329739,0.2878589375,0.6609503746374452
0.028,1.7804,1.0,2644.8217769613902,0.27030960835762396,1.3256694884458577,0.940469027812994,0.2878298,0.6617965060440476
0.0285,1.77969375,1.0,2654.229429508363,0.2744025933780619,1.3252637438213486,0.9420643681883868,0.2878001375,0.6626387020258933
0.029,1.778975,1.0,2662.9341379947846,0.2784726192501549,1.3248589761501615,0.943587335165552,0.28776995,0.6634778240263675
0.029500000000000002,1.7782437500000001,1.0,2670.9701692820136,0.28251981330687437,1.3244548381164218,0.9450422373572471,0.2877392375,0.6643145982871381
0.03,1.7775,1.0,2678.3868953581546,0.28654431063358693,1.324050848383071,0.9464330510066141,0.287708,0.6651500244330737
0.0305,1.77674375,1.0,2685.210920213213,0.29054623587167183,1.3236467390929727,0.9477634881758087,0.2876762375,0.6659846564875168
0.031,1.775975,1.0,2691.4692062965532,0.2945257136625082,1.3232422423889898,0.9490369949377243,0.28764395,0.6668190457121734
0.0315,1.7751937500000001,1.0,2697.189042496633,0.29848286864747525,1.3228370904139855,0.9502567737514171,0.2876111375,0.6676537406027812
0.032,1.7744,1.0,2702.3980137116537,0.30241782546795226,1.3224310153108234,0.9514258036944583,0.2875778,0.6684892868802027
0.0325,1.77359375,1.0,2707.123972011379,0.30633070876531837,1.3220237492223665,0.9525468587805528,0.2875439375,0.6693262274769465
0.033,1.772775,1.0,2711.395009388826,0.3102216431809528,1.3216150242914784,0.953622524564177,0.28750955,0.6701651025191064
0.0335,1.7719437500000002,1.0,2715.2392596865725,0.3140907531024083,1.321204574232338,0.9546552133209071,0.2874746375,0.6710064460848932
0.034,1.7711000000000001,1.0,2718.6811747927622,0.31793815699019967,1.3207921680215082,0.9556471800046177,0.2874392,0.671850717270601
0.0345,1.7702437500000001,1.0,2721.7485231746273,0.3217639849433356,1.3203775458904399,0.9566005320422164,0.2874032375,0.6726984314069486
0.035,1.7693750000000001,1.0,2724.4588454593895,0.3255683553650901,1.3199605424579808,0.9575172479743237,0.28736675,0.6735499083864627
0.035500000000000004,1.76849375,1.0,2726.8297917609075,0.32935138665873737,1.3195409923429788,0.9583991801449351,0.2873297375,0.6744054662387255
0.036000000000000004,1.7676,1.0,2728.879110014768,0.3331131972275514,1.3191187301642817,0.9592480641980677,0.2872922,0.6752654211043889
0.0365,1.76669375,1.0,2730.6246349204057,0.33685390547480626,1.318693590540737,0.9600655277561674,0.2872541375,0.6761300872074394
0.037,1.765775,1.0,2732.0842774890475,0.34057362980377615,1.3182654080911933,0.9608530983591704,0.28721555,0.6769997768257213
0.0375,1.76484375,1.0,2733.2760151988205,0.3442724886177351,1.3178340174344976,0.9616122107347519,0.2871764375,0.6778748002597178
0.038,1.7639,1.0,2734.2178827554203,0.34795060031995717,1.317399253189498,0.9623442134628837,0.28713679999999997,0.678755465799582
0.0385,1.76294375,1.0,2734.9253052275913,0.3516080814537148,1.3169609741133872,0.9630503769939402,0.28709663750000003,0.6796420308963416
0.039,1.761975,1.0,2735.4143663632035,0.3552450478239099,1.3165190333423553,0.9637318965798803,0.28705595,0.6805347625383322
0.0395,1.7609937500000001,1.0,2735.696266356396,0.35886161363080193,1.316073328654196,0.9643899019263814,0.2870147375,0.6814338358209715
0.04,1.76,1.0,2735.781935202695,0.362457892951273,1.3156237605226266,0.9650254581635046,0.286973,0.6823394189845524
0.0405,1.7589937500000001,1.0,2735.682325507649,0.36603399986220514,1.3151702294213659,0.9656395700131231,0.2869307375,0.6832516788472054
0.041,1.757975,1.0,2735.371197004562,0.36959004538383444,1.3147129736997205,0.9662332145834619,0.28688795,0.6841701026309919
0.0415,1.75694375,1.0,2734.956149849071,0.37312614730678917,1.314251016607089,0.9668072121203243,0.2868446375,0.6850966153106219
0.042,1.7559,1.0,2734.4143635704354,0.3766424156548653,1.3137845656008633,0.9673624365385349,0.28680079999999997,0.6860307601743543
0.0425,1.7548446296584592,1.0,2733.76476847856,0.3801389603300248,1.313313846352944,0.9678997156054004,0.2867564744456553,0.6869720461847062
0.043000000000000003,1.7537868191639217,1.0,2733.4389822868766,0.38361589123422984,1.3128390845352316,0.96841983245031,0.2867120464048847,0.687919984652928
0.043500000000000004,1.7527290086693839,1.0,2733.533427718299,0.3870733182694424,1.3123605058196268,0.9689235284268479,0.28666761836411414,0.6888740892988102
0.044,1.7516711981748463,1.0,2734.0232785081894,0.39051135133762455,1.31187833587803,0.9694115057641833,0.28662319032334355,0.6898338763072409
0.0445,1.7506133876803087,1.0,2734.8859141726653,0.39393009946763485,1.311392781084147,0.9698844283960295,0.28657876228257295,0.6907989027062515
0.045,1.749555577185771,1.0,2736.0879432417487,0.3973296707944719,1.3109041461885105,0.9703429333772673,0.28653433424180236,0.6917685327895196
0.0455,1.7484977666912334,1.0,2737.589447125167,0.40071017572648115,1.3104127955276053,0.9707876299896061,0.2864899062010318,0.6927420164946976
0.046,1.7474399561966956,1.0,2739.3698720818325,0.40407171946428083,1.309918917823825,0.9712190828355004,0.2864454781602612,0.6937189552771339
0.0465,1.746382145702158,1.0,2741.4086819986687,0.40741440720848904,1.309422701799563,0.9716378282906641,0.28640105011949063,0.6946989528413863
0.047,1.7453243352076204,1.0,2743.6853482112765,0.410738344159724,1.3089243361772125,0.9720443761884455,0.28635662207872004,0.6956816151704994
0.0475,1.7442665247130826,1.0,2746.17934011482,0.4140436355186038,1.3084240096791675,0.9724392113885073,0.2863121940379495,0.6966665505530127
0.048,1.743208714218545,1.0,2748.8701165642537,0.4173303864857466,1.3079219110278208,0.9728227952387608,0.2862677659971789,0.6976533696077002
0.0485,1.7421509037240073,1.0,2751.742949877993,0.4205986984061174,1.307418176151233,0.9731955627874264,0.2862233379564083,0.6986417888132957
0.049,1.7410930932294697,1.0,2754.777412228253,0.4238486780628797,1.3069129924380307,0.9735579326287153,0.2861789099156377,0.6996314256145832
0.0495,1.7400352827349321,1.0,2757.9534730582513,0.4270804325386345,1.3064065434096155,0.973910303421273,0.2861344818748671,0.7006219073844753
0.05,1.7389774722403943,1.0,2761.2616008564614,0.4302940616678351,1.3058989173890536,0.974253048016844,0.2860900538340966,0.701613049554225
0.0505,1.7379196617458568,1.0,2764.692250379013,0.433489665284935,1.3053902026994118,0.9745865220996783,0.286045625793326,0.7026046686709573
0.051000000000000004,1.736861851251319,1.0,2768.235860431648,0.4366673432243873,1.304880487663756,0.9749110651323968,0.2860011977525554,0.7035965824040507
0.051500000000000004,1.7358040407567814,1.0,2771.882851824078,0.43982719532064557,1.3043698606051533,0.9752270012416898,0.2859567697117848,0.7045886095510191
0.052000000000000005,1.7347462302622438,1.0,2775.6236254977307,0.4429693214081629,1.3038584098466697,0.9755346400481888,0.28591234167101426,0.7055805700428996
0.0525,1.733688419767706,1.0,2779.4485608258537,0.44609382132139275,1.3033462237113715,0.9758342774444715,0.28586791363024366,0.7065722849491407
0.053,1.7326306092731685,1.0,2783.348014087481,0.44920079489478837,1.3028333905223255,0.9761261963248745,0.28582348558947307,0.7075635764819921
0.0535,1.7315727987786307,1.0,2787.3132181337664,0.45229034052340283,1.302319990498045,0.9764106666246705,0.2857790575487025,0.7085542836264733
0.054,1.7305149882840931,1.0,2791.3422474746003,0.4553625479588832,1.301806042154658,0.976687942018422,0.28573462950793194,0.7095443651751938
0.0545,1.7294571777895555,1.0,2795.419339896247,0.45841753111818595,1.3012916882519099,0.9769582752299589,0.28569020146716134,0.710533541423195
0.055,1.7283993672950178,1.0,2799.540944643622,0.4614553835129938,1.300776961545442,0.9772218997114359,0.28564577342639075,0.7115217455468483
0.0555,1.7273415568004802,1.0,2803.7035011923294,0.4644761986549896,1.3002618947908968,0.977479039135343,0.28560134538562015,0.71250891114981
0.056,1.7262837463059424,1.0,2807.9034389901753,0.4674800700558562,1.2997465207439156,0.9777299078859572,0.28555691734484956,0.7134949722637671
0.0565,1.7252259358114048,1.0,2812.137177221904,0.4704670912272762,1.2992308721601404,0.977974711522206,0.285512489304079,0.7144798633491125
0.057,1.7241681253168673,1.0,2816.401124597724,0.4734373556809325,1.2987149817952133,0.9782136472138331,0.2854680612633084,0.715463519295553
0.0575,1.7231103148223295,1.0,2820.691679166324,0.47639095692850786,1.2981988824047759,0.9784469041526036,0.28542363322253783,0.7164458754226488
0.058,1.7220525043277919,1.0,2825.0052281508392,0.47932798848168506,1.2976826067444702,0.9786746639401728,0.28537920518176724,0.7174268674802842
0.0585,1.720994693833254,1.0,2829.3381478089455,0.48224854385214694,1.2971661875699383,0.978897100954113,0.28533477714099664,0.7184064316490697
0.059000000000000004,1.7199368833387165,1.0,2833.686803316936,0.48515271655157616,1.2966496576368216,0.9791143826934982,0.2852903491002261,0.7193845045406777
0.059500000000000004,1.718879072844179,1.0,2838.0475486770924,0.4880406000916556,1.2961330497007622,0.9793266701053371,0.2852459210594555,0.7203610231981057
0.06,1.7178212623496412,1.0,2842.42039651403,0.4909122714342264,1.295616363829021,0.9795341147845966,0.2852014930186849,0.7213359867235583
0.0605,1.7167634518551036,1.0,2846.8007859590366,0.49376783594564405,1.2950996407948525,0.9797368669722016,0.2851570649779144,0.7223093176108069
0.061,1.7157056413605658,1.0,2851.1847903785942,0.4966073945828518,1.2945829156056572,0.9799350705008715,0.2851126369371437,0.7232809497234384
0.0615,1.7146478308660282,1.0,2855.571448776559,0.4994310335357253,1.2940661968064968,0.980128861211699,0.2850682088963732,0.7242508670145493
0.062,1.7135900203714907,1.0,2859.959797201038,0.5022388389941405,1.2935494929424338,0.9803183698567886,0.2850237808556026,0.7252190535498724
0.0625,1.7125322098769529,1.0,2864.3488687472127,0.5050308971479729,1.2930328125585302,0.9805037223286205,0.284979352814832,0.7261854935077721
0.063,1.7114743993824153,1.0,2868.7376935608104,0.5078072941870985,1.292516164199848,0.9806850398774244,0.28493492477406146,0.7271501711792334
0.0635,1.7104165888878775,1.0,2873.125298843096,0.5105681163013928,1.2919995564114493,0.9808624393172684,0.28489049673329087,0.7281130709678472
0.064,1.70935877839334,1.0,2877.510708858115,0.5133134496807317,1.2914829977383961,0.9810360332215334,0.28484606869252027,0.72907417738979
0.0645,1.7083009678988024,1.0,2881.892944940956,0.516043380514991,1.2909664967257508,0.9812059301083909,0.2848016406517497,0.7300334750737999
0.065,1.7072431574042646,1.0,2886.2710255079664,0.5187579949940463,1.2904500619185753,0.9813722346168654,0.2847572126109791,0.7309909487611473
0.0655,1.706185346909727,1.0,2890.643966068451,0.5214573793077735,1.289933701861932,0.981535047674025,0.28471278457020854,0.7319465833056007
0.066,1.7051275364151892,1.0,2895.010779237925,0.5241416196460483,1.2894174251008823,0.9816944666538059,0.28466835652943795,0.7329003636733902
0.0665,1.7040697259206516,1.0,2899.3704747532865,0.5268108021987464,1.2889012401804891,0.9818505855279474,0.28462392848866735,0.7338522749431611
0.067,1.7030119154261139,1.0,2903.722059489307,0.5294650131557436,1.2883851556458141,0.9820034950094856,0.28457950044789676,0.7348023023059298
0.0675,1.7019541049315763,1.0,2908.064537476839,0.5321043387069156,1.2878691800419193,0.982153282689216,0.28453507240712617,0.7357504310650289
0.068,1.7008962944370387,1.0,2912.3988067526825,0.5347288309362457,1.2873533052225565,0.9823000301719286,0.2844906443663556,0.7366966772247203
0.0685,1.699838483942501,1.0,2916.7231331111407,0.5373386080845848,1.2868375462117871,0.9824438216414926,0.28444621632558503,0.7376410142959211
0.069,1.6987806734479634,1.0,2921.036706669862,0.539933762818466,1.2863219098682406,0.9825847364204113,0.28440178828481444,0.7385834308973314
0.0695,1.6977228629534256,1.0,2925.33941354119,0.5425143730686851,1.2858063969202418,0.9827228499729806,0.2843573602440439,0.7395239269115728
0.07,1.696665052458888,1.0,2929.6311396941414,0.5450805167660384,1.2852910080961157,0.982858235267221,0.2843129322032733,0.7404625022305549
0.07050000000000001,1.6956072419643502,1.0,2933.9117709566385,0.5476322718413219,1.2847757441241878,0.9829909628745807,0.2842685041625027,0.7413991567554691
0.07100000000000001,1.6945494314698126,1.0,2938.181193017386,0.5501697162253317,1.284260605732783,0.9831211010650133,0.2842240761217321,0.7423338903967835
0.07150000000000001,1.693491620975275,1.0,2942.439291427859,0.5526929278488637,1.2837455936502262,0.9832487158976697,0.2841796480809615,0.743266703074237
0.07200000000000001,1.6924338104807373,1.0,2946.6859516044037,0.5552019846427141,1.2832307086048427,0.983373871307436,0.284135220040191,0.7441975947168327
