Time [s],Phi [rad],STIM [ ],Fsee [N],Gamma [ ],Lcerel [ ],q [ ],Lmtc [m],fisomrel [ ]
0.0,1.8,1.0,17.97682836702238,0.00010311885372081129,1.3793386629797184,0.005002782296367949,0.288653,0.5411421516860957
0.0005,1.79999375,1.0,18.317026262036993,0.005711749747320298,1.3792979156932992,0.013201052742641703,0.2886527375,0.5412407243326496
0.001,1.799975,1.0,21.727895293597633,0.011288920656079084,1.3789271310271562,0.03609546310015482,0.28865195,0.5421372110061491
0.0015,1.79994375,1.0,31.326862234863274,0.01683480804656919,1.3780243001711288,0.07126712225721178,0.2886506375,0.544316417347348
0.002,1.7999,1.0,54.13527119135042,0.02234958739358783,1.376332355515301,0.11550523142286875,0.2886488,0.5483863462764829
0.0025,1.79984375,1.0,98.04605358911907,0.0278334331883276,1.3738905978693705,0.16543088207803044,0.28864643749999996,0.5542277449773109
0.003,1.7997750000000001,1.0,162.16308856089563,0.03328651894524942,1.3711693264807814,0.21816328404314017,0.28864354999999997,0.5606930200248825
0.0035,1.79969375,1.0,239.04395833681193,0.03870901720236262,1.3685428831376838,0.2714907928331907,0.2886401375,0.5668882120171032
0.004,1.7996,1.0,322.9138799090978,0.04410109953180617,1.3661178070551752,0.3237657357240846,0.2886362,0.5725693601948647
0.0045000000000000005,1.7994937500000001,1.0,410.7659539607467,0.04946293654509362,1.363887677754028,0.3738412372685082,0.2886317375,0.5777607078404995
0.005,1.799375,1.0,500.9419911696957,0.054794697884712244,1.3618258869389364,0.4210021618781286,0.28862675,0.5825319755766966
0.0055,1.79924375,1.0,592.3320597455457,0.0600965522665045,1.3599087347036072,0.4648724013887072,0.2886212375,0.5869442049873996
0.006,1.7991000000000001,1.0,684.061023876703,0.06536866743480096,1.3581183844820914,0.5053220470846808,0.2886152,0.5910434397191867
0.006500000000000001,1.79894375,1.0,775.4148806154984,0.07061121019629941,1.356441086628179,0.5423878287249628,0.2886086375,0.5948652798575349
0.007,1.798775,1.0,865.8040093318541,0.07582434645418336,1.3548658819919268,0.5762117450326033,0.28860155,0.5984381562439155
0.0075,1.79859375,1.0,954.7395894346988,0.08100824116681751,1.3533837724375253,0.6069964288239325,0.2885939375,0.6017854253119368
0.008,1.7984,1.0,1041.8170414381632,0.08616305811696422,1.3519871791135891,0.6349741689974359,0.2885858,0.6049267402412568
0.0085,1.79819375,1.0,1126.7468871123374,0.09128896093247223,1.350668966756995,0.6603859858620034,0.2885771375,0.6078803436019817
0.009000000000000001,1.797975,1.0,1209.2758657032657,0.09638611148419558,1.3494232432976832,0.6834692451980795,0.28856795,0.6106613426126535
0.0095,1.79774375,1.0,1289.2175188167084,0.1014546708093081,1.3482445908764078,0.704449554628587,0.2885582375,0.6132834978486077
0.01,1.7975,1.0,1366.4533978650954,0.10649479939840231,1.347127856115266,0.7235365598968698,0.288548,0.6157597305765918
0.0105,1.79724375,1.0,1440.914191045967,0.1115066573851593,1.346068246375984,0.740922229935209,0.2885372375,0.6181019414867703
0.011,1.796975,1.0,1512.529336275229,0.11649040260909979,1.345061811067951,0.7567807678023215,0.28852595000000003,0.6203199825972756
0.0115,1.79669375,1.0,1581.2773483198712,0.12144619270732088,1.3441046713705243,0.771268786922027,0.2885141375,0.6224233901179321
0.012,1.7964,1.0,1647.1686914908873,0.12637418451833168,1.3431931551250063,0.7845264627764517,0.28850180000000003,0.6244211041943348
0.0125,1.79609375,1.0,1710.243750880347,0.13127453498295288,1.3423237485470314,0.7966788398637605,0.2884889375,0.6263215917752194
0.013000000000000001,1.7957750000000001,1.0,1770.5240314306668,0.13614739820512145,1.3414935879513246,0.8078374369252082,0.28847555,0.6281317901407237
0.0135,1.79544375,1.0,1828.058551669536,0.14099292808302313,1.3406998530396763,0.8181013789151357,0.2884616375,0.6298584506975222
0.014,1.7951000000000001,1.0,1882.9160861718906,0.1458112779260142,1.3399398184165852,0.8275587589460452,0.2884472,0.6315080352515916
0.0145,1.79474375,1.0,1935.1782156240106,0.15060260129878472,1.339210894713786,0.8362878941984555,0.2884322375,0.6330866355467883
0.015,1.794375,1.0,1984.9149455967215,0.1553670497682133,1.338510855421824,0.8443585237469549,0.28841675,0.6345994922244421
0.0155,1.79399375,1.0,2032.1910988549282,0.1601047730625686,1.3378377268515005,0.8518327681839984,0.2884007375,0.6360512446294992
0.016,1.7936,1.0,2077.087610087625,0.16481592091011915,1.337189535313618,0.8587659464644766,0.2883842,0.6374464836574819
0.0165,1.7931937500000001,1.0,2119.69479805981,0.1695006425312896,1.3365643622646861,0.8652073984277261,0.2883671375,0.6387896366497613
0.017,1.792775,1.0,2160.1043929998514,0.1741590868384385,1.3359604099430398,0.8712012120979788,0.28834955,0.640084830838344
0.0175,1.7923437500000001,1.0,2198.4070675463972,0.17879140221209183,1.3353760091528155,0.8767868440523368,0.2883314375,0.6413358816477379
0.018000000000000002,1.7919,1.0,2234.6709170066215,0.18339773382258753,1.334809819803296,0.8819997134199723,0.2883128,0.6425458691431264
0.0185,1.79144375,1.0,2268.9723152954425,0.18797822684026355,1.3342605018037645,0.8868715853661178,0.2882936375,0.6437178473657383
0.019,1.790975,1.0,2301.3952260203637,0.19253302643545797,1.3337267150635042,0.891430994263918,0.28827395,0.644854845832024
0.0195,1.79049375,1.0,2332.0204262135694,0.19706227648698715,1.333207219080208,0.8957036374896088,0.2882537375,0.6459596592883746
0.02,1.79,1.0,2360.938735721876,0.20156612221664977,1.3327007346294906,0.89971266594506,0.288233,0.6470351440593026
0.0205,1.78949375,1.0,2388.2239604649612,0.20604470606490305,1.332206202632724,0.9034790260045179,0.2882117375,0.6480836700648775
0.021,1.788975,1.0,2413.9388868238175,0.21049816835556287,1.3317227153917859,0.9070216871654071,0.28818995000000003,0.6491072707050389
0.021500000000000002,1.78844375,1.0,2438.150229136143,0.21492664941244516,1.331249365208554,0.9103578264993238,0.2881676375,0.6501079657172514
0.022,1.7879,1.0,2460.928302945122,0.2193302895593658,1.3307852443849055,0.913503022730457,0.2881448,0.6510877617895993
0.0225,1.78734375,1.0,2482.3418214956596,0.22370922817265546,1.330329491879073,0.916471435823337,0.28812143749999997,0.6520485548307191
0.023,1.786775,1.0,2502.4587690951753,0.22806360457637231,1.3298812813198382,0.9192759545569911,0.28809755,0.6529921563609113
0.0235,1.78619375,1.0,2521.3498727228666,0.23239355851770097,1.3294397850710693,0.9219283220586896,0.28807313749999996,0.6539203699372693
0.024,1.7856,1.0,2539.0652439929536,0.23669922517434672,1.3290043921814902,0.9244392905716549,0.2880482,0.6548345342005362
0.0245,1.78499375,1.0,2555.65685145628,0.24098073972401501,1.3285744916998246,0.9268186844426574,0.2880227375,0.6557359802429908
0.025,1.784375,1.0,2571.1783655962886,0.2452382373444112,1.328149472674796,0.9290754929251602,0.28799675,0.6566260318343538
0.025500000000000002,1.78374375,1.0,2585.6850121004436,0.2494718532132407,1.3277287241551285,0.9312179525723875,0.2879702375,0.6575060056238893
0.026000000000000002,1.7831000000000001,1.0,2599.226475221784,0.25368172081062534,1.3273117000023877,0.9332536302963292,0.2879432,0.658377076025341
0.0265,1.78244375,1.0,2611.8549486194515,0.2578679749071793,1.3268978420875275,0.9351894764968892,0.2879156375,0.6592404363473149
0.027,1.781775,1.0,2623.6249465293977,0.26203075013668936,1.3264865811549822,0.937031882956249,0.28788755,0.6600972969570511
0.0275,1.7810937500000001,1.0,2634.5733743353944,0.2661701761623199,1.3260775203469968,0.9387867608271574,0.2878589375,0.6609485035853122
0.028,1.7804,1.0,2644.737917846681,0.27028638264723515,1.3256702628058163,0.9404595608833918,0.2878298,0.6617948977168064
0.0285,1.77969375,1.0,2654.15697601357,0.2743794992545993,1.325264411673686,0.9420553154155069,0.2878001375,0.6626373166408511
0.029,1.778975,1.0,2662.869597135372,0.2784496556475767,1.3248595700928507,0.9435786758088215,0.28776995,0.6634765934919905
0.029500000000000002,1.7782437500000001,1.0,2670.915418559786,0.2824969814893315,1.324455341205556,0.9450339462956204,0.2877392375,0.6643135572805685
0.03,1.7775,1.0,2678.327974097934,0.2865216037240779,1.324051389044189,0.9464251215020786,0.287708,0.6651489070743996
0.0305,1.77674375,1.0,2685.1477153465603,0.29052365300599087,1.3236473183232444,0.9477558994920006,0.2876762375,0.6659834609125399
0.031,1.775975,1.0,2691.4061157254782,0.29450325597222343,1.3232428198992097,0.9490297231875625,0.28764395,0.6668178551773186
0.0315,1.7751937500000001,1.0,2697.1292820558056,0.2984605367628962,1.32283763686078,0.9502497978883937,0.2876111375,0.667652615517051
0.032,1.7744,1.0,2702.343609928962,0.3023956195181297,1.3224315122966512,0.9514191052831673,0.2875778,0.6684882649173931
0.0325,1.77359375,1.0,2707.0757561827663,0.3063086283780446,1.322024189295519,0.9525404217878791,0.2875439375,0.6693253236880223
0.033,1.772775,1.0,2711.3526128403128,0.31019968748276133,1.321615410946079,0.9536163351691608,0.28750955,0.6701643094451046
0.0335,1.7719437500000002,1.0,2715.201282513123,0.3140689209724006,1.3212049203370264,0.9546492596313324,0.2874746375,0.6710057370895552
0.034,1.7711000000000001,1.0,2718.6402845705306,0.3179164447385431,1.3207925404383751,0.9556414562909287,0.2874392,0.6718499553542521
0.0345,1.7702437500000001,1.0,2721.7060629706275,0.3217423927057968,1.3203779323883502,0.9565950252978169,0.2874032375,0.67269764170461
0.035,1.7693750000000001,1.0,2724.4173443159793,0.32554688438946056,1.3199609200379685,0.9575119451282527,0.28736675,0.6735491379096197
0.035500000000000004,1.76849375,1.0,2726.7910450210256,0.3293300375739362,1.3195413447098523,0.9583940694839098,0.2873297375,0.6744047481537607
0.036000000000000004,1.7676,1.0,2728.8441772968763,0.3330919700436254,1.319119047726624,0.9592431352719563,0.2872922,0.675264774802464
0.0365,1.76669375,1.0,2730.593838587345,0.33683279958293,1.3186938704109052,0.960060771290989,0.2872541375,0.6761295183753735
0.037,1.765775,1.0,2732.057201562511,0.34055264397625185,1.3182656540853184,0.9608485061769879,0.28721555,0.6769992775179989
0.0375,1.76484375,1.0,2733.2515046710446,0.3442516210079927,1.3178342400724858,0.9616077756798734,0.2871764375,0.6778743489717648
0.038,1.7639,1.0,2734.1940432505207,0.34792984846255437,1.3173994696950293,0.9623399293338472,0.28713679999999997,0.6787550275424559
0.0385,1.76294375,1.0,2734.9021611961725,0.35158744412433857,1.316961184275571,0.9630462365781238,0.28709663750000003,0.6796416060670519
0.039,1.761975,1.0,2735.4068050006854,0.35522451869539295,1.3165191019979885,0.963727879573444,0.28705595,0.680534623948938
0.0395,1.7609969886358012,1.0,2735.862086120351,0.35884119196790953,1.3160732857556239,0.9643860052575391,0.28701487352270366,0.6814339222947823
0.04,1.7600184867408812,1.0,2736.6611867197744,0.3624375862542736,1.3156241271316202,0.9650217244783144,0.286973776443117,0.6823386810344478
0.0405,1.7590399848459612,1.0,2737.806092617267,0.3660138120355907,1.3151718309997826,0.9656360659869433,0.2869326793635304,0.6832484596436367
0.041,1.758061482951041,1.0,2739.274441007193,0.36956997979296635,1.3147166022339165,0.9662300006336946,0.28689158228394374,0.684162819765111
0.0415,1.757082981056121,1.0,2741.043904836049,0.3731062000075062,1.3142586457078276,0.9668044452348996,0.2868504852043571,0.6850813252483485
0.042,1.756104479161201,1.0,2743.0921799464527,0.37662258316031577,1.3137981662953209,0.9673602661435834,0.2868093881247704,0.6860035421865247
0.0425,1.755125977266281,1.0,2745.3969731517805,0.3801192397325006,1.3133353688702019,0.9678982825492426,0.2867682910451838,0.6869290389508117
0.043000000000000003,1.7541474753713608,1.0,2747.935991241611,0.38359628020516634,1.3128704583062758,0.968419269529855,0.28672719396559715,0.6878573862220057
0.043500000000000004,1.7531689734764409,1.0,2750.686930918207,0.3870538150594184,1.3124036394773486,0.9689239608770119,0.28668609688601054,0.6887881570194732
0.044,1.7521904715815209,1.0,2753.627469662586,0.3904919547763624,1.3119351172572251,0.969413051713131,0.2866449998064239,0.6897209267274274
0.0445,1.7512119696866009,1.0,2756.7352575323275,0.39391080983710397,1.311465096519711,0.9698872009179491,0.2866039027268372,0.6906552731185176
0.045,1.7502334677916809,1.0,2759.996472071423,0.39731048434261784,1.3109937047427174,0.9703470265310351,0.28656280564725056,0.6915909298801006
0.0455,1.7492549658967607,1.0,2763.39578037576,0.4006910888791297,1.310521082868211,0.9707931170448959,0.28652170856766396,0.6925276055304643
0.046,1.7482764640018407,1.0,2766.911920816385,0.40405273817036885,1.3100474251139929,0.9712260357811405,0.2864806114880773,0.6934649049112979
0.0465,1.7472979621069207,1.0,2770.5369687429775,0.40739553547135815,1.3095728049505304,0.9716463074632323,0.2864395144084907,0.694402673581189
0.047,1.7463194602120007,1.0,2774.262984674086,0.41071958403712044,1.3090972958482912,0.9720544309304038,0.28639841732890403,0.6953407579696237
0.0475,1.7453409583170805,1.0,2778.0820127897537,0.41402498712267866,1.3086209712777424,0.9724508806605778,0.28635732024931737,0.6962790053813231
0.048,1.7443624564221605,1.0,2781.9860795429513,0.4173118479830556,1.3081439047093515,0.9728361081899805,0.2863162231697307,0.6972172640002363
0.0485,1.7433839545272405,1.0,2785.9671923913265,0.4205802698732742,1.307666169613586,0.9732105434373479,0.2862751260901441,0.698155382893189
0.049,1.7424054526323205,1.0,2790.0173386480014,0.4238303560483573,1.3071878394609133,0.973574595939964,0.28623402901055744,0.6990932120131892
0.0495,1.7414269507374005,1.0,2794.128484452877,0.42706220976332776,1.306708987721801,0.9739286560081508,0.28619293193097084,0.7000306022023857
0.05,1.7404484488424803,1.0,2798.292573862722,0.4302759342732085,1.3062296878667161,0.974273095804288,0.2861518348513842,0.7009674051946864
0.0505,1.7394699469475603,1.0,2802.501528061775,0.43347163283302237,1.3057500133661264,0.9746082703519288,0.2861107377717975,0.7019034736180279
0.051000000000000004,1.7384914450526403,1.0,2806.750225574511,0.4366494030694553,1.305270010970861,0.9749345161078518,0.28606964069221086,0.7028387130161046
0.051500000000000004,1.7375129431577203,1.0,2811.0336122390045,0.4398093476271482,1.3047897266944082,0.9752521548523236,0.28602854361262425,0.7037730309360586
0.052000000000000005,1.7365344412628,1.0,2815.3438659795647,0.4429515742716381,1.30430923118811,0.975561496087186,0.2859874465330376,0.704706287671242
0.0525,1.73555593936788,1.0,2819.6783009046194,0.4460761795044915,1.303828548957029,0.9758628314801758,0.285946349453451,0.7056384337967675
0.053,1.7345774374729601,1.0,2824.034222948504,0.44918325982727486,1.3033477045062272,0.9761564399114562,0.2859052523738643,0.7065694201875086
0.0535,1.7335989355780401,1.0,2828.4089297769065,0.45227291174155465,1.3028667223407668,0.9764425881447771,0.28586415529427767,0.70749919801837
0.054,1.73262043368312,1.0,2832.799710705252,0.4553452317488972,1.3023856269657106,0.9767215314578922,0.285823058214691,0.708427718764522
0.0545,1.7316419317882,1.0,2837.2038466306403,0.45840031635086903,1.3019044428861202,0.9769935142350255,0.2857819611351044,0.7093549342015989
0.055,1.73066342989328,1.0,2841.618609976791,0.4614382620490366,1.3014231946070578,0.9772587705239759,0.28574086405551774,0.710280796405854
0.0555,1.72968492799836,1.0,2846.0412646527416,0.46445916534496634,1.3009419066335863,0.9775175245602503,0.28569976697593114,0.7112052577542787
0.056,1.72870642610344,1.0,2850.4690660244914,0.46746312274022467,1.3004606034707673,0.9777699912604297,0.2856586698963445,0.7121282709246886
0.0565,1.7277279242085197,1.0,2854.8992609000547,0.47045023073637804,1.2999793096236631,0.9780163766868186,0.2856175728167578,0.7130497888957603
0.057,1.7267494223135997,1.0,2859.331131761927,0.47342057300336016,1.299498031442773,0.9782568763010923,0.28557647573717115,0.7139697996234173
0.0575,1.7257709204186797,1.0,2863.7630735920247,0.4763742451085589,1.2990167831345973,0.9784916791709843,0.28553537865758455,0.7148882761601951
0.058,1.7247924185237598,1.0,2868.1903122181134,0.479311363757941,1.298535606963035,0.9787209701719305,0.2854942815779979,0.7158051383138149
0.0585,1.7238139166288398,1.0,2872.6122420053534,0.48223201777249713,1.2980545081272419,0.9789449223479021,0.2854531844984113,0.7167203768655227
0.059000000000000004,1.7228354147339195,1.0,2877.0282555491863,0.48513629597321817,1.297573491826375,0.9791637019278631,0.2854120874188246,0.7176339826602625
0.059500000000000004,1.7218569128389996,1.0,2881.437743685588,0.4880242871810948,1.2970925632595909,0.9793774686479886,0.28537099033923796,0.7185459466066517
0.06,1.7208784109440796,1.0,2885.8400955001784,0.49089608021711784,1.296611727626046,0.9795863760562262,0.28532989325965136,0.7194562596769525
0.0605,1.7198999090491596,1.0,2890.2346983387692,0.49375176390227804,1.2961309901248967,0.9797905718002867,0.2852887961800647,0.7203649129070419
0.061,1.7189214071542394,1.0,2894.62093781844,0.4965914270575662,1.2956503559552999,0.9799901979000958,0.28524769910047804,0.7212718973963791
0.0615,1.7179429052593194,1.0,2898.9981978394253,0.4994151585039731,1.2951698303164119,0.9801853910056502,0.28520660202089143,0.7221772043079739
0.062,1.7169644033643994,1.0,2903.3658605966134,0.5022230470624894,1.2946894184073892,0.9803762826411722,0.28516550494130477,0.7230808248683506
0.0625,1.7159859014694794,1.0,2907.7233065931673,0.5050151815541061,1.2942091254273882,0.9805629994363831,0.2851244078617181,0.7239827503675107
0.063,1.7150073995745592,1.0,2912.0699146533607,0.5077916507998137,1.293728956575566,0.9807456633456711,0.28508331078213145,0.7248829721588942
0.0635,1.7140288976796392,1.0,2916.4050619369586,0.5105525436206032,1.2932489170510788,0.9809243918558688,0.28504221370254484,0.7257814816593415
0.064,1.7130503957847192,1.0,2920.728123953421,0.5132979488374653,1.292769012053083,0.9810992981833168,0.2850011166229582,0.7266782703490489
0.0645,1.7120718938897992,1.0,2925.0384745776496,0.5160279552713906,1.2922892467807352,0.9812704914608358,0.2849600195433716,0.7275733297715258
0.065,1.7110933919948792,1.0,2929.335486065084,0.5187426517433701,1.2918096264331924,0.9814380769152,0.2849189224637849,0.7284666515335481
0.0655,1.710114890099959,1.0,2933.6199653379263,0.5214420857658937,1.2913301436168396,0.9816021525726023,0.28487782538419826,0.7293582507021417
0.066,1.709136388205039,1.0,2937.8908043130436,0.5241263868800876,1.2908508077387657,0.9817628194507788,0.28483672830461165,0.7302481110896286
0.0665,1.708157886310119,1.0,2942.147615421647,0.5267956494646495,1.2903716218718335,0.9819201723157192,0.284795631225025,0.7311362283530642
0.067,1.707179384415199,1.0,2946.3904173276646,0.5294499534907557,1.2898925855273131,0.982074301512226,0.2847545341454384,0.7320226047713312
0.0675,1.7062008825202788,1.0,2950.6192290048607,0.5320893789295821,1.2894136982164741,0.9822252942817171,0.2847134370658517,0.7329072426169122
0.068,1.7052223806253588,1.0,2954.834069735563,0.5347140057523048,1.2889349594505863,0.9823732348907187,0.28467233998626507,0.7337901441558929
0.0685,1.7042438787304388,1.0,2959.034959108571,0.5373239139300997,1.28845636874092,0.9825182047531785,0.2846312429066784,0.7346713116479667
0.069,1.7032653768355188,1.0,2963.2219170181306,0.5399191834341431,1.287977925598745,0.9826602825469348,0.2845901458270918,0.7355507473464404
0.0695,1.7022868749405986,1.0,2967.3949636617504,0.5424998942356112,1.287499629535331,0.9827995443246617,0.28454904874750514,0.7364284534982382
0.07,1.7013083730456786,1.0,2971.5541195390165,0.5450661263056796,1.2870214800619477,0.9829360636195835,0.2845079516679185,0.7373044323439061
0.07050000000000001,1.7003298711507586,1.0,2975.699405449932,0.5476179596155247,1.2865434766898654,0.9830699115462453,0.2844668545883319,0.7381786861176167
0.07100000000000001,1.6993513692558386,1.0,2979.8308424929896,0.5501554741363226,1.2860656189303539,0.9832011568965957,0.2844257575087452,0.7390512170471735
0.07150000000000001,1.6983728673609186,1.0,2983.9484520641395,0.5526787498392491,1.285587906294683,0.983329866231636,0.28438466042915855,0.7399220273540161
