Time [s],Phi [rad],STIM [ ],Fsee [N],Gamma [ ],Lcerel [ ],q [ ],Lmtc [m],fisomrel [ ]
0.0,1.8,1.0,19.360160489630488,0.0012056633970633892,1.3791865964096386,0.005372754588061372,0.288653,0.5415099652527866
0.0005,1.79999375,1.0,20.013127572795835,0.006808109887655123,1.379113885001526,0.01659004919008192,0.2886527375,0.5416857850735002
0.001,1.799975,1.0,24.247878850818456,0.012379131083192727,1.378677442358747,0.04210764548983153,0.28865195,0.542740416609177
0.0015,1.79994375,1.0,35.75828741324913,0.017918903255551007,1.3776607453829064,0.07932016204373682,0.2886506375,0.5451924789439655
0.002,1.7999,1.0,62.26528094117241,0.02342760168482822,1.3758259700433129,0.12492933101580043,0.2886488,0.5496008936256471
0.0025,1.79984375,1.0,110.52879423533075,0.028905400672645066,1.3733098654659237,0.17561160695363537,0.28864643749999996,0.5556114296741517
0.003,1.7997750000000001,1.0,177.6757810948921,0.034352473539153765,1.3706040430713784,0.22861896254170175,0.28864354999999997,0.5620301124335074
0.0035,1.79969375,1.0,256.1830102550585,0.039768992633306015,1.3680255717034466,0.28185665285947825,0.2886401375,0.568103247998569
0.004,1.7996,1.0,340.9225426366416,0.045155129338673536,1.3656483528165158,0.33377892744391907,0.2886362,0.5736648025592118
0.0045000000000000005,1.7994937500000001,1.0,429.2647260591086,0.05051105407922842,1.3634590068221641,0.38332986061445196,0.2886317375,0.5787549437495091
0.005,1.799375,1.0,519.6814919884582,0.055836936218626225,1.3614319325718731,0.42986866089638887,0.28862675,0.5834405552211765
0.0055,1.79924375,1.0,611.175966034449,0.061132944581291995,1.3595439285744786,0.47307383121578095,0.2886212375,0.5877811333712699
0.006,1.7991000000000001,1.0,702.8546912769677,0.06639924643240223,1.3577794631951001,0.5128545565315404,0.2886152,0.5918171419509758
0.006500000000000001,1.79894375,1.0,794.0271182151782,0.07163600840994298,1.356125560038108,0.5492725009201701,0.2886086375,0.595582224131199
0.007,1.798775,1.0,884.1456611238739,0.07684339637177978,1.3545714167729654,0.5824843732914816,0.28860155,0.5991043061467222
0.0075,1.79859375,1.0,972.7281974244275,0.08202157492450156,1.353108596092537,0.6127008288125462,0.2885939375,0.6024053551197626
0.008,1.7984,1.0,1059.4089684265628,0.08717070814238337,1.3517294382905172,0.6401570952428326,0.2885858,0.6055051091831546
0.0085,1.79819375,1.0,1143.8777392929817,0.09229095867371219,1.350427525345291,0.665094583257921,0.2885771375,0.6084201195165031
0.009000000000000001,1.797975,1.0,1225.9094564990849,0.09738248855983996,1.3491968701481702,0.6877487146518282,0.28856795,0.6111656437459245
0.0095,1.79774375,1.0,1305.3476374921038,0.10244545929443334,1.3480319191551509,0.7083421125721231,0.2885582375,0.6137556863813219
0.01,1.7975,1.0,1382.0555048380427,0.10748003055843265,1.346927990169752,0.7270812659026062,0.288548,0.6162020715458434
0.0105,1.79724375,1.0,1455.9539195938053,0.11248636154232984,1.3458805830213578,0.744154711554343,0.2885372375,0.6185160149515485
0.011,1.796975,1.0,1527.0209133255892,0.11746461146274005,1.3448852826632798,0.7597329067655353,0.28852595000000003,0.6207083603388699
0.0115,1.79669375,1.0,1595.2337696802701,0.122414937515794,1.3439383675192274,0.7739692182170235,0.2885141375,0.622788263227707
0.012,1.7964,1.0,1660.5860744646484,0.12733749576111164,1.3430364784186521,0.7870008788553099,0.28850180000000003,0.6247639492159744
0.0125,1.79609375,1.0,1723.109597537668,0.13223244207356422,1.3421762858209523,0.7989501897679911,0.2884889375,0.6266434611663838
0.013000000000000001,1.7957750000000001,1.0,1782.8593530371547,0.13709993176677146,1.3413546142983157,0.8099259991176817,0.28847555,0.6284343982692862
0.0135,1.79544375,1.0,1839.892521111919,0.1419401193471867,1.3405686265179826,0.8200251642433031,0.2884616375,0.63014352879992
0.014,1.7951000000000001,1.0,1894.25617192863,0.14675315699498795,1.3398159000134207,0.8293338778357655,0.2884472,0.631776639343332
0.0145,1.79474375,1.0,1946.020711267486,0.15153919689035308,1.3390940123180974,0.8379287206086027,0.2884322375,0.633339447736014
0.015,1.794375,1.0,1995.2648683822172,0.15629839028049278,1.3384006790399303,0.8458778197623833,0.28841675,0.6348373100297005
0.0155,1.79399375,1.0,2042.085212264173,0.16103088938616347,1.337733625985901,0.8532417990137532,0.2884007375,0.6362755034388252
0.016,1.7936,1.0,2086.556356768659,0.1657368435607484,1.337090984920357,0.8600747842684277,0.2883842,0.6376583797366827
0.0165,1.7931937500000001,1.0,2128.7479260509194,0.17041640062430358,1.3364710827239936,0.8664251038528098,0.2883671375,0.6389898293703554
0.017,1.792775,1.0,2168.7415957365824,0.17506970839688524,1.3358722462775068,0.8723359169902835,0.28834955,0.6402737059327227
0.0175,1.7923437500000001,1.0,2206.630071032471,0.17969691469854943,1.3352928024615922,0.8778458242791813,0.2883314375,0.6415138284995272
0.018000000000000002,1.7919,1.0,2242.4946260448255,0.1842981653234252,1.3347312937706766,0.8829894591512386,0.2883128,0.6427135235032175
0.0185,1.79144375,1.0,2276.438078042525,0.18887360836019707,1.3341861331094849,0.8877978616620641,0.2882936375,0.6438763661904645
0.019,1.790975,1.0,2308.5254464503973,0.19342338696480893,1.3336561875235011,0.8922990353292697,0.28827395,0.6450049379058745
0.0195,1.79049375,1.0,2338.827643965633,0.19794764426001776,1.3331403270674602,0.8965181838402998,0.2882537375,0.6461017936268675
0.02,1.79,1.0,2367.4212657792714,0.20244652336858046,1.3326374217960961,0.9004780275564422,0.288233,0.6471694694542285
0.0205,1.78949375,1.0,2394.385975625564,0.20692016704806357,1.3321463624725116,0.9041990861213248,0.2882117375,0.6482104397202773
0.021,1.788975,1.0,2419.79485773606,0.21136871663708742,1.3316661488011188,0.9076999404770213,0.28818995000000003,0.6492269315670731
0.021500000000000002,1.78844375,1.0,2443.7320075019466,0.2157923154795915,1.3311957137682333,0.9109974089994077,0.2881676375,0.6502212984105564
0.022,1.7879,1.0,2466.254803122189,0.22019110175469483,1.3307342825526363,0.9141068072430039,0.2881448,0.6511952625777837
0.0225,1.78734375,1.0,2487.423585155529,0.2245652136415167,1.3302810803331098,0.9170420508912506,0.28812143749999997,0.6521505356313582
0.023,1.786775,1.0,2507.301411522022,0.22891478931917617,1.329835332288435,0.9198158030814468,0.28809755,0.6530888187952093
0.0235,1.78619375,1.0,2525.953825814497,0.23323996696679242,1.329396263597394,0.9224396044816143,0.28807313749999996,0.6540118033420796
0.024,1.7856,1.0,2543.4383487980604,0.23754088232819873,1.3289631963327726,0.9249240045790932,0.2880482,0.6549209676611152
0.0245,1.78499375,1.0,2559.82123883919,0.2418176749041381,1.3285353886690794,0.9272786362255596,0.2880227375,0.6558179157909979
0.025,1.784375,1.0,2575.1545319602747,0.24607047986947858,1.3281122491052333,0.9295123399033438,0.28799675,0.6567039285303105
0.025500000000000002,1.78374375,1.0,2589.4832376731833,0.25029943004316396,1.3276932656092388,0.9316332300572463,0.2879702375,0.6575801137575028
0.026000000000000002,1.7831000000000001,1.0,2602.853635344616,0.25450465824413804,1.3272779261491006,0.9336487533844953,0.2879432,0.6584475735189537
0.0265,1.78244375,1.0,2615.313165833798,0.2586862972913446,1.3268657186928232,0.9355657527886536,0.2879156375,0.659307404156327
0.027,1.781775,1.0,2626.9103289431278,0.2628444800037276,1.3264561312084115,0.9373905244285885,0.28788755,0.6601606964172079
0.0275,1.7810937500000001,1.0,2637.6900259358054,0.26697933777528443,1.3260486938346063,0.93912887442768,0.2878589375,0.6610084478595253
0.028,1.7804,1.0,2647.6926672705317,0.2710910014054777,1.325642985877388,0.9407861651551631,0.2878298,0.6618515489440667
0.0285,1.77969375,1.0,2656.97203572816,0.2751796056600861,1.325238470084503,0.9423673333393107,0.2878001375,0.6626911274779714
0.029,1.778975,1.0,2665.5592884328285,0.2792452775007446,1.3248348240796333,0.9438769704241516,0.28776995,0.6635278605393933
0.029500000000000002,1.7782437500000001,1.0,2673.4861003741016,0.28328814388908846,1.3244317254864602,0.9453193259664221,0.2877392375,0.664362421868234
0.03,1.7775,1.0,2680.7846189931147,0.2873083317867525,1.3240288519286654,0.9466983374617812,0.287708,0.6651954818807113
0.0305,1.77674375,1.0,2687.4874210729286,0.29130596815537196,1.323625881029931,0.9480176572151627,0.2876762375,0.6660277076772989
0.031,1.775975,1.0,2693.6274719330663,0.2952811799565818,1.3232224904139385,0.9492806765802968,0.28764395,0.6668597630440416
0.0315,1.7751937500000001,1.0,2699.238086928049,0.2992340941520172,1.3228183577043695,0.9504905478544926,0.2876111375,0.6676923084472377
0.032,1.7744,1.0,2704.3462518298643,0.30316483338046735,1.3224132211912318,0.951650210148769,0.2875778,0.6685258762789982
0.0325,1.77359375,1.0,2708.986409771913,0.30707352747412386,1.3220067534699005,0.9527623950808984,0.2875439375,0.6693611311217307
0.033,1.772775,1.0,2713.182099771703,0.31096029915498324,1.3215987288565638,0.9538296590018616,0.28750955,0.6701985255033238
0.0335,1.7719437500000002,1.0,2716.954713247973,0.31482526949892137,1.3211889429822141,0.954854389185314,0.2874746375,0.6710384658991326
0.034,1.7711000000000001,1.0,2720.325807884168,0.31866855958181406,1.3207771914778432,0.9558388151864488,0.2874392,0.6718813565930711
0.0345,1.7702437500000001,1.0,2723.317090493017,0.32249029047953703,1.3203632699744432,0.9567850211196064,0.2874032375,0.6727275996533228
0.035,1.7693750000000001,1.0,2725.950400806766,0.3262905832679662,1.3199469741030063,0.9576949568431493,0.28736675,0.6735775949053897
0.035500000000000004,1.76849375,1.0,2728.2476961940088,0.33006955902297735,1.3195280994945244,0.9585704481602744,0.2873297375,0.6744317399024786
0.036000000000000004,1.7676,1.0,2730.225576311677,0.3338273333261498,1.3191064914117039,0.9594132099733735,0.2872922,0.6752903288868373
0.0365,1.76669375,1.0,2731.9044982058285,0.33756402699056826,1.3186819608256097,0.9602248484325763,0.2872541375,0.6761537239934456
0.037,1.765775,1.0,2733.3115041069577,0.34127976884764627,1.3182542595938076,0.961006867034163,0.28721555,0.6770224051351956
0.0375,1.76484375,1.0,2734.4591732623776,0.3449746730301659,1.3178232715687623,0.9617606878470211,0.2871764375,0.6778965817899514
0.038,1.7639,1.0,2735.3601338952412,0.3486488536709092,1.3173888806029395,0.9624876477354837,0.28713679999999997,0.6787764619566743
0.0385,1.76294375,1.0,2736.0270572815566,0.3523024249026584,1.3169509705488038,0.9631890043951183,0.28709663750000003,0.6796622521306482
0.039,1.761975,1.0,2736.4726521249927,0.35593550085819553,1.3165094252588208,0.9638659418978437,0.28705595,0.6805541572778411
0.0395,1.7609937500000001,1.0,2736.7096592320254,0.3595481956703028,1.3160641285854553,0.9645195757911276,0.2870147375,0.6814523808084081
0.04,1.76,1.0,2736.750846485205,0.36314062347176224,1.3156149643811725,0.9651509577915061,0.286973,0.6823571245493343
0.0405,1.7589937500000001,1.0,2736.6090041161056,0.36671289839535604,1.3151618164984378,0.9657610801086652,0.2869307375,0.6832685887162151
0.041,1.757975,1.0,2736.2969402771205,0.3702651345738663,1.3147045687897159,0.9663508794327518,0.28688795,0.6841869718841805
0.0415,1.75694375,1.0,2735.8274769123154,0.3737974461400751,1.3142431051074723,0.9669212406143817,0.2868446375,0.6851124709579531
0.042,1.7559,1.0,2735.209544122724,0.3773099404210967,1.3137773447330559,0.9674730018960175,0.28680079999999997,0.6860452102432175
0.0425,1.75484375,1.0,2734.453770807017,0.3808027325653927,1.3133071915982573,0.9680069561541642,0.2867564375,0.6869853434082045
0.043000000000000003,1.753775,1.0,2733.5723649430447,0.38427594010157007,1.3128325353390058,0.9685238529775673,0.28671155,0.6879330511268167
0.043500000000000004,1.75269375,1.0,2732.5720826418133,0.38772966977766316,1.3123533151317102,0.9690244044784916,0.28666613750000003,0.688888413667827
0.044,1.7516,1.0,2731.4596831880126,0.3911640283417064,1.311869470152779,0.9695092854257928,0.2866202,0.6898515101614312
0.0445,1.75049375,1.0,2730.2419276238725,0.39457912254173433,1.3113809395786216,0.9699791355684734,0.2865737375,0.6908224185814249
0.045,1.7493750000000001,1.0,2728.925577413572,0.3979750591257813,1.3108876625856463,0.9704345617926357,0.28652675,0.6918012157271471
0.0455,1.74824375,1.0,2727.517393190389,0.40135194484188175,1.3103895783502617,0.9708761401252869,0.2864792375,0.6927879772051874
0.046,1.7471,1.0,2726.0241335856845,0.40470988643807015,1.309886626048877,0.9713044175972516,0.2864312,0.6937827774108528
0.0465,1.7459437500000001,1.0,2724.452554140127,0.40804899066238093,1.309378744857901,0.9717199139763522,0.28638263750000004,0.6947856895094061
0.047,1.744775,1.0,2722.8094062963023,0.4113693642628485,1.3088658739537422,0.9721231233810482,0.28633355,0.6957967854170632
0.0475,1.74359375,1.0,2721.1014364744765,0.4146711139875072,1.3083479525128094,0.9725145157838339,0.28628393750000003,0.6968161357817545
0.048,1.7424,1.0,2719.326692505525,0.41795432862376364,1.30782499887268,0.9728945417247462,0.2862338,0.6978436545568705
0.0485,1.74119375,1.0,2717.4951513226274,0.42121912704506376,1.3072969227468032,0.9732636263672731,0.2861831375,0.6988794683365602
0.049,1.739975,1.0,2715.617589029426,0.424465625831247,1.3067636264628295,0.9736221738595803,0.28613195,0.6999237164520842
0.0495,1.73874375,1.0,2713.6968037013557,0.42769392351863633,1.3062250849542028,0.9739705720942079,0.2860802375,0.7009763945943601
0.05,1.7375,1.0,2711.7355906317516,0.43090411864355477,1.3056812731543672,0.9743091909165271,0.286028,0.7020374975852205
0.0505,1.73624375,1.0,2709.7367421164495,0.4340963097423254,1.3051321659967663,0.9746383831233103,0.2859752375,0.703107019369011
0.051000000000000004,1.734975,1.0,2707.703047252574,0.4372705953512712,1.3045777384148443,0.9749584853974482,0.28592195,0.7041849530041413
0.051500000000000004,1.73369375,1.0,2705.6372917509016,0.4404270740067152,1.3040179653420452,0.9752698191834287,0.2858681375,0.7052712906546015
0.052000000000000005,1.7324,1.0,2703.5422577624477,0.4435658442449804,1.3034528217118129,0.9755726915078139,0.2858138,0.7063660235814373
0.0525,1.73109375,1.0,2701.4207237189476,0.4466870046023898,1.3028822824575912,0.9758673957486274,0.28575893750000003,0.7074691421341835
0.053,1.729775,1.0,2699.275464187082,0.4497906536152665,1.3023063225128242,0.9761542123572406,0.28570355000000003,0.7085806357422587
0.0535,1.72844375,1.0,2697.109249736853,0.45287688981993346,1.3017249168109557,0.9764334095360796,0.2856476375,0.7097004929063198
0.054,1.7271,1.0,2694.9248468238,0.4559458117527137,1.3011380402854298,0.9767052438752064,0.2855912,0.7108287011895755
0.0545,1.7257437500000001,1.0,2692.7250176851076,0.45899751794993027,1.3005456678696905,0.9769699609505975,0.2855342375,0.7119652472090615
0.055,1.724375,1.0,2690.5125202495196,0.4620321069479062,1.2999477744971815,0.9772277958867286,0.28547675,0.713110116626875
0.0555,1.72299375,1.0,2688.290108061803,0.4650496772829644,1.299344335101347,0.9774789738858728,0.2854187375,0.7142632941413665
0.056,1.7216,1.0,2686.056508584939,0.46805030562267314,1.298735361465191,0.9777237108532739,0.2853602,0.7154246932725179
0.0565,1.72019375,1.0,2683.817429657879,0.47103410917489286,1.2981208014052794,0.9779622137818396,0.28530113749999997,0.7165943487547002
0.057,1.718775,1.0,2681.575396900412,0.4740011874219514,1.2975006318339666,0.9781946811770631,0.28524155,0.717772238706603
0.0575,1.71734375,1.0,2679.3312581419095,0.4769516305076196,1.2968748450177072,0.97842130348649,0.2851814375,0.7189583112108173
0.058,1.7159,1.0,2677.0858598063332,0.47988552857566796,1.2962434332229558,0.9786422634653944,0.2851208,0.7201525136233295
0.0585,1.71444375,1.0,2674.840046908048,0.4828029717698673,1.2956063887161666,0.9788577365466639,0.2850596375,0.7213547925707481
0.059000000000000004,1.7129750000000001,1.0,2672.594663048927,0.4857040502339882,1.2949637037637942,0.9790678911900682,0.28499795,0.7225650939475277
0.059500000000000004,1.71149375,1.0,2670.3505504170107,0.48858885411180136,1.2943153706322932,0.9792728892122097,0.2849357375,0.7237833629131885
0.06,1.71,1.0,2668.1085497861627,0.4914574735470775,1.2936613815881177,0.9794728860983644,0.284873,0.7250095438895342
0.0605,1.7084937500000001,1.0,2665.8695005175805,0.4943099986835872,1.2930017288977227,0.9796680312973459,0.2848097375,0.7262435805578618
0.061,1.7069750000000001,1.0,2663.6342405620035,0.49714651966510126,1.292336404827562,0.9798584685004335,0.28474595,0.7274854158561728
0.0615,1.7054437500000001,1.0,2661.40360646352,0.4999671266353902,1.2916654016440905,0.9800443359053423,0.2846816375,0.7287349919763756
0.062,1.7039,1.0,2659.178433365142,0.5027719097382248,1.2909887116137626,0.9802257664661473,0.2846168,0.7299922503614875
0.0625,1.70234375,1.0,2656.9595550147087,0.5055609591173759,1.2903063270030328,0.9804028881300041,0.2845514375,0.7312571317028322
0.063,1.7007750000000001,1.0,2654.7478037731494,0.5083343649166139,1.2896182400783553,0.9805758240614613,0.28448555,0.7325295759372326
0.0635,1.69919375,1.0,2652.5440106234596,0.5110922172797094,1.288924443106185,0.9807446928550989,0.28441913750000003,0.7338095222441992
0.064,1.6976,1.0,2650.346190709654,0.5138345624795252,1.2882249543146562,0.980909606866179,0.2843522,0.7350968613211555
0.0645,1.69599375,1.0,2648.159367324393,0.5165615412771082,1.2875197272899286,0.9810706779250467,0.2842847375,0.736391602101802
0.065,1.694375,1.0,2645.983985967905,0.5192732405419467,1.2868087578038523,0.9812280120215618,0.28421675,0.7376936748948062
0.0655,1.69274375,1.0,2643.820091645831,0.5219697417432057,1.2860920453207505,0.9813817111359047,0.2841482375,0.7390030025643802
0.066,1.6911,1.0,2641.667729332386,0.52465112635005,1.2853695893049457,0.98153187360991,0.2840792,0.7403195073339497
0.0665,1.6894437500000001,1.0,2639.5269439715908,0.5273174758316443,1.2846413892207609,0.9816785943012357,0.2840096375,0.7416431107859545
0.067,1.687775,1.0,2637.397780477958,0.5299688716571539,1.2839074445325187,0.9818219647299308,0.28393955,0.7429737338616544
0.0675,1.68609375,1.0,2635.2802837384443,0.5326053952957432,1.283167754704542,0.9819620732178331,0.2838689375,0.7443112968609323
0.068,1.6844000000000001,1.0,2633.174498612959,0.5352271282165774,1.2824223192011535,0.9820990050211971,0.2837978,0.7456557194420976
0.0685,1.68269375,1.0,2631.0804699358423,0.5378341518888212,1.2816711374866758,0.982232842456917,0.2837261375,0.7470069206216906
0.069,1.680975,1.0,2628.998242517161,0.5404265477816395,1.280914209025432,0.9823636650227059,0.28365395,0.7483648187742855
0.0695,1.67924375,1.0,2626.9278611435243,0.5430043973641971,1.2801515332817446,0.9824915495115504,0.28358123749999997,0.7497293316322946
0.07,1.6775,1.0,2624.8693705798737,0.545567782105659,1.2793831097199364,0.98261657012076,0.283508,0.7511003762857716
0.07050000000000001,1.67574375,1.0,2622.822815570183,0.54811678347519,1.2786089378043302,0.982738798555889,0.2834342375,0.7524778691822158
0.07100000000000001,1.673975,1.0,2620.78824083881,0.5506514829419549,1.2778290169992488,0.9828583041298177,0.28335995,0.7538617261263748
0.07150000000000001,1.67219375,1.0,2618.7656910918877,0.5531719619751186,1.2770433467690152,0.9829751538572379,0.2832851375,0.7552518622800485
0.07200000000000001,1.6704,1.0,2616.7552110185875,0.555678302043846,1.2762519265779517,0.9830894125447931,0.2832098,0.756648192161894
0.0725,1.66859375,1.0,2614.7568452919795,0.558170584617302,1.2754547558903815,0.9832011428770936,0.2831339375,0.7580506296472269
0.073,1.6667750000000001,1.0,2612.7706385707925,0.5606488911646514,1.274651834170627,0.9833104054988263,0.28305755,0.7594590879678266
0.0735,1.66494375,1.0,2610.793088207445,0.5631132734245087,1.2738431938514236,0.983417258844473,0.2829806375,0.7608734221340931
0.074,1.6631,1.0,2608.8240336290446,0.5655638162800192,1.273028836342239,0.9835217600205275,0.2829032,0.7622935412168458
0.0745,1.6612437500000001,1.0,2606.8679827002143,0.5680006355580729,1.272208719634016,0.9836239641455031,0.2828252375,0.7637194290663575
0.075,1.659375,1.0,2604.924638800971,0.5704238036830503,1.2713828463582595,0.9837239240766115,0.28274675,0.765150990760489
