Time [s],Phi [rad],STIM [ ],Fsee [N],Gamma [ ],Lcerel [ ],q [ ],Lmtc [m],fisomrel [ ]
0.0,1.8,1.0,17.967351071639992,1.00010480901253e-05,1.379339724608073,0.005000026657336102,0.288653,0.5411395833363245
0.0005,1.79999375,1.0,18.27666550541459,0.005619154258913877,1.3793023965249593,0.012940517035688812,0.2886527375,0.5412298851735413
0.001,1.799975,1.0,21.618274951613518,0.011196844555147321,1.3789383130019646,0.03560858250935231,0.28865195,0.5421101879439577
0.0015,1.79994375,1.0,31.0690382501162,0.016743248419725177,1.378046220576977,0.07060171337978374,0.2886506375,0.5442635685824735
0.002,1.7999,1.0,53.58192807735738,0.022258541343932077,1.3763681615140224,0.11471784640625741,0.2886488,0.5483004049698812
0.0025,1.79984375,1.0,97.11810708725525,0.027742897834963916,1.3739352072823137,0.16457468457819818,0.28864643749999996,0.5541213672025929
0.003,1.7997750000000001,1.0,160.95719863695405,0.03319649142364728,1.3712143799963714,0.21728023835889998,0.28864354999999997,0.5605863650634872
0.0035,1.79969375,1.0,237.6822966641317,0.03861949466402916,1.3685847661101949,0.2706126732712514,0.2886401375,0.5667897646412403
0.004,1.7996,1.0,321.46572677861866,0.04401207914415968,1.3661561200626005,0.3229155928031512,0.2886362,0.5724798971323423
0.0045000000000000005,1.7994937500000001,1.0,409.2667305861401,0.04937441549127637,1.3639228381146493,0.37303430924930764,0.2886317375,0.5776791068194476
0.005,1.799375,1.0,499.412502550524,0.05470667336289362,1.361858363631107,0.42024727554003954,0.28862675,0.5824570301983978
0.0055,1.79924375,1.0,590.7894439069522,0.060009021494276595,1.3599388540525772,0.46417352732027856,0.2886212375,0.5868750680590482
0.006,1.7991000000000001,1.0,682.5171625086323,0.06528162764157677,1.3581464319398835,0.5046798057745638,0.2886152,0.590979379109472
0.006500000000000001,1.79894375,1.0,773.8804241252716,0.07052465863745215,1.3564672678496965,0.5418006174748424,0.2886086375,0.5948057619635609
0.007,1.798775,1.0,864.2849457223585,0.07573828037466486,1.3548904089766687,0.5756766526090574,0.28860155,0.5983826454603727
0.0075,1.79859375,1.0,953.2424591879852,0.08092265781581343,1.353406790822633,0.6065097996382591,0.2885939375,0.6017335465575501
0.008,1.7984,1.0,1040.3442893079105,0.0860779546051701,1.35200885490057,0.6345320709111055,0.2885858,0.6048780805854257
0.0085,1.79819375,1.0,1125.3144813634292,0.09120433482644749,1.3506892379049187,0.6599843350820802,0.2885771375,0.6078350077093985
0.009000000000000001,1.797975,1.0,1207.899634825562,0.09630196040091375,1.349442042507682,0.6831041105949983,0.28856795,0.6106194481124341
0.0095,1.79774375,1.0,1287.8910182657278,0.10137099187928686,1.3482621395166263,0.7041174083724818,0.2885582375,0.613244522255427
0.01,1.7975,1.0,1365.1659241905054,0.1064115898122848,1.3471443997395174,0.7232341645032457,0.288548,0.6157231050047518
0.0105,1.79724375,1.0,1439.659358884095,0.1114239141227969,1.346083948143515,0.7406465969633313,0.2885372375,0.6180672858335359
0.011,1.796975,1.0,1511.3222794332457,0.11640812356282647,1.3450765528460156,0.7565290697563405,0.28852595000000003,0.6202875404206347
0.0115,1.79669375,1.0,1580.1204403378185,0.12136437531259207,1.3441184898935987,0.7710385600623307,0.2885141375,0.6223930641369554
0.012,1.7964,1.0,1646.0554020624559,0.1262928259704645,1.3432061837872387,0.7843155495674595,0.28850180000000003,0.624392587404975
0.0125,1.79609375,1.0,1709.1728090794975,0.13119363253700272,1.342336048182668,0.7964852881730603,0.2884889375,0.6262947388860778
0.013000000000000001,1.7957750000000001,1.0,1769.5062469348568,0.13606694981049106,1.3415050762236795,0.8076594546691735,0.28847555,0.6281067694944478
0.0135,1.79544375,1.0,1827.0917020176882,0.1409129311948921,1.3407105931491388,0.8179374297440585,0.2884616375,0.6298351138901851
0.014,1.7951000000000001,1.0,1881.9927820985502,0.1457317300941686,1.3399499241979114,0.827407497129168,0.2884472,0.6314861257584004
0.0145,1.79474375,1.0,1934.280095615518,0.15052349899735518,1.3392205911392765,0.8361481614747399,0.2884322375,0.6330656586323974
0.015,1.794375,1.0,1984.051000569047,0.15528839087923318,1.3385200652133928,0.8442291883615709,0.28841675,0.6345796092089294
0.0155,1.79399375,1.0,2031.3720061737604,0.16002655565105425,1.3378463562777063,0.851712817743468,0.2884007375,0.6360326516258837
0.016,1.7936,1.0,2076.313613629305,0.16473814254668054,1.3371976009642792,0.8586545132823918,0.2883842,0.6374291387242818
0.0165,1.7931937500000001,1.0,2118.9605947077525,0.1694233007999741,1.336571935905174,0.8651037252472943,0.2883671375,0.6387733799778172
0.017,1.792775,1.0,2159.397058481277,0.17408217859206654,1.3359676378144547,0.8711046432243976,0.28834955,0.6400693442008144
0.0175,1.7923437500000001,1.0,2197.724104644718,0.17871492490360097,1.3353829268917694,0.8766967620783008,0.2883314375,0.6413210852981825
0.018000000000000002,1.7919,1.0,2234.0165354297583,0.18332168547701413,1.334816394011451,0.881915546816469,0.2883128,0.6425318313175026
0.0185,1.79144375,1.0,2268.348122054901,0.18790260525058625,1.3342667251177434,0.886792827711992,0.2882936375,0.6437045806092443
0.019,1.790975,1.0,2300.8001452609246,0.19245782916259763,1.333732606154889,0.8913571966281445,0.28827395,0.6448423073630921
0.0195,1.79049375,1.0,2331.454248774909,0.19698750128297016,1.3332127870917228,0.8956343934502372,0.2882537375,0.6459478269086933
0.02,1.79,1.0,2360.3971840182458,0.20149176623665102,1.332706027726485,0.8996476176134706,0.288233,0.647023912992549
0.0205,1.78949375,1.0,2387.706376920904,0.20597076701878486,1.3322112324689543,0.9034178421774433,0.2882117375,0.6480730134612831
0.021,1.788975,1.0,2413.4447499155326,0.21042464396873245,1.3317274917156074,0.9069640677431875,0.28818995000000003,0.6490971659441058
0.021500000000000002,1.78844375,1.0,2437.6791620006165,0.21485353742585442,1.3312538958629219,0.9103034991056481,0.2881676375,0.650098394373841
0.022,1.7879,1.0,2460.480081126332,0.21925758772951146,1.3307895353073744,0.913451739738232,0.2881448,0.6510787096018218
0.0225,1.78734375,1.0,2481.9151728419606,0.2236369339462889,1.3303335586117713,0.9164229738333791,0.28812143749999997,0.6520399874199091
0.023,1.786775,1.0,2502.0550305330707,0.22799171614943678,1.3298851141684205,0.9192301057394998,0.28809755,0.6529840926342099
0.0235,1.78619375,1.0,2520.9658984135117,0.23232207343855324,1.329443416600134,0.9218849044932408,0.28807313749999996,0.6539127399835156
0.024,1.7856,1.0,2538.6986651467814,0.23662814106225907,1.3290078470659168,0.9243981367467394,0.2880482,0.6548272849778389
0.0245,1.78499375,1.0,2555.3060933657507,0.24091005426917506,1.3285777867247728,0.926779639818282,0.2880227375,0.6557290754816637
0.025,1.784375,1.0,2570.842662382346,0.245167948307922,1.3281526167357063,0.9290384146582441,0.28799675,0.6566194519435863
0.025500000000000002,1.78374375,1.0,2585.364419388008,0.2494019584271207,1.3277317182577217,0.9311827083846184,0.2879702375,0.6574997476015347
0.026000000000000002,1.7831000000000001,1.0,2598.920463165368,0.2536122177699806,1.3273145504734574,0.933220099439417,0.2879432,0.6583711257919596
0.0265,1.78244375,1.0,2611.5644764946014,0.25779886180943923,1.3269005412522419,0.9351575460569723,0.2879156375,0.6592348090847937
0.027,1.781775,1.0,2623.3488769285595,0.2619620248428856,1.3264891407220545,0.9370014518419081,0.28788755,0.6600919674444341
0.0275,1.7810937500000001,1.0,2634.310663112349,0.2661018365124825,1.326079950992826,0.9387577357066744,0.2878589375,0.6609434488536867
0.028,1.7804,1.0,2644.48761667115,0.27021842646039246,1.3256725741744868,0.9404318554757212,0.2878298,0.6617900970362354
0.0285,1.77969375,1.0,2653.9182346615876,0.27431192432877816,1.3252666123769676,0.9420288498547442,0.2878001375,0.6626327515076897
0.029,1.778975,1.0,2662.641665532835,0.2783824597598023,1.324861667710199,0.9435533760737232,0.28776995,0.6634722476165442
0.029500000000000002,1.7782437500000001,1.0,2670.6976485980913,0.28243016239562746,1.3244573422841115,0.9450097436967996,0.2877392375,0.6643094165750348
0.03,1.7775,1.0,2678.10529836222,0.28645515946318667,1.3240534323690651,0.9464019701700306,0.287708,0.6651446842150119
0.0305,1.77674375,1.0,2684.9270233798006,0.2904575809239417,1.3236493408707728,0.9477337302767767,0.2876762375,0.665979286205084
0.031,1.775975,1.0,2691.2098088742837,0.2944375544173135,1.3232446168704932,0.9490084540408686,0.28764395,0.6668141507150767
0.0315,1.7751937500000001,1.0,2696.965940601069,0.298395203936808,1.3228391304786147,0.9502293682504371,0.2876111375,0.6676495402800129
0.032,1.7744,1.0,2702.207926410889,0.3023306534759313,1.3224327518055254,0.9513994742315278,0.2875778,0.6684857160813662
0.0325,1.77359375,1.0,2706.948482375399,0.3062440270281893,1.3220253509616144,0.9525215663620443,0.2875439375,0.6693229379402075
0.033,1.7727805055299426,1.0,2711.47314689226,0.31013544858708797,1.3216167980572697,0.9535982488532337,0.28750978123225757,0.6701614643092774
0.0335,1.7719672374627997,1.0,2716.1411073307268,0.3140050421461334,1.3212069632028798,0.9546319509792909,0.28747562397343757,0.6710015522639792
0.034,1.771153969395657,1.0,2720.961043965424,0.3178529306353043,1.320795781306783,0.9556249478998773,0.28744146671461757,0.671843324922738
0.0345,1.7703407013285142,1.0,2725.8925676641034,0.321679236527906,1.3203836233099757,0.956579413505591,0.2874073094557976,0.672686013758838
0.035,1.7695274332613713,1.0,2730.9166583105616,0.325484080332717,1.3199706647005829,0.9574973587934302,0.28737315219697757,0.6735292529689643
0.035500000000000004,1.7687141651942284,1.0,2736.0205309440908,0.3292675816004867,1.3195570237586631,0.9583806596823174,0.2873389949381576,0.6743727951738049
0.036000000000000004,1.7679008971270855,1.0,2741.1913554599037,0.3330298598819646,1.3191428187642749,0.9592310735143261,0.28730483767933757,0.6752163942321212
0.0365,1.7670876290599429,1.0,2746.416841943945,0.33677103414128884,1.3187281626786163,0.9600502472318244,0.2872706804205176,0.6760598160571223
0.037,1.7662743609928,1.0,2751.6920119565366,0.34049121650369873,1.3183131018577385,0.9608397180572604,0.28723652316169757,0.6769029629646205
0.0375,1.7654610929256571,1.0,2756.9938840514556,0.34419053862112525,1.3178978453129686,0.961600949795811,0.2872023659028776,0.6777454079890686
0.038,1.7646478248585142,1.0,2762.317495685017,0.3478691144000722,1.3174824384474928,0.9623352984407336,0.28716820864405757,0.6785870576448787
0.0385,1.7638345567913714,1.0,2767.657865120978,0.3515270577470433,1.3170669266644983,0.9630440394334359,0.2871340513852376,0.6794278189270716
0.039,1.7630212887242287,1.0,2773.00999130151,0.3551644825685425,1.3166513553671717,0.9637283733293198,0.2870998941264176,0.6802675993116492
0.0395,1.7622080206570858,1.0,2778.368853764929,0.35878150277107346,1.3162357699586995,0.9643894310064657,0.2870657368675976,0.6811063067558307
0.04,1.761394752589943,1.0,2783.7294126084425,0.3623782322611401,1.3158202158422687,0.965028278458544,0.2870315796087776,0.6819438496981595
0.0405,1.7605814845228,1.0,2789.086608496659,0.36595478494524614,1.315404738421066,0.9656459212092076,0.2869974223499576,0.6827801370584785
0.041,1.7597682164556574,1.0,2794.43536271618,0.3695112747298954,1.3149893830982782,0.966243308381532,0.2869632650911376,0.6836150782377748
0.0415,1.7589549483885145,1.0,2799.7705772756203,0.3730478155215918,1.3145741952770917,0.9668213364527868,0.2869291078323176,0.6844485831178896
0.042,1.7581416803213716,1.0,2805.0897902395523,0.37656451322987083,1.314159196553432,0.9673808493914037,0.2868949505734976,0.6852806097605295
0.0425,1.7573284122542288,1.0,2810.3898822179913,0.380061481858129,1.3137444143327213,0.9679226472486847,0.2868607933146776,0.6861111048310515
0.043000000000000003,1.7565151441870859,1.0,2815.664787508712,0.3835388451717082,1.3133299022875324,0.9684474908268584,0.2868266360558576,0.6869399627949151
0.043500000000000004,1.7557018761199432,1.0,2820.913669905035,0.3869967094960961,1.3129156671356246,0.9689560939981708,0.2867924787970376,0.6877671723886065
0.044,1.7548886080528003,1.0,2826.135690904651,0.39043518115678,1.312501715594757,0.9694491332087337,0.2867583215382176,0.6885927224181558
0.0445,1.7540753399856575,1.0,2831.3300097516963,0.3938543664792476,1.3120880543826883,0.9699272498125744,0.2867241642793976,0.6894166017590186
0.045,1.7532620719185146,1.0,2836.4957834790957,0.39725437178898637,1.3116746902171779,0.9703910522379858,0.2866900070205776,0.6902387993559509
0.0455,1.7524488038513717,1.0,2841.632166952605,0.4006353034114838,1.311261629815985,0.9708411179997595,0.2866558497617576,0.6910593042228852
0.046,1.751635535784229,1.0,2846.738312915487,0.4039972676722274,1.3108488798968683,0.9712779955696511,0.2866216925029376,0.6918781054428009
0.0465,1.7508222677170862,1.0,2851.813372034088,0.40734037089670466,1.3104364471775873,0.9717022061163493,0.2865875352441176,0.6926951921675926
0.047,1.7500089996499433,1.0,2856.8564929448853,0.41066471941040317,1.310024338375901,0.972114245125203,0.2865533779852976,0.6935105536179365
0.0475,1.7491957315828004,1.0,2861.866822301894,0.41397041953881036,1.3096125602095685,0.9725145839070937,0.2865192207264776,0.6943241790831516
0.048,1.7483824635156575,1.0,2866.8435048257843,0.4172575776074138,1.3092011193963486,0.9729036710050026,0.2864850634676576,0.6951360579210617
0.0485,1.7475691954485149,1.0,2871.7858298282927,0.4205262972177707,1.308790021356,0.9732819330806141,0.2864509062088376,0.695946182114034
0.049,1.746755927381372,1.0,2876.695193589454,0.42377665549649235,1.30837925284134,0.9736497721277184,0.2864167489500176,0.6967545804114059
0.0495,1.745942659314229,1.0,2881.5696736783666,0.4270087993924956,1.3079688300160055,0.9740075816453667,0.2863825916911976,0.697561223656163
0.05,1.7451293912470862,1.0,2886.4096401813385,0.43022282642782445,1.3075587487319735,0.9743557295996619,0.2863484344323776,0.6983661226990523
0.0505,1.7443161231799433,1.0,2891.215465541378,0.433418834124523,1.3071490048412207,0.9746945670608785,0.2863142771735576,0.699169288345178
0.051000000000000004,1.7435028551128007,1.0,2895.9875245269063,0.4365969200046351,1.3067395941957238,0.9750244291300629,0.2862801199147376,0.6999707313540902
0.051500000000000004,1.7426895870456578,1.0,2900.7261942009536,0.4397571815902051,1.30633051264746,0.9753456358068814,0.2862459626559176,0.7007704624398735
0.052000000000000005,1.741876318978515,1.0,2905.4318538907346,0.4428997164032768,1.3059217560484058,0.9756584928029353,0.2862118053970976,0.7015684922712364
0.0525,1.741063050911372,1.0,2910.104885157506,0.4460246219658943,1.3055133202505385,0.9759632923044148,0.2861776481382776,0.7023648314715942
0.053,1.7402497828442294,1.0,2914.7456717669056,0.4491319958001017,1.3051052011058344,0.9762603136876602,0.2861434908794576,0.7031594906191594
0.0535,1.7394365147770865,1.0,2919.3545996597068,0.45222193542794303,1.3046973944662705,0.9765498241909204,0.2861093336206376,0.7039524802470214
0.054,1.7386232467099436,1.0,2923.9320569227543,0.45529453837146233,1.3042898961838238,0.9768320795453463,0.2860751763618176,0.7047438108432325
0.0545,1.7378099786428007,1.0,2928.478433760479,0.45834990215270366,1.303882702110471,0.9771073245680129,0.2860410191029976,0.7055334928508887
0.055,1.7369967105756579,1.0,2932.9941224667677,0.461388124293711,1.3034758080981892,0.9773757937195607,0.2860068618441776,0.7063215366682112
0.0555,1.7361834425085152,1.0,2937.479517397069,0.4644093023165285,1.3030692099989551,0.977637711628846,0.2859727045853576,0.7071079526486264
0.056,1.7353701744413723,1.0,2941.9350149411966,0.4674135337432001,1.3026629036647452,0.9778932935868079,0.2859385473265376,0.7078927511008455
0.0565,1.7345569063742294,1.0,2946.3610134959636,0.4704009160957699,1.3022568849475369,0.978142746011601,0.2859043900677176,0.7086759422889396
0.057,1.7337436383070866,1.0,2950.7575744352266,0.4733715196093504,1.3018511526629442,0.9783862646266865,0.2858702328088976,0.7094575307272066
0.0575,1.7329303702399437,1.0,2955.125162833907,0.4763254217831694,1.3014457021082633,0.9786240377295481,0.2858360755500776,0.7102375276800261
0.058,1.732117102172801,1.0,2959.4652585285935,0.47926278440567077,1.30104051974116,0.978856252857723,0.2858019182912577,0.7110159613328195
0.0585,1.7313038341056581,1.0,2963.7782799170222,0.4821836944848803,1.3006356013222227,0.9790830841144607,0.2857677610324376,0.7117928418929387
0.059000000000000004,1.7304905660385153,1.0,2968.0646472808344,0.4850882390288237,1.3002309426120386,0.9793046987486611,0.2857336037736176,0.7125681795225981
0.059500000000000004,1.7296772979713724,1.0,2972.324782760216,0.48797650504552675,1.2998265393711954,0.9795212574785604,0.2856994465147976,0.7133419843389446
0.06,1.7288640299042295,1.0,2976.5591103300258,0.49084857954301514,1.2994223873602806,0.9797329147976933,0.2856652892559776,0.7141142664141266
0.0605,1.7280507618370868,1.0,2980.7680557757785,0.49370454952931464,1.2990184823398823,0.9799398192642301,0.2856311319971576,0.714885035775362
0.061,1.727237493769944,1.0,2984.95204667064,0.49654450201245104,1.2986148200705876,0.9801421137747157,0.28559697473833767,0.7156543024050083
0.0615,1.726424225702801,1.0,2989.1115123517247,0.49936852400045,1.2982113963129844,0.9803399358231619,0.2855628174795176,0.7164220762406255
0.062,1.7256109576356582,1.0,2993.24688389844,0.5021767025013373,1.2978082068276604,0.9805334177463837,0.28552866022069767,0.717188367175043
0.0625,1.7247976895685153,1.0,2997.358594109132,0.5049691245231387,1.297405247375203,0.9807226869564075,0.2854945029618776,0.7179531850564234
0.063,1.7239844215013727,1.0,3001.4470774803644,0.5077458770738799,1.2970025137162,0.9809078661607259,0.28546034570305767,0.7187165396883242
0.0635,1.7231711534342298,1.0,3005.5127701845,0.5105070471615866,1.2966000016112393,0.9810890735711177,0.2854261884442376,0.7194784408297603
0.064,1.722357885367087,1.0,3009.556110049742,0.5132527217942846,1.296197706820908,0.9812664231017088,0.28539203118541767,0.7202388981952659
0.0645,1.721544617299944,1.0,3013.5775365382356,0.5159829879799998,1.2957956251057943,0.9814400245569044,0.2853578739265976,0.7209979214549502
0.065,1.7207313492328011,1.0,3017.5774907271834,0.5186979327267576,1.2953937522264853,0.9816099838097773,0.28532371666777767,0.7217555202345594
0.0655,1.7199180811656585,1.0,3021.5564152878796,0.521397643042584,1.2949920839435691,0.9817764029714664,0.28528955940895767,0.7225117041155302
0.066,1.7191048130985156,1.0,3025.514754467006,0.5240822059355046,1.294590616017633,0.9819393805520984,0.28525540215013767,0.7232664826350494
0.0665,1.7182915450313727,1.0,3029.4529540672156,0.5267517084135452,1.294189344209265,0.982099011613712,0.28522124489131767,0.7240198652861054
0.067,1.7174782769642298,1.0,3033.3714614288538,0.5294062374847316,1.2937882642790521,0.9822553879156412,0.28518708763249767,0.724771861517544
0.0675,1.716665008897087,1.0,3037.2707254111597,0.5320458801570894,1.2933873719875828,0.9824085980527774,0.2851529303736776,0.725522480734119
0.068,1.7158517408299443,1.0,3041.151196375373,0.5346707234386445,1.292986663095444,0.9825587275871045,0.28511877311485767,0.7262717322965457
0.0685,1.7150384727628014,1.0,3045.0125802540074,0.5372808067800298,1.2925861397824163,0.9827058564703505,0.28508461585603767,0.727019613543445
0.069,1.7142252046956585,1.0,3048.855697167539,0.5398762450217375,1.292185794642242,0.9828500662648119,0.28505045859721767,0.7277661396979644
0.0695,1.7134119366285157,1.0,3052.6813212042966,0.5424571492634632,1.2917856206848413,0.9829914355573394,0.28501630133839767,0.7285113251325317
0.07,1.7125986685613728,1.0,3056.4896967268755,0.545023596087186,1.291385615489533,0.9831300384067787,0.28498214407957767,0.7292551756562057
0.07050000000000001,1.7117854004942301,1.0,3060.2810689916982,0.5475756620748851,1.2909857766356352,0.9832659464379796,0.28494798682075767,0.7299976970527942
0.07100000000000001,1.7109721324270872,1.0,3064.05568413985,0.5501134238085392,1.290586101702467,0.9833992289382869,0.28491382956193767,0.7307388950808787
