Time [s],Phi [rad],STIM [ ],Fsee [N],Gamma [ ],Lcerel [ ],q [ ],Lmtc [m],fisomrel [ ]
0.0,1.8,1.0,17.967023594086807,1.000008684077657e-05,1.379339761296481,0.005000026652234718,0.288653,0.541139494577579
0.0005,1.79999375,1.0,18.276367986659448,0.005619153303056495,1.3793024295737073,0.012940515028353177,0.2886527375,0.5412298052279427
0.001,1.799975,1.0,21.61799456233288,0.011196843604651447,1.378938341639766,0.03560857965341358,0.28865195,0.5421101187350255
0.0015,1.79994375,1.0,31.068758415718357,0.016743247474560952,1.3780462444180364,0.07060171020710923,0.2886506375,0.5442635111014615
0.002,1.7999,1.0,53.581639848358414,0.02225854040406936,1.3763681802129397,0.11471784284609093,0.2886488,0.5483003600867351
0.0025,1.79984375,1.0,97.11782001124065,0.027742896900373147,1.373935221115891,0.1645746803173959,0.28864643749999996,0.5541213342124033
0.003,1.7997750000000001,1.0,160.95692962696089,0.0331964904942988,1.3712143900657061,0.21728023334560198,0.28864354999999997,0.5605863412249548
0.0035,1.79969375,1.0,237.68205294056054,0.038619493739893505,1.3685847736175436,0.27061266773415577,0.2886401375,0.5667897469939545
0.004,1.7996,1.0,321.4655077761692,0.04401207822520764,1.3661561258631492,0.32291558702472434,0.2886362,0.5724798835870206
0.0045000000000000005,1.7994937500000001,1.0,409.2665334042031,0.04937441457747911,1.3639228427432675,0.37303430345774025,0.2886317375,0.5776790960767189
0.005,1.799375,1.0,499.4123257191659,0.054706672454224455,1.361858367388763,0.42024726987397676,0.28862675,0.5824570215265914
0.0055,1.79924375,1.0,590.7892828219823,0.06000902059070053,1.3599388571997897,0.4641735219084667,0.2886212375,0.5868750608345326
0.006,1.7991000000000001,1.0,682.5170179995159,0.06528162674306756,1.3581464345666767,0.5046798006401066,0.2886152,0.5909793731096211
0.006500000000000001,1.79894375,1.0,773.8805431278764,0.0705246577436349,1.356467265818243,0.5418006099366052,0.2886086375,0.5948057665818433
0.007,1.798775,1.0,864.284886049901,0.07573827948595345,1.3548904099405705,0.575676647526798,0.28860155,0.598382643278743
0.0075,1.79859375,1.0,953.241513960393,0.08092265693258306,1.3534068053612196,0.606509803417515,0.2885939375,0.6017335137894677
0.008,1.7984,1.0,1040.356122705733,0.08607795409939048,1.3520086806769376,0.6345319638341935,0.2885858,0.6048784717094445
0.0085,1.79819375,1.0,1125.3180792991059,0.0912043341882355,1.3506891869714246,0.6599843024006938,0.2885771375,0.607835121624111
0.009000000000000001,1.797975,1.0,1207.8779482642572,0.0963019590958644,1.34944233883016,0.6831042708506584,0.28856795,0.6106187877324862
0.0095,1.79774375,1.0,1287.8724681264766,0.10137099066052228,1.348262384985573,0.7041175359393971,0.2885582375,0.6132439770540833
0.01,1.7975,1.0,1365.1653150809525,0.10641158910341476,1.347144407568226,0.7232341659173649,0.288548,0.6157230876725301
0.0105,1.79724375,1.0,1439.6580295942047,0.11142391344699804,1.3460839647806029,0.7406466029445928,0.2885372375,0.6180672491126864
0.011,1.796975,1.0,1511.3059521684024,0.11640812231366642,1.3450767522911502,0.7565291612913452,0.28852595000000003,0.6202871014929597
0.0115,1.79669375,1.0,1580.109653995147,0.12136437427454841,1.3441186187533347,0.7710386162208689,0.2885141375,0.6223927813370442
0.012,1.7964,1.0,1646.063893545354,0.1262928257754222,1.3432060843959934,0.7843155052895173,0.28850180000000003,0.6243928049539869
0.0125,1.79609375,1.0,1709.1767767159279,0.13119363214994295,1.3423360026077384,0.7964852679819133,0.2884889375,0.6262948383882478
0.013000000000000001,1.7957750000000001,1.0,1769.4920237661208,0.1360669486526552,1.3415052367915186,0.8076595170423924,0.28847555,0.6281064197830639
0.0135,1.79544375,1.0,1827.0726425261712,0.14091292964941213,1.3407108048973002,0.8179375087191649,0.2884616375,0.6298346537826334
0.014,1.7951000000000001,1.0,1881.986297051197,0.14573172933112288,1.3399499951870535,0.8274075220914218,0.2884472,0.6314859718505177
0.0145,1.79474375,1.0,1934.286094511486,0.15052349910716886,1.3392205263655788,0.8361481385066801,0.2884322375,0.6330657987635833
0.015,1.794375,1.0,1984.0461302290046,0.15528839038693143,1.3385201171376764,0.8442292053671773,0.28841675,0.63457949710808
0.0155,1.79399375,1.0,2031.3485423689694,0.16002655370710353,1.3378466035026788,0.8517128962865018,0.2884007375,0.6360321189467594
0.016,1.7936,1.0,2076.290245350385,0.16473814044861018,1.3371978445034662,0.8586545874848387,0.2883842,0.6374286149943119
0.0165,1.7931937500000001,1.0,2118.9551733030994,0.16942330000558697,1.3365719918343006,0.8651037412307241,0.2883671375,0.6387732599256744
0.017,1.792775,1.0,2159.4105685681534,0.17408217926794575,1.3359674997510473,0.8711046035251763,0.28834955,0.6400696400224171
0.0175,1.7923437500000001,1.0,2197.734409126402,0.17871492512559836,1.335382822509572,0.8766967328047703,0.2883314375,0.6413213085634977
0.018000000000000002,1.7919,1.0,2234.0145095593584,0.18332168446845665,1.3348164143657404,0.8819155512276023,0.2883128,0.6425317878548114
0.0185,1.79144375,1.0,2268.336879354141,0.18790260298939818,1.3342668372172535,0.8867928547934748,0.2882936375,0.6437043416351218
0.019,1.790975,1.0,2300.7950940488463,0.19245782735601713,1.3337326561633824,0.8913572075120992,0.28827395,0.6448422009251709
0.0195,1.79049375,1.0,2331.464928778338,0.19698750142802546,1.3332126820541144,0.8956343678425794,0.2882537375,0.645948050122142
0.02,1.79,1.0,2360.4134821394564,0.20149176727543644,1.33270586842067,0.8996475808138601,0.288233,0.6470242510154585
0.0205,1.78949375,1.0,2387.712928864961,0.20597076696826339,1.33221116879427,0.9034178275561447,0.2882117375,0.6480731483684474
0.021,1.788975,1.0,2413.44009563906,0.2104246425765195,1.3317275367061345,0.9069640765966139,0.28818995000000003,0.6490970707617353
0.021500000000000002,1.78844375,1.0,2437.666152624837,0.2148535345058713,1.3312540209913946,0.9103035237235744,0.2881676375,0.6500981300288033
0.022,1.7879,1.0,2460.4718497066942,0.21925758530042036,1.3307896141121538,0.9134517543586821,0.2881448,0.6510785433531008
0.0225,1.78734375,1.0,2481.9216533761646,0.22363693421340017,1.3303334968379545,0.9164229615838153,0.28812143749999997,0.6520401175599779
0.023,1.786775,1.0,2502.070754299633,0.22799171829650658,1.329884964890748,0.9192300780011544,0.28809755,0.6529844066933352
0.0235,1.78619375,1.0,2520.976747078748,0.23232207460143553,1.329443313992486,0.9218848857839562,0.28807313749999996,0.6539129555664807
0.024,1.7856,1.0,2538.699429156386,0.23662814017988293,1.3290078398651195,0.9243981349043159,0.2880482,0.654827300087015
0.0245,1.78499375,1.0,2555.3006107195074,0.24091005208354463,1.3285778382306006,0.9267796477871509,0.2880227375,0.6557289675500806
0.025,1.784375,1.0,2570.833848139442,0.2451679439404672,1.3281526992891157,0.9290384266414173,0.28799675,0.6566192791749592
0.025500000000000002,1.78374375,1.0,2585.362685429293,0.2494019553763306,1.3277317344521389,0.9311827095553322,0.2879702375,0.6574997137531656
0.026000000000000002,1.7831000000000001,1.0,2598.9309007490265,0.253612218742844,1.3273144532456669,0.9332200839611114,0.2879432,0.658371328751563
0.0265,1.78244375,1.0,2611.5815358116174,0.2577988656657463,1.32690038272718,0.9351575225454961,0.2879156375,0.6592351395817069
0.027,1.781775,1.0,2623.358666717378,0.26196202777077643,1.3264890499541582,0.9370014390398271,0.28788755,0.660092156441426
0.0275,1.7810937500000001,1.0,2634.307313572426,0.26610183668367327,1.326079981984082,0.9387577404757398,0.2878589375,0.6609433844045304
0.028,1.7804,1.0,2644.473355066327,0.2702184240301757,1.3256727058744315,0.9404318739205285,0.2878298,0.6617898234962565
0.0285,1.77969375,1.0,2653.8940976806684,0.2743119185493771,1.325266834875701,0.9420288796021516,0.2878001375,0.6626322899551766
0.029,1.778975,1.0,2662.6104962015656,0.2783824517522792,1.324861954563447,0.943553413318238,0.28776995,0.6634716533074518
0.029500000000000002,1.7782437500000001,1.0,2670.6727714550884,0.2824301569885593,1.3244575708842714,0.9450097730563466,0.2877392375,0.6643089435455294
0.03,1.7775,1.0,2678.108753552001,0.2864551596875704,1.324053400662783,0.9464019660048975,0.287708,0.665144749741345
0.0305,1.77674375,1.0,2684.946679922452,0.290457585278666,1.3236491607235905,0.9477337082005609,0.2876762375,0.6659796580450111
0.031,1.775975,1.0,2691.2151594217257,0.29443755919119924,1.3232445678913025,0.9490084493452162,0.28764395,0.6668142516861133
0.0315,1.7751937500000001,1.0,2696.9431382142825,0.29839520685452336,1.322839338990528,0.9502293952163984,0.2876111375,0.6676491109698947
0.032,1.7744,1.0,2702.159867435298,0.30233065369799167,1.3224331908458757,0.9513995279306119,0.2875778,0.6684848132683261
0.0325,1.77359375,1.0,2706.8948726311114,0.30624402515095744,1.322025840281954,0.952521624288347,0.2875439375,0.6693219330060632
0.033,1.772775,1.0,2711.1775012316853,0.31013544606030363,1.3216170079880407,0.9535982726895234,0.28750955,0.6701610337143513
0.0335,1.7719437500000002,1.0,2715.033161984831,0.3140050360164219,1.3212064525312894,0.9546318908164448,0.2874746375,0.6710025983809456
0.034,1.7711000000000001,1.0,2718.4907510706385,0.3178529257286848,1.3207939023721007,0.9556247358634757,0.2874392,0.6718471690079054
0.0345,1.7702437500000001,1.0,2721.568938022347,0.32167923424610056,1.3203791806013885,0.9565789247378678,0.2874032375,0.6726950913175476
0.035,1.7693750000000001,1.0,2724.2865193955618,0.3254840806176776,1.319962110310066,0.957496437603867,0.28736675,0.6735467090750291
0.035500000000000004,1.76849375,1.0,2726.6624054903623,0.3292675838924241,1.3195425145890471,0.9583791282992951,0.2873297375,0.6744023640628463
0.036000000000000004,1.7676,1.0,2728.7156077681284,0.33302986311934846,1.3191202165292453,0.9592287338440768,0.2872922,0.6752623960533406
0.0365,1.76669375,1.0,2730.465226961572,0.33677103734745895,1.3186950392215742,0.9600468831292547,0.2872541375,0.676127142779207
0.037,1.765775,1.0,2731.9304418788347,0.34049122562576395,1.3182668057569475,0.9608351048655366,0.28721555,0.676996939902007
0.0375,1.76484375,1.0,2733.1304989020728,0.3441905470032717,1.3178353392262785,0.9615948348620369,0.2871764375,0.6778721209786878
0.038,1.7639,1.0,2734.081223867902,0.3478691165181597,1.3174004943105038,0.9623274249017927,0.28713679999999997,0.6787529534803822
0.0385,1.76294375,1.0,2734.7992334092637,0.35152705506495485,1.316962118934592,0.963034147082724,0.28709663750000003,0.6796397167107577
0.039,1.761975,1.0,2735.29715616246,0.35516447740346385,1.3165200975977944,0.9637162010075053,0.28705595,0.6805326142113607
0.0395,1.7609937500000001,1.0,2735.5867890485,0.3587814969204769,1.3160743226439173,0.9643747171337227,0.2870147375,0.6814318321594033
0.04,1.76,1.0,2735.6799562261617,0.3623782270027841,1.3156246864167669,0.965010761079325,0.286973,0.6823375552433597
0.0405,1.7589937500000001,1.0,2735.5885047059724,0.3659547810371757,1.315171081260149,0.9656253380253454,0.2869307375,0.6832499666368259
0.041,1.757975,1.0,2735.3243002203358,0.3695112724104419,1.31471339951787,0.9662193967749867,0.28688795,0.6841692479716377
0.0415,1.75694375,1.0,2734.89922335131,0.3730478145093728,1.314251533533736,0.9667938334992061,0.2868446375,0.6850955793102527
0.042,1.7559,1.0,2734.31739001042,0.37656452007005164,1.3137854462692458,0.9673495010140737,0.28680079999999997,0.6860289977985021
0.0425,1.75484375,1.0,2733.60562157569,0.3800615003515067,1.3133148945652775,0.9678871885313544,0.2867564375,0.6869699516694804
0.043000000000000003,1.753775,1.0,2732.767201609682,0.383538865435816,1.3128398490545152,0.9684076601890063,0.28671155,0.6879184593225387
0.043500000000000004,1.7526958565189896,1.0,2731.8958513252614,0.38699672493486464,1.3123604100739474,0.9689116498127163,0.28666622597379754,0.6888742800332761
0.044,1.7516156134449739,1.0,2731.4425121637587,0.39043518844427855,1.3118766774083608,0.9693998525029979,0.2866208557646889,0.6898371750278102
0.0445,1.7505353703709579,1.0,2731.435951222426,0.3938543648294682,1.311388885312819,0.9698729374570094,0.2865754855555802,0.690806639361097
0.045,1.749455127296942,1.0,2731.831306309443,0.39725436288173266,1.3108974413773598,0.9703315525484868,0.28653011534647155,0.6917818269930203
0.0455,1.7483748842229263,1.0,2732.5982203643384,0.40063528946023513,1.3104026221716176,0.9707763022591207,0.2864847451373629,0.6927621560873214
0.046,1.7472946411489103,1.0,2733.706399322137,0.4039972514241385,1.3099047042652276,0.9712077604650855,0.2864393749282542,0.6937470480685006
0.0465,1.7462143980748945,1.0,2735.126718551908,0.40734035527621465,1.309403954000831,0.9716264714880056,0.28639400471914556,0.6947359478592207
0.047,1.7451341550008788,1.0,2736.8313054889168,0.410664707425384,1.308900626595107,0.9720329518424582,0.2863486345100369,0.695728325539382
0.0475,1.7440539119268628,1.0,2738.7972530684942,0.4139704127100916,1.3083949323176627,0.9724276892824293,0.28630326430092823,0.6967237427320927
0.048,1.742973668852847,1.0,2741.0035663400135,0.4172575753059085,1.3078870641513074,0.9728111465887109,0.28625789409181956,0.6977217976029615
0.0485,1.7418934257788312,1.0,2743.429249471177,0.4205262993884057,1.3073772150788512,0.9731837643167079,0.2862125238827109,0.6987220907218421
0.049,1.7408131827048152,1.0,2746.0641810811717,0.4237766827705607,1.306865479448376,0.9735459545223231,0.28616715367360224,0.6997244181215507
0.0495,1.7397329396307994,1.0,2748.8724641468466,0.42700883945332957,1.3063521851119713,0.9738981276813488,0.2861217834644936,0.7007281207816343
0.05,1.7386526965567837,1.0,2751.8425806201735,0.4302228693443719,1.3058374387262566,0.9742406585961113,0.2860764132553849,0.70173297536149
0.0505,1.7375724534827677,1.0,2754.963426551996,0.4334188720999189,1.305321343104446,0.9745739045167617,0.28603104304627625,0.7027387673625549
0.051000000000000004,1.736492210408752,1.0,2758.223884987302,0.4365969473762017,1.3048040010597526,0.9748982063914153,0.2859856728371676,0.703745283603209
0.051500000000000004,1.7354119673347361,1.0,2761.612823006597,0.4397571948294513,1.3042855154053905,0.9752138897570091,0.2859403026280589,0.7047523122272827
0.052000000000000005,1.7343317242607201,1.0,2765.11908900193,0.44289971411589896,1.3037659889545736,0.9755212655739647,0.28589493241895025,0.7057596427118937
0.0525,1.7332514811867044,1.0,2768.731510187259,0.4460246048917757,1.3032455245205155,0.9758206310086613,0.2858495622098416,0.7067670658746092
0.053,1.7321712381126886,1.0,2772.438890343045,0.4491319668133128,1.3027242249164297,0.9761122701674054,0.2858041920007329,0.7077743738799327
0.0535,1.7310909950386728,1.0,2776.230007795215,0.4522218995367413,1.30220219295553,0.9763964547852928,0.28575882179162426,0.7087813602451166
0.054,1.7300107519646568,1.0,2780.099529679825,0.45529449641039055,1.3016794781679457,0.9766734409928165,0.2857134515825156,0.7097879223607014
0.0545,1.728930508890641,1.0,2784.0348024754103,0.45834986247857545,1.3011561958623052,0.9769434791065226,0.28566808137340693,0.7107938319315843
0.055,1.7278502658166253,1.0,2788.029784355983,0.4613880935729473,1.3006324015798387,0.9772068043665282,0.28562271116429827,0.711798976786794
0.0555,1.7267700227426093,1.0,2792.0797491936178,0.4644092838193963,1.3001081388951088,0.977463641279407,0.2855773409551896,0.712803268395772
0.056,1.7256897796685935,1.0,2796.1799583436477,0.4674135273438125,1.299583451382678,0.9777142050238996,0.28553197074608094,0.7138066188062582
0.0565,1.7246095365945777,1.0,2800.325660213183,0.47040091827208613,1.2990583826171092,0.9779587019162447,0.2854866005369723,0.7148089406455318
0.057,1.7235292935205617,1.0,2804.5120898715595,0.47337155073010734,1.2985329761729651,0.9781973298486438,0.2854412303278636,0.7158101471215301
0.0575,1.722449050446546,1.0,2808.7344687031587,0.4763255188437663,1.2980072756248084,0.9784302787026175,0.28539586011875495,0.7168101520238503
0.058,1.7213688073725302,1.0,2812.988004102315,0.4792629167389531,1.2974813245472019,0.9786577307388794,0.2853504899096463,0.7178088697246248
0.0585,1.7202885642985142,1.0,2817.267889209997,0.48218383854155794,1.296955166514708,0.9788798609652452,0.2853051197005376,0.7188062151792793
0.059000000000000004,1.7192083212244984,1.0,2821.574141443802,0.4850883633119498,1.2964288018430286,0.9790968338382374,0.28525974949142896,0.71980218570761
0.059500000000000004,1.7181280781504826,1.0,2825.8987546590483,0.4879765999715622,1.2959023025258105,0.9793088137831218,0.2852143792823203,0.7207966433671037
0.06,1.7170478350764666,1.0,2830.2373651928197,0.4908486453987398,1.2953757078237662,0.9795159560693043,0.2851690090732116,0.7217895128431413
0.0605,1.7159675920024509,1.0,2834.5884253297386,0.4937045871330164,1.2948490317610475,0.979718407887879,0.2851236388641029,0.7227807668034847
0.061,1.714887348928435,1.0,2838.9503825750535,0.4965445127139256,1.2943222883618057,0.9799163108225637,0.2850782686549943,0.7237703781041775
0.0615,1.713807105854419,1.0,2843.3216796315573,0.499368509681001,1.293795491650192,0.980109801106663,0.2850328984458856,0.724758319789611
0.062,1.7127268627804033,1.0,2847.700754381228,0.5021766655737762,1.2932686556503579,0.9802990098663786,0.2849875282367769,0.725744565092576
0.0625,1.7116466197063875,1.0,2852.086039870232,0.5049690679317849,1.292741794386455,0.9804840633512829,0.28494215802766826,0.7267290874343065
0.063,1.7105663766323715,1.0,2856.4759642993577,0.5077458042945605,1.2922149218826344,0.9806650831527327,0.2848967878185596,0.7277118604245085
0.0635,1.7094861335583558,1.0,2860.868951018104,0.5105069622016369,1.2916880521630478,0.9808421864109319,0.28485141760945093,0.7286928578613747
0.064,1.70840589048434,1.0,2865.2634185234997,0.5132526291925477,1.2911611992518466,0.9810154860113169,0.28480604740034227,0.7296720537315896
0.0645,1.707325647410324,1.0,2869.6577804629856,0.5159828928068262,1.290634377173182,0.9811850907708903,0.2847606771912336,0.7306494222103206
0.065,1.7062454043363082,1.0,2874.050445642017,0.5186978405840064,1.2901075999512055,0.9813511056150841,0.28471530698212494,0.7316249376611969
0.0655,1.7051651612622925,1.0,2878.439818035667,0.5213975600636217,1.2895808816100687,0.9815136317457,0.2846699367730163,0.7325985746362735
0.066,1.7040849181882765,1.0,2882.8242968048526,0.5240821387852058,1.2890542361739226,0.9816727668004395,0.2846245665639076,0.7335703078759892
0.0665,1.7030046751142607,1.0,2887.2054970662125,0.5267516314107813,1.2885276492022855,0.9818286014143306,0.28457919635479895,0.7345401646868716
0.067,1.701924432040245,1.0,2891.579630785173,0.5294061637948013,1.2880011540150187,0.9819812301382224,0.2845338261456903,0.735508084457964
0.0675,1.700844188966229,1.0,2895.9460992812296,0.5320458193488501,1.287474755687015,0.9821307400950073,0.2844884559365816,0.7364740588096016
0.068,1.6997639458922131,1.0,2900.304607800796,0.5346706778188527,1.2869484565984024,0.9822772150694994,0.28444308572747296,0.7374380843615905
0.0685,1.6986837028181974,1.0,2904.6548608429907,0.537280818950734,1.2864222591293097,0.9824207360116074,0.2843977155183643,0.7384001577655055
0.069,1.6976034597441814,1.0,2908.996562165276,0.5398763224904188,1.2858961656598655,0.9825613811521006,0.2843523453092556,0.7393602757046771
0.0695,1.6965232166701656,1.0,2913.3294147886463,0.5424572681838324,1.2853701785701983,0.9826992261128811,0.28430697510014696,0.7403184348941745
0.07,1.6954429735961498,1.0,2917.653121003348,0.5450237357768997,1.2848443002404366,0.9828343440120612,0.2842616048910383,0.7412746320807908
0.07050000000000001,1.6943627305221338,1.0,2921.9673823744893,0.5475758050155454,1.2843185330507088,0.9829668055641212,0.28421623468192964,0.7422288640430262
0.07100000000000001,1.693282487448118,1.0,2926.271899747773,0.5501135556456945,1.2837928793811435,0.9830966791754141,0.28417086447282097,0.7431811275910706
0.07150000000000001,1.6922022443741023,1.0,2930.5663732555618,0.5526370674132722,1.2832673416118696,0.9832240310352577,0.2841254942637123,0.744131419566787
0.07200000000000001,1.6911220013000863,1.0,2934.8505023227935,0.5551464200642033,1.2827419221230152,0.9833489252028507,0.2840801240546036,0.7450797368436952
