Time [s],Phi [rad],STIM [ ],Fsee [N],Gamma [ ],Lcerel [ ],q [ ],Lmtc [m],fisomrel [ ]
0.0,1.8,1.0,17.985589887092612,0.00013790898832208363,1.379337681780044,0.005004964940443451,0.288653,0.5411445254519835
0.0005,1.79999375,1.0,18.33705079729011,0.0057463447367852,1.3792956944113206,0.013299428172617287,0.2886527375,0.5412460975798281
0.001,1.799975,1.0,21.773716969910613,0.01132332159500979,1.378922465285021,0.03627821369790176,0.28865195,0.54214848629567
0.0015,1.79994375,1.0,31.42853711585112,0.01686901602344374,1.3780156805010704,0.07151632439635756,0.2886506375,0.5443371980080124
0.002,1.7999,1.0,54.348085383482235,0.02238360349073361,1.3763186333826127,0.11579975302152613,0.2886488,0.5484192798757741
0.0025,1.79984375,1.0,98.39865915797651,0.027867258482085686,1.3738737023500376,0.16575091170690767,0.28864643749999996,0.5542680315404194
0.003,1.7997750000000001,1.0,162.61862747896637,0.03332015450584827,1.3711523506052377,0.2184931979708133,0.28864354999999997,0.5607332035720879
0.0035,1.79969375,1.0,239.55685744592813,0.03874246409404304,1.368527137956386,0.27181875967463903,0.2886401375,0.5669252187170757
0.004,1.7996,1.0,323.4584792413649,0.044134358812860236,1.366103421118948,0.32408317754410076,0.2886362,0.5726029497608489
0.0045000000000000005,1.7994937500000001,1.0,411.32916813608136,0.049496009267931886,1.3638744856234133,0.37414248975709546,0.2886317375,0.5777913224244146
0.005,1.799375,1.0,501.51612557804776,0.05482758509607189,1.361813708745987,0.4212839498980951,0.28862675,0.5825600770518946
0.0055,1.79924375,1.0,592.910861571381,0.060129255005870616,1.3598974438026934,0.46513325650869214,0.2886212375,0.5869701209958136
0.006,1.7991000000000001,1.0,684.6398161238905,0.06540118673754201,1.3581078776734188,0.5055617517218571,0.2886152,0.5910674360594379
0.006500000000000001,1.79894375,1.0,775.9899801145692,0.07064354709097141,1.3564312808334247,0.5426069852250179,0.2886086375,0.5948875702915954
0.007,1.798775,1.0,866.3699183458085,0.07585650197868646,1.3548567502580913,0.576411478303461,0.28860155,0.5984588226921769
0.0075,1.79859375,1.0,955.2875188620776,0.08104021619850364,1.3533753525315781,0.6071781611296218,0.2885939375,0.6018044012218842
0.008,1.7984,1.0,1042.3643000957945,0.0861948540355163,1.3519791285317604,0.6351391988922775,0.2885858,0.6049448121110412
0.0085,1.79819375,1.0,1127.279761942394,0.09132057847033508,1.3506614288970675,0.6605359121347449,0.2885771375,0.6078972011602897
0.009000000000000001,1.797975,1.0,1209.7851100156947,0.09641755145646075,1.3494162897704838,0.6836055618937232,0.28856795,0.610676838147415
0.0095,1.79774375,1.0,1289.714193360866,0.10148593435246234,1.3482380225555668,0.7045735148396232,0.2885582375,0.6132980856077441
0.01,1.7975,1.0,1366.9521215418824,0.10652588810426054,1.3471214497701485,0.7236493092319626,0.288548,0.6157739129766273
0.0105,1.79724375,1.0,1441.3895969300302,0.11153757143931975,1.3460622993880988,0.7410250674815145,0.2885372375,0.6181150667800441
0.011,1.796975,1.0,1512.9780024270133,0.11652114295894972,1.3450563330105514,0.7568747270483094,0.28852595000000003,0.6203320377847943
0.0115,1.79669375,1.0,1581.7106888121396,0.12147676051884143,1.3440994966979571,0.771354713982971,0.2885141375,0.6224347460848616
0.012,1.7964,1.0,1647.602630697512,0.12640458170547061,1.3431880779909706,0.7846050980153214,0.28850180000000003,0.6244322165971412
0.0125,1.79609375,1.0,1710.6570798266266,0.13130476143679487,1.3423190025446117,0.7967510238127576,0.2884889375,0.6263319531149941
0.013000000000000001,1.7957750000000001,1.0,1770.9132051830547,0.13617745463077188,1.3414891960139006,0.8079038329044526,0.28847555,0.6281413552480223
0.0135,1.79544375,1.0,1828.427498203038,0.14102281538099146,1.340695755399208,0.8181625443827185,0.2884616375,0.6298673541229688
0.014,1.7951000000000001,1.0,1883.2820686861278,0.1458409984542311,1.3399358133371915,0.8276151391634583,0.2884472,0.6315167181466267
0.0145,1.79474375,1.0,1935.5364184294049,0.15063215576394068,1.3392070280555997,0.8363399706145903,0.2884322375,0.6330950003752795
0.015,1.794375,1.0,1985.251100460099,0.15539643799251718,1.3385072724991143,0.8444067571369954,0.28841675,0.6346072272487577
0.0155,1.79399375,1.0,2032.5050609792406,0.16013399582235766,1.3378344196124174,0.8518775194252237,0.2884007375,0.636058370297006
0.016,1.7936,1.0,2077.387067059218,0.16484497931925177,1.3371864151401012,0.8588075120171145,0.2883842,0.6374531933831867
0.0165,1.7931937500000001,1.0,2119.990743372218,0.16952953855602018,1.3365613098255118,0.8652460346701779,0.2883671375,0.6387961885476271
0.017,1.792775,1.0,2160.398682511905,0.17418782195166618,1.3359574031052366,0.8712371760726987,0.28834955,0.6400912732741888
0.0175,1.7923437500000001,1.0,2198.6814949665727,0.17881997574447045,1.3353732297770102,0.876820420899706,0.2883314375,0.6413418263677828
0.018000000000000002,1.7919,1.0,2234.919305058176,0.1834261461727137,1.3348073246385672,0.8820311257338038,0.2883128,0.6425511969654498
0.0185,1.79144375,1.0,2269.200950300134,0.18800647947467666,1.3342582224876423,0.8869010011212208,0.2882936375,0.6437227063118682
0.019,1.790975,1.0,2301.60358147811,0.19256111980867627,1.3337246525973712,0.8914585810141187,0.28827395,0.6448592354871299
0.0195,1.79049375,1.0,2332.2280941939725,0.19709021418399333,1.3332051769610758,0.8957295006952181,0.2882537375,0.6459639988722519
0.02,1.79,1.0,2361.139091280407,0.20159390429806115,1.3326987765189675,0.8997369591031905,0.288233,0.6470392987971368
0.0205,1.78949375,1.0,2388.4046115558544,0.20607233165943314,1.3322044472079289,0.9035018996284045,0.2882117375,0.6480873892068699
0.021,1.788975,1.0,2414.09722858897,0.2105256377766627,1.3317211849648423,0.9070432570948247,0.28818995000000003,0.6491105084359723
0.021500000000000002,1.78844375,1.0,2438.293667481486,0.21495396415830323,1.3312479857265902,0.9103781779552244,0.2881676375,0.6501108799492242
0.022,1.7879,1.0,2461.059013162381,0.2193574499632042,1.3307839931418868,0.9135222428577574,0.2881448,0.651090401406595
0.0225,1.78734375,1.0,2482.4764386125175,0.22373623786538038,1.3303282088072046,0.9164895784875554,0.28812143749999997,0.6520512578642342
0.023,1.786775,1.0,2502.602100141754,0.22809046518164516,1.3298799206963425,0.9192930897288866,0.28809755,0.6529950188819349
0.0235,1.78619375,1.0,2521.4894586207993,0.23242026834158713,1.329438464972517,0.921944542496768,0.28807313749999996,0.6539231434839019
0.024,1.7856,1.0,2539.1941017533118,0.2367257837747949,1.3290031777989448,0.924454672096785,0.2880482,0.6548370822646553
0.0245,1.78499375,1.0,2555.773565313478,0.24100714791085698,1.3285733953388421,0.9268332876935955,0.2880227375,0.6557382776642378
0.025,1.784375,1.0,2571.286093246138,0.2452644968817583,1.3281484637845764,0.9290893665036188,0.28799675,0.656628143226475
0.025500000000000002,1.78374375,1.0,2585.781499985302,0.24949796402732913,1.3277278230648513,0.9312311486493474,0.2879702375,0.6575078889960891
0.026000000000000002,1.7831000000000001,1.0,2599.326849517387,0.2537076878928944,1.327310765062616,0.933266172708036,0.2879432,0.6583790276598376
0.0265,1.78244375,1.0,2611.961988857963,0.2578937995158341,1.3268968474714633,0.9352014037828404,0.2879156375,0.659242509927356
0.027,1.781775,1.0,2623.727757181934,0.2620564299335282,1.326485627984986,0.9370432487139181,0.28788755,0.6600992816302595
0.0275,1.7810937500000001,1.0,2634.6659018353153,0.26619571018335664,1.3260766642967763,0.9387976082578895,0.2878589375,0.6609502838044881
0.028,1.7804,1.0,2644.8189986850443,0.2703117713026994,1.325669514100427,0.9404699237567534,0.2878298,0.6617964527601776
0.0285,1.77969375,1.0,2654.2303768061943,0.2744047443289364,1.325263735089531,0.942065218937923,0.2878001375,0.662638720139054
0.029,1.778975,1.0,2662.931875463208,0.2784747559342982,1.324858996971177,0.9435881514705656,0.28776995,0.6634777808892882
0.029500000000000002,1.7782437500000001,1.0,2670.9729569614283,0.2825219404787695,1.3244548125013502,0.945043012628756,0.2877392375,0.6643146512905411
0.03,1.7775,1.0,2678.391551795358,0.2865464271203841,1.324050805655886,0.9464337910443491,0.287708,0.6651501127352399
0.0305,1.77674375,1.0,2685.2152167112213,0.2905483408002695,1.3236466997186938,0.9477641973367766,0.2876762375,0.6659847377589212
0.031,1.775975,1.0,2691.4718735827078,0.2945278064595531,1.3232422179736836,0.9490376762569883,0.28764395,0.6668190960441762
0.0315,1.7751937500000001,1.0,2697.1897762336707,0.29848494903936246,1.3228370837047645,0.9502574290518865,0.2876111375,0.6676537544164634
0.032,1.7744,1.0,2702.3974789578556,0.3024198934808249,1.3224310201958465,0.951426433686715,0.2875778,0.6684892768350308
0.0325,1.77359375,1.0,2707.123806737545,0.3063327647250679,1.3220237507308392,0.9525474631536426,0.2875439375,0.6693262243789615
0.033,1.772775,1.0,2711.397827158646,0.3102236877132189,1.3216149985936523,0.9536231020681996,0.28750955,0.6701651552283324
0.0335,1.7719437500000002,1.0,2715.23773559695,0.3140927836630718,1.3212045881220706,0.9546557722762835,0.2874746375,0.6710064176317951
0.034,1.7711000000000001,1.0,2718.6742192484426,0.31794017814938536,1.32079223137049,0.9556477237479387,0.2874392,0.6718505876669068
0.0345,1.7702437500000001,1.0,2721.740703104113,0.32176599601623396,1.320377617073124,0.9566010566520788,0.2874032375,0.6726982859647535
0.035,1.7693750000000001,1.0,2724.453206847983,0.3255703558096878,1.31996059375825,0.9575177512978252,0.28736675,0.6735498037049368
0.035500000000000004,1.76849375,1.0,2726.8278552066326,0.32935337607581705,1.319541009954145,0.9583996616588876,0.2873297375,0.6744054303491233
0.036000000000000004,1.7676,1.0,2728.88086733552,0.333115175360692,1.3191187141890857,0.95924852488251,0.2872922,0.6752654536170429
0.0365,1.76669375,1.0,2730.628546713704,0.33685587221038277,1.3186935549913499,0.9600659699790317,0.2872541375,0.6761301594610187
0.037,1.765775,1.0,2732.0872715475602,0.3405755851709596,1.3182653808892144,0.9608535257710902,0.28721555,0.6769998320390411
0.0375,1.76484375,1.0,2733.27348568322,0.3442744327884926,1.3178340404109563,0.9616126281730877,0.2871764375,0.6778747536863731
0.038,1.7639034606084176,1.0,2734.3757792565902,0.3479525336090521,1.3173993820848529,0.9623446268641368,0.28713694534555356,0.6787552048856939
0.0385,1.7629627619637191,1.0,2735.8304134807204,0.35160999912049273,1.3169613419135529,0.9630507982420716,0.28709743600247617,0.6796412874118618
0.039,1.7620220633190204,1.0,2737.589155174199,0.35524695428379394,1.3165205450415676,0.9637324103271406,0.2870579266593989,0.6805317109903986
0.0395,1.7610813646743217,1.0,2739.63109935259,0.3588635116809603,1.3160771837912297,0.9643906149581998,0.2870184173163215,0.6814260646894299
0.04,1.760140666029623,1.0,2741.9358850308413,0.36245978370858506,1.315631445681988,0.9650264972227888,0.28697890797324416,0.6823239492879409
0.0405,1.7591999673849246,1.0,2744.4831560867815,0.36603588276326127,1.3151835182332912,0.9656410804763749,0.2869393986301668,0.6832249675831781
0.041,1.7582592687402259,1.0,2747.252551769554,0.369591921241582,1.3147335889645881,0.9662353305081611,0.2868998892870895,0.6841287244179518
0.0415,1.7573185700955272,1.0,2750.2236979866657,0.37312801154014047,1.3142818453953278,0.9668101593843251,0.28686037994401214,0.6850348267056994
0.042,1.7563778714508285,1.0,2753.3761993713156,0.37664426605552975,1.313828475044959,0.9673664289967303,0.2868208706009348,0.6859428834533023
0.0425,1.75543717280613,1.0,2756.689632128931,0.3801407971843429,1.3133736654329304,0.9679049543424513,0.28678136125785747,0.6868525057816639
0.043000000000000003,1.7544964741614313,1.0,2760.149201018403,0.3836177135564054,1.3129175528875168,0.9684265017973935,0.2867418519147801,0.6877634091035975
0.043500000000000004,1.7535557755167326,1.0,2763.737061747457,0.3870751287299892,1.3124603010473643,0.9689317999446627,0.2867023425717028,0.6886752559610665
0.044,1.7526150768720339,1.0,2767.4379418468566,0.39051315418174143,1.312002049996209,0.9694215368250969,0.2866628332286254,0.6895877576472036
0.0445,1.7516743782273354,1.0,2771.2429813357066,0.39393189647777704,1.3115428816626784,0.9698963594111716,0.28662332388554806,0.6905007426189871
0.045,1.7507336795826367,1.0,2775.1433012287407,0.3973314621842109,1.3110828779753998,0.970356881402235,0.2865838145424707,0.6914140402759648
0.0455,1.749792980937938,1.0,2779.130001944968,0.40071195786715796,1.310622120863,0.9708036852623279,0.2865443051993934,0.6923274809648337
0.046,1.7488522822932393,1.0,2783.1941618643496,0.40407349009273325,1.310160692254107,0.9712373241142565,0.28650479585631605,0.693240895983588
0.0465,1.7479115836485408,1.0,2787.3268360339903,0.40741616542705167,1.3096986740773473,0.9716583235013414,0.2864652865132387,0.6941541175852456
0.047,1.7469708850038421,1.0,2791.5190550224247,0.41074009043622817,1.3092361482613488,0.9720671830272631,0.2864257771701614,0.6950669789811388
0.0475,1.7460301863591434,1.0,2795.762234885631,0.4140453709748292,1.308773193043779,0.9724643775283507,0.28638626782708404,0.6959793216120831
0.048,1.7450894877144447,1.0,2800.055541539476,0.4173321013399044,1.3083098168872058,0.972850352502474,0.2863467584840067,0.6968911250350052
0.0485,1.744148789069746,1.0,2804.3827336089603,0.42060040480181105,1.307846166402815,0.9732255453671902,0.2863072491409293,0.6978020976756709
0.049,1.7432080904250475,1.0,2808.7406388145987,0.4238503813900413,1.3073822706504536,0.9735903618219272,0.286267739797852,0.6987121801331992
0.0495,1.7422673917803488,1.0,2813.1260752423673,0.4270821311340871,1.3069181586899694,0.9739451885536663,0.28622823045477463,0.6996213133493583
0.05,1.7413266931356501,1.0,2817.535851196101,0.4302957540634407,1.3064538595812096,0.974290394301097,0.2861887211116973,0.7005294386089931
0.0505,1.7403859944909517,1.0,2821.9667650666897,0.4334913502075942,1.3059894023840222,0.9746263308499761,0.28614921176861996,0.7014364975403985
0.051000000000000004,1.739445295846253,1.0,2826.4156052212606,0.43666901959603965,1.3055248161582542,0.9749533339647173,0.2861097024255426,0.7023424321156408
0.051500000000000004,1.7385045972015543,1.0,2830.879149910645,0.4398288622582691,1.3050601299637534,0.9752717242608231,0.2860701930824653,0.7032471846508224
0.052000000000000005,1.7375638985568556,1.0,2835.354167195612,0.4429709782237748,1.304595372860367,0.9755818080224123,0.28603068373938795,0.7041506978062948
0.0525,1.7366231999121569,1.0,2839.837414891684,0.4460954675220487,1.3041305739079427,0.9758838779687423,0.2859911743963106,0.7050529145868156
0.053,1.7356825012674584,1.0,2844.325640532946,0.449202430182583,1.303665762166328,0.9761782139733297,0.2859516650532332,0.7059537783416556
0.0535,1.7347418026227597,1.0,2848.8155813546455,0.45229196623486984,1.3032009666953701,0.9764650837389818,0.28591215571015594,0.7068532327646463
0.054,1.733801103978061,1.0,2853.307368768309,0.4553641580676063,1.3027361862883373,0.9767447398388202,0.28587264636707854,0.7077512803303352
0.0545,1.7328604053333625,1.0,2857.797044063157,0.4584191182214536,1.3022714560758635,0.9770174292400753,0.2858331370240012,0.7086478534495451
0.055,1.7319197066886638,1.0,2862.281137047267,0.4614569549002143,1.3018068067421114,0.9772833877375104,0.28579362768092387,0.7095428935080672
0.0555,1.730979008043965,1.0,2866.7589516764797,0.4644777603059121,1.3013422442705553,0.9775428382499223,0.28575411833784653,0.7104363897257173
0.056,1.7300383093992664,1.0,2871.229789846142,0.4674816266405707,1.3008777746446707,0.977795994446914,0.2857146089947692,0.7113283313930828
0.0565,1.7290976107545677,1.0,2875.692951403229,0.4704686461062138,1.300413403847932,0.9780430612088471,0.28567509965169186,0.7122187078714901
0.057,1.7281569121098692,1.0,2880.147734158994,0.4734389109048652,1.2999491378638144,0.9782842350602989,0.2856355903086145,0.7131075085929671
0.0575,1.7272162134651705,1.0,2884.593433902402,0.47639251323854853,1.2994849826757926,0.978519704578755,0.2855960809655371,0.7139947230602048
0.058,1.7262755148204718,1.0,2889.029344414778,0.47932954530928756,1.2990209442673415,0.9787496507801395,0.28555657162245984,0.7148803408465161
0.0585,1.7253348161757731,1.0,2893.4547574840826,0.482250099319106,1.298557028621936,0.9789742474826708,0.28551706227938245,0.7157643515957925
0.059000000000000004,1.7243941175310746,1.0,2897.86896292189,0.48515426747002754,1.2980932417230509,0.9791936616504259,0.2854775529363051,0.7166467450224578
0.059500000000000004,1.723453418886376,1.0,2902.271248579289,0.48804214196407597,1.2976295895541612,0.9794080537178924,0.2854380435932278,0.7175275109114208
0.06,1.7225127202416772,1.0,2906.66090036453,0.4909138150032749,1.297166078098742,0.9796175778967049,0.28539853425015044,0.7184066391180242
0.0605,1.7215720215969785,1.0,2911.037202261566,0.49376937878964816,1.2967027133402675,0.9798223824656729,0.2853590249070731,0.7192841195679944
0.061,1.72063132295228,1.0,2915.399436348712,0.4966089255252194,1.2962395012622134,0.980022610045133,0.28531951556399576,0.7201599422573821
0.0615,1.7196906243075814,1.0,2919.74688281884,0.4994325474120124,1.295776447848054,0.9802183978565853,0.2852800062209184,0.7210340972525109
0.062,1.7187499256628826,1.0,2924.080291118282,0.5022403002990394,1.2953135461619214,0.9804098745319608,0.2852404968778411,0.7219065990219092
0.0625,1.717809227018184,1.0,2928.398581269243,0.5050323095838005,1.2948508053440075,0.9805971700137285,0.28520098753476375,0.7227774317219074
0.063,1.7168685283734855,1.0,2932.701219026122,0.5078086757529358,1.2943882297234472,0.9807804072995036,0.28516147819168636,0.7236465886488994
0.0635,1.7159278297287868,1.0,2936.9882390359962,0.5105694821381513,1.293925818633226,0.980959703361684,0.2851219688486091,0.7245140725152674
0.064,1.714987131084088,1.0,2941.2596763483098,0.5133148120711536,1.2934635714063296,0.9811351709297444,0.2850824595055317,0.7253798860250067
0.0645,1.7140464324393894,1.0,2945.5155664134368,0.5160447488836485,1.2930014873757432,0.9813069186753968,0.28504295016245434,0.7262440318737315
0.065,1.7131057337946909,1.0,2949.755945079373,0.5187593759073423,1.2925395658744525,0.981475051388368,0.285003440819377,0.7271065127486827
0.0655,1.7121650351499922,1.0,2953.9808485898734,0.5214587764739412,1.2920778062354428,0.9816396701433382,0.28496393147629967,0.7279673313287345
0.066,1.7112243365052935,1.0,2958.1903135818516,0.5241430339151514,1.2916162077916995,0.9818008724585411,0.28492442213322233,0.7288264902844016
0.0665,1.7102836378605948,1.0,2962.3843770829876,0.526812231562679,1.2911547698762085,0.9819587524465008,0.284884912790145,0.7296839922778446
0.067,1.709342939215896,1.0,2966.5630765094543,0.5294664527482302,1.290693491821955,0.9821134009573501,0.28484540344706766,0.7305398399628793
0.0675,1.7084022405711976,1.0,2970.7264496633748,0.5321057808035112,1.2902323729619245,0.9822649057151399,0.28480589410399026,0.731394035984982
0.068,1.707461541926499,1.0,2974.874534730875,0.5347302990602283,1.2897714126291024,0.9824133514475358,0.284766384760913,0.7322465829812961
0.0685,1.7065208432818002,1.0,2979.007370278742,0.5373400908500874,1.2893106101564746,0.9825588200092609,0.2847268754178356,0.733097483580639
0.069,1.7055801446371017,1.0,2983.124995253626,0.5399352395047949,1.2888499648770262,0.9827013904996307,0.28468736607475825,0.73394674040351
0.0695,1.704639445992403,1.0,2987.227448978269,0.5425158283560569,1.2883894761237427,0.9828411393745009,0.2846478567316809,0.7347943560620959
0.07,1.7036987473477043,1.0,2991.314771149909,0.5450819407355796,1.2879291432296098,0.9829781405529292,0.2846083473886036,0.7356403331602769
0.07050000000000001,1.7027580487030056,1.0,2995.387001837932,0.5476336599750691,1.2874689655276128,0.9831124655188361,0.28456883804552624,0.7364846742936357
0.07100000000000001,1.701817350058307,1.0,2999.4441814813695,0.5501710694062316,1.2870089423507374,0.9832441834179301,0.2845293287024489,0.7373273820494615
0.07150000000000001,1.7008766514136084,1.0,3003.486330607707,0.5526942268483028,1.286549073207689,0.9833733596545495,0.28448981935937157,0.738168458685633
