Time [s],Phi [rad],STIM [ ],Fsee [N],Gamma [ ],Lcerel [ ],q [ ],Lmtc [m],fisomrel [ ]
0.0,1.8,1.0,19.264052212637687,0.0011630438497587147,1.3791969820596561,0.005346983709719153,0.288653,0.5414848494797475
0.0005,1.79999375,1.0,19.906511065941004,0.006765729402309615,1.3791252177150841,0.01644874101754051,0.2886527375,0.5416583842235015
0.001,1.799975,1.0,24.11120925710099,0.012336988306964962,1.3786906411956215,0.041866913678104356,0.28865195,0.5427085404044933
0.0015,1.79994375,1.0,35.564288475527114,0.01787699689004467,1.3776761726365352,0.07900272648053637,0.2886506375,0.5451553208629403
0.002,1.7999,1.0,61.8784730962389,0.02338593036967506,1.3758492850604718,0.12456201448566612,0.2886488,0.5495450093097329
0.0025,1.79984375,1.0,109.98216028173705,0.028863963100314763,1.3733345875016019,0.17521691535885223,0.28864643749999996,0.5555525694356148
0.003,1.7997750000000001,1.0,177.02330350016075,0.03431126839875875,1.3706273099502506,0.22821504340657892,0.28864354999999997,0.5619751183642885
0.0035,1.79969375,1.0,255.47452003871575,0.03972801862070929,1.3680466069037696,0.28145726184298536,0.2886401375,0.56805387482979
0.004,1.7996,1.0,340.18477482831094,0.04511438515456625,1.3656673379811626,0.33339388664875413,0.2886362,0.5736205291255427
0.0045000000000000005,1.7994937500000001,1.0,428.5131758011861,0.05047053843889178,1.3634762403035294,0.3829654951869878,0.2886317375,0.5787149959655962
0.005,1.799375,1.0,518.9452027083129,0.05579664793223917,1.3614472759553813,0.42952825851409315,0.28862675,0.583405187195263
0.0055,1.79924375,1.0,610.422529699392,0.06109288217330354,1.3595584057790897,0.4727593813031898,0.2886212375,0.587747936331631
0.006,1.7991000000000001,1.0,702.0982938529992,0.06635940869178521,1.3577930157612905,0.5125659799992786,0.2886152,0.5917862177054876
0.006500000000000001,1.79894375,1.0,793.2936296362003,0.07159639422716069,1.3561379241633882,0.5490086819260273,0.2886086375,0.5955541421319923
0.007,1.798775,1.0,883.4179020762386,0.07680400428854425,1.3545830420277074,0.582244116094571,0.28860155,0.5990780175586004
0.0075,1.79859375,1.0,972.0243814670704,0.0819824039506355,1.3531193144765872,0.6124822748286084,0.2885939375,0.6023812172945955
0.008,1.7984,1.0,1058.7206878890863,0.08713175680169584,1.3517394819412178,0.6399585310233968,0.2885858,0.6054825792210576
0.0085,1.79819375,1.0,1143.202263624981,0.09225222569922249,1.3504370110895527,0.6649142315174353,0.2885771375,0.6083989198297854
0.009000000000000001,1.797975,1.0,1225.261270441919,0.0973439731155782,1.3492056627070215,0.687584733614998,0.28856795,0.611146062287468
0.0095,1.79774375,1.0,1304.7155446005356,0.10240715974857559,1.3480402283276522,0.7081929681829345,0.2885582375,0.6137372431939914
0.01,1.7975,1.0,1381.4397185938922,0.10744194568362689,1.3469358570583925,0.7269454619747454,0.288548,0.6161846654565009
0.0105,1.79724375,1.0,1455.370076224572,0.11244849064655608,1.3458878499929148,0.7440307933898772,0.2885372375,0.6184999847808639
0.011,1.796975,1.0,1526.4601458219076,0.11742695305772605,1.3448920980044476,0.7596197088702163,0.28852595000000003,0.6206933696877885
0.0115,1.79669375,1.0,1594.6833769915481,0.12237748993800265,1.343944912152745,0.7738657107244844,0.2885141375,0.6227739075390325
0.012,1.7964,1.0,1660.049102732119,0.12730025776894943,1.343042736529036,0.7869060572952804,0.28850180000000003,0.6247502580187192
0.0125,1.79609375,1.0,1722.605839949233,0.13219541344442298,1.3421820492940988,0.7988630820239793,0.2884889375,0.626630883740086
0.013000000000000001,1.7957750000000001,1.0,1782.3889547017034,0.13706311156532816,1.34135990512167,0.8098458325485147,0.28847555,0.628422880023356
0.0135,1.79544375,1.0,1839.4362538732507,0.14190350530947893,1.3405736782158055,0.8199513313084932,0.2884616375,0.6301325564622352
0.014,1.7951000000000001,1.0,1893.8123588216529,0.14671674785468927,1.3398207427805608,0.8292657652893545,0.2884472,0.6317661440563389
0.0145,1.79474375,1.0,1945.5919136155248,0.15150299155563493,1.3390986285750346,0.8378657667203211,0.2884322375,0.6333294645999068
0.015,1.794375,1.0,1994.8683731947028,0.15626238916677224,1.3384048945157039,0.8458194740814067,0.28841675,0.6348282122698193
0.0155,1.79399375,1.0,2041.711759124853,0.16099509063491554,1.3377375506854874,0.8531876612270619,0.2884007375,0.6362670499265557
0.016,1.7936,1.0,2086.1923913783253,0.16570124490306268,1.3370947689222663,0.8600245096353709,0.2883842,0.6376502447871297
0.0165,1.7931937500000001,1.0,2128.3944500085295,0.1703810009142116,1.3364747210639225,0.866378339203624,0.2883671375,0.6389820219545777
0.017,1.792775,1.0,2168.4052437964237,0.17503450669782825,1.3358756762785364,0.8722923301025027,0.28834955,0.6402663586876143
0.0175,1.7923437500000001,1.0,2206.3206954667644,0.17966191098915815,1.3352959301526284,0.8778051101368891,0.2883314375,0.6415071403797314
0.018000000000000002,1.7919,1.0,2242.2185096895714,0.18426335983451955,1.3347340627975706,0.8829513548301312,0.2883128,0.6427076122545666
0.0185,1.79144375,1.0,2276.170649523923,0.18883899777457613,1.3341887949371307,0.8877622077369348,0.2882936375,0.6438706930435855
0.019,1.790975,1.0,2308.256347726317,0.19338896934999172,1.3336588472950757,0.8922656529355159,0.28827395,0.6449992781304892
0.0195,1.79049375,1.0,2338.561453831424,0.1979134190955999,1.3331429409892057,0.8964868768812959,0.2882537375,0.6460962400161435
0.02,1.79,1.0,2367.158446121338,0.20241248914884497,1.332639986985902,0.9004486278001227,0.288233,0.6471640276084788
0.0205,1.78949375,1.0,2394.143984971644,0.20688632521768793,1.3321487110228036,0.9041714064695836,0.2882117375,0.6482054648147005
0.021,1.788975,1.0,2419.5778330128705,0.21133506702029714,1.3316682439604344,0.9076738390921493,0.28818995000000003,0.6492224998348272
0.021500000000000002,1.78844375,1.0,2443.5235164212922,0.21575885427484087,1.3311977166593176,0.9109727967216624,0.2881676375,0.6502170678560406
0.022,1.7879,1.0,2466.0480162210806,0.2201578266994874,1.3307362599799777,0.9140835848551744,0.2881448,0.6511910916277315
0.0225,1.78734375,1.0,2487.221476335293,0.22453212401240516,1.330283004782938,0.9170201103740326,0.28812143749999997,0.6521464819883731
0.023,1.786775,1.0,2507.107440914041,0.2288818837754932,1.3298371719097475,0.9197950447973506,0.28809755,0.6530849490643484
0.0235,1.78619375,1.0,2525.7755867363167,0.2332072466598632,1.3293979477648197,0.9224199317868843,0.28807313749999996,0.6540082653326695
0.024,1.7856,1.0,2543.28137166077,0.23750834918542554,1.3289646744874313,0.9249053332535456,0.2880482,0.654917866515875
0.0245,1.78499375,1.0,2559.6746610811238,0.24178532584258586,1.3285367644739765,0.9272609137400245,0.2880227375,0.655815033128096
0.025,1.784375,1.0,2575.0069590517037,0.24603831112174976,1.3281136301208492,0.9294955185297636,0.28799675,0.6567010386763986
0.025500000000000002,1.78374375,1.0,2589.331268696506,0.25026743951332286,1.3276946838244432,0.9316172542730595,0.2879702375,0.6575771498507597
0.026000000000000002,1.7831000000000001,1.0,2602.7019602739833,0.2544728455077109,1.3272793379811527,0.9336335606951243,0.2879432,0.658444626692023
0.0265,1.78244375,1.0,2615.1634263947585,0.2586546603365957,1.3268671091830682,0.9355512895011107,0.2879156375,0.6593045055303068
0.027,1.781775,1.0,2626.7711231424623,0.2628130205622677,1.3264574210246498,0.9373767328253778,0.28788755,0.660158011026577
0.0275,1.7810937500000001,1.0,2637.570063622345,0.2669480584871692,1.3260498030739625,0.9391157015280666,0.2878589375,0.6610061413119588
0.028,1.7804,1.0,2647.5954230609136,0.27105990281156606,1.3256438833502602,0.9407735682753116,0.2878298,0.6618496850655681
0.0285,1.77969375,1.0,2656.883053312906,0.27514868223572436,1.3252392898727963,0.9423552943007033,0.2878001375,0.6626894270505077
0.029,1.778975,1.0,2665.469423831196,0.27921452545991,1.3248356506608243,0.9438654662593396,0.28776995,0.6635261481497414
0.029500000000000002,1.7782437500000001,1.0,2673.39156570498,0.28325756118438894,1.3244325937335983,0.9453083293386807,0.2877392375,0.6643606253931439
0.03,1.7775,1.0,2680.6870187658683,0.28727791810942716,1.3240297471103715,0.9466878170471422,0.287708,0.6651936319757293
0.0305,1.77674375,1.0,2687.3898149871843,0.2912757232056622,1.3236267751482607,0.9480075821949857,0.2876762375,0.6660258622676567
0.031,1.775975,1.0,2693.5302951636872,0.2952511026952363,1.3232233795843156,0.9492710211214261,0.28764395,0.6668579301342266
0.0315,1.7751937500000001,1.0,2699.150192855256,0.2992041877914906,1.322819161100815,0.9504812796930238,0.2876111375,0.6676906544201722
0.032,1.7744,1.0,2704.272682719818,0.30313510103307,1.3224138930139508,0.9516413033948314,0.2875778,0.6685244948711373
0.0325,1.77359375,1.0,2708.9211787078693,0.3070439649586194,1.322007348639914,0.9527538354002928,0.2875439375,0.669359908870832
0.033,1.772775,1.0,2713.1193115347537,0.3109309021067836,1.321599301294896,0.9538214329172793,0.28750955,0.6701973514242181
0.0335,1.7719437500000002,1.0,2716.8909072930805,0.3147960350162075,1.3211895242950873,0.9548464820270284,0.2874746375,0.6710372751374221
0.034,1.7711000000000001,1.0,2720.2599672036545,0.31863948622553606,1.3207777909566802,0.9558312111709413,0.2874392,0.6718801301943633
0.0345,1.7702437500000001,1.0,2723.2506485064173,0.322461378273414,1.3203638745958652,0.956777703422739,0.2874032375,0.6727263643301171
0.035,1.7693750000000001,1.0,2725.8730108440336,0.32626183186843144,1.3199476780113666,0.9576879211002826,0.28736675,0.6735761585941802
0.035500000000000004,1.76849375,1.0,2728.1499511601537,0.33004096725662224,1.3195289881717913,0.9585636892118388,0.2873297375,0.6744299289474212
0.036000000000000004,1.7676,1.0,2730.147264737446,0.3337989087422888,1.319107203144833,0.9594066789327362,0.2872922,0.6752888804243695
0.0365,1.76669375,1.0,2731.866279545121,0.33753577283181824,1.3186823080670946,0.9602185158265452,0.2872541375,0.6761530182558335
0.037,1.765775,1.0,2733.308368526397,0.341251676031598,1.3182542880751795,0.9610007255320551,0.28721555,0.6770223473270429
0.0375,1.76484375,1.0,2734.474948765752,0.3449467348480153,1.3178231283056914,0.96175474102043,0.2871764375,0.6778968721746941
0.038,1.7639,1.0,2735.3674806607073,0.34862106578745733,1.3173888138952334,0.9624819092485838,0.28713679999999997,0.6787765969839824
0.0385,1.7629495835217666,1.0,2736.277654366514,0.35227478535631135,1.316951329980409,0.9631834972650488,0.2870968825079142,0.6796615255856183
0.039,1.7619991598641003,1.0,2737.5384565605186,0.3559080100609646,1.3165106616978213,0.963860697818849,0.2870569647142922,0.6805516614528295
0.0395,1.761048736206434,1.0,2739.1546094036676,0.3595208545030884,1.3160667716400865,0.9645146321083782,0.2870170469206702,0.6814470531409869
0.04,1.760098312548768,1.0,2741.080140054032,0.36311343335303703,1.3156200796483486,0.9651463979477601,0.28697712912704826,0.6823468281976087
0.0405,1.7591478888911016,1.0,2743.2657441316387,0.36668586446948204,1.315171035704668,0.9657570337960152,0.28693721133342626,0.6832500582042312
0.041,1.7581974652334353,1.0,2745.6932397459254,0.37023825862350535,1.3147198073972868,0.9663474939119009,0.2868972935398043,0.6841563865810418
0.0415,1.757247041575769,1.0,2748.344445723524,0.3737707265861889,1.3142665623144476,0.9669186796041148,0.2868573757461823,0.6850654585811844
0.042,1.756296617918103,1.0,2751.2011738038623,0.3772833791286146,1.3138114680443929,0.9674714427200622,0.2868174579525603,0.6859769213132111
0.0425,1.7553461942604367,1.0,2754.2452214563905,0.38077632702186437,1.3133546921753647,0.9680065888706311,0.2867775401589383,0.6868904237617425
0.043000000000000003,1.7543957706027704,1.0,2757.4583653211344,0.3842496810370202,1.3128964022956058,0.9685248804134223,0.28673762236531636,0.6878056168063342
0.043500000000000004,1.7534453469451041,1.0,2760.822355271526,0.387703551945164,1.3124367659933585,0.969027039214766,0.28669770457169436,0.6887221532385567
0.044,1.752494923287438,1.0,2764.3215735858444,0.39113804855189027,1.3119759267907207,0.9695137470207127,0.2866577867780724,0.6896397356603026
0.0445,1.7515444996297718,1.0,2767.9423437934465,0.39455328020161534,1.3115140104184688,0.9699856488583484,0.2866178689844504,0.6905581036766648
0.045,1.7505940759721055,1.0,2771.668490813484,0.39794935864646197,1.311051164891893,0.9704433586464748,0.2865779511908284,0.6914769541434834
0.0455,1.7496436523144392,1.0,2775.491713291143,0.401326389204541,1.310587466912352,0.970887452780039,0.28653803339720646,0.692396126903599
0.046,1.7486932286567731,1.0,2779.4036915571237,0.4046844771939631,1.3101229931812048,0.971318478680799,0.28649811560358446,0.6933154626923801
0.0465,1.7477428049991068,1.0,2783.396086243716,0.40802372793283903,1.3096578203998102,0.9717369565331961,0.2864581978099625,0.6942348031417058
0.047,1.7467923813414405,1.0,2787.4605370302606,0.41134424673927944,1.3091920252695273,0.972143380900366,0.2864182800163405,0.6951539907835715
0.0475,1.7458419576837743,1.0,2791.588661520202,0.41464613893139507,1.3087256844917143,0.9725382222296234,0.2863783622227185,0.6960728690533242
0.048,1.7448915340261082,1.0,2795.7720542473176,0.4179295098272967,1.3082588747677308,0.9729219282559408,0.28633844442909656,0.6969912822925142
0.0485,1.743941110368442,1.0,2800.005436542572,0.4211944591353671,1.3077916445228583,0.9732949226609818,0.28629852663547456,0.6979091312561047
0.049,1.7429906867107756,1.0,2804.2822759515843,0.42444109128727614,1.307324053290862,0.9736576104328976,0.28625860884185256,0.6988262955002403
0.0495,1.7420402630531093,1.0,2808.591157136292,0.4276695206821412,1.306856204186833,0.9740103817024331,0.2862186910482306,0.6997425700001552
0.05,1.7410898393954433,1.0,2812.9290527587527,0.43087984622201275,1.3063881249101814,0.9743536016203331,0.2861787732546086,0.7006578983227776
0.0505,1.740139415737777,1.0,2817.292926318386,0.4340721668089411,1.3059198431603174,0.9746876185834854,0.2861388554609866,0.70157222436469
0.051000000000000004,1.7391889920801107,1.0,2821.6797320190276,0.4372465813449766,1.3054513866366515,0.9750127651536958,0.28609893766736466,0.702485492352509
0.051500000000000004,1.7382385684224444,1.0,2826.0864146529498,0.4404031887321697,1.304982783038594,0.9753293589182361,0.28605901987374266,0.7033976468432203
0.052000000000000005,1.7372881447647783,1.0,2830.5099095023356,0.4435420878725707,1.3045140600655554,0.9756377032963403,0.2860191020801207,0.7043086327244622
0.0525,1.736337721107112,1.0,2834.9471422571246,0.44666337766823,1.3040452454169458,0.9759380882954852,0.2859791842864987,0.7052183952147615
0.053,1.7353872974494458,1.0,2839.3950289505087,0.44976715702119796,1.3035763667921758,0.9762307912209928,0.2859392664928767,0.7061268798637192
0.0535,1.7344368737917795,1.0,2843.850475910999,0.452853524833525,1.3031074518906556,0.976516077342211,0.2858993486992547,0.7070340325521489
0.054,1.7334864501341134,1.0,2848.3103797316467,0.45592258000726144,1.3026385284117954,0.9767942005182817,0.28585943090563276,0.7079397994921649
0.0545,1.732536026476447,1.0,2852.7716272560624,0.45897442144445766,1.3021696240550058,0.9770654037862658,0.28581951311201076,0.7088441272272209
0.055,1.7315856028187808,1.0,2857.2343930720012,0.4620091312699716,1.3017007372243918,0.9773299165730254,0.2857795953183888,0.7097470189995487
0.0555,1.7306351791611145,1.0,2861.694567739266,0.46502682272463847,1.3012319043591931,0.9775879638973556,0.2857396775247668,0.7106484049621618
0.056,1.7296847555034485,1.0,2866.149636779467,0.4680275977368237,1.3007631476374497,0.9778397595248343,0.2856997597311448,0.711548243058717
0.0565,1.7287343318457822,1.0,2870.5988924976477,0.4710115476827367,1.300294473154292,0.9780855065348667,0.28565984193752286,0.7124465222990631
0.057,1.727783908188116,1.0,2875.0416251089323,0.4739787639385869,1.2998258870048507,0.9783253997399307,0.28561992414390086,0.7133432317657988
0.0575,1.7268334845304496,1.0,2879.477122750654,0.4769293378805836,1.2993573952842556,0.9785596260891798,0.2855800063502789,0.7142383606142408
0.058,1.7258830608727835,1.0,2883.9046714938986,0.47986336088493636,1.2988890040876377,0.9787883650492156,0.2855400885566569,0.7151318980723855
0.0585,1.7249326372151172,1.0,2888.3235553574837,0.48278092432785447,1.2984207195101272,0.9790117889634907,0.2855001707630349,0.7160238334408737
0.059000000000000004,1.723982213557451,1.0,2892.733056321519,0.4856821195855473,1.297952547646854,0.9792300633917029,0.2854602529694129,0.7169141560929502
0.059500000000000004,1.7230317898997847,1.0,2897.132454342159,0.48856703803422435,1.2974844945929491,0.9794433474304457,0.28542033517579096,0.7178028554744185
0.06,1.7220813662421186,1.0,2901.5210273673447,0.4914357710500949,1.2970165664435427,0.9796517940162819,0.28538041738216896,0.7186899211035989
0.0605,1.7211309425844523,1.0,2905.898051353579,0.49428841000936846,1.296548769293765,0.9798555502123436,0.285340499588547,0.7195753425712799
0.061,1.720180518926786,1.0,2910.262800282642,0.4971250462882544,1.2960811092387465,0.9800547574794628,0.285300581794925,0.7204591095406678
0.0615,1.7192300952691197,1.0,2914.614546180213,0.4999457712629621,1.2956135923736174,0.9802495519327891,0.285260664001303,0.7213412117473367
0.062,1.7182796716114537,1.0,2918.9525591345714,0.5027506763097009,1.2951462247935084,0.9804400645847706,0.28522074620768106,0.7222216389991704
0.0625,1.7173292479537874,1.0,2923.2776241064817,0.5055398128516955,1.2946789992712893,0.9806264179035286,0.28518082841405906,0.7231004062132382
0.063,1.716378824296121,1.0,2927.5885968276625,0.5083133042024776,1.2942119255347329,0.9808087360638558,0.2851409106204371,0.7239774964067118
0.0635,1.7154284006384548,1.0,2931.884599664489,0.511071259768371,1.2937450109457969,0.9809871375127657,0.2851009928268151,0.7248528971443039
0.064,1.7144779769807887,1.0,2936.1656548666942,0.5138137619023246,1.2932782549598232,0.9811617340347949,0.2850610750331931,0.7257266108664571
0.0645,1.7135275533231225,1.0,2940.431785032903,0.5165408929572874,1.2928116570321537,0.9813326333983312,0.2850211572395711,0.7265986400066466
0.065,1.7125771296654562,1.0,2944.68301310896,0.5192527352862081,1.2923452166181308,0.9814999395292577,0.28498123944594916,0.7274689869913844
0.0655,1.7116267060077899,1.0,2948.9193623855817,0.5219493712420356,1.2918789331730964,0.9816637526758815,0.28494132165232716,0.7283376542402268
0.066,1.7106762823501238,1.0,2953.140856497069,0.5246308831777186,1.2914128061523926,0.9818241695656392,0.2849014038587052,0.7292046441657782
0.0665,1.7097258586924575,1.0,2957.347519418838,0.5272973534462061,1.2909468350113618,0.9819812835540496,0.2848614860650832,0.7300699591736972
0.067,1.7087754350347912,1.0,2961.539375466077,0.5299488644004469,1.2904810192053455,0.9821351847663448,0.2848215682714612,0.730933601662703
0.0675,1.707825011377125,1.0,2965.7164492914626,0.5325854983933899,1.290015358189686,0.9822859602321946,0.2847816504778392,0.7317955740245794
0.068,1.7068745877194589,1.0,2969.8787658834863,0.5352073377779838,1.2895498514197257,0.9824336940138988,0.28474173268421726,0.7326558786441799
0.0685,1.7059241640617926,1.0,2974.026350564387,0.5378144649071775,1.2890844983508065,0.9825784673284159,0.2847018148905953,0.7335145178994341
0.069,1.7049737404041263,1.0,2978.1592289884284,0.54040696213392,1.2886192984382703,0.9827203586635589,0.2846618970969733,0.7343714941613542
0.0695,1.70402331674646,1.0,2982.277427140251,0.54298491181116,1.2881542511374593,0.9828594438886774,0.2846219793033513,0.7352268097940371
0.07,1.703072893088794,1.0,2986.380971332647,0.5455483962918465,1.2876893559037155,0.9829957963601255,0.2845820615097293,0.7360804671546726
0.07050000000000001,1.7021224694311277,1.0,2990.4698882050343,0.548097497928928,1.2872246121923812,0.983129487021789,0.28454214371610737,0.7369324685935468
0.07100000000000001,1.7011720457734614,1.0,2994.5442047212755,0.5506322990753537,1.2867600194587983,0.9832605845009427,0.28450222592248536,0.7377828164540486
0.07150000000000001,1.700221622115795,1.0,2998.603948168231,0.5531528820840723,1.286295577158309,0.9833891551996782,0.2844623081288634,0.7386315130726748
