Time [s],Phi [rad],STIM [ ],Fsee [N],Gamma [ ],Lcerel [ ],q [ ],Lmtc [m],fisomrel [ ]
0.0,1.8,1.0,17.965934992938788,1.0090877436177016e-05,1.37933988325852,0.0050000271364547925,0.288653,0.5411391995198102
0.0005,1.79999375,1.0,18.275410623495286,0.005619243584388887,1.3793025359206068,0.012940769281637489,0.2886527375,0.5412295479725663
0.001,1.799975,1.0,21.617164173884326,0.011196933379576623,1.3789384264532976,0.03560905991074434,0.28865195,0.5421099137662589
0.0015,1.79994375,1.0,31.068078511258715,0.01674333674592021,1.378046302344324,0.0706023700903422,0.2886506375,0.544263371440638
0.002,1.7999,1.0,53.58122888612278,0.02225862917468643,1.3763682068742893,0.11471862504969642,0.2886488,0.5483002960913016
0.0025,1.79984375,1.0,97.11779127303305,0.027742985173057504,1.3739352225007249,0.16457553004253794,0.28864643749999996,0.5541213309098643
0.003,1.7997750000000001,1.0,160.9572432108257,0.03319657827184308,1.3712143783279243,0.21728110795756478,0.28864354999999997,0.5605863690134334
0.0035,1.79969375,1.0,237.68260939106332,0.0386195810250748,1.36858475647736,0.2706135358441895,0.2886401375,0.5667897872848378
0.004,1.7996,1.0,321.4662348597655,0.04401216502078789,1.3661561066054548,0.32291642623913297,0.2886362,0.57247992855719
0.0045000000000000005,1.7994937500000001,1.0,409.2673854482665,0.049374500886205576,1.3639228227425262,0.37303509909758886,0.2886317375,0.5776791424971679
0.005,1.799375,1.0,499.41327656039755,0.05470675827883603,1.3618583471834516,0.4202480134480155,0.28862675,0.5824570681558057
0.0055,1.79924375,1.0,590.7903003090686,0.06000910593388983,1.3599388373205488,0.4641742097979052,0.2886212375,0.586875106467894
0.006,1.7991000000000001,1.0,682.5180929828042,0.06528171160754345,1.3581464150263338,0.5046804322727819,0.2886152,0.5909794177416615
0.006500000000000001,1.79894375,1.0,773.8815822088202,0.07052474213342685,1.3564672480804472,0.5418011878699063,0.2886086375,0.5948058069067378
0.007,1.798775,1.0,864.2861068999317,0.07573836339997947,1.3548903902199272,0.575677172267317,0.28860155,0.5983826879130989
0.0075,1.79859375,1.0,953.2430625480872,0.08092274037317043,1.353406781542329,0.6065102773747876,0.2885939375,0.6017335674741473
0.008,1.7984,1.0,1040.359116319081,0.08607803709656263,1.3520086366019948,0.6345323815791918,0.2885858,0.6048785706556274
0.0085,1.79819375,1.0,1125.3222614701226,0.09120441668342377,1.3506891277674158,0.6599846713434209,0.2885771375,0.607835254036126
0.009000000000000001,1.797975,1.0,1207.8878504238805,0.09630204132426777,1.3494422035279516,0.6831045623728661,0.28856795,0.6106190892650818
0.0095,1.79774375,1.0,1287.860141053597,0.10137107169404706,1.3482625481073527,0.704117955082986,0.2885582375,0.6132436147505544
0.01,1.7975,1.0,1365.163984236803,0.10641167003614169,1.3471444246731856,0.7232344774934737,0.288548,0.6157230498033257
0.0105,1.79724375,1.0,1439.6747831690866,0.11142399450832638,1.3460837550972589,0.7406467762594743,0.2885372375,0.618067711918943
0.011,1.796975,1.0,1511.3276939741681,0.11640820319843195,1.3450764867051177,0.7565292887121577,0.28852595000000003,0.6202876859797599
0.0115,1.79669375,1.0,1580.1140009331639,0.12136445419428926,1.3441185668223075,0.7710388236196447,0.2885141375,0.6223928953066362
0.012,1.7964,1.0,1646.0546810330538,0.12629290470660892,1.343206192226767,0.7843157630887821,0.28850180000000003,0.6243925689324089
0.0125,1.79609375,1.0,1709.1755817904623,0.13119371093948112,1.3423360163334472,0.7964854674560161,0.2884889375,0.6262948084213831
0.013000000000000001,1.7957750000000001,1.0,1769.4996528777624,0.13606702728244294,1.3415051506650628,0.8076596607938636,0.28847555,0.6281066073636248
0.0135,1.79544375,1.0,1827.0772571645343,0.14091300784948269,1.3407107536292417,0.8179376532571276,0.2884616375,0.629834765183017
0.014,1.7951000000000001,1.0,1881.9798333092936,0.145731806233318,1.3399500659430952,0.8274076984174807,0.2884472,0.6314858184479759
0.0145,1.79474375,1.0,1934.2895332927087,0.15052357595625138,1.3392204892350295,0.8361482644312687,0.2884322375,0.6330658790916686
0.015,1.794375,1.0,1984.0614349609186,0.15528846742220234,1.3385199539691524,0.8442292791603434,0.28841675,0.6345798493773054
0.0155,1.79399375,1.0,2031.3687477723638,0.1600266310350905,1.3378463906095721,0.85171294749246,0.2884007375,0.6360325776533304
0.016,1.7936,1.0,2076.300243784638,0.16473821710209166,1.337197740301763,0.8586546668263811,0.2883842,0.637428839079671
0.0165,1.7931937500000001,1.0,2118.9414357101427,0.16942337445963113,1.3365721335564864,0.8651038865755207,0.2883671375,0.6387729557182229
0.017,1.792775,1.0,2159.3956919017455,0.17408225331607255,1.3359676517799426,0.8711047432686304,0.28834955,0.6400693142776507
0.0175,1.7923437500000001,1.0,2197.7290652987863,0.17871499956835668,1.3353828766413733,0.8766968377622537,0.2883314375,0.6413211927798386
0.018000000000000002,1.7919,1.0,2234.0169535998007,0.18332175911342424,1.3348163898100216,0.8819156289463502,0.2883128,0.642531840288851
0.0185,1.79144375,1.0,2268.3433243372137,0.18790267784821596,1.3342667729551296,0.8867929175133439,0.2882936375,0.6437044786293489
0.019,1.790975,1.0,2300.7915389701175,0.19245790062480747,1.3337326913597463,0.891357289843804,0.28827395,0.6448421260133302
0.0195,1.79049375,1.0,2331.4526477353716,0.19698757309585274,1.3332128028379335,0.8956344651534508,0.2882537375,0.6459477934467106
0.02,1.79,1.0,2360.4053849998895,0.20149183891948647,1.3327059475660072,0.8996476634702796,0.288233,0.6470240830810117
0.0205,1.78949375,1.0,2387.713786309984,0.2059708391935162,1.3322111604612472,0.9034178865666663,0.2882117375,0.6480731660235697
0.021,1.788975,1.0,2413.4463300837547,0.21042471501574936,1.3317274764409335,0.9069641210855685,0.28818995000000003,0.649097198259343
0.021500000000000002,1.78844375,1.0,2437.6755689178394,0.2148536074839935,1.3312539304223456,0.9103035595273267,0.2881676375,0.6500983213639917
0.022,1.7879,1.0,2460.473140097175,0.21925765679638895,1.3307896017583905,0.9134518031239892,0.2881448,0.6510785694149409
0.0225,1.78734375,1.0,2481.9095443065517,0.2236370030620548,1.3303336122642213,0.9164230317642648,0.28812143749999997,0.6520398743892574
0.023,1.786775,1.0,2502.0568833942307,0.22799178671660017,1.3298850965777762,0.9192301480659966,0.28809755,0.6529841296424467
0.0235,1.78619375,1.0,2520.967616176493,0.23232214375973226,1.329443400353363,0.9218849448217364,0.28807313749999996,0.6539127741186663
0.024,1.7856,1.0,2538.6963119005613,0.23662821019115834,1.3290078692452902,0.9243981814787359,0.2880482,0.6548272384396492
0.0245,1.78499375,1.0,2555.2994741562725,0.24091012201058568,1.328577848907866,0.9267796889160868,0.2880227375,0.6557289451756367
0.025,1.784375,1.0,2570.835374281282,0.24516801521772147,1.328152684995398,0.9290384623288667,0.28799675,0.6566193090890023
0.025500000000000002,1.78374375,1.0,2585.354984839994,0.24940202368399106,1.327731806372345,0.9311827566374173,0.2879702375,0.6574995634308669
0.026000000000000002,1.7831000000000001,1.0,2598.916001522559,0.253612283902096,1.3273145920344458,0.9332201386207795,0.2879432,0.6583710390348352
0.0265,1.78244375,1.0,2611.57103357,0.25779893035164064,1.3269004803200355,0.9351575684313351,0.2879156375,0.6592349361177618
0.027,1.781775,1.0,2623.3588181969053,0.26196209352234173,1.3264890485496883,0.937001468327031,0.28788755,0.660092159365814
0.0275,1.7810937500000001,1.0,2634.3189797653076,0.26610190390391597,1.3260798740439783,0.9387577530439446,0.2878589375,0.6609436088758394
0.028,1.7804,1.0,2644.491953746948,0.27021849198608006,1.3256725341234796,0.9404318766142151,0.2878298,0.66179018022191
0.0285,1.77969375,1.0,2653.918914646558,0.2743119882585507,1.3252666061087668,0.9420288742983725,0.2878001375,0.662632764510473
0.029,1.778975,1.0,2662.641707886866,0.27838252321104456,1.3248616673204134,0.9435534001950014,0.28776995,0.6634722484241105
0.029500000000000002,1.7782437500000001,1.0,2670.6942465593756,0.2824302233322401,1.3244573735459422,0.9450097703120726,0.2877392375,0.6643093518866995
0.03,1.7775,1.0,2678.1221375778914,0.2864552220289371,1.3240532778454965,0.9464019715496934,0.287708,0.6651450035637418
0.0305,1.77674375,1.0,2684.956657623613,0.2904576460762857,1.3236490692807656,0.9477337168931571,0.2876762375,0.6659798467911167
0.031,1.775975,1.0,2691.2251406440646,0.29443762013536867,1.3232444765228026,0.9490084576189226,0.28764395,0.6668144400430462
0.0315,1.7751937500000001,1.0,2696.9552493363312,0.29839526886726875,1.3228392282426595,0.9502294009574481,0.2876111375,0.6676493389913392
0.032,1.7744,1.0,2702.174944314075,0.3023307169330685,1.3224330531113893,0.9513995303666054,0.2875778,0.6684850964963904
0.0325,1.77359375,1.0,2706.9124549076823,0.30624408899385086,1.322025679800044,0.9525216238859778,0.2875439375,0.6693222625934934
0.033,1.772775,1.0,2711.196251595624,0.31013550971069836,1.3216168369796766,0.9535982707743162,0.28750955,0.6701613844744521
0.0335,1.7719437500000002,1.0,2715.0491724163917,0.31400509961892353,1.3212063066155275,0.9546318915786751,0.2874746375,0.6710028972908537
0.034,1.7711000000000001,1.0,2718.4972200615534,0.31785298283584423,1.3207938434525086,0.9556247444294547,0.2874392,0.6718472895502787
0.0345,1.7702437500000001,1.0,2721.573123328628,0.32167928892747943,1.32037914250316,0.9565789346136176,0.2874032375,0.6726951691611607
0.035,1.7693750000000001,1.0,2724.293716879101,0.3254841358612402,1.319962044825134,0.9574964443086244,0.28736675,0.67354684270191
0.035500000000000004,1.76849375,1.0,2726.6759428084697,0.3292676416045376,1.3195423914760829,0.9583791292249103,0.2873297375,0.6744026149545466
0.036000000000000004,1.7676,1.0,2728.7368394785867,0.33302992412478266,1.3191200235136595,0.959228728125523,0.2872922,0.6752627888795963
0.0365,1.76669375,1.0,2730.4935309107054,0.3367711013893864,1.318694781995516,0.9600468715253658,0.2872541375,0.6761276655893833
0.037,1.765775,1.0,2731.9632167377845,0.34049129136575995,1.3182665079793046,0.9608350896491601,0.28721555,0.6769975443197043
0.0375,1.76484375,1.0,2733.163162718117,0.3441906120213144,1.3178350425226777,0.9615948197188596,0.2871764375,0.6778727223998969
0.038,1.7639,1.0,2734.1106918077608,0.3478691813234608,1.3174002266832878,0.9623274126338113,0.28713679999999997,0.678753495221293
0.0385,1.76294375,1.0,2734.823175794162,0.35152711723961005,1.3169619015187872,0.9630341391003807,0.28709663750000003,0.6796401562040646
0.039,1.761975,1.0,2735.309293171081,0.3551645313409115,1.3165199873940632,0.9637162013631922,0.28705595,0.6805328366711164
0.0395,1.7609937500000001,1.0,2735.5885667504745,0.3587815447152095,1.3160743065032676,0.9643747247780741,0.2870147375,0.6814318646954032
0.04,1.76,1.0,2735.6784062480256,0.362378274863464,1.315624700489562,0.965010771222547,0.286973,0.6823375269160532
0.0405,1.7589937500000001,1.0,2735.5882249108986,0.3659548328186822,1.3151710838005486,0.9656253476039013,0.2869307375,0.6832499615305727
0.041,1.757975,1.0,2735.3274537709267,0.36951132961387095,1.314713370883829,0.9662194043571447,0.28688795,0.6841693054430404
0.0415,1.75694375,1.0,2734.9055386253503,0.37304787628203734,1.3142514761870052,0.9667938391968647,0.2868446375,0.6850956942419901
0.042,1.7559,1.0,2734.331937180062,0.3765645838561884,1.3137853141576794,0.9673495005824078,0.28680079999999997,0.6860292621778267
0.0425,1.75484375,1.0,2733.6161163550346,0.3800615633693312,1.3133147992434535,0.9678871909210032,0.2867564375,0.6869701421397781
0.043000000000000003,1.753775,1.0,2732.767549751594,0.3835389258544728,1.3128398458919293,0.9684076695311237,0.28671155,0.6879184656323787
0.043500000000000004,1.75269375,1.0,2731.7957152827985,0.38699678234462015,1.3123603685507088,0.9689116553862733,0.28666613750000003,0.688874362751484
0.044,1.7516,1.0,2730.7100929651383,0.3904352438727802,1.311876281667394,0.9693998296575149,0.2866202,0.6898379621598227
0.0445,1.75049375,1.0,2729.5143789461804,0.393854413328208,1.3113875522631346,0.9698728409564551,0.2865737375,0.6908092866568036
0.045,1.7493750000000001,1.0,2728.2227956608567,0.39725440869557826,1.310894051689869,0.9703312993604661,0.28652675,0.6917885479077074
0.0455,1.74824375,1.0,2726.842364486789,0.40063533717610633,1.31039571671552,0.9707757872451419,0.2864792375,0.6927758260352637
0.046,1.7471,1.0,2725.378235900821,0.4039973032760159,1.3098925011045341,0.9712068585015503,0.2864312,0.6937711663239041
0.0465,1.7459437500000001,1.0,2723.83555896862,0.4073404115015307,1.309384358621358,0.9716250393645303,0.28638263750000004,0.6947746130116419
0.047,1.744775,1.0,2722.219480584356,0.4106647663588744,1.3088712430304383,0.9720308300528702,0.28633355,0.695786209275612
0.0475,1.74359375,1.0,2720.535144758927,0.4139704723542707,1.3083531080962214,0.9724247062972482,0.28628393750000003,0.6968059972174745
0.048,1.7424,1.0,2718.787691953511,0.41725763399394333,1.3078299075831543,0.9728071207645925,0.2862338,0.697834017848682
0.0485,1.74119375,1.0,2716.982258463045,0.42052635578411607,1.307301595255683,0.9731785043867879,0.2861831375,0.6988703110756135
0.049,1.739975,1.0,2715.123975844639,0.42377674223101247,1.3067681248782546,0.9735392676009763,0.28613195,0.6999149156845652
0.0495,1.73874375,1.0,2713.2178709537443,0.4270088971766771,1.3062294511219088,0.9738898014908736,0.2860802375,0.7009678675560411
0.05,1.7375,1.0,2711.2668804188465,0.4302229030741586,1.3056855476698233,0.9742304776791529,0.286028,0.7020291643679855
0.0505,1.73624375,1.0,2709.280544932664,0.43341889431210673,1.3051363279261579,0.9745616526090766,0.2859752375,0.7030989202160085
0.051000000000000004,1.734975,1.0,2707.261199346063,0.43659696791815933,1.3045817709427472,0.9748836664094469,0.28592195,0.7041771199278695
0.051500000000000004,1.73369375,1.0,2705.211175746654,0.43975722091995423,1.3040218557714258,0.9751968437909162,0.2858681375,0.7052637474913851
0.052000000000000005,1.7324,1.0,2703.1328033207683,0.44289975034512913,1.3034565614640279,0.975501494877457,0.2858138,0.7063587860472853
0.0525,1.73109375,1.0,2701.028408225105,0.4460246532213219,1.3028858670723882,0.9757979159859828,0.28575893750000003,0.7074622178820396
0.053,1.729775,1.0,2698.9003134678755,0.44913202657617035,1.302309751648341,0.976086390357772,0.28570355000000003,0.708574024420658
0.0535,1.72844375,1.0,2696.7508388000383,0.4522219674373123,1.301728194243721,0.9763671888450645,0.2856476375,0.7096941862194621
0.054,1.7271,1.0,2694.5823006159667,0.4552945728323855,1.3011411739103627,0.9766405705559361,0.2855912,0.7108226829588289
0.0545,1.7257437500000001,1.0,2692.3970118638836,0.45834993978902777,1.3005486697001003,0.97690678346032,0.2855342375,0.7119594934359057
0.055,1.724375,1.0,2690.1972819661487,0.4613881653348769,1.2999506606647686,0.9771660649598197,0.28547675,0.7131045955572985
0.0555,1.72299375,1.0,2687.9854167492845,0.4644093464975708,1.299347125856202,0.9774186424237663,0.2854187375,0.7142579663317321
0.056,1.7216,1.0,2685.763718383528,0.4674135803047471,1.2987380443262349,0.9776647336937757,0.2853602,0.7154195818626803
0.0565,1.72019375,1.0,2683.534485332343,0.4704009637840437,1.2981233951267017,0.9779045475589064,0.28530113749999997,0.716589417340971
0.057,1.718775,1.0,2681.2985401596056,0.4733715836793801,1.2975031708104827,0.9781382840534557,0.28524155,0.7177674214212652
0.0575,1.71734375,1.0,2679.0541480554834,0.4763255088767216,1.2968773873817419,0.978366134812086,0.2851814375,0.7189534976447423
0.058,1.7159,1.0,2676.810542123395,0.47926288672533335,1.2962459602011847,0.9785882849268919,0.2851208,0.7201477393637695
0.0585,1.71444375,1.0,2674.5683372726407,0.4821838050883042,1.2956088836241848,0.9788049112419456,0.2850596375,0.7213500890384668
0.059000000000000004,1.7129750000000001,1.0,2672.3281473819393,0.4850883518287229,1.2949661520061155,0.9790161835660347,0.28499795,0.7225604884269935
0.059500000000000004,1.71149375,1.0,2670.090585300736,0.4879766148096783,1.294317759702351,0.9792222650058178,0.2849357375,0.7237788785835115
0.06,1.71,1.0,2667.8562628503028,0.4908486818942592,1.2936637010682646,0.9794233122806895,0.284873,0.7250051998561511
0.0605,1.7084937500000001,1.0,2665.625790826553,0.49370464094555444,1.2930039704592298,0.9796194760204862,0.2848097375,0.7262393918849708
0.061,1.7069750000000001,1.0,2663.399779002593,0.4965445798266528,1.2923385622306205,0.9798109010470953,0.28474595,0.7274813935999159
0.0615,1.7054437500000001,1.0,2661.17883613259,0.4993685864006431,1.2916674707378102,0.9799977266409522,0.2846816375,0.7287311432187775
0.062,1.7039,1.0,2658.963569956513,0.5021767485306141,1.2909906903361728,0.980180086793347,0.2846168,0.7299885782451455
0.0625,1.70234375,1.0,2656.7545872046403,0.5049691540796548,1.2903082153810814,0.9803581104453929,0.2845514375,0.7312536354663637
0.063,1.7007750000000001,1.0,2654.5524936038373,0.5077458909108538,1.28962004022791,0.9805319217144615,0.28448555,0.7325262509514787
0.0635,1.69919375,1.0,2652.3578938841597,0.5105070468873,1.2889261592320325,0.9807016401088247,0.28441913750000003,0.7338063600491908
0.064,1.6976,1.0,2650.1713917853817,0.513252709872082,1.2882265667488222,0.9808673807312035,0.2843522,0.7350938973857997
0.0645,1.69599375,1.0,2647.9935900660403,0.515982967728289,1.2875212571336525,0.9810292544718727,0.2842847375,0.7363887968631508
0.065,1.694375,1.0,2645.82509051119,0.5186979083190096,1.2868102247418975,0.9811873681919286,0.28421675,0.7376909916565759
0.0655,1.69274375,1.0,2643.666493942079,0.5213976195073327,1.2860934639289308,0.9813418248972885,0.2841482375,0.7390004142128368
0.066,1.6911,1.0,2641.518400226319,0.524082189156347,1.2853709690501256,0.9814927239039556,0.2840792,0.740316996248062
0.0665,1.6894437500000001,1.0,2639.381408288623,0.5267517051291413,1.284642734460856,0.9816401609950428,0.2840096375,0.7416406687456845
0.067,1.687775,1.0,2637.2524259860234,0.5294062530519099,1.2839087886400091,0.981784230073177,0.28393955,0.7429713001688859
0.0675,1.68609375,1.0,2635.1350380846343,0.5320459120452373,1.2831690983450912,0.9819250183576457,0.2838689375,0.7443088703521303
0.068,1.6844000000000001,1.0,2633.0308949968403,0.5346707646537144,1.282423648182408,0.9820626111057369,0.2837978,0.7456533257249343
0.0685,1.68269375,1.0,2630.9389373713993,0.5372808936770281,1.2816724478222414,0.982197091831058,0.2837261375,0.747004566766029
0.069,1.680975,1.0,2628.854710407784,0.5398763818102151,1.280915538399569,0.9823285426614448,0.28365395,0.7483624371354601
0.0695,1.67924375,1.0,2626.7867587823307,0.5424573114444337,1.2801528406665041,0.9824570372850853,0.28358123749999997,0.7497269957477307
0.07,1.6775000137742566,1.0,2624.742319110751,0.5450237643811179,1.2793842935966446,0.9825826476780987,0.28350800057851877,0.7510982668734181
0.07050000000000001,1.6757506005931493,1.0,2623.0185176673053,0.547575821370509,1.2786102169814246,0.982705460906483,0.28343452522491225,0.7524755962804959
0.07100000000000001,1.674001187412042,1.0,2621.85699105906,0.5501135631628484,1.2778309306122786,0.9828255612468209,0.2833610498713057,0.7538583354436073
0.07150000000000001,1.6722517742309349,1.0,2621.2212439304844,0.5526370701408861,1.2770467695372774,0.9829430309773224,0.28328757451769926,0.7552458146969347
0.07200000000000001,1.6705023610498275,1.0,2621.061621371805,0.5551464226328834,1.2762581925670933,0.9830579554091852,0.28321409916409274,0.7566371525496263
0.0725,1.6687529478687204,1.0,2621.340750224619,0.5576416996166357,1.2754655459425295,0.9831704120941339,0.28314062381048627,0.7580316741026282
0.073,1.667003534687613,1.0,2622.023253486093,0.5601229798436665,1.2746691584002798,0.9832804754145377,0.28306714845687975,0.7594287417847002
0.0735,1.665254121506506,1.0,2623.078351553995,0.5625903409033992,1.2738693167938635,0.9833882155641184,0.2829936731032733,0.7608277975729032
0.074,1.6635047083253987,1.0,2624.4723244661263,0.5650438613843195,1.2730663357803813,0.983493701907547,0.28292019774966676,0.7622282406360843
0.0745,1.6617552951442915,1.0,2626.165000851514,0.5674836221113128,1.2722605901162662,0.9835970045205445,0.28284672239606024,0.7636293720329799
