Time [s],Phi [rad],STIM [ ],Fsee [N],Gamma [ ],Lcerel [ ],q [ ],Lmtc [m],fisomrel [ ]
0.0,1.8,1.0,17.967082477807022,2.0301630409530866e-05,1.3793397546995159,0.0050001092348246215,0.288653,0.5411395105373442
0.0005,1.79999375,1.0,18.279895691907726,0.005629397063116284,1.3793020377291967,0.012969139069425248,0.2886527375,0.541230753107395
0.001,1.799975,1.0,21.62920022810232,0.011207029905316246,1.3789371972839717,0.035662280371453664,0.28865195,0.5421128842939041
0.0015,1.79994375,1.0,31.09626862310934,0.01675337663813769,1.3780439011434231,0.0706752090295745,0.2886506375,0.5442691607406306
0.002,1.7999,1.0,53.64170288860155,0.022268612751038475,1.3763642846965758,0.11480488424234633,0.2886488,0.548309710474601
0.0025,1.79984375,1.0,97.21935419896056,0.027752912749446194,1.3739303296756993,0.16466937308323054,0.28864643749999996,0.5541329991984147
0.003,1.7997750000000001,1.0,161.0893853250568,0.03320645016237662,1.3712094331234026,0.21737792449005722,0.28864354999999997,0.5605980764037057
0.0035,1.79969375,1.0,237.83190133580925,0.03862939754210177,1.3685801586054378,0.270709834417498,0.2886401375,0.5668005952882345
0.004,1.7996,1.0,321.6250419518074,0.04402192647491257,1.3661519009279919,0.32300967264222624,0.2886362,0.5724897495115371
0.0045000000000000005,1.7994937500000001,1.0,409.4318064593147,0.04938420758630881,1.3639189635405222,0.37312361665686383,0.2886317375,0.5776880994119645
0.005,1.799375,1.0,499.5810081956909,0.054716410532110606,1.36185478319854,0.42033082996786053,0.28862675,0.5824652929730155
0.0055,1.79924375,1.0,590.9595272253507,0.06001870404551157,1.359935531273393,0.46425088576174706,0.2886212375,0.5868826955578457
0.006,1.7991000000000001,1.0,682.6875224018964,0.0652912558812904,1.3581433354415469,0.5047508973574907,0.2886152,0.5909864517818995
0.006500000000000001,1.79894375,1.0,774.0518600124304,0.07053423286840825,1.3564643414871034,0.5418655967052547,0.2886086375,0.594812414694406
0.007,1.798775,1.0,864.4571329399425,0.07574780090755798,1.3548876277384858,0.5757358404035869,0.28860155,0.5983889403002229
0.0075,1.79859375,1.0,953.412821810806,0.08093212493990695,1.3534041705854603,0.6065636207331918,0.2885939375,0.601739452209193
0.008,1.7984,1.0,1040.5266944684201,0.08608736902460383,1.3520061694515013,0.6345808381097033,0.2885858,0.6048841092732173
0.0085,1.79819375,1.0,1125.4849665667655,0.09121369626208597,1.3506868245529327,0.6600286970592057,0.2885771375,0.607840405245474
0.009000000000000001,1.797975,1.0,1208.0442291118088,0.09631126878567,1.3494400668573197,0.6831445853950261,0.28856795,0.6106238510036734
0.0095,1.79774375,1.0,1288.0311242620546,0.10138024804220824,1.3482602855891854,0.7041542203617434,0.2885582375,0.6132486399277393
0.01,1.7975,1.0,1365.3144721161134,0.10642079447863004,1.3471424905482636,0.7232675964397475,0.288548,0.615727331811061
0.0105,1.79724375,1.0,1439.8004210890708,0.1114330671931777,1.3460821826849234,0.7406770929884713,0.2885372375,0.6180711824873703
0.011,1.796975,1.0,1511.4441997323136,0.11641722484173919,1.3450750635669098,0.7565569966089848,0.28852595000000003,0.6202908179346085
0.0115,1.79669375,1.0,1580.241468035048,0.12137342584363672,1.3441170440585886,0.7710640812793322,0.2885141375,0.6223962372078427
0.012,1.7964,1.0,1646.1815554945504,0.12630182634721687,1.3432047072109048,0.7843388807548767,0.28850180000000003,0.6243958193503735
0.0125,1.79609375,1.0,1709.2852208756854,0.131202582121752,1.3423347569659598,0.7965067412901319,0.2884889375,0.6262975579497998
0.013000000000000001,1.7957750000000001,1.0,1769.6033031572856,0.13607584864556363,1.341503980556237,0.8076792246201966,0.28847555,0.6281091558171088
0.0135,1.79544375,1.0,1827.18257028045,0.14092178007727646,1.3407095836312222,0.8179556446825278,0.2884616375,0.6298373074675996
0.014,1.7951000000000001,1.0,1882.0700237573053,0.1457405284841613,1.3399490786746953,0.8274243381882866,0.2884472,0.6314879588910264
0.0145,1.79474375,1.0,1934.3559367415976,0.15053224781333735,1.33921977224429,0.8361637151795227,0.2884322375,0.6330674302249109
0.015,1.794375,1.0,1984.1370050166684,0.15529709152115087,1.3385191483024268,0.8442435370213576,0.28841675,0.634581588751912
0.0155,1.79399375,1.0,2031.4650318906913,0.16003520845246616,1.3378453761318683,0.8517260857338202,0.2884007375,0.6360347634767745
0.016,1.7936,1.0,2076.4072600266127,0.16474674745214754,1.3371966250153773,0.8586668212699159,0.2883842,0.6374312374943847
0.0165,1.7931937500000001,1.0,2119.045089554048,0.16943185736505928,1.336571064235717,0.8651151903247224,0.2883671375,0.6387752510179749
0.017,1.792775,1.0,2159.472870488562,0.1740906870360657,1.33596686307565,0.8711153392346455,0.28834955,0.6400710041935824
0.0175,1.7923437500000001,1.0,2197.787093160486,0.17872338456746767,1.3353822888353897,0.8767067673484082,0.2883314375,0.6413224500495385
0.018000000000000002,1.7919,1.0,2234.073010827038,0.18333009719807355,1.3348158265965504,0.8819249043808681,0.2883128,0.642533042922413
0.0185,1.79144375,1.0,2268.40653384655,0.1879109701485692,1.3342661427058213,0.8868015713240983,0.2882936375,0.6437058221956999
0.019,1.790975,1.0,2300.86114680293,0.1924661475923018,1.3337320022259165,0.891365375960419,0.28827395,0.6448435927623752
0.0195,1.79049375,1.0,2331.5169713920404,0.19699577370261856,1.33321217021955,0.8956420570537076,0.2882537375,0.645949137811153
0.02,1.79,1.0,2360.4500698457987,0.20149999129258103,1.332705510796522,0.8996548323682321,0.288233,0.6470250098393667
0.0205,1.78949375,1.0,2387.7509323161125,0.20597894515601112,1.3322107994616796,0.9034246405422696,0.2882117375,0.6480739308706367
0.021,1.788975,1.0,2413.488809095653,0.21043277653495904,1.3317270658200335,0.9069704663203894,0.28818995000000003,0.6490980669720381
0.021500000000000002,1.78844375,1.0,2437.7259075575785,0.21486162509045412,1.3312534462514722,0.9103095222551064,0.2881676375,0.6500993442172289
0.022,1.7879,1.0,2460.5279389253374,0.21926563048352568,1.330789077135885,0.9134574186339799,0.2881448,0.6510796761721604
0.0225,1.78734375,1.0,2481.9638247865637,0.2236449323752031,1.3303330948531604,0.916428334788746,0.28812143749999997,0.6520409644283576
0.023,1.786775,1.0,2502.0985321356834,0.22799966886375017,1.3298847011757744,0.9192351818421567,0.28809755,0.6529849615120218
0.0235,1.78619375,1.0,2521.001070800842,0.23232997976786904,1.3294430839373446,0.9218897213392045,0.28807313749999996,0.6539134389217212
0.024,1.7856,1.0,2538.732413484393,0.23663600291952427,1.3290075289885683,0.9244027017305747,0.2880482,0.6548279523878711
0.0245,1.78499375,1.0,2555.341980429471,0.24091787283166882,1.328577449590959,0.9267839649627412,0.2880227375,0.6557297819524898
0.025,1.784375,1.0,2570.8808574209775,0.24517572401725565,1.3281522590060297,0.9290425161237076,0.28799675,0.6566202006034425
0.025500000000000002,1.78374375,1.0,2585.4016549342273,0.24940969098923776,1.3277313704952936,0.9311866060292272,0.2879702375,0.6575004744683566
0.026000000000000002,1.7831000000000001,1.0,2598.9583749159474,0.2536199082605681,1.3273141973202636,0.9332238046521674,0.2879432,0.6583718629865802
0.0265,1.78244375,1.0,2611.5977571220374,0.25780650805076955,1.3269002319898409,0.9351610780883094,0.2879156375,0.659235453842437
0.027,1.781775,1.0,2623.370710177403,0.2619696252223327,1.3264889382911509,0.9370048308519976,0.28788755,0.6600923889461641
0.0275,1.7810937500000001,1.0,2634.327924522854,0.26610939360613534,1.3260797912838032,0.9387609628734194,0.2878589375,0.6609437809831358
0.028,1.7804,1.0,2644.5047292292134,0.2702259420128579,1.3256724161476523,0.940434934881972,0.2878298,0.6617904252568572
0.0285,1.77969375,1.0,2653.937144615349,0.27431939925318055,1.325266438062553,0.9420317882261768,0.2878001375,0.6626331131061844
0.029,1.778975,1.0,2662.661822167544,0.2783898941377838,1.32486148220836,0.9435561825410118,0.28776995,0.6634726319431997
0.029500000000000002,1.7782437500000001,1.0,2670.715987573807,0.2824375554773479,1.324457173764928,0.9450124295799249,0.2877392375,0.6643097652821279
0.03,1.7775,1.0,2678.137386872998,0.28646251208255313,1.3240531379121117,0.9464045236438072,0.287708,0.6651452927592919
0.0305,1.77674375,1.0,2684.960293663742,0.29046489132517433,1.3236490359575226,0.9477361732213064,0.2876762375,0.6659799155732342
0.031,1.775975,1.0,2691.2145993719246,0.2944448201640982,1.3232445730180256,0.9490108265710034,0.28764395,0.6668142411173289
0.0315,1.7751937500000001,1.0,2696.9395243590766,0.29840242801262273,1.3228393720367926,0.9502316786384882,0.2876111375,0.667649042930132
0.032,1.7744,1.0,2702.15955546867,0.3023378379035326,1.322433193695844,0.9514017164791946,0.2875778,0.6684848074078391
0.0325,1.77359375,1.0,2706.899430810906,0.3062511728696123,1.3220257986772008,0.9525237214512765,0.2875439375,0.6693220184512466
0.033,1.772775,1.0,2711.1841156297237,0.3101425559436463,1.3216169476628836,0.9536002858766661,0.28750955,0.6701611574490114
0.0335,1.7719437500000002,1.0,2715.038779440267,0.31401211015841934,1.3212064013349134,0.9546338281622588,0.2874746375,0.671002703257253
0.034,1.7711000000000001,1.0,2718.488774435846,0.31785995854671584,1.320793920375311,0.9556266065399259,0.2874392,0.671847132175506
0.0345,1.7702437500000001,1.0,2721.5592392465223,0.32168622331627156,1.3203792688880345,0.9565807317299653,0.2874032375,0.6726949109271956
0.035,1.7693750000000001,1.0,2724.2719943561374,0.32549102241382116,1.319962242463632,0.9574981804882008,0.28736675,0.6735464394057527
0.035500000000000004,1.76849375,1.0,2726.649521686035,0.3292744848132799,1.3195426317590195,0.9583808056617652,0.2873297375,0.6744021252822693
0.036000000000000004,1.7676,1.0,2728.708147643438,0.33303672750872343,1.3191202843487517,0.959230346338642,0.2872922,0.6752622580266959
0.0365,1.76669375,1.0,2730.4642822218916,0.3367778674942272,1.3186950478073836,0.9600484333465297,0.2872541375,0.6761271253286018
0.037,1.765775,1.0,2731.9344094294925,0.3404980217638669,1.3182667697094697,0.9608365972109274,0.28721555,0.6769970130698323
0.0375,1.76484375,1.0,2733.1350782328363,0.34419730731171805,1.3178352976295644,0.9615962754427607,0.2871764375,0.677872205295683
0.038,1.7639,1.0,2734.082894015164,0.34787584113185616,1.3174004791422225,0.962328819218834,0.28713679999999997,0.6787529841845905
0.0385,1.76294375,1.0,2734.7945105506187,0.35153374021835687,1.3169621618219989,0.9630354995118023,0.28709663750000003,0.6796396300163425
0.039,1.761975,1.0,2735.286622492669,0.35517112156529573,1.316520193243448,0.9637175127205345,0.28705595,0.6805324211388084
0.0395,1.7609937500000001,1.0,2735.558079226229,0.3587880806992317,1.3160745833155503,0.9643759965491998,0.2870147375,0.6814313067024913
0.04,1.76,1.0,2735.636203102508,0.36238475385905905,1.3156250836682564,0.9650120079198123,0.286973,0.6823367556103513
0.0405,1.7589937500000001,1.0,2735.5422422822717,0.36596126705929416,1.3151715013016587,0.9656265467546793,0.2869307375,0.6832491223445745
0.041,1.757975,1.0,2735.283986020189,0.36951772886377604,1.3147137655697265,0.9662205643900321,0.28688795,0.68416851326825
0.0415,1.75694375,1.0,2734.869237382672,0.3730542478363438,1.3142518058264288,0.9667949594037846,0.2868446375,0.6850950335932031
0.042,1.7559,1.0,2734.305810966557,0.3765709325408365,1.3137855514257342,0.9673505810824193,0.28680079999999997,0.6860287873611223
0.0425,1.75484375,1.0,2733.601530728577,0.3800678915410932,1.3133149317216117,0.9678882326258044,0.2867564375,0.686969877424368
0.043000000000000003,1.753775,1.0,2732.7642279249594,0.38354523340095303,1.3128398760680307,0.9684086741122179,0.28671155,0.6879184054264644
0.043500000000000004,1.75269375,1.0,2731.801739162636,0.387003066684255,1.3123603138189597,0.9689126252437683,0.28666613750000003,0.6888744717822737
0.044,1.7516,1.0,2730.721904559921,0.3904414999548381,1.311876174328368,0.9694007678905115,0.2866202,0.6898381756578489
0.0445,1.75049375,1.0,2729.5325660191265,0.3938606417765416,1.3113873869502246,0.9698737484498868,0.2865737375,0.6908096149499716
0.045,1.7493750000000001,1.0,2728.241565608717,0.39726060071320446,1.3108938810384985,0.9703321800365615,0.28652675,0.6917888862653698
0.0455,1.74824375,1.0,2726.8567440566103,0.4006414853286658,1.3103955859471583,0.9707766445164246,0.2864792375,0.6927760848996182
0.046,1.7471,1.0,2725.385939354332,0.4040034041867646,1.3098924310301734,0.9712076943972212,0.2864312,0.6937713048157182
0.0465,1.7459437500000001,1.0,2723.8369854714606,0.40734646585134004,1.3093843456415124,0.9716258545872185,0.28638263750000004,0.6947746386223634
0.047,1.744775,1.0,2722.2177111806664,0.4106707788862311,1.3088712591351448,0.9720316240322908,0.28633355,0.6957861775518821
0.0475,1.74359375,1.0,2720.5298575688066,0.41397643957771807,1.3083531562339221,0.97242547961627,0.28628393750000003,0.6968059025528649
0.048,1.7424,1.0,2718.782204303249,0.41726356319631375,1.3078299575620178,0.9728078730074731,0.2862338,0.6978339197301222
0.0485,1.74119375,1.0,2716.980449516382,0.42053225537178435,1.3073016117361616,0.9731792349050145,0.2861831375,0.6988702787766499
0.049,1.739975,1.0,2715.128057537942,0.4237826165354301,1.3067680876791274,0.9735399762886161,0.28613195,0.6999149884620255
0.0495,1.73874375,1.0,2713.22848956236,0.42701474711855125,1.3062293543136894,0.9738904887908767,0.2860802375,0.7009680566218779
0.05,1.7375,1.0,2711.2852033376807,0.4302287475524481,1.3056853805626212,0.9742311457801748,0.286028,0.702029490147594
0.0505,1.73624375,1.0,2709.3016528756866,0.4334247182684209,1.3051361353486972,0.9745623033735346,0.2859752375,0.7030992949759616
0.051000000000000004,1.734975,1.0,2707.2812881840982,0.43660275969776996,1.3045815875946911,0.974884301384572,0.28592195,0.7041774760787549
0.051500000000000004,1.73369375,1.0,2705.227555019462,0.43976297227179545,1.3040217062233772,0.9751974642112194,0.2858681375,0.705264037452253
0.052000000000000005,1.7324,1.0,2703.1438946619473,0.4429054564217977,1.3034564601575291,0.9755021016675518,0.2858138,0.7063589821067027
0.0525,1.73109375,1.0,2701.0337437113885,0.4460303125790769,1.3028858183199215,0.9757985097636949,0.28575893750000003,0.7074623120557129
0.053,1.729775,1.0,2698.900533904644,0.4491376411749334,1.3023097496333276,0.9760869714374735,0.28570355000000003,0.7085740283055957
0.0535,1.72844375,1.0,2696.7461733046052,0.4522275415467919,1.3017282369080505,0.9763677579882971,0.2856476375,0.7096941041210438
0.054,1.7271,1.0,2694.5720505654226,0.45530011079288263,1.3011412676812597,0.9766411290110384,0.2855912,0.710822502867742
0.0545,1.7257437500000001,1.0,2692.3844794977067,0.4583554473894211,1.3005487843969288,0.9769073303501455,0.2855342375,0.7119592735890574
0.055,1.724375,1.0,2690.185009118448,0.4613936464977963,1.2999507730323812,0.9771665996538882,0.28547675,0.7131043806035617
0.0555,1.72299375,1.0,2687.975186039757,0.4644148032793974,1.2993472195649405,0.9774191645330667,0.2854187375,0.7142577874322045
0.056,1.7216,1.0,2685.7565544345503,0.4674190128956134,1.2987381099719302,0.977665243065718,0.2853602,0.715419456793364
0.0565,1.72019375,1.0,2683.5306560065846,0.4704063705078333,1.2981234302306737,0.9779050442724303,0.28530113749999997,0.7165893505978848
0.057,1.718775,1.0,2681.299029965351,0.4733769712774462,1.2975031663184942,0.9781387685641996,0.28524155,0.7177674299441021
0.0575,1.71734375,1.0,2679.063110014704,0.4763309099782877,1.2968773051576221,0.9783666081840594,0.2851814375,0.7189536533238141
0.058,1.7159,1.0,2676.8248652196157,0.47926827951697604,1.2962458287347485,0.9785887471453956,0.2851208,0.7201479877463715
0.0585,1.71444375,1.0,2674.5853113782628,0.48218917272955236,1.2956087277598538,0.9788053625497494,0.2850596375,0.7213503828832929
0.059000000000000004,1.7129750000000001,1.0,2672.345398355182,0.48509368204222575,1.2949659935330768,0.9790166244397396,0.28499795,0.7225607865403216
0.059500000000000004,1.71149375,1.0,2670.1062003859915,0.48798189935638936,1.2943176161969965,0.9792226960297862,0.2849357375,0.7237791479468032
0.06,1.7100056028386752,1.0,2668.132398903953,0.49085391603100215,1.2936636926435858,0.9794237398826933,0.28487323531922437,0.7250052156343545
0.0605,1.7085174379967594,1.0,2666.729144024214,0.4937098227995492,1.2930045208027359,0.9796199230178997,0.2848107323958639,0.7262383634858391
0.061,1.7070292731548435,1.0,2665.8478148673994,0.496549710636426,1.292340551711293,0.9798114142494746,0.28474822947250344,0.7274776843913804
0.0615,1.7055411083129277,1.0,2665.449638727489,0.49937366880082273,1.2916721396275614,0.979998370774689,0.284685726549143,0.7287224584345673
0.062,1.7040529434710119,1.0,2665.495992963185,0.5021817865519297,1.2909996388098464,0.9801809439066186,0.2846232236257825,0.7299719713410043
0.0625,1.702564778629096,1.0,2665.9565027671383,0.5049741509520782,1.2903233287305338,0.980359275296277,0.284560720702422,0.7312256530447143
0.063,1.7010766137871802,1.0,2666.7863781516076,0.5077508534036471,1.2896436222581016,0.9805335085821592,0.2844982177790616,0.7324826915982339
0.0635,1.6995884489452644,1.0,2667.9508171204984,0.5105119831146557,1.2889608409417608,0.9807037773582215,0.28443571485570107,0.7337424502622144
0.064,1.6981002841033486,1.0,2669.42783736826,0.5132576258554411,1.2882751888403872,0.9808702041942311,0.28437321193234066,0.7350045137086707
0.0645,1.6966121192614327,1.0,2671.195489524273,0.5159878673963405,1.2875868700128565,0.9810329072628101,0.28431070900898014,0.7362684700134194
0.065,1.695123954419517,1.0,2673.231844627362,0.5187027935076908,1.2868960885180445,0.9811920005346457,0.28424820608561974,0.7375339106921122
0.0655,1.6936357895776013,1.0,2675.514982521442,0.5214024899598292,1.2862030484148268,0.9813475939637233,0.2841857031622592,0.7388004307336107
0.066,1.6921476247356855,1.0,2678.0229811760832,0.5240870425230927,1.285507953762079,0.9814997936631661,0.2841232002388988,0.7400676286307096
0.0665,1.6906594598937696,1.0,2680.7339069286677,0.5267565369678185,1.2848110086186768,0.9816487020722094,0.2840606973155383,0.7413351064082017
0.067,1.6891712950518538,1.0,2683.6337041304055,0.5294110553033577,1.2841123446383327,0.981794414355427,0.2839981943921779,0.7426026008421852
0.0675,1.687683130209938,1.0,2686.6989979621717,0.5320506861848096,1.28341217875963,0.9819370269687611,0.28393569146881736,0.7438696968454067
0.068,1.6861949653680222,1.0,2689.9153009429265,0.5346755133396088,1.2827106462030191,0.982076628892049,0.28387318854545696,0.7451361304957633
0.0685,1.6847068005261063,1.0,2693.2723704307436,0.5372856181884138,1.2820078431446071,0.9822133041165404,0.28381068562209644,0.7464017104748937
0.069,1.6832186356841905,1.0,2696.7599488733963,0.5398810821518822,1.2813038657605011,0.982347133828079,0.28374818269873603,0.7476662471562435
0.0695,1.6817304708422747,1.0,2700.367761200418,0.5424619866506724,1.2805988102268082,0.9824781965225114,0.2836856797753755,0.7489295526125628
0.07,1.6802423060003588,1.0,2704.085512422819,0.545028413105442,1.2798927727196354,0.9826065681156134,0.2836231768520151,0.7501914406228141
0.07050000000000001,1.678754141158443,1.0,2707.902885435472,0.5475804429368494,1.2791858494150898,0.9827323220478329,0.2835606739286546,0.751451726678491
0.07100000000000001,1.6772659763165272,1.0,2711.809539026638,0.5501181575655523,1.2784781364892785,0.9828555293841263,0.2834981710052941,0.7527102279893455
0.07150000000000001,1.6757778114746116,1.0,2715.796615785388,0.5526416366054162,1.2777697163611785,0.982976258173873,0.28343566808193366,0.7539667878591532
0.07200000000000001,1.6742896466326957,1.0,2719.860115452782,0.5551509554872197,1.2770606270127767,0.9830945720382936,0.28337316515857325,0.7552213295895633
0.0725,1.67280148179078,1.0,2723.9839811048096,0.5576462055110962,1.2763510160420806,0.9832105384402947,0.28331066223521273,0.7564735839684622
0.073,1.671313316948864,1.0,2728.164132186566,0.5601274631307952,1.2756409217329334,0.9833242169872972,0.2832481593118523,0.7577234766142183
0.0735,1.6698251521069483,1.0,2732.396476873274,0.5625948048000659,1.2749303823691778,0.9834356654209031,0.2831856563884918,0.7589709338339851
