Time [s],Phi [rad],STIM [ ],Fsee [N],Gamma [ ],Lcerel [ ],q [ ],Lmtc [m],fisomrel [ ]
0.0,1.8,1.0,17.98513051357079,0.00013508979049593034,1.3793377332191918,0.00500476480227223,0.288653,0.5411444010080524
0.0005,1.79999375,1.0,18.33565185911499,0.005743541352428844,1.3792958495533394,0.013291434677962299,0.2886527375,0.5412457222946765
0.001,1.799975,1.0,21.770209982958278,0.011320533935422851,1.378922822206538,0.03626338514642646,0.28865195,0.5421476237596698
0.0015,1.79994375,1.0,31.420492123833178,0.016866244000421967,1.3780163620212307,0.07149611437340986,0.2886506375,0.5443355549879907
0.002,1.7999,1.0,54.331025387289785,0.022380847016571406,1.3763197324093774,0.11577587473492484,0.2886488,0.5484166422172658
0.0025,1.79984375,1.0,98.37026910537081,0.027864517469562228,1.3738750615717839,0.16572497045696324,0.28864643749999996,0.5542647906080831
0.003,1.7997750000000001,1.0,162.5818916364414,0.033317428868238366,1.3711537187018459,0.21846645923526203,0.28864354999999997,0.560729965222548
0.0035,1.79969375,1.0,239.51546089309664,0.03873975374510659,1.3685284081385665,0.27179218150071566,0.2886401375,0.5669222334019586
0.004,1.7996,1.0,323.4144983900626,0.04413166366683913,1.3661045824512417,0.32405745429931304,0.2886362,0.572600238227685
0.0045000000000000005,1.7994937500000001,1.0,411.28366405532284,0.049493329239544526,1.363875551127161,0.37411807978202716,0.2886317375,0.5777888497828599
0.005,1.799375,1.0,501.469721625306,0.054824920100494,1.361814692779636,0.42126111808774486,0.28862675,0.582557806405541
0.0055,1.79924375,1.0,592.8640711243569,0.060126604958868415,1.3598983563564093,0.4651121214009223,0.2886212375,0.5869680264411832
0.006,1.7991000000000001,1.0,684.5930272517646,0.06539855155520381,1.358108726866209,0.5055423305908211,0.2886152,0.5910654966271137
0.006500000000000001,1.79894375,1.0,775.9434281439615,0.07064092668964642,1.356432074437528,0.5425892297922156,0.2886086375,0.5948857663015322
0.007,1.798775,1.0,866.3246114685285,0.07585389627642783,1.3548574812381067,0.5763952915332787,0.28860155,0.5984571683971517
0.0075,1.79859375,1.0,955.2437861373652,0.08103762512736287,1.3533760244736486,0.6071634320580521,0.2885939375,0.601802886885202
0.008,1.7984,1.0,1042.3206733884851,0.0861922774746344,1.3519797702355354,0.6351258229213993,0.2885858,0.6049433716356496
0.0085,1.79819375,1.0,1127.2367360066937,0.09131801636897878,1.3506620374606935,0.6605237648486693,0.2885771375,0.6078958401910561
0.009000000000000001,1.797975,1.0,1209.7430910099224,0.09641500372848753,1.349416863467781,0.6835945241080013,0.28856795,0.6106755597077107
0.0095,1.79774375,1.0,1289.6717981685097,0.10148340087235964,1.3482385831655375,0.7045634874398273,0.2885582375,0.6132968405448311
0.01,1.7975,1.0,1366.911052876474,0.1065233688664438,1.3471219772727165,0.7236401793772205,0.288548,0.6157727451985959
0.0105,1.79724375,1.0,1441.3507946370053,0.11153506638041101,1.3460627847402964,0.7410167380419472,0.2885372375,0.6181139955924467
0.011,1.796975,1.0,1512.941473997879,0.11651865198827518,1.3450567789795695,0.7568671161380616,0.28852595000000003,0.6203310563783306
0.0115,1.79669375,1.0,1581.6718302076044,0.12147428341066523,1.3440999606934063,0.7713477729107728,0.2885141375,0.6224337278405492
0.012,1.7964,1.0,1647.5620413856032,0.12640211845906854,1.3431885528618122,0.7845987551852945,0.28850180000000003,0.6244311772468596
0.0125,1.79609375,1.0,1710.6164931134197,0.13130231207464124,1.3423194685515225,0.796745210163731,0.2884889375,0.626330935748097
0.013000000000000001,1.7957750000000001,1.0,1770.8726553422612,0.13617501904468338,1.3414896536079617,0.8078984949295618,0.28847555,0.6281403586693697
0.0135,1.79544375,1.0,1828.3902980948928,0.14102039353346255,1.3406961685369936,0.8181576205327643,0.2884616375,0.6298664564547591
0.014,1.7951000000000001,1.0,1883.2450824854704,0.14583859001931895,1.3399362180729222,0.8276106011609735,0.2884472,0.6315158406960417
0.0145,1.79474375,1.0,1935.5003878681068,0.1506297608238571,1.3392074169751307,0.8363357785082159,0.2884322375,0.6330941590212367
0.015,1.794375,1.0,1985.2162016524774,0.1553940565431344,1.3385076444556145,0.8444028773970756,0.28841675,0.6346064242509926
0.0155,1.79399375,1.0,2032.470873540827,0.16013162777320838,1.3378347797263694,0.8518739241367428,0.2884007375,0.6360575944108273
0.016,1.7936,1.0,2077.353534010525,0.16484262457551735,1.33718676452446,0.8588041750259242,0.2883842,0.6374524420584389
0.0165,1.7931937500000001,1.0,2119.9567133697806,0.1695271968293945,1.3365616608069253,0.8652429357985978,0.2883671375,0.6387954351877685
0.017,1.792775,1.0,2160.3677438602404,0.17418549340305545,1.335957719204413,0.8712342835452925,0.28834955,0.6400905960043648
0.0175,1.7923437500000001,1.0,2198.6555359940344,0.17881766039554883,1.3353734926796814,0.8768177112795648,0.2883314375,0.6413412640555858
0.018000000000000002,1.7919,1.0,2234.898443605852,0.18342384390592317,1.334807534195488,0.8820285828422935,0.2883128,0.6425507495087284
0.0185,1.79144375,1.0,2269.183473432569,0.18800419003322696,1.3342583967145911,0.886898615089468,0.2882936375,0.6437223349036704
0.019,1.790975,1.0,2301.59104118379,0.19255884323960099,1.3337247767284235,0.8914563349747219,0.28827395,0.6448589712932522
0.0195,1.79049375,1.0,2332.217924616782,0.19708795007097382,1.3332052769622817,0.8957273890118491,0.2882537375,0.6459637863663557
0.02,1.79,1.0,2361.1337016586313,0.20159165290751277,1.3326988291916126,0.8997349656827756,0.288233,0.6470391870361294
0.0205,1.78949375,1.0,2388.404713668687,0.20607009307805746,1.3322044462156957,0.9035000136385207,0.2882117375,0.6480873913090657
0.021,1.788975,1.0,2414.1017945718563,0.21052341191144744,1.3317211408338112,0.9070414723284205,0.28818995000000003,0.6491106017981977
0.021500000000000002,1.78844375,1.0,2438.2998940317043,0.21495175073652234,1.331247925845239,0.910376492270795,0.2881676375,0.6501110064516169
0.022,1.7879,1.0,2461.0677644714883,0.21935524907882895,1.3307839093698641,0.9135206472070277,0.2881448,0.6510905781313441
0.0225,1.78734375,1.0,2482.4828429979866,0.22373404884514556,1.3303281477661548,0.9164880751302331,0.28812143749999997,0.6520513864584866
0.023,1.786775,1.0,2502.6065607033197,0.22808828838325057,1.3298798783534211,0.9192916715248055,0.28809755,0.6529951079640691
0.0235,1.78619375,1.0,2521.492393970208,0.23241810393867662,1.3294384372125798,0.9219432027835865,0.28807313749999996,0.6539232018078225
0.024,1.7856,1.0,2539.195945369084,0.23672363175695632,1.3290031604245467,0.9244534046539292,0.2880482,0.6548371187202169
0.0245,1.78499375,1.0,2555.7747649341895,0.24100500808362227,1.3285733840702387,0.9268320867089044,0.2880227375,0.6557383012775235
0.025,1.784375,1.0,2571.28818121306,0.2452623691642071,1.3281484442305722,0.9290882249629507,0.28799675,0.6566281841487724
0.025500000000000002,1.78374375,1.0,2585.7857026763018,0.24949584778410216,1.327727783816741,0.9312300603384347,0.2879702375,0.6575079710285954
0.026000000000000002,1.7831000000000001,1.0,2599.331530246126,0.2537055828756838,1.32731072146425,0.9332651365107298,0.2879432,0.6583791186688523
0.0265,1.78244375,1.0,2611.96816616704,0.2578917063618009,1.326896790072635,0.9352004151366614,0.2879156375,0.6592426295924989
0.027,1.781775,1.0,2623.7355132074,0.2620543489779929,1.326485556078693,0.9370423046252062,0.28788755,0.6600994313519981
0.0275,1.7810937500000001,1.0,2634.674373474488,0.26619364145979896,1.3260765859192227,0.9387967071538685,0.2878589375,0.6609504467961218
0.028,1.7804,1.0,2644.8263703036673,0.27030971454275826,1.3256694460310219,0.9404690653522578,0.2878298,0.6617965941385437
0.0285,1.77969375,1.0,2654.2338743150144,0.27440269896241004,1.3252637028508885,0.9420644041153182,0.2878001375,0.6626387870144418
0.029,1.778975,1.0,2662.9386562859495,0.2784727247910485,1.3248589345704762,0.9435873695051339,0.28776995,0.663477910171349
0.029500000000000002,1.7782437500000001,1.0,2670.9747287201203,0.2825199180979266,1.3244547962212478,0.9450422699821939,0.2877392375,0.6643146849777696
0.03,1.7775,1.0,2678.391142542745,0.2865444146449244,1.3240508094111616,0.9464330824418479,0.287708,0.6651501049743974
0.0305,1.77674375,1.0,2685.21467075738,0.2905463390975925,1.3236467047219618,0.9477635187140242,0.2876762375,0.6659847274318089
0.031,1.775975,1.0,2691.4724458477763,0.2945258161214812,1.3232422127353922,0.9490370246597196,0.28764395,0.6668191068428808
0.0315,1.7751937500000001,1.0,2697.1919275655664,0.2984829703821411,1.3228370640331975,0.9502568025444923,0.2876111375,0.6676537949184476
0.032,1.7744,1.0,2702.4008723277652,0.3024179265451227,1.3224309891971213,0.9514258312690732,0.2875778,0.668489340578335
0.0325,1.77359375,1.0,2707.1273042234457,0.30633080927597633,1.3220237188089083,0.9525468846854143,0.2875439375,0.6693262899377588
0.033,1.772775,1.0,2711.399487629566,0.3102217432402526,1.3216149834503024,0.9536225481999032,0.28750955,0.6701651862890999
0.0335,1.7719437500000002,1.0,2715.2440314460773,0.31409085117101637,1.3212045307451141,0.9546552352623845,0.2874746375,0.6710065351684026
0.034,1.7711000000000001,1.0,2718.6827264390818,0.3179382513147976,1.3207921538895968,0.9556472034649259,0.2874392,0.6718507461826315
0.0345,1.7702437500000001,1.0,2721.7493583854102,0.321764077980807,1.320377538287887,0.9566005551155464,0.2874032375,0.6726984469406679
0.035,1.7693750000000001,1.0,2724.460767707608,0.32556844892780984,1.3199605249693167,0.9575172693745855,0.28736675,0.673549944073212
0.035500000000000004,1.76849375,1.0,2726.833902106453,0.32935148191457164,1.3195409549632167,0.9583991991666558,0.2873297375,0.6744055424145265
0.036000000000000004,1.7676,1.0,2728.885805395173,0.3331132946998579,1.3191186692989183,0.9592480806800244,0.2872922,0.6752655449773203
0.0365,1.76669375,1.0,2730.6336068936703,0.33685400504243396,1.318693509005753,0.9600655420475788,0.2872541375,0.6761302529260206
0.037,1.765775,1.0,2732.0945113835296,0.3405737307010653,1.318265315113052,0.9608531112882854,0.28721555,0.6769999655484369
0.0375,1.76484375,1.0,2733.2857896229634,0.34427258943451733,1.3178339286501464,0.9616122235796752,0.2871764375,0.6778749802258088
0.038,1.7639,1.0,2734.2247694221783,0.34795069900155556,1.3173991906463676,0.9623442279244911,0.28713679999999997,0.6787555924012463
0.0385,1.76294375,1.0,2734.9288272794056,0.3516081771609453,1.3169609421310469,0.9630503932680687,0.28709663750000003,0.6796420955465534
0.039,1.761975,1.0,2735.4111606538972,0.3552451370267564,1.316519062449532,0.9637319167592177,0.28705595,0.6805347037821087
0.0395,1.7609937500000001,1.0,2735.679167397753,0.3588616879903505,1.3160734839013972,0.9643899302450792,0.2870147375,0.6814335228776569
0.04,1.76,1.0,2735.7620067286093,0.36245796388386664,1.3156239414571647,0.9650254875264945,0.286973,0.6823390547801158
0.0405,1.7589937500000001,1.0,2735.6682370378667,0.3660340745684078,1.3151703573356164,0.9656395947683969,0.2869307375,0.683251421737691
0.041,1.757975,1.0,2735.406433797836,0.369590129905077,1.314712653755534,0.9662332017236624,0.28688795,0.684170744790017
0.0415,1.75694375,1.0,2734.985186863883,0.3731262397549774,1.3142507529356995,0.96680720547976,0.2868446375,0.6850971437479144
0.042,1.7559,1.0,2734.4130979102147,0.37664251397921183,1.313784577094895,0.9673624539192356,0.28680079999999997,0.6860307371727611
0.0425,1.75484375,1.0,2733.6987780002987,0.3801390624388835,1.3133140484519021,0.9678997489186065,0.2867564375,0.6869716423554819
0.043000000000000003,1.753775,1.0,2732.850845290364,0.38361599499509536,1.312839089225503,0.9684198493079003,0.28671155,0.6879199752951459
0.043500000000000004,1.75269375,1.0,2731.8779228687113,0.38707342150895047,1.3123596216344797,0.9689234736109942,0.28666613750000003,0.6888758506771833
0.044,1.7516,1.0,2730.7886367272586,0.39051145184155184,1.3118755678976137,0.9694113025850223,0.2866202,0.6898393818512147
0.0445,1.75049375,1.0,2729.59161386896,0.3939301958540026,1.3113868502336872,0.9698839815754416,0.2865737375,0.6908106808084926
0.045,1.7493750000000001,1.0,2728.295480548243,0.39732976340740567,1.310893390861482,0.9703421227018235,0.28652675,0.6917898581589599
0.0455,1.74824375,1.0,2726.908860645619,0.4007102643628641,1.3103951119997799,0.9707863068880795,0.2864792375,0.6927770231079213
0.046,1.7471,1.0,2725.433457748505,0.4040717912662364,1.3098919987819317,0.9712170880490941,0.2864312,0.6937721590910052
0.0465,1.7459437500000001,1.0,2723.8841217246368,0.40741447187233076,1.3093839167474828,0.9716349884604399,0.28638263750000004,0.6947754848787839
0.047,1.744775,1.0,2722.265768058152,0.41073841022428625,1.3088708217343348,0.9720405079105221,0.28633355,0.695787039161852
0.0475,1.74359375,1.0,2720.5824743502317,0.4140437082677857,1.308352677181756,0.9724341220014077,0.28628393750000003,0.6968068446264152
0.048,1.7424,1.0,2718.838315692366,0.4173304679485121,1.3078294465290143,0.97281628329257,0.2862338,0.6978349229899258
0.0485,1.74119375,1.0,2717.037364199438,0.42059879121214827,1.3073010932153777,0.9731874226276522,0.2861831375,0.6988712949892658
0.049,1.739975,1.0,2715.183688570316,0.4238487800043772,1.306767580680114,0.9735479503730171,0.28613195,0.6999159803688448
0.0495,1.73874375,1.0,2713.281353679784,0.4270805362708818,1.3062288723624913,0.9738982575747107,0.2860802375,0.7009689978686129
0.05,1.7375,1.0,2711.3344201992563,0.43029416195734504,1.3056849317017774,0.9742387170399022,0.286028,0.7020303652119889
0.0505,1.73624375,1.0,2709.3469442471987,0.4334897590094497,1.3051357221372404,0.9745696843483687,0.2859752375,0.7031000990937016
0.051000000000000004,1.734975,1.0,2707.3229770696694,0.43666742937287883,1.3045812071081482,0.974891498799137,0.28592195,0.7041782151675489
0.051500000000000004,1.73369375,1.0,2705.2665647497506,0.43982727499331525,1.3040213500537687,0.975204484296974,0.2858681375,0.7052647280340683
0.052000000000000005,1.7324,1.0,2703.181747947168,0.44296939781644196,1.3034561144133698,0.9755089501830507,0.2858138,0.7063596512281244
0.0525,1.73109375,1.0,2701.066242216587,0.4460938800389783,1.3028855213691535,0.9758051935805762,0.28575893750000003,0.7074628856662503
0.053,1.729775,1.0,2698.927340284088,0.4492008385901471,1.3023095045966921,0.9760934966746914,0.28570355000000003,0.708574500735021
0.0535,1.72844375,1.0,2696.7711241042252,0.4522903824408093,1.3017280087421148,0.9763741291201342,0.2856476375,0.7096945431776731
0.054,1.7271,1.0,2694.5991870494745,0.45536260532068273,1.301141019427999,0.9766473498317634,0.2855912,0.7108229796488057
0.0545,1.7257437500000001,1.0,2692.413120122377,0.45841760095948497,1.3005485222769222,0.9769134066069497,0.2855342375,0.711959776011347
0.055,1.724375,1.0,2690.214511909668,0.4614554630869337,1.2999505029114617,0.9771725366937684,0.28547675,0.7131048973315088
0.0555,1.72299375,1.0,2688.004948540634,0.46447628543274666,1.2993469469541956,0.9774249673255698,0.2854187375,0.7142583078737309
0.056,1.7216,1.0,2685.78601365037,0.46748016172664153,1.298737840027701,0.9776709162241819,0.2853602,0.7154199710956115
0.0565,1.72019375,1.0,2683.559288347402,0.470467185698336,1.2981231677545557,0.9779105920738235,0.28530113749999997,0.7165898496428222
0.057,1.718775,1.0,2681.3263511860487,0.4734374510775478,1.297502915757337,0.9781441949676624,0.28524155,0.7177679053440142
0.0575,1.71734375,1.0,2679.088778142945,0.47639105159399453,1.2968770696586227,0.9783719168288021,0.2851814375,0.7189540992057056
0.058,1.7159,1.0,2676.848142598834,0.479328080977394,1.2962456150809902,0.9785939418073566,0.2851208,0.7201483914071614
0.0585,1.71444375,1.0,2674.6060153245126,0.48224863295746384,1.2956085376470172,0.9788104466551522,0.2850596375,0.7213507412952551
0.059000000000000004,1.7129750000000001,1.0,2672.3639644712734,0.48515280126392174,1.2949658229792809,0.9790216010794811,0.28499795,0.7225611073793226
0.059500000000000004,1.71149375,1.0,2670.12355556618,0.4880406796264854,1.2943174567003592,0.9792275680772372,0.2849357375,0.7237794473259954
0.06,1.71,1.0,2667.886351511863,0.49091236177487246,1.2936634244328296,0.9794285042506624,0.284873,0.72500571795403
0.0605,1.7084937500000001,1.0,2665.6496329139754,0.4937679194940513,1.2930037511630366,0.9796245604553873,0.2848097375,0.7262398016721598
0.061,1.7069750000000001,1.0,2663.416243631087,0.4966074585573348,1.2923384107278888,0.9798158817340142,0.28474595,0.7274816760621563
0.0615,1.7054437500000001,1.0,2661.1901480260944,0.4994310849250842,1.291667366605574,0.9800026070137275,0.2846816375,0.7287313369176329
0.062,1.7039,1.0,2658.9716199706863,0.502238883803896,1.2909906162004543,0.9801848700910346,0.2846168,0.7299887158267855
0.0625,1.70234375,1.0,2656.7609328900685,0.505030940400367,1.2903081569168913,0.9803627997258862,0.2845514375,0.7312537437101966
0.063,1.7007750000000001,1.0,2654.5583597671675,0.5078073399210936,1.2896199861592472,0.9805365198672286,0.28448555,0.7325263508198898
0.0635,1.69919375,1.0,2652.364173146345,0.5105681675726723,1.288926101331884,0.9807061498668238,0.28441913750000003,0.7338064667383861
0.064,1.6976,1.0,2650.178645136734,0.5133135085616999,1.2882264998391635,0.980871804682038,0.2843522,0.7350940203777574
0.0645,1.69599375,1.0,2648.002047416993,0.5160434480947726,1.2875211790854475,0.9810335950682337,0.2842847375,0.7363889399786799
0.065,1.694375,1.0,2645.8346512390435,0.5187580713784874,1.2868101364750986,0.9811916277613809,0.28421675,0.7376911531094876
0.0655,1.69274375,1.0,2643.6767274325366,0.5214574636194406,1.286093369412478,0.9813460056514413,0.2841482375,0.7390005866652276
0.066,1.6911,1.0,2641.5285464093113,0.5241417100242288,1.2853708753019484,0.9814968279470612,0.2840792,0.7403171668667087
0.0665,1.6894437500000001,1.0,2639.3903781683193,0.5268108957994486,1.284642651547871,0.9816441903320662,0.2840096375,0.7416408192595576
0.067,1.687775,1.0,2637.262492299707,0.5294651061516965,1.2839086955546084,0.9817881851142162,0.28393955,0.7429714687132676
0.0675,1.68609375,1.0,2635.1451579905233,0.5321044262875693,1.2831690047265223,0.9819289013666623,0.2838689375,0.7443090394202513
0.068,1.6844000000000001,1.0,2633.0386440295147,0.5347289414136632,1.2824235764679748,0.982066425062507,0.2837978,0.7456534548948917
0.0685,1.68269375,1.0,2630.9432188120404,0.5373387367365751,1.2816724081833277,0.9822008392028491,0.2837261375,0.7470046379725919
0.069,1.680975,1.0,2628.859149504409,0.5399338974369873,1.2809154972847387,0.9823322239373841,0.28365395,0.7483625107948595
0.0695,1.67924375,1.0,2626.7858252233787,0.5425144610980582,1.2801528493165173,0.9824606540510288,0.28358123749999997,0.7497269802928468
0.07,1.6775,1.0,2624.725917811062,0.545080570133355,1.2793844394038028,0.9825862069766886,0.283508,0.7510980070759659
0.07050000000000001,1.67574375,1.0,2622.6792345007348,0.547632301174185,1.2786102691965942,0.98270895464539,0.2834342375,0.7524755035019175
0.07100000000000001,1.673975,1.0,2620.645582892129,0.5501697308518558,1.27783034034489,0.9828289665902082,0.28335995,0.7538593813260286
0.07150000000000001,1.67219375,1.0,2618.6247709476065,0.5526929357976749,1.2770446544986895,0.9829463100408092,0.2832851375,0.755249551701855
0.07200000000000001,1.6704,1.0,2616.6166069880355,0.5552019926429498,1.276253213307991,0.9830610500136456,0.2832098,0.7566459251817911
0.0725,1.66859375,1.0,2614.6208996883456,0.557696978018988,1.2754560184227934,0.9831732493980372,0.2831339375,0.7580484117176711
0.073,1.6667750000000001,1.0,2612.63745807404,0.5601779685570969,1.2746530714930957,0.9832829690383454,0.28305755,0.759456920661379
0.0735,1.66494375,1.0,2610.666091516805,0.5626450408885842,1.2738443741688965,0.9833902678124462,0.2829806375,0.7608713607654509
0.074,1.6631,1.0,2608.70660973089,0.5650982716447573,1.2730299281001947,0.9834952027066888,0.2829032,0.7622916401836816
0.0745,1.6612437500000001,1.0,2606.758822769252,0.5675377374569238,1.2722097349369887,0.9835978288875188,0.2828252375,0.7637176664717293
0.075,1.659375,1.0,2604.822541019735,0.569963514956391,1.271383796329278,0.9836981997699372,0.28274675,0.7651493465877199
0.0755,1.65749375,1.0,2602.897575201402,0.5723756807744665,1.2705521139270608,0.9837963670829495,0.2826677375,0.7665865868928531
