Time [s],Phi [rad],STIM [ ],Fsee [N],Gamma [ ],Lcerel [ ],q [ ],Lmtc [m],fisomrel [ ]
0.0,1.8,1.0,17.965797080284517,1.0626194679202275e-05,1.3793398987099048,0.005000030079710379,0.288653,0.5411391621389003
0.0005,1.79999375,1.0,18.275465760252324,0.005619775898925771,1.3793025297957673,0.01294225579950643,0.2886527375,0.5412295627886833
0.001,1.799975,1.0,21.617625746987745,0.011197462708249768,1.378938379309323,0.035611850365303885,0.28865195,0.5421100276990549
0.0015,1.79994375,1.0,31.069387655038337,0.016743863105478315,1.3780461908088666,0.07060619026643855,0.2886506375,0.5442636403536545
0.002,1.7999,1.0,53.58422657527221,0.02225915258178309,1.376368012400281,0.11472314961535261,0.2886488,0.5483007628885903
0.0025,1.79984375,1.0,97.12294624079519,0.027743505644254558,1.373934974096962,0.16458045244848846,0.28864643749999996,0.5541219233007155
0.003,1.7997750000000001,1.0,160.96401468664382,0.03319709582360817,1.3712141248670784,0.2172861861485144,0.28864354999999997,0.5605869690662282
0.0035,1.79969375,1.0,237.6902967330617,0.03862009567378333,1.368584519688446,0.2706185866691595,0.2886401375,0.5667903438968033
0.004,1.7996,1.0,321.47443679429205,0.04401267678272387,1.366155889368741,0.3229213168234539,0.2886362,0.5724804358437061
0.0045000000000000005,1.7994937500000001,1.0,409.2758953570139,0.049375009777562796,1.3639226229834802,0.3730397415460672,0.2886317375,0.5776796061250756
0.005,1.799375,1.0,499.42197261128746,0.054707264315720955,1.3618581623938546,0.42025235679261613,0.28862675,0.5824574946075982
0.0055,1.79924375,1.0,590.7990845022617,0.06000960913229804,1.3599386656993369,0.46417823102796574,0.2886212375,0.5868755004291487
0.006,1.7991000000000001,1.0,682.5268979842313,0.06528221198340252,1.3581462549753591,0.5046841276976469,0.2886152,0.5909797833135366
0.006500000000000001,1.79894375,1.0,773.8738400363665,0.07052523947023659,1.3564673802447136,0.5418047449360232,0.2886086375,0.5948055064460166
0.007,1.798775,1.0,864.3020805947322,0.07573885825022228,1.3548901321948077,0.5756801775167353,0.28860155,0.5983832719092855
0.0075,1.79859375,1.0,953.2662332404767,0.08092323254656116,1.3534064251552715,0.6065129400683382,0.2885939375,0.601734370723761
0.008,1.7984,1.0,1040.3684647770629,0.08607852634466365,1.3520084989651384,0.6345349172607179,0.2885858,0.6048788796438462
0.0085,1.79819375,1.0,1125.3279099158008,0.09120490317954695,1.3506890478065783,0.6599870033150547,0.2885771375,0.6078354328715416
0.009000000000000001,1.797975,1.0,1207.893317423126,0.09630252509415783,1.349442128827609,0.6831066817496064,0.28856795,0.6106192557411629
0.0095,1.79774375,1.0,1287.8815216842183,0.10137155327309194,1.3482622651820853,0.7041197697939566,0.2885582375,0.6132442431449074
0.01,1.7975,1.0,1365.1696850963622,0.10641214836392944,1.347144351401724,0.7232362284133869,0.288548,0.6157232120212893
0.0105,1.79724375,1.0,1439.6699306268667,0.11142446985244846,1.3460838158302775,0.7406484361418656,0.2885372375,0.6180675778710287
0.011,1.796975,1.0,1511.3229804571515,0.11640867590226264,1.3450765442827068,0.7565308038727051,0.28852595000000003,0.6202875592662789
0.0115,1.79669375,1.0,1580.1093636925898,0.12136492407867591,1.344118622221459,0.7710402086205654,0.2885141375,0.6223927737257807
0.012,1.7964,1.0,1646.0594977339756,0.12629337240647737,1.3432061358481249,0.7843169845268422,0.28850180000000003,0.6243926923348165
0.0125,1.79609375,1.0,1709.1842166618774,0.13119417622812177,1.3423359171476785,0.796486569347605,0.2884889375,0.6262950249702097
0.013000000000000001,1.7957750000000001,1.0,1769.5073696418247,0.13606748994069737,1.3415050635492716,0.8076606765140817,0.28847555,0.6281067970988775
0.0135,1.79544375,1.0,1827.0845612353658,0.14091346794129228,1.3407106724820559,0.8179385892648088,0.2884616375,0.6298349415077336
0.014,1.7951000000000001,1.0,1881.981048791839,0.14573226362157302,1.3399500526376762,0.8274085853835567,0.2884472,0.6314858472947742
0.0145,1.79474375,1.0,1934.2866193881403,0.15052403060915567,1.339220520698174,0.8361490992408906,0.2884322375,0.6330658110244252
0.015,1.794375,1.0,1984.0588483920599,0.1552889195023934,1.3385199815453264,0.8442300505906831,0.28841675,0.6345797898423211
0.0155,1.79399375,1.0,2031.3686886378357,0.16002708063381824,1.3378463912326382,0.8517136539518287,0.2884007375,0.6360325763108521
0.016,1.7936,1.0,2076.3019197432372,0.16473866417499602,1.3371977228352785,0.8586553168798837,0.2883842,0.6374288766412715
0.0165,1.7931937500000001,1.0,2118.9477082229964,0.16942381931287537,1.336572068846823,0.8651044767560216,0.2883671375,0.6387730946178873
0.017,1.792775,1.0,2159.402023709117,0.17408269561161102,1.3359675870733339,0.8711052921327063,0.28834955,0.6400694529213069
0.0175,1.7923437500000001,1.0,2197.733037148382,0.17871543916765092,1.335382836407402,0.876697355703139,0.2883314375,0.6413212788371359
0.018000000000000002,1.7919,1.0,2234.0183538340716,0.18332219607744302,1.3348163757416192,0.881916119272531,0.2883128,0.6425318703292312
0.0185,1.79144375,1.0,2268.3442256182225,0.18790311243743527,1.3342667639685764,0.886793377397364,0.2882936375,0.6437044977869135
0.019,1.790975,1.0,2300.7890537281287,0.19245833254416606,1.3337327159644161,0.8913577287674577,0.28827395,0.6448420736448162
0.0195,1.79049375,1.0,2331.453070473731,0.19698800327408633,1.3332127986803046,0.895634870535594,0.2882537375,0.6459478022820114
0.02,1.79,1.0,2360.4040026980224,0.2014922667688833,1.3327059610773042,0.8996480483520417,0.288233,0.6470240544120769
0.0205,1.78949375,1.0,2387.708451230363,0.20597126440478694,1.33221121230989,0.9034182570811345,0.2882117375,0.6480730561721724
0.021,1.788975,1.0,2413.4375273461897,0.21042513755802725,1.3317275615325364,0.9069644772990472,0.28818995000000003,0.649097018238767
0.021500000000000002,1.78844375,1.0,2437.6664740602478,0.21485402760483427,1.3312540178997188,0.9103038961818487,0.2881676375,0.650098136560245
0.022,1.7879,1.0,2460.4639950218775,0.21925807409570613,1.3307896893103264,0.9134521209046786,0.2881448,0.6510783847129393
0.0225,1.78734375,1.0,2481.907703855655,0.22363741896741493,1.3303336298078212,0.9164233189210383,0.28812143749999997,0.652039837429813
0.023,1.786775,1.0,2502.058802072457,0.2279922005208827,1.3298850783622862,0.9192304128415509,0.28809755,0.6529841679652688
0.0235,1.78619375,1.0,2520.970759491717,0.23232255503377458,1.3294433706235933,0.921885193044117,0.28807313749999996,0.6539128365821611
0.024,1.7856,1.0,2538.699177008531,0.23662861878375563,1.3290078422416152,0.9243984168128078,0.2880482,0.654827295100499
0.0245,1.78499375,1.0,2555.3016075298547,0.24091052804849095,1.328577828866224,0.9267799130887042,0.2880227375,0.6557289871733368
0.025,1.784375,1.0,2570.8373866963475,0.24516841910564569,1.3281526661472918,0.9290386753304173,0.28799675,0.6566193485345155
0.025500000000000002,1.78374375,1.0,2585.3566043569026,0.24940242473037752,1.3277317912467417,0.931182959286148,0.2879702375,0.6574995950452874
0.026000000000000002,1.7831000000000001,1.0,2598.9227447300996,0.2536126839351049,1.327314529220294,0.9332203240676652,0.2879432,0.6583711701571983
0.0265,1.78244375,1.0,2611.5779757365003,0.2577993285084071,1.3269004158094184,0.9351577446280523,0.2879156375,0.659235070611063
0.027,1.781775,1.0,2623.362622438674,0.2619624892375689,1.326489013277981,0.9370016404161158,0.28788755,0.660092232808579
0.0275,1.7810937500000001,1.0,2634.3179156201986,0.26610229690987486,1.3260798838898484,0.9387579236286453,0.2878589375,0.660943588400456
0.028,1.7804,1.0,2644.4859128127155,0.27021888231260954,1.325672589908887,0.940432046001244,0.2878298,0.6617900643559882
0.0285,1.77969375,1.0,2653.90942357055,0.27431237623305776,1.3252666935989634,0.942029040716309,0.2878001375,0.662632583020402
0.029,1.778975,1.0,2662.6292924495706,0.27838290825174977,1.3248617815802346,0.9435535629524499,0.28776995,0.6634720116980739
0.029500000000000002,1.7782437500000001,1.0,2670.679712579427,0.2824306054983809,1.3244575071010307,0.9450099286610184,0.2877392375,0.6643090755286499
0.03,1.7775,1.0,2678.1100604868075,0.2864556031786614,1.3240533886698023,0.9464021208011184,0.287708,0.6651447745268433
0.0305,1.77674375,1.0,2684.9470042358785,0.29045802595620424,1.3236491577513465,0.9477338574830315,0.2876762375,0.6659796641799873
0.031,1.775975,1.0,2691.217571561926,0.294437998494622,1.3232445458104611,0.9490085903158214,0.28764395,0.6668142972059589
0.0315,1.7751937500000001,1.0,2696.9491177300965,0.2983956454575274,1.3228392843119434,0.9502295268321219,0.2876111375,0.6676492235489546
0.032,1.7744,1.0,2702.1692949929125,0.3023310915085331,1.3224331047205906,0.9513996507645561,0.2875778,0.6684849903706653
0.0325,1.77359375,1.0,2706.9060236467994,0.30624446131125194,1.3220257385012004,0.952521740402743,0.2875439375,0.669322142036851
0.033,1.772775,1.0,2711.1874646874585,0.3101358795292965,1.3216169171185697,0.9535983852331853,0.28750955,0.6701612200993211
0.0335,1.7719437500000002,1.0,2715.041587264863,0.3140054703724684,1.3212063757449761,0.954632001340914,0.2874746375,0.6710027556784988
0.034,1.7711000000000001,1.0,2718.492034408916,0.31785335285844557,1.3207938906834453,0.9556248480465107,0.2874392,0.6718471929214851
0.0345,1.7702437500000001,1.0,2721.5680517130913,0.3216796566000749,1.3203791886693355,0.9565790342389839,0.2874032375,0.6726950748328392
0.035,1.7693750000000001,1.0,2724.287023265777,0.3254845000472412,1.319962105725696,0.9574965415598414,0.28736675,0.6735467184297783
0.035500000000000004,1.76849375,1.0,2726.6664424454757,0.32926800164982956,1.3195424778755758,0.9583792252183717,0.2873297375,0.6744024388811772
0.036000000000000004,1.7676,1.0,2728.723900351091,0.3330302798577248,1.3191201411420241,0.9592288235087639,0.2872922,0.6752625494818068
0.0365,1.76669375,1.0,2730.4770748289016,0.3367714531208119,1.3186949315480903,0.960046966507001,0.2872541375,0.6761273616248663
0.037,1.765775,1.0,2731.943720095294,0.34049163988897585,1.3182666851168232,0.9608351840266396,0.28721555,0.6769971847727962
0.0375,1.76484375,1.0,2733.14165695595,0.3441909586121015,1.3178352378712723,0.9615949129041933,0.2871764375,0.6778723264263767
0.038,1.7639,1.0,2734.0887636209295,0.34786952774007396,1.3174004258344865,0.9623275036774045,0.28713679999999997,0.6787530920921131
0.0385,1.76294375,1.0,2734.788226770463,0.35152744701614647,1.3169622188839032,0.9630342355752236,0.28709663750000003,0.6796395146689818
0.039,1.761975,1.0,2735.2767307204167,0.35516485967927325,1.316520283060844,0.9637162931703582,0.28705595,0.6805322398312602
0.0395,1.7609937500000001,1.0,2735.564503055712,0.3587818775234452,1.3160745249900923,0.9643748081684247,0.2870147375,0.6814314242738762
0.04,1.76,1.0,2735.661099043709,0.3623786114766413,1.3156248576280118,0.965010847773603,0.286973,0.6823372106100041
0.0405,1.7589937500000001,1.0,2735.5760953580607,0.3659551724668406,1.3151711939309665,0.9656254186683815,0.2869307375,0.6832497401662281
0.041,1.757975,1.0,2735.3190868126726,0.3695116714220222,1.31471344685532,0.966219471078054,0.28688795,0.6841691529605982
0.0415,1.75694375,1.0,2734.8996832634757,0.37304821927016496,1.3142515293574368,0.9667939025214,0.2868446375,0.6850955876802042
0.042,1.7559,1.0,2734.327506678716,0.37656492693924803,1.3137853543936802,0.9673495612747797,0.28680079999999997,0.6860291816582671
0.0425,1.75484375,1.0,2733.6121883767655,0.3800619053572505,1.3133148349204142,0.9678872495742639,0.2867564375,0.6869700708507449
0.043000000000000003,1.753775,1.0,2732.763366431522,0.3835392654521512,1.3128398838940027,0.9684077265780806,0.28671155,0.6879183898124582
0.043500000000000004,1.75269375,1.0,2731.7906832471463,0.3869971181519294,1.3123604142708096,0.968911711109566,0.28666613750000003,0.6888742716727303
0.044,1.7516,1.0,2730.7037832990004,0.39043557438456394,1.311876339007199,0.9693998841989195,0.2866202,0.6898378481105443
0.0445,1.75049375,1.0,2729.512311044388,0.393854745078034,1.3113875710595344,0.9698728914403818,0.2865737375,0.6908092493292202
0.045,1.7493750000000001,1.0,2728.2226631715344,0.3972547399698965,1.3108940528944286,0.9703313472699084,0.28652675,0.6917885455193757
0.0455,1.74824375,1.0,2726.840819565696,0.40063566446974797,1.3103957307651124,0.9707758344699802,0.2864792375,0.6927757982231884
0.046,1.7471,1.0,2725.3748035971366,0.4039976246776399,1.3098925323264705,0.971206905139249,0.2864312,0.6937711046182635
0.0465,1.7459437500000001,1.0,2723.8307897675663,0.40734072667283144,1.309384402016664,0.9716250850414999,0.28638263750000004,0.694774527387727
0.047,1.744775,1.0,2722.2125745094418,0.41066507634572624,1.3088713058879768,0.9720308754843486,0.28633355,0.695786085456173
0.0475,1.74359375,1.0,2720.5316423627396,0.4139707793340516,1.308353139984099,0.9724247481841388,0.28628393750000003,0.6968059345087583
0.048,1.7424,1.0,2718.7936348059943,0.41725794013254136,1.3078298534585864,0.9728071556036746,0.2862338,0.6978341241060754
0.0485,1.741193849706119,1.0,2716.9957594365537,0.42052666230932345,1.307301517283287,0.9731785368520426,0.286183141687657,0.69887046388836
0.049,1.7399829285199069,1.0,2715.5084826327834,0.42377704940372607,1.3067682013623034,0.973539310053235,0.2861322829978361,0.6999147660489071
0.0495,1.7387720073336945,1.0,2714.542907375829,0.4270092044019865,1.3062301338081146,0.9738898842921887,0.2860814243080152,0.7009665342725263
0.05,1.7375610861474822,1.0,2714.0511295307297,0.4302232299554426,1.305687748751546,0.9742306632989215,0.28603056561819423,0.7020248732883028
0.0505,1.73635016496127,1.0,2713.9977336832444,0.43341922718053505,1.3051413678489179,0.9745620244469634,0.2859797069283733,0.7030891123319241
0.051000000000000004,1.7351392437750577,1.0,2714.3474179386353,0.4365972971937043,1.3045913127565496,0.9748843277997874,0.2859288482385524,0.7041585847998781
0.051500000000000004,1.7339283225888453,1.0,2715.07595913828,0.4397575374442518,1.3040378049473247,0.9751979101849623,0.2858779895487315,0.7052328225854992
0.052000000000000005,1.7327174014026332,1.0,2716.134740872159,0.4429000542058393,1.303481288799482,0.9755031085035487,0.2858271308589106,0.7063109290452978
0.0525,1.7315064802164208,1.0,2717.498680328265,0.44602494625208594,1.3029219945674175,0.975800230299267,0.2857762721690897,0.7073924273191883
0.053,1.7302955590302085,1.0,2719.1475659512785,0.4491323107332017,1.3023601084067233,0.9760895666426427,0.2857254134792687,0.70847692871261
0.0535,1.7290846378439964,1.0,2721.0612082927973,0.45222224479939654,1.301795816472991,0.9763713959091743,0.2856745547894478,0.7095640470644156
0.054,1.727873716657784,1.0,2723.2194296974403,0.4552948456008803,1.3012293049218129,0.9766459844461194,0.2856236960996269,0.7106533987765353
0.0545,1.7266627954715716,1.0,2725.602054757677,0.4583502102878628,1.3006607599087805,0.9769135871988883,0.285572837409806,0.7117446028414371
0.055,1.7254518742853595,1.0,2728.1889015368824,0.4613884360105541,1.300090367589486,0.9771744482998155,0.2855219787199851,0.71283728086737
0.0555,1.7242409530991472,1.0,2730.959773560664,0.4644096199191641,1.299518314119521,0.9774288016218506,0.28547112003016417,0.7139310571014028
0.056,1.7230300319129348,1.0,2733.902827009335,0.4674138542351188,1.2989447095953084,0.9776768663867861,0.28542026134034326,0.7150257034597473
0.0565,1.7218191107267227,1.0,2736.995390966287,0.470401240295494,1.2983697623079469,0.9779188593069447,0.28536940265052235,0.7161208065698319
0.057,1.7206081895405103,1.0,2740.2248511992425,0.4733718724361391,1.2977935889664125,0.9781549823388632,0.28531854396070144,0.7172161300079827
0.0575,1.719397268354298,1.0,2743.5818962880467,0.47632584276048573,1.2972162761571744,0.9783854273502535,0.28526768527088053,0.7183114961328516
0.058,1.7181863471680856,1.0,2747.057200523841,0.4792632433719657,1.2966379104667012,0.978610378508761,0.2852168265810596,0.7194067285521345
0.0585,1.7169754259818735,1.0,2750.6414218047125,0.4821841663740108,1.2960585784814622,0.9788300126546231,0.2851659678912387,0.720501652128622
0.059000000000000004,1.7157645047956611,1.0,2754.3251996977992,0.4850887038700529,1.2954783667879262,0.9790444996524718,0.28511510920141775,0.7215960929857774
0.059500000000000004,1.7145535836094488,1.0,2758.099153667024,0.4879769479635236,1.294897361972562,0.979254002723599,0.28506425051159684,0.7226898785128306
0.06,1.7133426624232366,1.0,2761.953881467584,0.4908489907578548,1.2943156506218387,0.9794586787599191,0.28501339182177593,0.7237828373693997
0.0605,1.7121317412370243,1.0,2765.879957706365,0.4937049243564783,1.293733319322225,0.9796586786207617,0.284962533131955,0.7248747994896296
0.061,1.710920820050812,1.0,2769.876912232075,0.49654482862333804,1.293150373635467,0.9798541421362086,0.2849116744421341,0.7259657475681954
0.0615,1.7097098988645998,1.0,2773.9276700686964,0.4993688109347179,1.2925669688478492,0.9800452138975752,0.2848608157523132,0.7270553850101455
0.062,1.7084989776783874,1.0,2778.028177718741,0.5021769583001636,1.2919831424861463,0.9802320253400013,0.28480995706249224,0.7281436368109527
0.0625,1.707288056492175,1.0,2782.174808328932,0.5049693570633024,1.2913989281365494,0.9804147027589777,0.2847590983726713,0.7292304358446113
0.063,1.706077135305963,1.0,2786.363924983096,0.5077460935677611,1.2908143593852497,0.9805933677939042,0.2847082396828504,0.7303157154826111
0.0635,1.7048662141197506,1.0,2790.5918804259777,0.5105072541571667,1.2902294698184384,0.9807681376353112,0.2846573809930295,0.7313994095947326
0.064,1.7036552929335382,1.0,2794.85501681211,0.5132529251751463,1.2896442930223069,0.9809391252213956,0.2846065223032086,0.7324814525497705
0.0645,1.702444371747326,1.0,2799.1496654789194,0.5159831929653269,1.2890588625830461,0.9811064394244867,0.2845556636133877,0.7335617792161852
0.065,1.7012334505611137,1.0,2803.472146745844,0.5186981438713354,1.2884732120868474,0.9812701852280362,0.2845048049235668,0.734640324962681
0.0655,1.7000225293749014,1.0,2807.8187697375924,0.5213978642367989,1.2878873751199018,0.9814304638946747,0.28445394623374587,0.7357170256587148
0.066,1.6988116081886893,1.0,2812.1858322329535,0.5240824404053445,1.2873013852684005,0.981587373125847,0.28440308754392496,0.7367918176749302
0.0665,1.697600687002477,1.0,2816.569620538409,0.5267519587205989,1.2867152761185348,0.9817410072135065,0.28435222885410405,0.7378646378835216
0.067,1.6963897658162645,1.0,2820.968567590128,0.5294064961435665,1.2861290619598997,0.9818914556282117,0.28430137016428314,0.7389354588710073
0.0675,1.6951788446300524,1.0,2825.3809224041484,0.5320461359629395,1.2855427586814157,0.9820388052672607,0.28425051147446223,0.7400042505248943
0.068,1.69396792344384,1.0,2829.8006106918892,0.5346709812797484,1.2849564207174,0.9821831431821006,0.28419965278464127,0.7410709129206892
0.0685,1.6927570022576277,1.0,2834.226585823079,0.5372811116244249,1.2843700574851367,0.982324549828392,0.28414879409482036,0.7421354285902426
0.069,1.6915460810714156,1.0,2838.65779787408,0.5398766065274001,1.2837836784019088,0.9824631029614973,0.28409793540499945,0.7431977802062564
0.0695,1.6903351598852032,1.0,2843.0931936238594,0.5424575455191057,1.2831972928850004,0.9825988777460591,0.28404707671517854,0.7442579505822937
0.07,1.6891242386989909,1.0,2847.5317165517977,0.545024008129973,1.282610910351695,0.9827319468604159,0.2839962180253576,0.7453159226727878
0.07050000000000001,1.6879133175127787,1.0,2851.9723068370627,0.5475760738904335,1.282024540219276,0.9828623805961252,0.2839453593355367,0.746371679573042
0.07100000000000001,1.6867023963265664,1.0,2856.4139013603462,0.5501138223309185,1.2814381919050273,0.9829902469528645,0.28389450064571575,0.7474252045192253
0.07150000000000001,1.685491475140354,1.0,2860.855433707707,0.5526373329818596,1.2808518748262323,0.9831156117289485,0.28384364195589484,0.748476480888362
0.07200000000000001,1.684280553954142,1.0,2865.2958341754734,0.5551466853736882,1.2802655984001747,0.9832385386076905,0.28379278326607393,0.7495254921983163
0.0725,1.6830696327679295,1.0,2869.7340297783144,0.5576419590368356,1.279679372044138,0.9833590892398337,0.283741924576253,0.75057222210777
