Time [s],Phi [rad],STIM [ ],Fsee [N],Gamma [ ],Lcerel [ ],q [ ],Lmtc [m],fisomrel [ ]
0.0,1.8,1.0,17.987801521781023,0.00014496088107544795,1.3793374341376021,0.005005483516170611,0.288653,0.5411451245596313
0.0005,1.79999375,1.0,18.34151921291105,0.005753357073998014,1.3792951989043818,0.01331943706595089,0.2886527375,0.5412472961992522
0.001,1.799975,1.0,21.783404865274054,0.01133029459855606,1.3789214794545657,0.0363153121771665,0.28865195,0.5421508686478418
0.0015,1.79994375,1.0,31.449578298292998,0.01687594991395565,1.3780138984392503,0.07156687551926778,0.2886506375,0.5443414942179854
0.002,1.7999,1.0,54.391703890805076,0.022390498487597145,1.3763158242066702,0.11585947335629085,0.2886488,0.5484260218483881
0.0025,1.79984375,1.0,98.47059976145677,0.02787411480347282,1.3738702589497886,0.16581578916565656,0.28864643749999996,0.5542762419413839
0.003,1.7997750000000001,1.0,162.71136587342303,0.03332697236869227,1.3711488975788195,0.2185600693993237,0.28864354999999997,0.5607413769962595
0.0035,1.79969375,1.0,239.6611595430559,0.0387492437140637,1.36852393811206,0.2718852295419409,0.2886401375,0.566932739280544
0.004,1.7996,1.0,323.5691593448144,0.04414110040457122,1.3661004989150372,0.32414750935888936,0.2886362,0.5726097726216866
0.0045000000000000005,1.7994937500000001,1.0,411.4435847564496,0.04950271304465423,1.3638718067540108,0.37420353726768135,0.2886317375,0.5777975390611347
0.005,1.799375,1.0,501.6327207120226,0.054834251269968465,1.3618112364519952,0.42134105078035256,0.28862675,0.5825657818146633
0.0055,1.79924375,1.0,593.0283771016318,0.06013588378769036,1.359895152057012,0.4651861141033611,0.2886212375,0.586975381141136
0.006,1.7991000000000001,1.0,684.7572850642846,0.06540777833715325,1.3581057458033827,0.5056103228881527,0.2886152,0.5910723049190149
0.006500000000000001,1.79894375,1.0,776.1067749378112,0.07065010171753798,1.356429289854905,0.5426513911921353,0.2886086375,0.5948920960890565
0.007,1.798775,1.0,866.4837830326899,0.07586301983734736,1.3548549132524788,0.5764519590307071,0.28860155,0.5984629800401013
0.0075,1.79859375,1.0,955.3977790300186,0.0810466974742431,1.3533736584807186,0.6072149931383363,0.2885939375,0.6018082190432159
0.008,1.7984,1.0,1042.4736510953649,0.08620129899545069,1.3519775201505857,0.6351726526462682,0.2885858,0.604948422540319
0.0085,1.79819375,1.0,1127.387059566059,0.09132698726539794,1.350659911318122,0.6605662973964352,0.2885771375,0.6079005950075475
0.009000000000000001,1.797975,1.0,1209.8894970041197,0.09642392430104393,1.3494148645887059,0.6836331749322528,0.28856795,0.6106800140448225
0.0095,1.79774375,1.0,1289.8181076180886,0.10149227150671333,1.348236648491355,0.7045986102458545,0.2885582375,0.6133011372688406
0.01,1.7975,1.0,1367.050658388088,0.10653218966229824,1.3471201841553098,0.7236721725791311,0.288548,0.6157767147703567
0.0105,1.79724375,1.0,1441.4827506148245,0.11154383759283253,1.3460611342169877,0.7410459254954203,0.2885372375,0.6181176383432783
0.011,1.796975,1.0,1513.0660077428242,0.11652737374601027,1.3450552585915962,0.7568937828083063,0.28852595000000003,0.6203344021629038
0.0115,1.79669375,1.0,1581.8014527057333,0.12148295663769822,1.3440984129438878,0.7713721100127199,0.2885141375,0.622437124392531
0.012,1.7964,1.0,1647.6926295097378,0.1264107431448366,1.343187025079185,0.7846210218306738,0.28850180000000003,0.6244345211010803
0.0125,1.79609375,1.0,1710.7440902552128,0.1313108882803669,1.3423180035303592,0.796765635347489,0.2884889375,0.6263341341166739
0.013000000000000001,1.7957750000000001,1.0,1770.9964326872987,0.13618354705723063,1.341488256830282,0.8079172675907278,0.28847555,0.6281434006601256
0.0135,1.79544375,1.0,1828.507513517226,0.14102887373634562,1.3406948667775997,0.8181749169635651,0.2884616375,0.6298692849215356
0.014,1.7951000000000001,1.0,1883.3587553963764,0.14584702285717022,1.3399349741760234,0.8276265541469614,0.2884472,0.6315185374105432
0.0145,1.79474375,1.0,1935.6090491527264,0.15063814624636113,1.339206244079181,0.836350523154886,0.2884322375,0.6330966963574461
0.015,1.794375,1.0,1985.3203677238741,0.1554023947386781,1.3385065342483597,0.8444165268896908,0.28841675,0.6346088210177425
0.0155,1.79399375,1.0,2032.5731461796531,0.16013991916888085,1.3378337024448466,0.8518865725265184,0.2884007375,0.6360599154732363
0.016,1.7936,1.0,2077.4509728171793,0.16485086942370022,1.3371857493071002,0.8588159245640907,0.2883842,0.6374546252047493
0.0165,1.7931937500000001,1.0,2120.053919284058,0.16953539603153037,1.3365606582441107,0.8652538546009376,0.2883671375,0.6387975871246521
0.017,1.792775,1.0,2160.4572387942167,0.17419364648527713,1.3359568048438415,0.8712444673875935,0.28834955,0.6400925550992251
0.0175,1.7923437500000001,1.0,2198.7350440517403,0.17882576733840294,1.3353726874570004,0.8768272309401803,0.2883314375,0.6413429863133582
0.018000000000000002,1.7919,1.0,2234.9710919653694,0.18343190514437027,1.334806804434296,0.8820374873489681,0.2883128,0.6425523077311706
0.0185,1.79144375,1.0,2269.250753604419,0.18801220560622686,1.334257726002022,0.886906952554029,0.2882936375,0.6437237646937408
0.019,1.790975,1.0,2301.6653190807533,0.19256681498344833,1.3337240414879705,0.89146412328742,0.28827395,0.6448605361381867
0.0195,1.79049375,1.0,2332.2943874960133,0.19709587763602274,1.333204525079912,0.8957346842040536,0.2882537375,0.6459653841398925
0.02,1.79,1.0,2361.204620567324,0.20159953557460367,1.3326981361076162,0.8997418245209756,0.288233,0.6470406576228255
0.0205,1.78949375,1.0,2388.4677287112277,0.2060779308098446,1.3322038339008522,0.9035064757680656,0.2882117375,0.6480886885892061
0.021,1.788975,1.0,2414.160049905237,0.21053120535239905,1.3317205777893892,0.907047562323581,0.28818995000000003,0.6491117929562301
0.021500000000000002,1.78844375,1.0,2438.352358087443,0.2149594995267233,1.3312474212962473,0.9103822403476841,0.2881676375,0.6501120723360538
0.022,1.7879,1.0,2461.1257163702758,0.2193629559354544,1.3307833546283012,0.9135260585500284,0.2881448,0.6510917484083147
0.0225,1.78734375,1.0,2482.5445412245967,0.22374171381938684,1.3303275597161834,0.9164931778127778,0.28812143749999997,0.652052625293212
0.023,1.786775,1.0,2502.664045912871,0.22809591019805703,1.3298793326650313,0.919296501730116,0.28809755,0.6529962559964082
0.0235,1.78619375,1.0,2521.5418419278612,0.23242568209100134,1.3294379695799832,0.9219477864682691,0.28807313749999996,0.6539241843080934
0.024,1.7856,1.0,2539.23773827756,0.2367311665177562,1.329002766566177,0.9244577586466741,0.2880482,0.6548379451269186
0.0245,1.78499375,1.0,2555.813551755244,0.24101250049785805,1.3285730197287504,0.9268362196888238,0.2880227375,0.6557390647523285
0.025,1.784375,1.0,2571.322528126303,0.24526981767888323,1.3281481225696785,0.9290921534123024,0.28799675,0.6566288573150358
0.025500000000000002,1.78374375,1.0,2585.828364106295,0.24950325759464903,1.3277273854117866,0.9312337805163129,0.2879702375,0.6575088037345481
0.026000000000000002,1.7831000000000001,1.0,2599.3751382240375,0.2537129527415564,1.3273103152822554,0.9332686725962712,0.2879432,0.6583799665492047
0.0265,1.78244375,1.0,2612.0055691449456,0.25789903468699077,1.32689644253002,0.9352037888394611,0.2879156375,0.6592433541492899
0.027,1.781775,1.0,2623.763403931759,0.2620616349983374,1.326485297504016,0.9370455307447003,0.28788755,0.660099969750364
0.0275,1.7810937500000001,1.0,2634.693328413171,0.2662008852429817,1.326076410553178,0.9387997942432488,0.2878589375,0.6609508114820005
0.028,1.7804,1.0,2644.840882443126,0.2703169169883089,1.3256693120264416,0.9404720163152515,0.2878298,0.6617968724624498
0.0285,1.77969375,1.0,2654.245673088371,0.27440985951355773,1.3252635940946549,0.9420672247330008,0.2878001375,0.6626390126167971
0.029,1.778975,1.0,2662.945988513353,0.2784798430638696,1.3248588670955492,0.9435900697101144,0.28776995,0.6634780499661872
0.029500000000000002,1.7782437500000001,1.0,2670.9927101644735,0.2825270018086923,1.324454630996031,0.9450448407034542,0.2877392375,0.6643150268661651
0.03,1.7775,1.0,2678.413710092906,0.28655146115015306,1.3240506023332006,0.9464355375460067,0.287708,0.6651505329320468
0.0305,1.77674375,1.0,2685.237267018794,0.29055334649037917,1.3236464976441586,0.9477658695506542,0.2876762375,0.6659851548554516
0.031,1.775975,1.0,2691.492030439109,0.2945327832314978,1.3232420334660056,0.9490392802654688,0.28764395,0.6668194764054903
0.0315,1.7751937500000001,1.0,2697.2069865177295,0.29848989677563603,1.322836926335842,0.9502589698291917,0.2876111375,0.6676540784248284
0.032,1.7744,1.0,2702.4114257566102,0.30242481252492115,1.3224308927907684,0.9514279151854583,0.2875778,0.6684895388206251
0.0325,1.77359375,1.0,2707.134912448939,0.3063376558814803,1.3220236493678854,0.9525488883839377,0.2875439375,0.6693264325503482
0.033,1.772775,1.0,2711.4064922490925,0.31022855149184275,1.3216149195688334,0.9536244737696186,0.28750955,0.6701653173173879
0.0335,1.7719437500000002,1.0,2715.2506599997805,0.31409761952392096,1.3212044703361405,0.9546570861427518,0.2874746375,0.6710066589160696
0.034,1.7711000000000001,1.0,2718.6982360133043,0.3179449900397707,1.3207920126334451,0.9556489768035389,0.2874392,0.6718510351740548
0.0345,1.7702437500000001,1.0,2721.7675952809786,0.3217707821251981,1.3203773722858196,0.9566022596323606,0.2874032375,0.6726987861200042
0.035,1.7693750000000001,1.0,2724.477238448796,0.32557511486600893,1.3199603751183373,0.9575189119972263,0.28736675,0.67355024985374
0.035500000000000004,1.76849375,1.0,2726.8457787829902,0.3293581073480092,1.3195408469560708,0.9584007851501991,0.2873297375,0.6744057625210362
0.036000000000000004,1.7676,1.0,2728.891929807356,0.3331198786570048,1.3191186136240927,0.9592496137177559,0.2872922,0.6752656582864702
0.0365,1.76669375,1.0,2730.6344936137793,0.33686054787880176,1.3186935009474763,0.9600670243734044,0.2872541375,0.6761302693043397
0.037,1.765775,1.0,2732.0923498448537,0.34058023409920596,1.3182653347512943,0.9608545437714169,0.28721555,0.6769999256876487
0.0375,1.76484375,1.0,2733.284445349639,0.34427905640402334,1.3178339408606194,0.96161360581217,0.2871764375,0.677874955475154
0.038,1.7639,1.0,2734.2136061234173,0.3479571175801504,1.31739929202893,0.9623455690350438,0.28713679999999997,0.6787553871796368
0.0385,1.76294375,1.0,2734.9172607353044,0.3516145572207886,1.3169610471622741,0.9630516891832734,0.28709663750000003,0.6796418832327635
0.039,1.761975,1.0,2735.4076167901762,0.3552514892969428,1.3165190946271006,0.9637331645478396,0.28705595,0.6805346388279354
0.0395,1.7609937500000001,1.0,2735.694650346886,0.3588680254569731,1.3160733433264693,0.96439112534976,0.2870147375,0.6814338062449868
0.04,1.76,1.0,2735.7883630099964,0.3624642773492398,1.3156237021634398,0.9650266370029956,0.286973,0.682339536456136
0.0405,1.7589937500000001,1.0,2735.6987782924725,0.3660403566221031,1.3151700800410717,0.9656407045137325,0.2869307375,0.6832519791036493
0.041,1.757975,1.0,2735.4359381625695,0.3695963749239232,1.3147123858624246,0.9662342765364608,0.28688795,0.6841712824769783
0.0415,1.75694375,1.0,2735.0098997743175,0.37313244390306033,1.3142505285305581,0.9668082491169208,0.2868446375,0.685097593489365
0.042,1.7559,1.0,2734.4307323824205,0.3766486752078747,1.313784416948532,0.9673634691490978,0.28680079999999997,0.6860310576539217
0.0425,1.75484375,1.0,2733.708514441029,0.38014518048672646,1.3133139600194057,0.967900737570818,0.2867564375,0.6869718190591781
0.043000000000000003,1.753775,1.0,2732.85333088594,0.3836220713879759,1.312839066646239,0.9684208123201846,0.28671155,0.6879200203441007
0.043500000000000004,1.75269375,1.0,2731.875270602172,0.3870794595599831,1.3123596457320916,0.9689244110729909,0.28666613750000003,0.6888758026725836
0.044,1.7516,1.0,2730.7844240735303,0.3905174566511083,1.311875606180023,0.9694122137793708,0.2866202,0.6898393057074083
0.0445,1.75049375,1.0,2729.5815322930125,0.39393615806069304,1.3113869418699498,0.969884869222448,0.2865737375,0.6908104988293384
0.045,1.7493750000000001,1.0,2728.2858177592407,0.3973356919558547,1.3108934787120463,0.9703429846947127,0.28652675,0.6917896839742423
0.0455,1.74824375,1.0,2726.903346149475,0.4007161644086505,1.3103951621483,0.9707871423881264,0.2864792375,0.6927769238358754
0.046,1.7471,1.0,2725.4388507682006,0.4040776791904912,1.3098919497248875,0.971217895719108,0.2864312,0.6937722560449866
0.0465,1.7459437500000001,1.0,2723.897063784273,0.40742034007278777,1.309383798987985,0.971635770480775,0.28638263750000004,0.6947757172313842
0.047,1.744775,1.0,2722.28271554567,0.410744250826951,1.3088706674837696,0.9720412664806806,0.28633355,0.6957873430106207
0.0475,1.74359375,1.0,2720.6005339346952,0.4140495152243917,1.3083525127584172,0.9724348590665208,0.28628393750000003,0.6968071679705681
0.048,1.7424,1.0,2718.855243761481,0.4173362370365208,1.3078292923581047,0.9728170005484541,0.2862338,0.6978352256578715
0.0485,1.74119375,1.0,2717.051566199826,0.4206045200347492,1.3073009638290087,0.9731881215259353,0.2861831375,0.6988715485642929
0.049,1.739975,1.0,2715.194218260717,0.42385446799048765,1.3067674847173054,0.9735486321263004,0.28613195,0.6999161681129393
0.0495,1.73874375,1.0,2713.287912307274,0.42708618467514703,1.3062288125691717,0.9738989231617254,0.2860802375,0.7009691146443722
0.05,1.7375,1.0,2711.3373556092647,0.4302997738601383,1.3056849049307837,0.9742393672106325,0.286028,0.7020304174026075
0.0505,1.73624375,1.0,2709.3472499372583,0.4334953393168722,1.3051357193483184,0.9745703196291169,0.2859752375,0.7031001045209957
0.051000000000000004,1.734975,1.0,2707.3200804472044,0.4366729637419556,1.3045812335449765,0.9748921184648363,0.28592195,0.7041781638144786
0.051500000000000004,1.73369375,1.0,2705.26375053328,0.43983277436223656,1.3040213757482564,0.9752050881703656,0.2858681375,0.7052646782147243
0.052000000000000005,1.7324,1.0,2703.1807885093626,0.44297487034177574,1.3034561231766486,0.9755095386428448,0.2858138,0.7063596342684907
0.0525,1.73109375,1.0,2701.07326852685,0.4460993476006532,1.3028854571674133,0.9758057658972059,0.28575893750000003,0.7074630096826755
0.053,1.729775,1.0,2698.9432619275103,0.449206302058949,1.3023093590578099,0.9760940528927146,0.28570355000000003,0.7085747813330874
0.0535,1.72844375,1.0,2696.792837151591,0.45229582963674325,1.3017278101850982,0.9763746702181864,0.2856476375,0.7096949252579889
0.054,1.7271,1.0,2694.624059653389,0.4553680262541159,1.3011407918865379,0.9766478767355938,0.2855912,0.7108234166516227
0.0545,1.7257437500000001,1.0,2692.438991824739,0.45842298783114704,1.300548285499389,0.9769139201849127,0.2855342375,0.7119602298577096
0.055,1.724375,1.0,2690.239692926159,0.46146081028791675,1.2999502723609113,0.977173037752854,0.28547675,0.7131053383629309
0.0555,1.72299375,1.0,2688.0282190257817,0.46448158954450497,1.2993467338083642,0.9774254566079185,0.2854187375,0.7142587147903838
0.056,1.7216,1.0,2685.8066229457177,0.4674854215209919,1.2987376511790079,0.9776713944040301,0.2853602,0.7154203308930147
0.0565,1.72019375,1.0,2683.576954216723,0.47047240213745745,1.2981230058101016,0.9779110597548389,0.28530113749999997,0.7165901575470348
0.057,1.718775,1.0,2681.3412590400426,0.47344262731398173,1.2975027790389058,0.9781446526806226,0.28524155,0.7177681647453062
0.0575,1.71734375,1.0,2679.1015802569013,0.4763961929706448,1.2968769522026797,0.9783723650295822,0.2851814375,0.7189543215907137
0.058,1.7159,1.0,2676.857916337496,0.4793331806089504,1.2962455253720273,0.9785943806749438,0.2851208,0.7201485608962103
0.0585,1.71444375,1.0,2674.6091004715017,0.48225366550044935,1.2956085093178893,0.9788108761930389,0.2850596375,0.7213507947029827
0.059000000000000004,1.7129750000000001,1.0,2672.363507179348,0.48515779087791366,1.2949658271800915,0.9790220220506324,0.28499795,0.7225610994769274
0.059500000000000004,1.71149375,1.0,2670.1216327026345,0.4880456435430486,1.29431747437173,0.9792279811419707,0.2849357375,0.7237794141563968
0.06,1.71,1.0,2667.883972448869,0.49091731029755936,1.2936634463059002,0.9794289099862268,0.284873,0.7250056769889721
0.0605,1.7084937500000001,1.0,2665.651020994262,0.4937728779431513,1.2930037383956983,0.9796249590244517,0.2848097375,0.7262398255297998
0.061,1.7069750000000001,1.0,2663.4232720871523,0.4966124332815295,1.2923383460542193,0.9798162729004802,0.28474595,0.7274817966399347
0.0615,1.7054437500000001,1.0,2661.2012186514094,0.49943606311439925,1.2916672646945595,0.9800029907267733,0.2846816375,0.728731526484674
0.062,1.7039,1.0,2658.985352791372,0.5022438542434657,1.2909904897298143,0.980185246336113,0.2846168,0.7299889505318968
0.0625,1.70234375,1.0,2656.7761657956707,0.5050358934704343,1.2903080165730794,0.9803631685200024,0.2845514375,0.7312540035503976
0.063,1.7007750000000001,1.0,2654.574148142934,0.5078122675970101,1.2896198406374508,0.980536881254568,0.28448555,0.7325266196082194
0.0635,1.69919375,1.0,2652.379789507483,0.5105730634248984,1.2889259573360239,0.9807065039147059,0.28441913750000003,0.7338067320709889
0.064,1.6976,1.0,2650.193578764905,0.5133183677558044,1.2882263620818943,0.9808721514771674,0.2843522,0.7350942736002447
0.0645,1.69599375,1.0,2648.0160039990965,0.5160482673914334,1.2875210502881582,0.9810339347132299,0.2842847375,0.7363891761517678
0.065,1.694375,1.0,2645.847552509261,0.5187628491334905,1.286810017367911,0.9811919603715595,0.28421675,0.7376913709739115
0.0655,1.69274375,1.0,2643.688710817007,0.521462199783681,1.2860932587342482,0.9813463313518332,0.2841482375,0.7390007886059264
0.066,1.6911,1.0,2641.539964674638,0.5241464061437101,1.2853707698002659,0.9814971468696484,0.2840792,0.7403173588762872
0.0665,1.6894437500000001,1.0,2639.401799073829,0.5268155550152831,1.2846425459790596,0.9816445026132159,0.2840096375,0.7416410109010171
0.067,1.687775,1.0,2637.2746982536814,0.5294697332001053,1.2839085826837249,0.9817884908923035,0.28393955,0.7429716730820107
0.0675,1.68609375,1.0,2635.1591457109225,0.5321090274998816,1.2831688753273578,0.9819292007798601,0.2838689375,0.7443092731053549
0.068,1.6844000000000001,1.0,2633.0541990879256,0.5347335035275625,1.282423432511976,0.9820667174866754,0.2837978,0.7456537141841623
0.0685,1.68269375,1.0,2630.9592038150086,0.5373432396576379,1.2816722601894661,0.982201124001319,0.2837261375,0.747004903825758
0.069,1.680975,1.0,2628.876770761314,0.5399383578017014,1.280915334077328,0.9823325018341653,0.28365395,0.7483628031894872
0.0695,1.67924375,1.0,2626.806802145194,0.5425189354181617,1.2801526549524678,0.9824609280360805,0.28358123749999997,0.7497273275608531
0.07,1.6775,1.0,2624.74920039496,0.5450850499654275,1.279384223591792,0.9825864770549262,0.283508,0.7510983916071797
0.07050000000000001,1.67574375,1.0,2622.703868146907,0.5476367789019074,1.278610040772207,0.9827092208396517,0.2834342375,0.7524759093778992
0.07100000000000001,1.673975,1.0,2620.6707082435028,0.5501741996860103,1.2778301072706186,0.9828292289395381,0.28335995,0.753859794304836
0.07150000000000001,1.67219375,1.0,2618.649623731503,0.5526973897761447,1.2770444238639336,0.9829465685988468,0.2832851375,0.7552499592024908
0.07200000000000001,1.6704,1.0,2616.640517860334,0.5552064266307193,1.276252991329058,0.9830613048471186,0.2832098,0.7566463162683275
0.0725,1.66859375,1.0,2614.6432940801296,0.5577013877081426,1.2754558104428981,0.9831735005853477,0.2831339375,0.7580487770830554
0.073,1.6667750000000001,1.0,2612.6578560399203,0.5601823504668236,1.2746528819823602,0.983283216668244,0.28305755,0.7594572526109176
0.0735,1.66494375,1.0,2610.6841075860502,0.5626493923651709,1.2738442067243503,0.983390511982788,0.2829806375,0.7608716531999723
0.074,1.6631,1.0,2608.721952760072,0.565102590861593,1.2730297854457753,0.9834954435232673,0.2829032,0.7622918885823786
0.0745,1.6612437500000001,1.0,2606.7712957973836,0.5675420234144987,1.2722096189235408,0.9835980664629698,0.2828252375,0.7637178678746834
0.075,1.659375,1.0,2604.8320411253385,0.5699677674822967,1.2713837079345536,0.9836984342227097,0.28274675,0.7651494995781024
0.0755,1.65749375,1.0,2602.904093361594,0.5723799005233956,1.2705520532557195,0.9837965985363403,0.2826677375,0.7665866915788084
