Time [s],Phi [rad],STIM [ ],Fsee [N],Gamma [ ],Lcerel [ ],q [ ],Lmtc [m],fisomrel [ ]
0.0,1.8,1.0,19.14472517561258,0.0011080923385117676,1.3792099128930237,0.005315110507070998,0.288653,0.5414535776902594
0.0005,1.79999375,1.0,19.77350193970341,0.0067110861255878975,1.3791393984429714,0.016267756926075107,0.2886527375,0.5416240961361665
0.001,1.799975,1.0,23.93411026841293,0.012282651547713542,1.3787078002618975,0.04155754552065124,0.28865195,0.5426670982805955
0.0015,1.79994375,1.0,35.26010812317585,0.017822964893249475,1.3777004467341643,0.07859493990498556,0.2886506375,0.5450968512015713
0.002,1.7999,1.0,61.42826242979467,0.023332201461452113,1.375876513670981,0.12408811282773358,0.2886488,0.5494797400208828
0.0025,1.79984375,1.0,109.31809469543987,0.028810535569040164,1.3733647032929714,0.17470760386558565,0.28864643749999996,0.5554808620374726
0.003,1.7997750000000001,1.0,176.21805301243066,0.03425814055362417,1.3706560837941115,0.22769374092241162,0.28864354999999997,0.5619071031454483
0.0035,1.79969375,1.0,254.59612603514998,0.03967518878071351,1.3680727271179463,0.28094169476460096,0.2886401375,0.5679925623468045
0.004,1.7996,1.0,339.2671708426646,0.04506185164793474,1.3656909796643304,0.3328967725701992,0.2886362,0.5735653934698416
0.0045000000000000005,1.7994937500000001,1.0,427.57410384626974,0.050418299604166814,1.3634977950187754,0.3824950567335847,0.2886317375,0.5786650287515571
0.005,1.799375,1.0,517.995251848772,0.055744702114006166,1.3614670878793413,0.4290891076953255,0.28862675,0.5833595165179482
0.0055,1.79924375,1.0,609.4711507342372,0.06104122773344932,1.3595766992015197,0.47235342910813055,0.2886212375,0.5877059865795276
0.006,1.7991000000000001,1.0,701.1506539171157,0.06630804398862189,1.3578100051750284,0.5121933199502154,0.2886152,0.5917474496066524
0.006500000000000001,1.79894375,1.0,792.3557805275473,0.07154531764230704,1.3561537414425529,0.5486681863647369,0.2886086375,0.5955182157412986
0.007,1.798775,1.0,882.4949072120448,0.07675321420580682,1.3545977928777109,0.5819339478650907,0.28860155,0.5990446597138268
0.0075,1.79859375,1.0,971.1197516486213,0.08193189875296565,1.353133096747382,0.6122002338965807,0.2885939375,0.6023501785127683
0.008,1.7984,1.0,1057.837647557506,0.08708153490343613,1.3517523723830587,0.6397022718769578,0.2885858,0.6054536623816646
0.0085,1.79819375,1.0,1142.3431162212469,0.09220228549827401,1.3504490801966544,0.6646814169290896,0.2885771375,0.6083719457567567
0.009000000000000001,1.797975,1.0,1224.4275873709905,0.09729431303895826,1.349216974928551,0.6873731225844577,0.28856795,0.6111208686918106
0.0095,1.79774375,1.0,1303.9084120429027,0.10235777824236425,1.3480508414093628,0.7080004644188683,0.2885582375,0.61371368556835
0.01,1.7975,1.0,1380.6591970058448,0.10739284119549225,1.3469458310198592,0.7267701416409756,0.288548,0.6161625967408779
0.0105,1.79724375,1.0,1454.615915026651,0.1123996615264512,1.345897239031294,0.7438709067946633,0.2885372375,0.6184792730565303
0.011,1.796975,1.0,1525.735940529048,0.1173783978599217,1.3449009015549087,0.7594736550153358,0.28852595000000003,0.6206740054419999
0.0115,1.79669375,1.0,1593.9886315146607,0.12232920712597038,1.3439531748755185,0.7737320764865989,0.2885141375,0.622755782822229
0.012,1.7964,1.0,1659.383189504408,0.12725224584193748,1.3430504987877325,0.7867835800459563,0.28850180000000003,0.6247332757700508
0.0125,1.79609375,1.0,1721.964187818128,0.13214767064841734,1.3421893916344065,0.7987506540051581,0.2884889375,0.6266148605002384
0.013000000000000001,1.7957750000000001,1.0,1781.7730014941637,0.13701563660013996,1.3413668341347877,0.8097424402160616,0.28847555,0.6284077951300775
0.0135,1.79544375,1.0,1838.8458670123953,0.1418562967407948,1.340580215788678,0.8198560798726369,0.2884616375,0.6301183565476327
0.014,1.7951000000000001,1.0,1893.2457673903875,0.14666980411407138,1.3398269260958786,0.8291778652428401,0.2884472,0.6317527433042929
0.0145,1.79474375,1.0,1945.051259776296,0.1514563111023198,1.3391044497542146,0.8377845004481339,0.2884322375,0.6333168755002914
0.015,1.794375,1.0,1994.3496942125637,0.15621597030905662,1.3384104096632816,0.845744224980985,0.28841675,0.6348163094117664
0.0155,1.79399375,1.0,2041.2151572431826,0.1609489322563581,1.3377427701378042,0.8531178662602557,0.2884007375,0.6362558074605943
0.016,1.7936,1.0,2085.716285201163,0.1656553456455726,1.3370997193052163,0.8599596717316462,0.2883842,0.6376396021822206
0.0165,1.7931937500000001,1.0,2127.935520258178,0.17033535917804865,1.3364794452929523,0.8663180193265136,0.2883671375,0.6389718842326121
0.017,1.792775,1.0,2167.964531519219,0.17498912120222396,1.3358801709129344,0.8722361227208676,0.28834955,0.6402567308274807
0.0175,1.7923437500000001,1.0,2205.890969072783,0.17961677918130683,1.3353002749170781,0.8777526741053617,0.2883314375,0.6414978496190429
0.018000000000000002,1.7919,1.0,2241.810753872752,0.1842184812160623,1.3347381522797723,0.8829023365027723,0.2883128,0.6426988820418493
0.0185,1.79144375,1.0,2275.7902040939766,0.18879437136027732,1.3341925819387304,0.8877163043056191,0.2882936375,0.6438626217382812
0.019,1.790975,1.0,2307.902715480556,0.19334459366773912,1.3336623428316663,0.8922226063176193,0.28827395,0.6449918398472054
0.0195,1.79049375,1.0,2338.22817692762,0.1978692921922347,1.3331462138962933,0.8964464682667317,0.2882537375,0.6460892862454248
0.02,1.79,1.0,2366.847904167714,0.20236861027193,1.3326430181415585,0.9004106401676383,0.288233,0.6471575971992181
0.0205,1.78949375,1.0,2393.8420970807,0.20684269095006014,1.3321516410498535,0.9041356777885926,0.2882117375,0.648199258124647
0.021,1.788975,1.0,2419.2911032507745,0.2112916773186203,1.331671012197127,0.9076401811359414,0.28818995000000003,0.6492166443499149
0.021500000000000002,1.78844375,1.0,2443.254601261737,0.21571570849849583,1.3312003001467378,0.9109410463880819,0.2881676375,0.6502116109142564
0.022,1.7879,1.0,2465.7956412102353,0.2201149236105719,1.3307386734620452,0.9140536013895649,0.2881448,0.6511860008819089
0.0225,1.78734375,1.0,2486.980365496653,0.22448946177573378,1.3302853007064082,0.9169917729165308,0.28812143749999997,0.6521416458459106
0.023,1.786775,1.0,2506.877744942934,0.22883946211486675,1.3298393504431862,0.9197682341516523,0.28809755,0.6530803663878093
0.0235,1.78619375,1.0,2525.546320808243,0.23316506073222043,1.32940011416843,0.9223945561813375,0.28807313749999996,0.6540037142405144
0.024,1.7856,1.0,2543.059193263781,0.23746639885857365,1.3289667666791904,0.9248812811352356,0.2880482,0.6549134771066297
0.0245,1.78499375,1.0,2559.4656478616776,0.24174361111868942,1.328538726377351,0.9272380841673724,0.2880227375,0.655810922418202
0.025,1.784375,1.0,2574.8135746571293,0.2459968313317081,1.3281154399090558,0.9294738245580927,0.28799675,0.656697251572981
0.025500000000000002,1.78374375,1.0,2589.152315127907,0.2502261933167701,1.327696353920449,0.9315966215499668,0.2879702375,0.6575736595256502
0.026000000000000002,1.7831000000000001,1.0,2602.5325379868727,0.25443183089301574,1.3272809150576748,0.9336139262072803,0.2879432,0.6584413349458262
0.0265,1.78244375,1.0,2615.006121783201,0.25861387787958534,1.3268685699668772,0.9355325854208661,0.2879156375,0.6593014603565329
0.027,1.781775,1.0,2626.6152677688524,0.26277246469646526,1.3264588651486449,0.9373589129351658,0.28788755,0.6601550043554174
0.0275,1.7810937500000001,1.0,2637.4139315152042,0.2669077273257241,1.326051246797456,0.9390987123304201,0.2878589375,0.6610031392277567
0.028,1.7804,1.0,2647.444814712398,0.27101979721424674,1.3256452733566286,0.9407573513044017,0.2878298,0.661846798279613
0.0285,1.77969375,1.0,2656.741609514953,0.27510880233733237,1.3252405930121134,0.9423397980775395,0.2878001375,0.6626867240342118
0.029,1.778975,1.0,2665.338606855314,0.2791748706702801,1.32483685394986,0.9438506456711643,0.28776995,0.6635236553442516
0.029500000000000002,1.7782437500000001,1.0,2673.2706436953904,0.28321813018838904,1.3244337043558192,0.9452941450789915,0.2877392375,0.6643583274169672
0.03,1.7775,1.0,2680.573053022905,0.2872387088669585,1.3240307924159411,0.9466742351100409,0.287708,0.6651914718313051
0.0305,1.77674375,1.0,2687.2816165920167,0.29123673468128763,1.3236277663161757,0.9479945692732096,0.2876762375,0.6660238165472027
0.031,1.775975,1.0,2693.4297719894494,0.2952123343972437,1.3232242993912764,0.9492585428343959,0.28764395,0.6668560340657479
0.0315,1.7751937500000001,1.0,2699.0456113304876,0.2991656332651846,1.3228201170460852,0.9504693176855198,0.2876111375,0.6676886863212752
0.032,1.7744,1.0,2704.1674556025728,0.30309676093128973,1.3224148539490024,0.951629825969383,0.2875778,0.6685225189829191
0.0325,1.77359375,1.0,2708.817897901293,0.3070058394656526,1.322008290991475,0.9527428137449783,0.2875439375,0.6693579736375943
0.033,1.772775,1.0,2713.0197437291285,0.3108929909383665,1.3216002090649503,0.9538108408801379,0.28750955,0.6701954895707278
0.0335,1.7719437500000002,1.0,2716.7959904186378,0.31475833741952497,1.3211903890608756,0.9548362959103911,0.2874746375,0.671035503746567
0.034,1.7711000000000001,1.0,2720.1698076195225,0.3186020009792213,1.3207786118706974,0.9558214095437728,0.2874392,0.6718784507854223
0.0345,1.7702437500000001,1.0,2723.1645188503617,0.32242410368754904,1.3203646583858633,0.956768266949275,0.2874032375,0.6727247629378481
0.035,1.7693750000000001,1.0,2725.8035841148876,0.32622476761460145,1.31994830949782,0.9576788189512844,0.28736675,0.6735748700557629
0.035500000000000004,1.76849375,1.0,2728.100932429205,0.33000410675907865,1.3195294338457657,0.9585548995312078,0.2873297375,0.6744290207468254
0.036000000000000004,1.7676,1.0,2730.0874267287923,0.33376225185361463,1.3191077469882213,0.9593982154843516,0.2872922,0.6752877736355273
0.0365,1.76669375,1.0,2731.780506358717,0.3374993213683049,1.318683087381335,0.960210377270936,0.2872541375,0.6761514343657536
0.037,1.765775,1.0,2733.1944654229014,0.34121543088037215,1.3182553227005995,0.9609928987923048,0.28721555,0.6770202473620448
0.0375,1.76484375,1.0,2734.343657544449,0.344910695967039,1.3178243206215075,0.9617472021484582,0.2871764375,0.677894455425629
0.038,1.7639,1.0,2735.242488607525,0.3485852322055279,1.3173899488195513,0.9624746242171993,0.28713679999999997,0.6787742997076613
0.0385,1.76294375,1.0,2735.90540988759,0.3522391551730615,1.316952074970224,0.963176422692368,0.28709663750000003,0.6796600196813443
0.039,1.761975,1.0,2736.346911569287,0.3558725804468624,1.316510566749018,0.9638537816310331,0.28705595,0.6805518531129319
0.0395,1.7609937500000001,1.0,2736.5815166539014,0.3594856236041531,1.316065291831426,0.9645078165544404,0.2870147375,0.6814500360316185
0.04,1.76,1.0,2736.623775253159,0.3630784002221563,1.3156161178929406,0.9651395791430125,0.286973,0.682354802698308
0.0405,1.7589937500000001,1.0,2736.485868576298,0.3666510220669839,1.3151629343118243,0.9657500627826603,0.2869307375,0.6832663419514053
0.041,1.757975,1.0,2736.1750190681178,0.37020359649823675,1.3147056756425057,0.9663402084101713,0.28688795,0.6841847503775318
0.0415,1.75694375,1.0,2735.7118659674275,0.3737362538322401,1.3142441547624348,0.966910898466842,0.2868446375,0.6851103673394225
0.042,1.7559,1.0,2735.103986427656,0.3772491021201911,1.3137783032199197,0.9674629732244608,0.28680079999999997,0.6860432921824877
0.0425,1.75484375,1.0,2734.3589661540946,0.3807422494132868,1.3133080525632679,0.9679972274549382,0.2867564375,0.686983623083586
0.043000000000000003,1.753775,1.0,2733.4843974605283,0.3842158037627245,1.3128333343407874,0.9685144133514392,0.28671155,0.6879314570319679
0.043500000000000004,1.75269375,1.0,2732.487877430735,0.3876698732197013,1.3123540801007862,0.9690152432336139,0.28666613750000003,0.6888868898099223
0.044,1.7516,1.0,2731.37700618237,0.39110456583541425,1.311870221391572,0.9695003920548738,0.2866202,0.6898500159731245
0.0445,1.75049375,1.0,2730.1593852364717,0.39451998966106067,1.311381689761453,0.9699704997280322,0.2865737375,0.6908209288306832
0.045,1.7493750000000001,1.0,2728.842615989314,0.39791625274783754,1.3108884167587365,0.9704261732841196,0.28652675,0.6917997204248922
0.0455,1.74824375,1.0,2727.434298289033,0.4012934631469421,1.3103903339317307,0.9708679888778597,0.2864792375,0.6927864815106783
0.046,1.7471,1.0,2725.9420291159777,0.40465172890957146,1.3098873728287432,0.9712964936520765,0.2864312,0.693781301534756
0.0465,1.7459437500000001,1.0,2724.3734013668486,0.4079911580869228,1.3093794649980823,0.9717122074722206,0.28638263750000004,0.6947842686144782
0.047,1.744775,1.0,2722.7348593325924,0.4113118532299883,1.3088665523941228,0.9721156245712047,0.28633355,0.6957954490183949
0.0475,1.74359375,1.0,2721.030384207451,0.41461391775349277,1.3083485993511983,0.972507216752647,0.28628393750000003,0.6968148637696243
0.048,1.7424,1.0,2719.2664735869275,0.41789746925308624,1.3078255472658558,0.9728874331598732,0.2862338,0.6978425779670804
0.0485,1.74119375,1.0,2717.447018078173,0.42116260822039264,1.3072973612270655,0.9732567008946261,0.2861831375,0.6988786090015383
0.049,1.739975,1.0,2715.5759049770695,0.42440943514703583,1.306764006323798,0.9736154267994954,0.28613195,0.6999229732913674
0.0495,1.73874375,1.0,2713.65701788667,0.42763805052463977,1.306225447645023,0.9739639986002798,0.2860802375,0.7009756862710628
0.05,1.7375,1.0,2711.694236362013,0.4308485548448283,1.3056816502797113,0.9743027859739263,0.286028,0.7020367623796948
0.0505,1.73624375,1.0,2709.691435581621,0.4340410485992254,1.305132579316833,0.9746321415475265,0.2859752375,0.7031062150492879
0.051000000000000004,1.734975,1.0,2707.652486046854,0.4372156322794548,1.304578199845358,0.974952401833391,0.28592195,0.7041840566931159
0.051500000000000004,1.73369375,1.0,2705.5812533074186,0.4403724063771405,1.3040184769542573,0.9752638881048272,0.2858681375,0.7052702986939213
0.052000000000000005,1.7324,1.0,2703.4815977145354,0.4435114713839064,1.3034533757325006,0.9755669072168666,0.2858138,0.7063649513920593
0.0525,1.73109375,1.0,2701.3573742007898,0.4466329277913763,1.3028828612690584,0.9758617523758546,0.28575893750000003,0.7074680240735598
0.053,1.729775,1.0,2699.212432087111,0.4497368760911742,1.302306898652901,0.9761487038615027,0.28570355000000003,0.7085795249581144
0.0535,1.72844375,1.0,2697.047240278344,0.4528233962012686,1.301725483831173,0.9764280295241472,0.2856476375,0.7096994018075402
0.054,1.7271,1.0,2694.863419083344,0.4558925898921356,1.3011386022139364,0.9766999871987423,0.2855912,0.7108276219918259
0.0545,1.7257437500000001,1.0,2692.667712658245,0.4589445873159264,1.3005461922983363,0.9769648235827049,0.2855342375,0.7119642420120262
0.055,1.724375,1.0,2690.461372935994,0.46197948013329404,1.2999482427654843,0.9772227740883911,0.28547675,0.7131092208606445
0.0555,1.72299375,1.0,2688.245649901824,0.4649973600048915,1.2993447422964919,0.9774740642119822,0.2854187375,0.7142625167711953
0.056,1.7216,1.0,2686.0217915682183,0.4679983185913718,1.2987356795724705,0.9777189100306949,0.2853602,0.7154240872142036
0.0565,1.72019375,1.0,2683.7910439529464,0.470982447553388,1.2981210432745318,0.9779575186711141,0.28530113749999997,0.7165938888931911
0.057,1.718775,1.0,2681.554651059484,0.47394983855159295,1.2975008220837871,0.978190088750551,0.28524155,0.7177718777406595
0.0575,1.71734375,1.0,2679.3138548602037,0.47690058324663975,1.2968750046813482,0.9784168107931809,0.2851814375,0.7189580089140608
0.058,1.7159,1.0,2677.069895283097,0.4798347732991814,1.2962435797483265,0.9786378676225966,0.2851208,0.7201522367917632
0.0585,1.71444375,1.0,2674.824010200845,0.4827525003698709,1.2956065359658335,0.9788534347322883,0.2850596375,0.7213545149690063
0.059000000000000004,1.7129750000000001,1.0,2672.5774354224673,0.48565385611936124,1.294963862014981,0.9790636806354563,0.28499795,0.7225647962538496
0.059500000000000004,1.71149375,1.0,2670.331404688662,0.48853893220830547,1.29431554657688,0.9792687671954632,0.2849357375,0.7237830326631134
0.06,1.71,1.0,2668.087149668844,0.4914078202973564,1.2936615783326428,0.9794688499381367,0.284873,0.725009175418307
0.0605,1.7084937500000001,1.0,2665.8458999622626,0.4942606120471673,1.2930019459633801,0.9796640783470585,0.2848097375,0.7262431749415577
0.061,1.7069750000000001,1.0,2663.6088831008838,0.49709739911839107,1.2923366381502042,0.9798545961428808,0.28474595,0.7274849808515198
0.0615,1.7054437500000001,1.0,2661.377324555635,0.4999182731716807,1.291665643574226,0.9800405415476597,0.2846816375,0.7287345419592876
0.062,1.7039,1.0,2659.1524477458474,0.5027233258676892,1.2909889509165573,0.9802220475351051,0.2846168,0.7299918062642903
0.0625,1.70234375,1.0,2656.9354740504664,0.5055126488670695,1.2903065488583099,0.9803992420676094,0.2845514375,0.7312567209501841
0.063,1.7007750000000001,1.0,2654.726210762922,0.5082862957608053,1.2896184390951908,0.9805722461480716,0.28448555,0.7325292083420448
0.0635,1.69919375,1.0,2652.5257591133523,0.5110443884895718,1.288924611395146,0.9807411807650684,0.28441913750000003,0.7338092121497573
0.064,1.6976,1.0,2650.3348983418996,0.5137870294226846,1.288225058479592,0.980906161134165,0.2843522,0.7350966698483283
0.0645,1.69599375,1.0,2648.1538180338557,0.5165143007212666,1.2875197784997203,0.9810672970669083,0.2842847375,0.7363915081998462
0.065,1.694375,1.0,2645.982707488358,0.51922628454644,1.2868087696067219,0.9812246943994849,0.28421675,0.7376936533057346
0.0655,1.69274375,1.0,2643.82175572201,0.5219230630593279,1.2860920299517875,0.9813784551637059,0.2841482375,0.7390030306060763
0.066,1.6911,1.0,2641.6711514722256,0.5246047184210526,1.2853695576861086,0.9815286777494447,0.2840792,0.7403195648789374
0.0665,1.6894437500000001,1.0,2639.531083201029,0.527271332792737,1.284641350960876,0.9816754570590094,0.2840096375,0.7416431802396919
0.067,1.687775,1.0,2637.401739098135,0.5299229883355036,1.2839074079272812,0.9818188846539067,0.28393955,0.7429738001403455
0.0675,1.68609375,1.0,2635.283307085384,0.5325597672104749,1.2831677267365147,0.9819590488944195,0.2838689375,0.7443113473688602
0.068,1.6844000000000001,1.0,2633.1759748199374,0.5351817515787738,1.2824223055397679,0.9820960350724034,0.2837978,0.7456557440484758
0.0685,1.68269375,1.0,2631.079929698259,0.5377890236015228,1.2816711424882319,0.982229925537667,0.2837261375,0.747006911637035
0.069,1.680975,1.0,2628.9953588602616,0.5403816654398447,1.2809142357330976,0.9823607998182973,0.28365395,0.7483647709263064
0.0695,1.67924375,1.0,2626.922449193054,0.5429597592548618,1.2801515834255561,0.9824887347352541,0.28358123749999997,0.7497292420413064
0.07,1.6775,1.0,2624.8613873351146,0.5455233872076972,1.2793831837167986,0.9826138045115431,0.283508,0.7511002444396224
0.07050000000000001,1.67574375,1.0,2622.812359680571,0.5480726314594732,1.2786090347580161,0.9827360808762626,0.2834342375,0.7524776969107352
0.07100000000000001,1.673975,1.0,2620.7755523830124,0.5506075741713125,1.2778291347003996,0.9828556331637921,0.28335995,0.7538615175753419
0.07150000000000001,1.67219375,1.0,2618.751151360309,0.5531282975043377,1.2770434816951404,0.9829725284083852,0.2832851375,0.7552516238846761
0.07200000000000001,1.6704,1.0,2616.7393422988307,0.5556348836196715,1.2762520738934293,0.9830868314344067,0.2832098,0.7566479326198319
0.0725,1.66859375,1.0,2614.740310657647,0.5581274146784366,1.2754549094464576,0.9831986049424377,0.2831339375,0.7580503598910838
0.073,1.6667750000000001,1.0,2612.752811037805,0.5606059225488265,1.2746519997967072,0.9833079072530749,0.28305755,0.7594587978560892
0.0735,1.66494375,1.0,2610.777393209721,0.5630705331988075,1.273843339720442,0.983414799523058,0.2829806375,0.7608731673812327
0.074,1.6631,1.0,2608.814311379747,0.5655213411409404,1.2730289267346857,0.9835193392395633,0.2829032,0.76229338382049
0.0745,1.6612437500000001,1.0,2606.863328841245,0.5679584192264896,1.2722087629193997,0.9836215810213078,0.2828252375,0.7637193539218434
0.075,1.659375,1.0,2604.924209297433,0.5703818403067192,1.2713828503545457,0.9837215777575564,0.28274675,0.7651509838438848
0.0755,1.65749375,1.0,2602.9967168566855,0.5727916772328938,1.2705511911200849,0.9838193806724777,0.2826677375,0.7665881791565795
