Time [s],Phi [rad],STIM [ ],Fsee [N],Gamma [ ],Lcerel [ ],q [ ],Lmtc [m],fisomrel [ ]
0.0,1.8,1.0,17.99061593620174,0.00015564745774626548,1.3793371190223709,0.005006318253843655,0.288653,0.5411458868998968
0.0005,1.79999375,1.0,18.347810926401124,0.005763983707426505,1.3792945013124904,0.013349804577569381,0.2886527375,0.541248983654685
0.001,1.799975,1.0,21.797643859853622,0.011340861624974323,1.378920030906642,0.0363715729178881,0.28865195,0.5421543691891245
0.0015,1.79994375,1.0,31.48104762691382,0.016886457667714204,1.3780112342882194,0.0716435155719788,0.2886506375,0.5443479169384469
0.002,1.7999,1.0,54.457405827014746,0.022400947301157468,1.3763115949102644,0.11594999986789872,0.2886488,0.5484361719900926
0.0025,1.79984375,1.0,98.57922604259689,0.027884505007457382,1.3738650619909594,0.1659141223439918,0.28864643749999996,0.5542886333625514
0.003,1.7997750000000001,1.0,162.85151996644274,0.03333730429184568,1.3711436809405086,0.2186614169452669,0.28864354999999997,0.5607537248020724
0.0035,1.79969375,1.0,239.818864821472,0.038759517683291965,1.3685191012539009,0.2719859626931952,0.2886401375,0.5669441071779884
0.004,1.7996,1.0,323.7365633910897,0.04415131674495266,1.3660960800207995,0.32424499816067187,0.2886362,0.5726200899024374
0.0045000000000000005,1.7994937500000001,1.0,411.6166829883863,0.04951287207945998,1.3638677546629954,0.37429604606459604,0.2886317375,0.5778069423358106
0.005,1.799375,1.0,501.8091525178212,0.05484435332072004,1.3618074959219564,0.4214275769318822,0.28862675,0.5825744129294755
0.0055,1.79924375,1.0,593.2062209773517,0.06014592917375711,1.3598916842413948,0.465266209015302,0.2886212375,0.5869833406055235
0.006,1.7991000000000001,1.0,684.9350553483922,0.06541776737659188,1.3581025199098509,0.5056839219488624,0.2886152,0.5910796723029811
0.006500000000000001,1.79894375,1.0,776.2831898756588,0.07066003472747732,1.3564262828279627,0.5427186820339555,0.2886086375,0.5948989314714321
0.007,1.798775,1.0,866.6575309546913,0.07587289712792625,1.354852110369229,0.5765132836070739,0.28860155,0.5984693232350271
0.0075,1.79859375,1.0,955.5674353163121,0.08105651935568056,1.3533710520514624,0.6072707770538405,0.2885939375,0.6018140930230953
0.008,1.7984,1.0,1042.6404412657853,0.08621106581976197,1.3519750670920199,0.6352233323939094,0.2885858,0.6049539290356127
0.0085,1.79819375,1.0,1127.5493803618735,0.0913366992599742,1.3506576156485017,0.6606123394188603,0.2885771375,0.6079057289148841
0.009000000000000001,1.797975,1.0,1210.0495091524726,0.0964335817597267,1.349412680083307,0.683675000043276,0.28856795,0.6106848820057414
0.0095,1.79774375,1.0,1289.9771722219755,0.10150187497597535,1.348234545278137,0.7046366236907736,0.2885582375,0.6133058082746465
0.01,1.7975,1.0,1367.1965335948842,0.10654173913323156,1.3471183106066658,0.7237068381733645,0.288548,0.6157808623774692
0.0105,1.79724375,1.0,1441.6176282571234,0.11155333344343021,1.3460594472271745,0.7410775689909512,0.2885372375,0.618121361558745
0.011,1.796975,1.0,1513.195817968229,0.11653681633995444,1.3450536738515586,0.7569226781958772,0.28852595000000003,0.6203378895457341
0.0115,1.79669375,1.0,1581.9327616897444,0.12149234670216758,1.3440968451216455,0.7713985039582087,0.2885141375,0.6224405649787319
0.012,1.7964,1.0,1647.809977889338,0.12642008029388765,1.3431856522432357,0.7846452478697875,0.28850180000000003,0.6244375258111763
0.0125,1.79609375,1.0,1710.8468767735642,0.13132017272904864,1.3423168234149365,0.7967879151822133,0.2884889375,0.6263367104818469
0.013000000000000001,1.7957750000000001,1.0,1771.0925994348802,0.1361927791623207,1.3414871716608103,0.8079377598754534,0.28847555,0.628145764002233
0.0135,1.79544375,1.0,1828.6124317430497,0.14103805465934444,1.3406937016225766,0.8181937346653313,0.2884616375,0.6298718165647537
0.014,1.7951000000000001,1.0,1883.4645866584242,0.14585615260157464,1.3399338161222536,0.8276438933451365,0.2884472,0.6315210480119958
0.0145,1.79474375,1.0,1935.7027900768119,0.15064722445132134,1.3392052322608845,0.8363665759836527,0.2884322375,0.633098885225891
0.015,1.794375,1.0,1985.4017267961297,0.1554114216708947,1.3385056671395128,0.8444314167645832,0.28841675,0.6346106929669432
0.0155,1.79399375,1.0,2032.6468324536386,0.1601488950454323,1.33783292629255,0.8519003919242103,0.2884007375,0.6360615877315452
0.016,1.7936,1.0,2077.5317777392356,0.16485979561710923,1.3371849074166582,0.8588287250085337,0.2883842,0.6374564356199607
0.0165,1.7931937500000001,1.0,2120.13833579379,0.16954427261845012,1.3365597876073636,0.8652657395057824,0.2883671375,0.6387994558854793
0.017,1.792775,1.0,2160.5359083413086,0.1742024730878913,1.3359560011007796,0.8712555458281005,0.28834955,0.6400942771823118
0.0175,1.7923437500000001,1.0,2198.8046892469424,0.17883454406386917,1.3353719821330197,0.8768375829429346,0.2883314375,0.6413444948984999
0.018000000000000002,1.7919,1.0,2235.0347551281898,0.18344063258482007,1.3348061649401972,0.8820471676716924,0.2883128,0.6425536732080277
0.0185,1.79144375,1.0,2269.306029761288,0.18802088381156812,1.3342571749643002,0.8869160242682149,0.2882936375,0.6437249393650677
0.019,1.790975,1.0,2301.719119729265,0.19257544524484219,1.33372350894916,0.8914726208466711,0.28827395,0.6448616695620535
0.0195,1.79049375,1.0,2332.3412479496023,0.19710445957623016,1.3332040642931422,0.8957426672059913,0.2882537375,0.645966363324399
0.02,1.79,1.0,2361.2421340707274,0.2016080691291678,1.332697769495794,0.8997493397135682,0.288233,0.6470414354991184
0.0205,1.78949375,1.0,2388.496631454791,0.20608641622709095,1.3322035530566616,0.9035135585893826,0.2882117375,0.6480892835986283
0.021,1.788975,1.0,2414.184293396429,0.21053964319343543,1.3317203434752913,0.9070542382572823,0.28818995000000003,0.6491122886627383
0.021500000000000002,1.78844375,1.0,2438.371850060802,0.2149678899338473,1.331247233842517,0.910388540642151,0.2881676375,0.6501124683408191
0.022,1.7879,1.0,2461.146393552515,0.21937129995111024,1.3307831566986215,0.9135320002564858,0.2881448,0.6510921659582118
0.0225,1.78734375,1.0,2482.5645833470044,0.22375001105578637,1.3303273686949317,0.9164987904690353,0.28812143749999997,0.6520530277139115
0.023,1.786775,1.0,2502.6827505485617,0.2281041605653155,1.3298791551093623,0.9193018103433468,0.28809755,0.6529966295418792
0.0235,1.78619375,1.0,2521.559644624641,0.23243388579713736,1.3294378012198282,0.9219528119933368,0.28807313749999996,0.6539245380339443
0.024,1.7856,1.0,2539.256229585148,0.2367393240686918,1.3290025923042437,0.9244625184114461,0.2880482,0.6548383107687743
0.0245,1.78499375,1.0,2555.8297015022863,0.24102061153036505,1.328572868027964,0.9268407368204794,0.2880227375,0.6557393826399176
0.025,1.784375,1.0,2571.3381476863015,0.24527788448370583,1.328147976292277,0.9290964426256386,0.28799675,0.656629163441592
0.025500000000000002,1.78374375,1.0,2585.846007530704,0.24951128000154058,1.3277272206450004,0.9312378528512167,0.2879702375,0.6575091481132119
0.026000000000000002,1.7831000000000001,1.0,2599.3947843856654,0.2537209300684133,1.3273101322912302,0.9332725419168176,0.2879432,0.6583803485315606
0.0265,1.78244375,1.0,2612.027103632439,0.2579069666688678,1.3268962424360624,0.9352074682514705,0.2879156375,0.6592437713047932
0.027,1.781775,1.0,2623.78661832735,0.26206952178744813,1.326485082284593,0.9370490326489368,0.28788755,0.6601004178750718
0.0275,1.7810937500000001,1.0,2634.7179197176492,0.26620872740869816,1.3260761830419179,0.9388031303846248,0.2878589375,0.6609512846071866
0.028,1.7804,1.0,2644.866452630673,0.2703247155171618,1.325669075913133,0.9404751978283411,0.2878298,0.6617973628631568
0.0285,1.77969375,1.0,2654.2713046902204,0.27441761394340486,1.325263357833937,0.9420702620072713,0.2878001375,0.6626395027123477
0.029,1.778975,1.0,2662.982324343661,0.278487557906491,1.3248585327159246,0.9435929593243201,0.28776995,0.6634787427348743
0.029500000000000002,1.7782437500000001,1.0,2671.030483595445,0.28253467421860995,1.324454283910967,0.9450476018307066,0.2877392375,0.6643157450632068
0.03,1.7775,1.0,2678.4464582770015,0.28655908929293006,1.3240503018401424,0.9464381849024792,0.287708,0.6651511539455122
0.0305,1.77674375,1.0,2685.26135197646,0.29056092954261986,1.323646276924529,0.9477684137723642,0.2876762375,0.665985610436515
0.031,1.775975,1.0,2691.5066565230695,0.2945403213808477,1.3232418995852049,0.9490417282505844,0.28764395,0.6668197523997077
0.0315,1.7751937500000001,1.0,2697.2142145959997,0.29849739122078184,1.322836860243248,0.9502613250490951,0.2876111375,0.6676542145034488
0.032,1.7744,1.0,2702.415580865758,0.3024322648859286,1.3224308548335906,0.9514301784611939,0.2875778,0.6684896168727043
0.0325,1.77359375,1.0,2707.1339119293616,0.30634505954223756,1.3220236584997205,0.9525510650263372,0.2875439375,0.669326413796095
0.033,1.772775,1.0,2711.4105961011605,0.31023591430962116,1.3216148821421285,0.9536265597540269,0.28750955,0.6701653940838801
0.0335,1.7719437500000002,1.0,2715.265076241609,0.31410494890110807,1.321204338954737,0.954659082765451,0.2874746375,0.6710069280505435
0.034,1.7711000000000001,1.0,2718.7169567654178,0.31795228302972706,1.3207918421314677,0.9556508939057349,0.2874392,0.6718513839984039
0.0345,1.7702437500000001,1.0,2721.7859879652383,0.3217780364085069,1.3203772048662425,0.9566041052489626,0.2874032375,0.6726991281954517
0.035,1.7693750000000001,1.0,2724.4920511089636,0.32558232875047627,1.3199602403529838,0.9575206924879729,0.28736675,0.6735505248509595
0.035500000000000004,1.76849375,1.0,2726.855144310894,0.329365279768664,1.3195407617856134,0.9584025053200406,0.2873297375,0.6744059360888708
0.036000000000000004,1.7676,1.0,2728.895369176552,0.3331270091760987,1.3191185823580533,0.9592512769274053,0.2872922,0.6752657219189615
0.0365,1.76669375,1.0,2730.632918221298,0.33686763668580916,1.3186935152642256,0.9600686326408873,0.2872541375,0.6761302402057743
0.037,1.765775,1.0,2732.0880630623324,0.3405872820108242,1.3182653736980523,0.960856097865374,0.28721555,0.6769998466353289
0.0375,1.76484375,1.0,2733.2800116513195,0.34428606288535174,1.3178339811333686,0.9616151059206159,0.2871764375,0.6778748738421987
0.038,1.7639,1.0,2734.2223945903324,0.3479640923278658,1.3173992122140379,0.9623470080242773,0.28713679999999997,0.6787555487433296
0.0385,1.76294375,1.0,2734.934301772888,0.3516214978886274,1.3169608924194067,0.9630530735125152,0.28709663750000003,0.679642196035374
0.039,1.761975,1.0,2735.4270282078,0.3552583921674092,1.3165189183755952,0.9637345008394532,0.28705595,0.6805349946120641
0.0395,1.7609937500000001,1.0,2735.71190030675,0.35887488776398396,1.3160731867087228,0.9643924189590359,0.2870147375,0.6814341219508702
0.04,1.76,1.0,2735.8002714390723,0.3624710972781245,1.31562359404491,0.9650278920949017,0.286973,0.6823397540885647
0.0405,1.7589937500000001,1.0,2735.703517724727,0.3660471333096035,1.3151700370102763,0.9656419241341401,0.2869307375,0.6832520655961131
0.041,1.757975,1.0,2735.4330340630786,0.3696031084581937,1.314712412230942,0.966235462678247,0.28688795,0.6841712295528752
0.0415,1.75694375,1.0,2735.000230399031,0.3731391353236679,1.3142506163330268,0.9668094027813294,0.2868446375,0.6850974175201302
0.042,1.7559,1.0,2734.4165282264853,0.3766553265057988,1.3137845459426507,0.9673645904026942,0.28680079999999997,0.6860307995139175
0.0425,1.75484375,1.0,2733.693357328234,0.3801517946043592,1.3133140976859337,0.9679018255983662,0.2867564375,0.6869715439771977
0.043000000000000003,1.753775,1.0,2732.8368199383845,0.38362864345553677,1.3128392166326353,0.9684218680213514,0.28671155,0.6879197210991044
0.043500000000000004,1.75269375,1.0,2731.85140004314,0.38708597785834026,1.3123598626125803,0.968925438335686,0.28666613750000003,0.6888753706270726
0.044,1.7516,1.0,2730.760599102088,0.39052393388006207,1.3118758226895473,0.9694132104382827,0.2866202,0.6898388750692541
0.0445,1.75049375,1.0,2729.569592397504,0.39394261583880263,1.311387050397586,0.9698858313269367,0.2865737375,0.6908102833057757
0.045,1.7493750000000001,1.0,2728.283556485742,0.3973421280526622,1.3108934992707453,0.9703439147099897,0.28652675,0.6917896432117063
0.0455,1.74824375,1.0,2726.9076682807954,0.40072257483974105,1.3103951228430748,0.9707880430395485,0.2864792375,0.6927770016429609
0.046,1.7471,1.0,2725.447104185918,0.4040840605181394,1.3098918746486234,0.9712187694015489,0.2864312,0.6937724044220723
0.0465,1.7459437500000001,1.0,2723.907039272663,0.40742668940595755,1.3093837082214408,0.9716366192740252,0.28638263750000004,0.6947758963238214
0.047,1.744775,1.0,2722.292646508117,0.4107505658212958,1.308870577095576,0.9720420921639372,0.28633355,0.6957875210607329
0.0475,1.74359375,1.0,2720.609096030362,0.4140557940822544,1.3083524348050781,0.9724356631320235,0.28628393750000003,0.6968073212684313
0.048,1.7424,1.0,2718.861554470534,0.4173424785069336,1.3078292348839966,0.9728177842143121,0.2862338,0.6978353384908587
0.0485,1.74119375,1.0,2717.0551843245535,0.4206107234134338,1.3073009308663808,0.9731888857481975,0.2861831375,0.6988716131653567
0.049,1.739975,1.0,2715.1951433710506,0.4238606331198551,1.3067674762862795,0.9735493776103058,0.28613195,0.6999161846076114
0.0495,1.73874375,1.0,2713.286584138082,0.4270923119442979,1.3062288246777427,0.9738996503727795,0.2860802375,0.7009690909964551
0.05,1.7375,1.0,2711.3346534178177,0.43030586420486244,1.305684929574819,0.9742400763840456,0.286028,0.7020303693585395
0.0505,1.73624375,1.0,2709.344491828402,0.43350139421964895,1.3051357445115581,0.9745710107796419,0.2859752375,0.7031000555528608
0.051000000000000004,1.734975,1.0,2707.31795595359,0.4366789851719683,1.304581252934766,0.9748927920259892,0.28592195,0.7041781261501534
0.051500000000000004,1.73369375,1.0,2705.262030949436,0.43983876159959273,1.3040213914484855,0.9752057447969404,0.2858681375,0.7052646477733634
0.052000000000000005,1.7324,1.0,2703.179441828204,0.44298082371500325,1.303456135476919,0.9755101789610948,0.2858138,0.706359610463692
0.0525,1.73109375,1.0,2701.0722579711974,0.4461052674170137,1.3028854664011922,0.9758063905063892,0.28575893750000003,0.7074629918460851
0.053,1.729775,1.0,2698.9425459588647,0.449212188604438,1.3023093656024314,0.9760946623665908,0.28570355000000003,0.7085747687151004
0.0535,1.72844375,1.0,2696.7923694793717,0.45230168317609015,1.3017278144617626,0.9763752651064227,0.2856476375,0.70969491702847
0.054,1.7271,1.0,2694.623789244041,0.45537384703078393,1.3011407943603117,0.9766484575650815,0.2855912,0.7108234119006392
0.0545,1.7257437500000001,1.0,2692.4388629108025,0.45842877606733323,1.300548286679205,0.9769144874610035,0.2855342375,0.7119602275962831
0.055,1.724375,1.0,2690.239645015335,0.461466566184552,1.2999502727995687,0.9771735919605217,0.28547675,0.7131053375238021
0.0555,1.72299375,1.0,2688.02818690989,0.46448731328125414,1.2993467341025287,0.9774259982128486,0.2854187375,0.7142587142287946
0.056,1.7216,1.0,2685.80653670967,0.4674911132562536,1.298737651969211,0.9776719238536464,0.2853602,0.715420329387508
0.0565,1.72019375,1.0,2683.576739247158,0.4704780620083641,1.2981230077807417,0.9779115774792674,0.28530113749999997,0.7165901538002672
0.057,1.718775,1.0,2681.3408360339336,0.47344825543639973,1.297502782918247,0.9781451590935992,0.28524155,0.71776815738488
0.0575,1.71734375,1.0,2679.10086522985,0.4764017894391743,1.2968769587628528,0.9783728605293085,0.2851814375,0.7189543091700237
0.058,1.7159,1.0,2676.8573088770468,0.4793387482424693,1.296245530947642,0.9785948656315595,0.2851208,0.7201485503620846
0.0585,1.71444375,1.0,2674.6087781994693,0.48225920296557523,1.295608512277127,0.9788113507156267,0.2850596375,0.7213507891240549
0.059000000000000004,1.7129750000000001,1.0,2672.3634163978945,0.4851632978737702,1.294965828014035,0.9790224864483071,0.28499795,0.7225610979081464
0.059500000000000004,1.71149375,1.0,2670.121726498918,0.4880511198273892,1.2943174735097298,0.9792284357139441,0.2849357375,0.7237794157743925
0.06,1.71,1.0,2667.8842106833376,0.490922755686767,1.2936634441155754,0.9794293550221468,0.284873,0.7250056810911298
0.0605,1.7084937500000001,1.0,2665.651370289594,0.49377829231223874,1.2930037351829364,0.9796253948047272,0.2848097375,0.7262398315333153
0.061,1.7069750000000001,1.0,2663.4237058167523,0.4966178165641392,1.2923383420631769,0.9798166996965948,0.28474595,0.7274818040808451
0.0615,1.7054437500000001,1.0,2661.201716928216,0.4994414153028034,1.2916672601076606,0.980003408801585,0.2846816375,0.7287315350168694
0.062,1.7039,1.0,2658.98590245635,0.5022491753885662,1.2909904846677522,0.9801856559441431,0.2846168,0.7299889599261054
0.0625,1.70234375,1.0,2656.7767604068295,0.5050411836817624,1.2903080110948157,0.980363569907713,0.2845514375,0.7312540136931516
0.063,1.7007750000000001,1.0,2654.574787964022,0.5078175270427271,1.2896198347402152,0.980537274660628,0.28448555,0.7325266305007985
0.0635,1.69919375,1.0,2652.380481496885,0.5105782923317951,1.2889259509553148,0.980706889570247,0.28441913750000003,0.7338067438283387
0.064,1.6976,1.0,2650.1943365646184,0.5133235664093014,1.288226355091479,0.9808725296060303,0.2843522,0.7350942864498746
0.0645,1.69599375,1.0,2648.016847923881,0.5160534361355809,1.2875210425000716,0.9810343055321992,0.2842847375,0.7363891904326276
0.065,1.694375,1.0,2645.8485095356955,0.5187679883709685,1.286810008532457,0.9811923240905926,0.28421675,0.7376913871352422
0.0655,1.69274375,1.0,2643.689814572934,0.5214673099757992,1.2860932485399992,0.981346688174277,0.2841482375,0.7390008072060914
0.066,1.6911,1.0,2641.5412554286763,0.5241514878104077,1.2853707578740625,0.9814974969924485,0.2840792,0.740317380581579
0.0665,1.6894437500000001,1.0,2639.4033237246495,0.5268206087351291,1.284642531886011,0.981644846227119,0.2840096375,0.7416410364844426
0.067,1.687775,1.0,2637.2765103200245,0.5294747596102983,1.2839085659272091,0.9817888281820502,0.28393955,0.7429717034220521
0.0675,1.68609375,1.0,2635.161305321661,0.5321140272962502,1.2831688553490206,0.9819295319243712,0.2838689375,0.7443093091847113
0.068,1.6844000000000001,1.0,2633.0565080659144,0.5347384641241675,1.2824234111433215,0.9820670419011928,0.2837978,0.7456537526727373
0.0685,1.68269375,1.0,2630.963248538945,0.5373481768095267,1.281672222742293,0.9822014421772278,0.2837261375,0.7470049710950768
0.069,1.680975,1.0,2628.882691322328,0.539943270843074,1.28091527924144,0.9823328138134847,0.28365395,0.7483629014308157
0.0695,1.67924375,1.0,2626.8146944760556,0.5425238237520005,1.2801525818253816,0.982461233882188,0.28358123749999997,0.7497274582161124
0.07,1.6775,1.0,2624.7591163406337,0.5450899130634969,1.279384131678737,0.9825867768519096,0.283508,0.751098555376652
0.07050000000000001,1.67574375,1.0,2622.7158155343,0.5476416163047539,1.2786099299861255,0.9827095146917013,0.2834342375,0.7524761062280811
0.07100000000000001,1.673975,1.0,2620.684650950024,0.5501790110029628,1.2778299779321665,0.9828295169703729,0.28335995,0.753860023476441
0.07150000000000001,1.67219375,1.0,2618.6654817529197,0.5527021746853142,1.2770442767014787,0.9829468509511792,0.2832851375,0.755250219218605
0.07200000000000001,1.6704,1.0,2616.6581673775,0.555211184878999,1.2762528274786815,0.9830615816821509,0.2832098,0.7566466049427099
0.0725,1.66859375,1.0,2614.662567524798,0.5577061191112082,1.2754556314483945,0.9831737720823,0.2831339375,0.7580490915285915
0.073,1.6667750000000001,1.0,2612.6785421599056,0.5601870549091326,1.2746526897952362,0.9832834830239137,0.28305755,0.7594575892482199
0.0735,1.66494375,1.0,2610.7059515090673,0.562654069799963,1.2738440037038263,0.9833907734111375,0.2829806375,0.7608720077661313
0.074,1.6631,1.0,2608.7446560572107,0.5651072413108905,1.2730295743587838,0.9834957002550376,0.2829032,0.762292256139864
0.0745,1.6612437500000001,1.0,2606.794516545297,0.5675466469691058,1.272209402944728,0.9835983187453219,0.2828252375,0.7637182428203915
0.075,1.659375,1.0,2604.8553939679155,0.5699723643017999,1.2713834906462778,0.9836986823188903,0.28274675,0.7651498756525563
0.0755,1.65749375,1.0,2602.927149570565,0.5723844708361636,1.2705518386480528,0.9837968427253695,0.2826677375,0.766587061875504
