Time [s],Phi [rad],STIM [ ],Fsee [N],Gamma [ ],Lcerel [ ],q [ ],Lmtc [m],fisomrel [ ]
0.0,1.8,1.0,17.970539974248776,6.377544046120014e-05,1.379339367362103,0.005001068273534439,0.288653,0.5411404476062482
0.0005,1.79999375,1.0,18.297802774600378,0.005672627019486571,1.3793000492592098,0.013090480081258828,0.2886527375,0.5412355632396717
0.001,1.799975,1.0,21.679437722011162,0.01125001737581255,1.3789320705220174,0.03588934640375607,0.28865195,0.5421252740111507
0.0015,1.79994375,1.0,31.215558476612593,0.016796122982931042,1.3780337521998658,0.07098569264202183,0.2886506375,0.5442936294569212
0.002,1.7999,1.0,53.898762669053156,0.02231111932260025,1.3763476371260952,0.11517238505086094,0.2886488,0.5483496684617506
0.0025,1.79984375,1.0,97.6513424338674,0.02779518089277771,1.3739095470080331,0.16506905745903563,0.28864643749999996,0.554182559490585
0.003,1.7997750000000001,1.0,161.65136138974526,0.03324848121483864,1.371188424700099,0.21779018581904833,0.28864354999999997,0.5606478104867952
0.0035,1.79969375,1.0,238.46679782265645,0.03867119283356622,1.3685606212535526,0.27111982707425336,0.2886401375,0.5668465193277913
0.004,1.7996,1.0,322.3004528820906,0.04406348732782397,1.3661340256538903,0.3234066253114065,0.2886362,0.5725314899823865
0.0045000000000000005,1.7994937500000001,1.0,410.1311579588483,0.04942553531577226,1.3639025573872898,0.3735004067444207,0.2886317375,0.5777261757875964
0.005,1.799375,1.0,500.29457462006945,0.05475750644624496,1.3618396279232716,0.42068332991829355,0.28862675,0.5825002667868251
0.0055,1.79924375,1.0,591.6793160920349,0.06005956944322329,1.359921474635692,0.46457723688818614,0.2886212375,0.5869149620410361
0.006,1.7991000000000001,1.0,683.4081329557456,0.0653318920561941,1.3581302417394945,0.5050508050509901,0.2886152,0.5910163582640666
0.006500000000000001,1.79894375,1.0,774.7680812923176,0.07057464111335733,1.3564521192939718,0.5421398101438784,0.2886086375,0.5948401997794519
0.007,1.798775,1.0,865.1578708441482,0.07578798239923021,1.354876311990342,0.5759858010866845,0.28860155,0.5984145509825685
0.0075,1.79859375,1.0,954.1041950273299,0.08097208108261306,1.3533935394237626,0.6067909371892186,0.2885939375,0.6017634129258468
0.008,1.7984,1.0,1041.2080769826575,0.08612710120250369,1.3519961399195102,0.6347873431098343,0.2885858,0.604906624622974
0.0085,1.79819375,1.0,1126.1415289944414,0.09125320548465288,1.3506775321029638,0.6602163590496827,0.2885771375,0.6078611877492819
0.009000000000000001,1.797975,1.0,1208.677826156926,0.09635055629311819,1.349431411157831,0.6833151633600095,0.28856795,0.6106431406130323
0.0095,1.79774375,1.0,1288.6519101068338,0.10141931537509295,1.3482520723648437,0.7043093153331207,0.2885582375,0.6132668816759939
0.01,1.7975,1.0,1365.9153014846556,0.10645964254755108,1.3471347695329772,0.723408809728573,0.288548,0.6157444253229809
0.0105,1.79724375,1.0,1440.3800402675529,0.11147169722300415,1.3460749293910244,0.7408058443979815,0.2885372375,0.6180871914763951
0.011,1.796975,1.0,1512.0127561963495,0.1164556384183113,1.3450681193371083,0.7566745033129136,0.28852595000000003,0.6203061001822422
0.0115,1.79669375,1.0,1580.7947399551756,0.12141162398238745,1.3441104352028554,0.7711715186260555,0.2885141375,0.6224107410220071
0.012,1.7964,1.0,1646.7129877226107,0.12633981006282088,1.3431984876266676,0.784437310191408,0.28850180000000003,0.6244094326873982
0.0125,1.79609375,1.0,1709.7936283108772,0.13124035260845385,1.3423289176804274,0.7965970816503124,0.2884889375,0.6263103065042959
0.013000000000000001,1.7957750000000001,1.0,1770.0887114738282,0.136113407064617,1.341498501233876,0.8077622881101129,0.28847555,0.6281210894611491
0.0135,1.79544375,1.0,1827.6558003095317,0.14095912833382795,1.3407043265996634,0.8180321088884488,0.2884616375,0.6298487303452484
0.014,1.7951000000000001,1.0,1882.5391413487462,0.14577766865863248,1.3399439438674186,0.8274948196138743,0.2884472,0.6314990912878361
0.0145,1.79474375,1.0,1934.806915809695,0.1505691802815763,1.3392149031267697,0.8362288458686993,0.2884322375,0.6330779639563018
0.015,1.794375,1.0,1984.5407859805803,0.1553338148090648,1.3385148437768122,0.8443039291302685,0.28841675,0.6345908818327821
0.0155,1.79399375,1.0,2031.8317354273645,0.16007172404373632,1.3378415126560035,0.8517821489663302,0.2884007375,0.6360430877752024
0.016,1.7936,1.0,2076.763470627272,0.16478305838281906,1.337192912918313,0.8587188701869304,0.2883842,0.6374392202731598
0.0165,1.7931937500000001,1.0,2119.402164186775,0.16946796560671387,1.336567380758542,0.8651635552083985,0.2883671375,0.638783157555276
0.017,1.792775,1.0,2159.826213225285,0.17412659349582146,1.335963252371492,0.871160363009111,0.28834955,0.6400787406121468
0.0175,1.7923437500000001,1.0,2198.1252108772355,0.17875908983054264,1.3353788639519635,0.8767487760320574,0.2883314375,0.641329775555773
0.018000000000000002,1.7919,1.0,2234.3836397534246,0.18336560090039397,1.3348127057997128,0.8819641904488489,0.2883128,0.6425397067444993
0.0185,1.79144375,1.0,2268.699727033657,0.18794627457972854,1.334263219450323,0.8868383409763513,0.2882936375,0.6437120539627079
0.019,1.790975,1.0,2301.1454425372613,0.19250125485875333,1.3337291877398598,0.8913998188512025,0.28827395,0.6448495830691754
0.0195,1.79049375,1.0,2331.791172111645,0.19703068480170566,1.3332094735737312,0.8956743668844422,0.2882537375,0.6459548683696331
0.02,1.79,1.0,2360.7131050828184,0.20153470747282295,1.332702939857344,0.8996851838007563,0.288233,0.6470304649562517
0.0205,1.78949375,1.0,2387.992745307004,0.20601346593634262,1.332208449496106,0.9034532099138426,0.2882117375,0.6480789097046978
0.021,1.788975,1.0,2413.6999581659393,0.21046710102015906,1.331725024813437,0.9069974112746687,0.28818995000000003,0.6491023849251425
0.021500000000000002,1.78844375,1.0,2437.924195200205,0.21489575684306877,1.331251539115052,0.9103349326681978,0.2881676375,0.6501033731948637
0.022,1.7879,1.0,2460.7249700308403,0.2192995721681189,1.330787190885559,0.9134813882402633,0.2881448,0.6510836554401809
0.0225,1.78734375,1.0,2482.160631408977,0.2236786851012796,1.3303312189053438,0.9164509683122095,0.28812143749999997,0.6520449165067279
0.023,1.786775,1.0,2502.292266715561,0.22803323374852102,1.3298828619547922,0.9192565818783758,0.28809755,0.6529888309582765
0.0235,1.78619375,1.0,2521.183471740612,0.23236335621581328,1.3294413588142897,0.9219099900374125,0.28807313749999996,0.6539170634649056
0.024,1.7856,1.0,2538.893986428942,0.23666918937519477,1.3290060061963669,0.9244219338540643,0.2880482,0.6548311475979471
0.0245,1.78499375,1.0,2555.4855741702577,0.2409508705691494,1.3285761006520813,0.9268022279881423,0.2880227375,0.6557326086743409
0.025,1.784375,1.0,2571.022512711941,0.2452085372398801,1.3281509323045275,0.9290598520233992,0.28799675,0.6566229771290478
0.025500000000000002,1.78374375,1.0,2585.548486953357,0.24944232220320925,1.3277299991779405,0.931203066616212,0.2879702375,0.6575033406850355
0.026000000000000002,1.7831000000000001,1.0,2599.108458464585,0.25365235827495936,1.3273127992965559,0.9332394505449009,0.2879432,0.6583747813031012
0.0265,1.78244375,1.0,2611.748558315333,0.2578387782709528,1.3268988306846088,0.9351759661997673,0.2879156375,0.6592383753094244
0.027,1.781775,1.0,2623.5159854910407,0.2620017150070121,1.3264875913663345,0.9370190179849667,0.28788755,0.6600951935070452
0.0275,1.7810937500000001,1.0,2634.4579844370464,0.26614130085081983,1.3260785879376802,0.9387745055810213,0.2878589375,0.6609462834456906
0.028,1.7804,1.0,2644.615890166193,0.27025766527529577,1.3256713896384686,0.9404478774396651,0.2878298,0.6617925573053213
0.0285,1.77969375,1.0,2654.0396485375272,0.27435094361965473,1.3252654931788646,0.9420441556716465,0.2878001375,0.6626350731731825
0.029,1.778975,1.0,2662.7618341270195,0.2784212631349951,1.3248605618070448,0.9435680026802428,0.28776995,0.6634745388469746
0.029500000000000002,1.7782437500000001,1.0,2670.815562191247,0.28246875107241515,1.3244562587711866,0.945023732749816,0.2877392375,0.6643116586231022
0.03,1.7775,1.0,2678.234440570753,0.28649353468301314,1.3240522473194667,0.9464153424947344,0.287708,0.6651471333137857
0.0305,1.77674375,1.0,2685.052524107406,0.2904957412178874,1.3236481907000626,0.9477465382832498,0.2876762375,0.6659816602569386
0.031,1.775975,1.0,2691.304271575979,0.29447549792813627,1.3232437521611509,0.9490207609697425,0.28764395,0.6668159333188153
0.0315,1.7751937500000001,1.0,2697.0204769026413,0.2984329294385832,1.3228386317857732,0.9502412119999802,0.2876111375,0.667650567049394
0.032,1.7744,1.0,2702.2276565640195,0.3023681593575549,1.3224325715628356,0.9514108743531581,0.2875778,0.668486086719952
0.0325,1.77359375,1.0,2706.9672154628147,0.3062813225512072,1.3220251799774103,0.9525325129977945,0.2875439375,0.6693232890960348
0.033,1.772775,1.0,2711.2595836357377,0.31017253963729774,1.3216162593788017,0.9536087236986355,0.28750955,0.6701625692065925
0.0335,1.7719437500000002,1.0,2715.1253761548573,0.314041931233584,1.3212056121163134,0.9546419280560466,0.2874746375,0.671004319977629
0.034,1.7711000000000001,1.0,2718.585375522176,0.3178896179578235,1.3207930405392496,0.9556343872656579,0.2874392,0.6718489322116816
0.0345,1.7702437500000001,1.0,2721.66051493163,0.3217157204277738,1.3203783469969144,0.9565882146361865,0.2874032375,0.672696794564811
0.035,1.7693750000000001,1.0,2724.371862396093,0.32552035926119255,1.3199613338386116,0.9575053869905653,0.28736675,0.6735482935210988
0.035500000000000004,1.76849375,1.0,2726.7406057415433,0.32930365507583714,1.319541803413645,0.9583877550616757,0.2873297375,0.6744038133646539
0.036000000000000004,1.7676,1.0,2728.7880384662594,0.33306572848946525,1.319119558071319,0.9592370529817995,0.2872922,0.6752637361491263
0.0365,1.76669375,1.0,2730.5355464674826,0.33680670011983427,1.3186944001609378,0.9600549069541687,0.2872541375,0.6761284416647324
0.037,1.765775,1.0,2731.994371597464,0.34052668339687736,1.318266224921903,0.9608428508627912,0.28721555,0.6769981188582928
0.0375,1.76484375,1.0,2733.1886558274173,0.34422580307862416,1.3178348109558242,0.9616023163718741,0.2871764375,0.6778731917878682
0.038,1.7639,1.0,2734.138856634826,0.34790417944833046,1.3173999708922628,0.9623346515016024,0.28713679999999997,0.6787540130025216
0.0385,1.76294375,1.0,2734.856681947539,0.3515619259671517,1.3169615972579933,0.9630411304304036,0.28709663750000003,0.679640771248921
0.039,1.761975,1.0,2735.353876596006,0.3551991560962433,1.3165195825797904,0.9637229525718725,0.28705595,0.68053365383774
0.0395,1.7609937500000001,1.0,2735.6422174102922,0.35881598329676095,1.3160738193844281,0.9643812477648583,0.2870147375,0.6814328466190687
0.04,1.76,1.0,2735.7335085721325,0.36241252102986,1.3156242001986813,0.9650170810497745,0.286973,0.6823385339570878
0.0405,1.7589937500000001,1.0,2735.6395772237356,0.36598888275669594,1.315170617549324,0.9656314570681732,0.2869307375,0.6832508987040106
0.041,1.757975,1.0,2735.372269332614,0.3695451819384244,1.314712963963131,0.966225324118951,0.28688795,0.6841701221732814
0.0415,1.75694375,1.0,2734.943445812113,0.37308153203620076,1.3142511319668764,0.9667995779012998,0.2868446375,0.6850963841120435
0.042,1.7559,1.0,2734.3649788986863,0.37659804651118056,1.3137850140873348,0.9673550649716,0.28680079999999997,0.6860298626728669
0.0425,1.75484375,1.0,2733.6428611063993,0.38009483243729547,1.3133145563274555,0.9678925893160176,0.2867564375,0.6869706275297504
0.043000000000000003,1.753775,1.0,2732.7901789980506,0.3835720060581256,1.3128396403240643,0.9684129079816731,0.28671155,0.687918875771397
0.043500000000000004,1.75269375,1.0,2731.8193328132334,0.3870296810788746,1.3123601539669676,0.9689167378863274,0.28666613750000003,0.6888747902223606
0.044,1.7516,1.0,2730.736738840302,0.39046796412916157,1.3118760395207194,0.969404761475003,0.2866202,0.6898384437910416
0.0445,1.75049375,1.0,2729.548815479199,0.3938869618386056,1.3113872392498738,0.9698776256992573,0.2865737375,0.6908099082663963
0.045,1.7493750000000001,1.0,2728.2619819762767,0.39728678083682584,1.3108936954189847,0.970335944207914,0.28652675,0.6917892543007895
0.0455,1.74824375,1.0,2726.882657232825,0.4006675277534413,1.3103953502926062,0.9707802993819421,0.2864792375,0.6927765513926348
0.046,1.7471,1.0,2725.4172586885275,0.40402930921807106,1.3098921461352924,0.9712112442259689,0.2864312,0.6937718678688221
0.0465,1.7459437500000001,1.0,2723.8722012777675,0.4073722318603343,1.3093840252115976,0.9716293041278191,0.28638263750000004,0.694775270866931
0.047,1.744775,1.0,2722.253896460338,0.41069640230985005,1.3088709297860752,0.9720349784964546,0.28633355,0.6957868263172367
0.0475,1.74359375,1.0,2720.56875132625,0.41400192719623735,1.30835280212328,0.9724287422877927,0.28628393750000003,0.696806598924494
0.048,1.7424,1.0,2718.8214098775043,0.41728890398843693,1.3078296004977241,0.9728110474001982,0.2862338,0.6978346207187869
0.0485,1.74119375,1.0,2717.0176530107688,0.4205574438088202,1.3073012727933964,0.9731823250305804,0.2861831375,0.6988709430470619
0.049,1.739975,1.0,2715.1630190120277,0.4238076580918318,1.306767769053608,0.9735429860283331,0.28613195,0.6999156118299499
0.0495,1.73874375,1.0,2713.260996435757,0.42703964637295544,1.3062290579547082,0.9738934217150274,0.2860802375,0.7009686354087116
0.05,1.7375,1.0,2711.3150703583215,0.43025350818767494,1.305685108173046,0.9742340051682897,0.286028,0.7020300211774015
0.0505,1.73624375,1.0,2709.328722084246,0.43344934307147404,1.3051358883849702,0.9745650922331691,0.2859752375,0.7030997755724331
0.051000000000000004,1.734975,1.0,2707.305428875218,0.4366272505598366,1.3045813672668298,0.9748870224687052,0.28592195,0.7041779040620808
0.051500000000000004,1.73369375,1.0,2705.248663700362,0.4397873301882463,1.3040215134949735,0.9752001200343856,0.2858681375,0.7052644111359236
0.052000000000000005,1.7324,1.0,2703.1618950079983,0.4429296814921869,1.3034562957457507,0.9755046945208017,0.2858138,0.7063593002942203
0.0525,1.73109375,1.0,2701.0485865201063,0.44605440400714236,1.30288568269551,0.9758010417284791,0.28575893750000003,0.7074625740372285
0.053,1.729775,1.0,2698.9121970472374,0.4491615972685963,1.3023096430206003,0.9760894443985303,0.28570355000000003,0.7085742338544555
0.0535,1.72844375,1.0,2696.756180326321,0.45225136081203254,1.3017281453973706,0.9763701728985065,0.2856476375,0.7096942802138495
0.054,1.7271,1.0,2694.5839848797723,0.45532379417293495,1.30114115850217,0.9766434858665476,0.2855912,0.7108227125509279
0.0545,1.7257437500000001,1.0,2692.395728948747,0.4583789734539854,1.30054868144139,0.97690963035976,0.2855342375,0.7119594709306183
0.055,1.724375,1.0,2690.193512093522,0.46141700502339544,1.2999506951809021,0.9771688447925629,0.28547675,0.7131045295296351
0.0555,1.72299375,1.0,2687.9828059183797,0.46443801511110605,1.2993471497702325,0.9774213575289574,0.2854187375,0.7142579206774171
0.056,1.7216,1.0,2685.7647266931335,0.4674420944171777,1.298738035086759,0.9776673863179702,0.2853602,0.7154195994658876
0.0565,1.72019375,1.0,2683.5403889055274,0.47042933364167083,1.2981233410078592,0.9779071398779058,0.28530113749999997,0.7165895202369633
0.057,1.718775,1.0,2681.310905245046,0.47339982348464593,1.2975030574109112,0.978140818342184,0.28524155,0.7177676365789543
0.0575,1.71734375,1.0,2679.0773865891288,0.4763536546461634,1.2968771741732925,0.9783686136796753,0.2851814375,0.7189539013229609
0.058,1.7159,1.0,2676.840941992209,0.47929091782628386,1.2962456811723808,0.9785907100911855,0.2851208,0.7201482665392605
0.0585,1.71444375,1.0,2674.602678676304,0.48221170372506766,1.2956085682855543,0.978807284383622,0.2850596375,0.7213506835336888
0.059000000000000004,1.7129750000000001,1.0,2672.36370202444,0.48511610304257535,1.2949658253901903,0.9790185063232665,0.28499795,0.7225611028440171
0.059500000000000004,1.71149375,1.0,2670.1251155759796,0.48800420647886733,1.294317442363667,0.9792245389694709,0.2849357375,0.7237794742363188
0.06,1.71,1.0,2667.888021024395,0.4908761047340041,1.2936634090833616,0.9794255389900114,0.284873,0.7250057467013336
0.0605,1.7084937500000001,1.0,2665.653518217205,0.49373188850804617,1.2930037154266527,0.9796216569592381,0.2848097375,0.72623986845082
0.061,1.7069750000000001,1.0,2663.4227051585176,0.496571648501054,1.2923383512709172,0.979813037640087,0.28474595,0.7274817869139089
0.0615,1.7054437500000001,1.0,2661.196678013026,0.49939547541308804,1.2916673064935336,0.9799998202509405,0.2846816375,0.7287314487334412
0.062,1.7039,1.0,2658.976531113644,0.5022034599442088,1.2909905709718792,0.9801821387182637,0.2846168,0.7299887997623079
0.0625,1.70234375,1.0,2656.7633569697878,0.5049956927944766,1.290308134583332,0.9803601219158726,0.2845514375,0.7312537850597767
0.063,1.7007750000000001,1.0,2654.558246279232,0.5077722646639522,1.2896199872052698,0.9805338938916378,0.28448555,0.7325263488878169
0.0635,1.69919375,1.0,2652.3622879416807,0.5105332662526958,1.2889261187150702,0.9807035740823696,0.28441913750000003,0.7338064347074144
0.064,1.6976,1.0,2650.174124183938,0.5132787553460215,1.2882265415433793,0.9808692762642683,0.2843522,0.7350939437179294
0.0645,1.69599375,1.0,2647.9948848825675,0.5160088390273339,1.2875212451845002,0.9810311124809681,0.2842847375,0.7363888187740897
0.065,1.694375,1.0,2645.8266279348345,0.5187236294316002,1.2868102105480443,0.9811891906088355,0.28421675,0.7376910176192171
0.0655,1.69274375,1.0,2643.6693980690775,0.5214232077068222,1.2860934371064137,0.9813436133524838,0.2841482375,0.7390004631525464
0.066,1.6911,1.0,2641.523239978603,0.5241076550010016,1.28537092433201,0.9814944797476727,0.2840792,0.7403170776335914
0.0665,1.6894437500000001,1.0,2639.3881983229126,0.5267770524621402,1.2846426716972352,0.9816418853169622,0.2840096375,0.7416407826819514
0.067,1.687775,1.0,2637.2643177281916,0.5294314812382398,1.2839086786744913,0.981785922217687,0.28393955,0.7429714992771188
0.0675,1.68609375,1.0,2635.1516427892293,0.5320710224773021,1.2831689447361803,0.9819266793826822,0.2838689375,0.7443091477582848
0.068,1.6844000000000001,1.0,2633.050218069955,0.5346957573273287,1.282423469354704,0.982064242654163,0.2837978,0.7456536478241471
0.0685,1.68269375,1.0,2630.960088104721,0.5373057669363215,1.2816722520024648,0.9821986949111371,0.2837261375,0.7470049185327168
0.069,1.680975,1.0,2628.8812973996914,0.5399011324522821,1.280915292151864,0.9823301161907039,0.28365395,0.7483628783011251
0.0695,1.67924375,1.0,2626.813890433461,0.5424819350232124,1.2801525892753038,0.9824585838035723,0.28358123749999997,0.7497274449054302
0.07,1.6775,1.0,2624.757911658681,0.545048255797114,1.2793841428451864,0.9825841724441132,0.283508,0.7510985354804225
0.07050000000000001,1.67574375,1.0,2622.7134055030133,0.5476001759219887,1.2786099523339134,0.9827069542952358,0.2834342375,0.7524760665194341
0.07100000000000001,1.673975,1.0,2620.6804163701227,0.5501377765458383,1.277830017213887,0.9828269991283682,0.28335995,0.7538599538741431
0.07150000000000001,1.67219375,1.0,2618.6589886411284,0.5526611388166643,1.2770443369575089,0.9829443743987987,0.2832851375,0.7552501127543824
0.07200000000000001,1.6704,1.0,2616.64916667564,0.5551703438824688,1.2762529110371812,0.983059145336625,0.2832098,0.756646457727944
0.0725,1.66859375,1.0,2614.6509948128046,0.5576654728912532,1.275455738925306,0.9831713750335387,0.2831339375,0.7580489027203878
0.073,1.6667750000000001,1.0,2612.66451737293,0.5601466069910195,1.2746528200942848,0.9832811245256631,0.28305755,0.7594573610148483
0.0735,1.66494375,1.0,2610.689778658033,0.5626138273297693,1.27384415401652,0.9833884528726479,0.2829806375,0.7608717452518383
0.074,1.6631,1.0,2608.727478433761,0.5650672148442194,1.2730297340699885,0.9834934169511362,0.2829032,0.7622919780410438
0.0745,1.6612437500000001,1.0,2606.779252259134,0.5675068438082189,1.2722095449194786,0.9835960710543786,0.2828252375,0.7637179963479923
0.075,1.659375,1.0,2604.8412419042365,0.569932788673804,1.2713836223250998,0.9836964699944107,0.28274675,0.765149647747792
0.0755,1.65749375,1.0,2602.9141381331206,0.5723451257457722,1.2705519597586628,0.9837946651291425,0.2826677375,0.7665868529041675
