Time [s],Phi [rad],STIM [ ],Fsee [N],Gamma [ ],Lcerel [ ],q [ ],Lmtc [m],fisomrel [ ]
0.0,1.8,1.0,18.043170421264584,0.0002819079375899499,1.379331239293138,0.0050206290494754485,0.288653,0.541160111276569
0.0005,1.79999375,1.0,18.44048112400037,0.00588953596583963,1.3792842403524423,0.013712605979519142,0.2886527375,0.5412738042738225
0.001,1.799975,1.0,21.98401338907886,0.011465709634502096,1.378901114781895,0.03703955648524318,0.28865195,0.5422000804114706
0.0015,1.79994375,1.0,31.872931700025532,0.017010605378657225,1.3779781687864827,0.0725513121142149,0.2886506375,0.5444276272985242
0.002,1.7999,1.0,55.25653175176731,0.022524398641519547,1.3762603572163403,0.11702088771177752,0.2886488,0.5485591313374745
0.0025,1.79984375,1.0,99.88475440762586,0.028007263883482927,1.3738028247705285,0.16707646839000373,0.28864643749999996,0.5544370159233851
0.003,1.7997750000000001,1.0,164.52602213426533,0.03345937458761318,1.371081527515119,0.21985881033024982,0.28864354999999997,0.5609008288808867
0.0035,1.79969375,1.0,241.6975481899657,0.03888090326116549,1.3684616034515809,0.2731756840895847,0.2886401375,0.5670792308095982
0.004,1.7996,1.0,325.7275504683077,0.04427202144568449,1.3660436121128794,0.3253961066787125,0.2886362,0.5727425830081502
0.0045000000000000005,1.7994937500000001,1.0,413.67324220766665,0.04963289972242836,1.3638196772975641,0.3753881470577816,0.2886317375,0.577918502586404
0.005,1.799375,1.0,503.9034051186229,0.054963707704114066,1.3617631458081811,0.4224489158957288,0.28862675,0.5826767421395684
0.0055,1.79924375,1.0,595.3162145696838,0.06026461407270606,1.3598505806290258,0.4662115414895047,0.2886212375,0.5870776773627329
0.006,1.7991000000000001,1.0,687.0451693247187,0.06553578654772427,1.3580642608324918,0.5065525062025145,0.2886152,0.5911670443701573
0.006500000000000001,1.79894375,1.0,778.3772310672255,0.07077739189131133,1.3563906155535095,0.5435127764385079,0.2886086375,0.5949800036523936
0.007,1.798775,1.0,868.7271039617195,0.07598959603308733,1.354818745814715,0.577236873361452,0.28860155,0.5985448265895176
0.0075,1.79859375,1.0,957.6031466318159,0.08117256370688473,1.353339795448159,0.6079288383639788,0.2885939375,0.6018845310990217
0.008,1.7984,1.0,1044.6311851044252,0.08632645919697068,1.3519458034536853,0.6358212653792771,0.2885858,0.6050196155336094
0.0085,1.79819375,1.0,1129.4904204880809,0.09145144535967907,1.3506301767090896,0.6611555284742658,0.2885771375,0.6079670892249764
0.009000000000000001,1.797975,1.0,1211.9366542734997,0.09654768418256422,1.3493869274360868,0.6841686441588364,0.28856795,0.6107422670177636
0.0095,1.79774375,1.0,1291.807514037185,0.10161533743064902,1.3482103531210143,0.7050856023477728,0.2885582375,0.6133595343728906
0.01,1.7975,1.0,1368.9673559355247,0.1066545652033435,1.3470955750109768,0.7241156536926217,0.288548,0.6158311919891563
0.0105,1.79724375,1.0,1443.326901886046,0.11166552662716697,1.3460380752228387,0.7414503201106203,0.2885372375,0.6181685283675799
0.011,1.796975,1.0,1514.8398844444828,0.11664838021580358,1.3450336087542611,0.757263077615219,0.28852595000000003,0.6203820434630467
0.0115,1.79669375,1.0,1583.5120070003097,0.12160328469388718,1.3440779941120173,0.7717098619819072,0.2885141375,0.6224819322954418
0.012,1.7964,1.0,1649.330707972801,0.12653039604232966,1.3431678659361788,0.7849304953129976,0.28850180000000003,0.6244764534081915
0.0125,1.79609375,1.0,1712.310662252956,0.1314298697456646,1.3423000212061404,0.7970496907600235,0.2884889375,0.6263733912062366
0.013000000000000001,1.7957750000000001,1.0,1772.4986848679268,0.13630186100589964,1.3414713084067051,0.8081784242713757,0.28847555,0.6281803110172605
0.0135,1.79544375,1.0,1829.959924897257,0.14114652462348745,1.3406787401918383,0.8184153878161958,0.2884616375,0.629904323919968
0.014,1.7951000000000001,1.0,1884.7547077520785,0.1459640139884001,1.3399197016457904,0.8278483941134771,0.2884472,0.6315516467890205
0.0145,1.79474375,1.0,1936.9380256442346,0.15075448069002684,1.3391919016957732,0.8365555735129533,0.2884322375,0.633127722653077
0.015,1.794375,1.0,1986.5858247344886,0.15551807631775705,1.3384930492689984,0.8446063749865197,0.28841675,0.634637932387039
0.0155,1.79399375,1.0,2033.7763577551234,0.1602549513713316,1.3378210305362919,0.8520626400385852,0.2884007375,0.6360872172429776
0.016,1.7936,1.0,2078.6137074935477,0.1649652575209774,1.3371736365821412,0.8589794145735424,0.2883842,0.6374806721746626
0.0165,1.7931937500000001,1.0,2121.1697089169984,0.1696491429106588,1.3365491518534354,0.8654059292436175,0.2883671375,0.638822284396471
0.017,1.792775,1.0,2161.5173495250015,0.17430675487458439,1.3359459752416143,0.87138617169592,0.28834955,0.6401157580324002
0.0175,1.7923437500000001,1.0,2199.7405255434287,0.1789382407469628,1.3353625056381169,0.8769594728347219,0.2883314375,0.641364763431518
0.018000000000000002,1.7919,1.0,2235.9275848299108,0.1835437472267755,1.3347971974584434,0.8821610687090522,0.2883128,0.6425728207078192
0.0185,1.79144375,1.0,2270.1692170431465,0.18812342095989376,1.3342485708814316,0.8870225810652274,0.2882936375,0.6437432808154357
0.019,1.790975,1.0,2302.549475195468,0.19267740747648746,1.3337152905713732,0.8915724536153325,0.28827395,0.6448791608382143
0.0195,1.79049375,1.0,2333.135735787251,0.1972058495375673,1.3331962526642136,0.8958363342633024,0.2882537375,0.6459829630437677
0.02,1.79,1.0,2362.0010596723628,0.2017088899041441,1.3326903532958991,0.8998373374141477,0.288233,0.6470571709944191
0.0205,1.78949375,1.0,2389.223718832002,0.20618667133722862,1.3321964886023752,0.903596328342508,0.2882117375,0.6481042505110077
0.021,1.788975,1.0,2414.85708345689,0.2106393349753536,1.3317138414076917,0.907132234795773,0.28818995000000003,0.6491260440642628
0.021500000000000002,1.78844375,1.0,2439.0259855058616,0.21506702413004844,1.3312409434757417,0.9104620584416862,0.2881676375,0.6501257569046571
0.022,1.7879,1.0,2461.7998026157097,0.2194698787590969,1.3307769024522347,0.9136013403818031,0.2881448,0.6511053597069669
0.0225,1.7873437851494536,1.0,2483.208805312077,0.22384803668180187,1.3303212449069697,0.9165642809852682,0.28812143897627707,0.652065928453794
0.023,1.7867822225588288,1.0,2503.6224669615276,0.2282016357174661,1.3298734974097448,0.9193637973524704,0.2880978533474708,0.6530085322278798
0.0235,1.786220659968204,1.0,2523.332992445118,0.2325308136853925,1.3294331865303588,0.9220116569809759,0.28807426771866457,0.6539342334580798
0.024,1.7856590973775792,1.0,2542.381414120607,0.23683570840488385,1.3289998388386104,0.9245185959214838,0.2880506820898583,0.6548440881510471
0.0245,1.7850975347869547,1.0,2560.795626212105,0.24111645633638465,1.3285731144459834,0.9268944464178888,0.28802709646105207,0.655738866273172
0.025,1.7845359721963299,1.0,2578.5881186704964,0.24537319334453817,1.3281528252263268,0.9291482300137606,0.28800351083224585,0.6566190156121805
0.025500000000000002,1.783974409605705,1.0,2595.7792941034954,0.24960605324660745,1.3277387145112916,0.93128819873937,0.2879799252034396,0.6574851243956829
0.026000000000000002,1.7834128470150803,1.0,2612.3901577230654,0.2538151697858212,1.327330525853977,0.9333219229049116,0.2879563395746334,0.6583377769265273
0.0265,1.7828512844244555,1.0,2628.4329166902976,0.2580006677833171,1.3269280897822677,0.9352563663174186,0.2879327539458271,0.6591773728039461
0.027,1.782289721833831,1.0,2643.937431604341,0.26216268778156454,1.326531077924152,0.9370979166086071,0.2879091683170209,0.6600046401456998
0.0275,1.7817281592432062,1.0,2658.934609510926,0.266301371748504,1.3261391579936774,0.9388524565046511,0.2878855826882146,0.6608203112983901
0.028,1.7811665966525814,1.0,2673.439645488771,0.2704168466570293,1.3257521474086829,0.9405254262746306,0.2878619970594084,0.661624803758392
0.0285,1.7806050340619566,1.0,2687.4681149867392,0.2745092394800345,1.3253698635870064,0.9421218483658652,0.2878384114306022,0.6624185327467247
0.029,1.7800434714713318,1.0,2701.035954319927,0.27857867719041346,1.3249921239464861,0.9436463649360709,0.28781482580179596,0.6632019112651524
0.029500000000000002,1.7794819088807072,1.0,2714.1594419045764,0.2826252867610601,1.3246187459049603,0.9451032715647795,0.2877912401729897,0.663975350150162
0.03,1.7789203462900824,1.0,2726.855180232626,0.28664919516486836,1.3242495468802673,0.9464965475745374,0.28776765454418346,0.664739258124813
0.0305,1.7783587836994577,1.0,2739.140078584362,0.2906505293747322,1.3238843442902453,0.9478298833397132,0.28774406891537724,0.6654940418484626
0.031,1.7777972211088329,1.0,2751.0313364812637,0.29462941636354556,1.3235229555527324,0.9491067049149474,0.28772048328657096,0.6662401059643648
0.0315,1.7772356585182083,1.0,2762.546427877439,0.2985859831042023,1.323165198085567,0.9503301962754183,0.28769689765776474,0.6669778531451411
0.032,1.7766740959275835,1.0,2773.7030860901127,0.3025203565695964,1.3228108893065873,0.9515033194263579,0.2876733120289585,0.6677076841361296
0.0325,1.7761125333369587,1.0,2784.519102421126,0.30643266349546816,1.3224598483169485,0.9526288327401043,0.2876497264001523,0.6684299943348551
0.033,1.775550970746334,1.0,2794.999187452886,0.31032301545425467,1.3221120137813096,0.9537093169720536,0.287626140771346,0.6691449316892519
0.0335,1.7749894081557092,1.0,2805.171701518807,0.3141915554256948,1.3217671133964817,0.9547471644923398,0.2876025551425398,0.6698530763281114
0.034,1.7744278455650846,1.0,2815.0465694813706,0.31803840199543515,1.3214250423836202,0.9557446215673389,0.2875789695137335,0.6705546624001528
0.0345,1.7738662829744598,1.0,2824.633852992166,0.3218636737491222,1.321085695963881,0.9567037877632383,0.2875553838849273,0.6712499229827492
0.035,1.773304720383835,1.0,2833.9437440401653,0.3256674892724026,1.3207489693584198,0.9576266272500712,0.2875317982561211,0.6719390901004831
0.035500000000000004,1.7727431577932102,1.0,2842.9865587441154,0.3294499671509228,1.3204147577883922,0.9585149791095331,0.28750821262731485,0.6726223947430037
0.036000000000000004,1.7721815952025854,1.0,2851.772731388142,0.3332112259703293,1.3200829564749537,0.9593705667447449,0.2874846269985086,0.673300066882184
0.0365,1.7716200326119609,1.0,2860.31280870096,0.3369513843162687,1.3197534606392602,0.9601950064795066,0.28746104136970235,0.6739723354885747
0.037,1.771058470021336,1.0,2868.6174443779055,0.3406705607743876,1.3194261655024673,0.9609898154251948,0.28743745574089613,0.6746394285471633
0.0375,1.7704969074307113,1.0,2876.6973938468686,0.34436887393033255,1.3191009662857305,0.9617564186851612,0.28741387011208985,0.675301573072427
0.038,1.7699353448400865,1.0,2884.5635092780185,0.34804644236974996,1.3187777582102056,0.9624961559591647,0.28739028448328363,0.6759589951226904
0.0385,1.769373782249462,1.0,2892.2260259005398,0.35170338321173156,1.318456442757098,0.9632102878971857,0.2873666988544774,0.6766119070997934
0.039,1.7688122196588372,1.0,2899.6874654350677,0.3553397994285659,1.3181369901711073,0.96390000494459,0.2873431132256712,0.6772603810104234
0.0395,1.7682506570682124,1.0,2906.966671502668,0.35895582941471316,1.3178192272952522,0.9645664224682682,0.2873195275968649,0.6779047792138035
0.04,1.7676890944775876,1.0,2914.0694295284447,0.3625515836165589,1.3175030968918588,0.9652105970706713,0.2872959419680587,0.6785452278829047
0.0405,1.7671275318869628,1.0,2921.0015748218148,0.36612717248048887,1.3171885417232534,0.9658335256252816,0.2872723563392524,0.6791818526769003
0.041,1.7665659692963382,1.0,2927.7689905415796,0.3696827064528887,1.3168755045517617,0.9664361492823345,0.2872487707104462,0.6798147787470231
0.0415,1.7660044067057135,1.0,2934.377605732828,0.37321829598014394,1.31656392813971,0.9670193571656275,0.28722518508163997,0.6804441307422086
0.042,1.7654428441150887,1.0,2940.8333934370867,0.3767340515086403,1.316253755249424,0.9675839897872089,0.28720159945283374,0.6810700328145326
0.0425,1.7648812815244639,1.0,2947.142368874729,0.38023008348476345,1.3159449286432303,0.9681308422041578,0.28717801382402747,0.681692608624439
0.043000000000000003,1.764319718933839,1.0,2953.310587700436,0.38370650235489895,1.3156373910834547,0.9686606669393761,0.28715442819522125,0.6823119813457599
0.043500000000000004,1.7637581563432145,1.0,2959.344144330574,0.3871634185654325,1.3153310853324232,0.9691741766862544,0.287130842566415,0.6829282736705231
0.044,1.7631965937525897,1.0,2965.249170343895,0.3906009425627497,1.315025954152462,0.9696720468152142,0.28710725693760875,0.6835416078135552
0.0445,1.762635031161965,1.0,2971.0318329549386,0.3940191847932363,1.3147219403058972,0.9701549176984768,0.2870836713088025,0.6841521055168728
0.045,1.7620734685713402,1.0,2976.6983335591553,0.39741825570327777,1.3144189865550548,0.9706233968679121,0.2870600856799963,0.6847598880538656
0.0455,1.7615119059807154,1.0,2982.247485081963,0.40079823962074307,1.314117100196988,0.9710780621892767,0.28703650005119,0.6853649469510057
0.046,1.7609503433900908,1.0,2987.6923648273287,0.4041592779105573,1.3138161646381867,0.9715194612784124,0.2870129144223838,0.6859675217212324
0.0465,1.760388780799466,1.0,2993.0364283754307,0.40750147404116094,1.313516147285379,0.9719481154111649,0.2869893287935776,0.6865676830080759
0.047,1.7598272182088412,1.0,2998.2827398254985,0.4108249299192527,1.313217019106612,0.972364520274887,0.2869657431647713,0.687165494075154
0.0475,1.7592656556182165,1.0,3003.4343803721245,0.41412974745153114,1.3129187510699332,0.972769147423833,0.2869421575359651,0.6877610179490855
0.048,1.758704093027592,1.0,3008.494447741779,0.41741602854469506,1.3126213141433896,0.9731624456795194,0.28691857190715886,0.6883543174211102
0.0485,1.758142530436967,1.0,3013.4660556488393,0.420683875105443,1.3123246792950287,0.9735448424372621,0.28689498627835264,0.6889454550486527
0.049,1.7575809678463423,1.0,3018.352333269862,0.4239333890404737,1.3120288174928978,0.9739167448859903,0.28687140064954636,0.6895344931568363
0.0495,1.7570194052557175,1.0,3023.1564247369515,0.4271646722564857,1.311733699705044,0.9742785411478341,0.28684781502074014,0.6901214938399409
0.05,1.7564578426650928,1.0,3027.8814886487835,0.43037782666017776,1.3114392968995146,0.97463060134345,0.28682422939193386,0.6907065189628062
0.0505,1.7558962800744682,1.0,3032.530697601938,0.43357295415824854,1.3111455800443568,0.97497327858855,0.28680064376312764,0.6912896301621836
0.051000000000000004,1.7553347174838434,1.0,3037.10723773926,0.43675015665739664,1.310852520107618,0.9753069099266537,0.2867770581343214,0.6918708888480325
0.051500000000000004,1.7547731548932186,1.0,3041.6143083181223,0.4399095360643207,1.3105600880573451,0.9756318172026832,0.2867534725055152,0.6924503562047641
0.052000000000000005,1.7542115923025938,1.0,3046.0551212966407,0.4430511942857195,1.3102682548615858,0.9759483078816352,0.2867298868767089,0.69302809319243
0.0525,1.7536500297119693,1.0,3050.4329009392427,0.4461752332282915,1.3099769914883872,0.976256675816241,0.2867063012479027,0.6936041605478582
0.053,1.7530884671213445,1.0,3054.746092974188,0.44928171990728993,1.3096863100659897,0.9765572009366429,0.2866827156190965,0.6941785374927032
0.0535,1.7525269045307197,1.0,3059.0018395099178,0.45237079352256926,1.3093961480391583,0.9768501537914925,0.2866591299902902,0.6947513506968472
0.054,1.751965341940095,1.0,3063.2026569798836,0.455442555164753,1.309106482732759,0.9771357918098017,0.286635544361484,0.6953226477442047
0.0545,1.7514037793494701,1.0,3067.3500085939013,0.4584970976209679,1.3088173005791373,0.9774143611663382,0.28661195873267775,0.6958924581091033
0.055,1.7508422167588455,1.0,3071.445363424417,0.4615345136783409,1.3085285880106388,0.9776860976370376,0.28658837310387153,0.6964608111612294
0.0555,1.7502806541682208,1.0,3075.4901962631716,0.4645548961239989,1.3082403314596092,0.9779512271245965,0.28656478747506525,0.6970277361660404
0.056,1.749719091577596,1.0,3079.485987481949,0.4675583377450687,1.3079525173583944,0.9782099661532982,0.28654120184625903,0.6975932622851653
0.0565,1.7491575289869712,1.0,3083.43422289737,0.47054493132867725,1.3076651321393398,0.978462522335117,0.28651761621745275,0.698157418576794
0.057,1.7485959663963464,1.0,3087.336393640081,0.4735147696619514,1.307378162234791,0.978709094808982,0.28649403058864653,0.6987202339960538
0.0575,1.7480344038057218,1.0,3091.193996027363,0.47646794553201793,1.3070915940770942,0.97894987465496,0.2864704449598403,0.6992817373953738
0.058,1.747472841215097,1.0,3095.008531440726,0.4794045517260038,1.3068054140985943,0.9791850452849714,0.2864468593310341,0.6998419575248409
0.0585,1.7469112786244723,1.0,3098.7815062066443,0.482324681031036,1.3065196087316375,0.9794147828115516,0.28642327370222787,0.7004009230325378
0.059000000000000004,1.7463497160338475,1.0,3102.514431482073,0.4852284262342412,1.3062341644085693,0.9796392563960542,0.2863996880734216,0.7009586624648767
0.059500000000000004,1.7457881534432227,1.0,3106.2088231439398,0.4881158801227463,1.3059490675617353,0.9798586285775959,0.28637610244461537,0.7015152042669155
0.06,1.7452265908525981,1.0,3109.866201682155,0.4909871354836782,1.3056643046234813,0.9800730555839481,0.2863525168158091,0.7020705767826647
0.0605,1.7446650282619733,1.0,3113.488092097655,0.49384228510416395,1.305379862026153,0.9802826876255033,0.28632893118700287,0.7026248082553819
0.061,1.7441034656713486,1.0,3117.0760238035414,0.49668142177133023,1.3050957262020957,0.9804876691733565,0.28630534555819664,0.7031779268278567
0.0615,1.7435419030807238,1.0,3120.631034835951,0.49950462945242624,1.30481188779752,0.9806881387696995,0.2862817599293904,0.7037299523511225
0.062,1.7429803404900992,1.0,3124.1515338708205,0.5023119513975253,1.3045283598244395,0.9808842278564373,0.28625817430058415,0.7042808611691223
0.0625,1.7424187778994744,1.0,3127.6426272172816,0.5051035531853119,1.3042450983985947,0.9810760691889178,0.2862345886717779,0.7048307401161653
0.063,1.7418572153088496,1.0,3131.104944372406,0.5078795176636391,1.3039620977314756,0.9812637863891118,0.2862110030429717,0.7053796018580385
0.0635,1.7412956527182248,1.0,3134.5391168009774,0.5106399276803604,1.3036793520345729,0.9814474985549707,0.2861874174141654,0.705927459017417
0.064,1.7407340901276,1.0,3137.9457779030317,0.5133848660833289,1.3033968555193762,0.9816273204593031,0.2861638317853592,0.7064743241739628
0.0645,1.7401725275369755,1.0,3141.3255629806263,0.5161144157203977,1.3031146023973759,0.9818033627385054,0.286140246156553,0.7070202098644156
0.065,1.7396109649463507,1.0,3144.6791092068634,0.5188286594394204,1.3028325868800619,0.9819757320717323,0.28611666052774676,0.7075651285826843
0.0655,1.739049402355726,1.0,3148.0070555946386,0.5215276800882498,1.3025508031789246,0.9821445313510551,0.2860930748989405,0.7081090927799352
0.066,1.7384878397651011,1.0,3151.3100429669753,0.5242115605147393,1.3022692455054539,0.9823098598431272,0.28606948927013426,0.70865211486468
0.0665,1.7379262771744763,1.0,3154.5887139270803,0.5268803835667422,1.3019879080711398,0.9824718133428315,0.286045903641328,0.7091942072028596
0.067,1.7373647145838518,1.0,3157.843712830275,0.5295342320921116,1.3017067850874728,0.9826304843193691,0.28602231801252176,0.7097353821179256
0.0675,1.736803151993227,1.0,3161.07568575553,0.5321731889387007,1.3014258707659427,0.9827859620552039,0.28599873238371554,0.7102756518909221
0.068,1.7362415894026022,1.0,3164.285280478744,0.5347973369543629,1.3011451593180396,0.9829383327782674,0.2859751467549093,0.7108150287605629
0.0685,1.7356800268119774,1.0,3167.4731464460497,0.5374067589869513,1.3008646449552541,0.9830876797877889,0.28595156112610304,0.7113535249233065
0.069,1.7351184642213526,1.0,3170.639934748643,0.5400015378843193,1.3005843218890758,0.9832340835741041,0.2859279754972968,0.7118911525334326
0.0695,1.734556901630728,1.0,3173.7862980971554,0.5425817564943198,1.3003041843309948,0.983377621932769,0.2859043898684906,0.7124279237031119
0.07,1.7339953390401033,1.0,3176.9128907978975,0.5451474976648063,1.3000242264925017,0.9835183700732852,0.2858808042396843,0.7129638505024747
