Time [s],Phi [rad],STIM [ ],Fsee [N],Gamma [ ],Lcerel [ ],q [ ],Lmtc [m],fisomrel [ ]
0.0,1.8,1.0,17.97636363814508,9.337458682325262e-05,1.3793387150312253,0.0050022831007789995,0.288653,0.5411420257603918
0.0005,1.79999375,1.0,18.31324488581585,0.0057020601380516674,1.3792983352901294,0.013173596885280761,0.2886527375,0.5412397093307928
0.001,1.799975,1.0,21.71680155874891,0.011279285397856541,1.3789282613741287,0.03604434943663735,0.28865195,0.5421344793749362
0.0015,1.79994375,1.0,31.300163476737954,0.016825226834523147,1.378026565924075,0.07119736515281809,0.2886506375,0.5443109548968466
0.002,1.7999,1.0,54.07753880951262,0.022340059924573757,1.3763360827138587,0.11542275240579766,0.2886488,0.5483774006619508
0.0025,1.79984375,1.0,97.94912680480157,0.0278239591608751,1.3738952475540052,0.16534123898180078,0.28864643749999996,0.5542166577057691
0.003,1.7997750000000001,1.0,162.0371465765678,0.03327709805960183,1.371174023974987,0.2180708603727811,0.28864354999999997,0.5606819002749228
0.0035,1.79969375,1.0,238.90174638146433,0.03869964916044046,1.3685472518073492,0.271398906736322,0.2886401375,0.5668779438305178
0.004,1.7996,1.0,322.7626135625777,0.04409178403719524,1.3661218050037973,0.3236767928773089,0.2886362,0.5725600251937546
0.0045000000000000005,1.7994937500000001,1.0,410.60932801248015,0.049453673303025525,1.363891348000895,0.37375682666466364,0.2886317375,0.5777521902107512
0.005,1.799375,1.0,500.78217115705536,0.054785486601980175,1.361829278186254,0.42092320290107915,0.28862675,0.5825241500230052
0.0055,1.79924375,1.0,592.1708792336782,0.06008739265197336,1.3599118798932455,0.46479930581693335,0.2886212375,0.586936985687851
0.006,1.7991000000000001,1.0,683.8997655243963,0.06535955919867836,1.3581213125946687,0.5052548772492516,0.2886152,0.5910367521220394
0.006500000000000001,1.79894375,1.0,775.2548230837596,0.07060215306102921,1.3564438163528245,0.5423264138924703,0.2886086375,0.5948590745657969
0.007,1.798775,1.0,865.6270247353899,0.07581533982618933,1.3548687384986309,0.5761559685325917,0.28860155,0.5984316914425714
0.0075,1.79859375,1.0,954.5782397937962,0.0809992853484398,1.353386252320948,0.6069455841672324,0.2885939375,0.601779836321924
0.008,1.7984,1.0,1041.6728687279008,0.08615415289072074,1.3519893003532475,0.6349278515084865,0.2885858,0.6049219784337734
0.0085,1.79819375,1.0,1126.590843874205,0.09128010535013645,1.350671174427146,0.660344034472558,0.2885771375,0.6078754063325451
0.009000000000000001,1.797975,1.0,1209.1176841078384,0.09637730533725881,1.3494254035020503,0.6834311689676552,0.28856795,0.6106565286588945
0.0095,1.79774375,1.0,1289.0748014928486,0.1014459142787086,1.3482464784895485,0.7044148483337643,0.2885582375,0.6132793055472846
0.01,1.7975,1.0,1366.321315481171,0.10648609218529421,1.347129552972716,0.7235049197639893,0.288548,0.6157559740209257
0.0105,1.79724375,1.0,1440.770683996667,0.11149799846414235,1.3460700417393834,0.7408934801020941,0.2885372375,0.6180979789875685
0.011,1.796975,1.0,1512.3939541254258,0.11648179244686249,1.345063464196398,0.7567544982951233,0.28852595000000003,0.6203163446325928
0.0115,1.79669375,1.0,1581.154355362434,0.1214376311310878,1.344106140202245,0.7712447209605577,0.2885141375,0.6224201666936
0.012,1.7964,1.0,1647.0535450099117,0.12636567119082193,1.34319450246313,0.7845043993972669,0.28850180000000003,0.624418155226673
0.0125,1.79609375,1.0,1710.1176494638132,0.13126606859044407,1.342325196606317,0.7966586648316835,0.2884889375,0.6263184303840765
0.013000000000000001,1.7957750000000001,1.0,1770.4067286890572,0.13613897942207573,1.341494911841079,0.8078188715446145,0.28847555,0.6281289068451966
0.0135,1.79544375,1.0,1827.9567459661744,0.14098455700347345,1.340700983799794,0.8180842353660417,0.2884616375,0.629855993743152
0.014,1.7951000000000001,1.0,1882.8228178482907,0.1458029542789783,1.339940839147913,0.8275429265655473,0.2884472,0.6315058223195558
0.0145,1.79474375,1.0,1935.0801535839605,0.15059432381062104,1.339211953317274,0.8362732958867695,0.2884322375,0.633084345429463
0.015,1.794375,1.0,1984.813639811796,0.15535881795964057,1.3385119352538766,0.844345035608841,0.28841675,0.6345971610034289
0.0155,1.79399375,1.0,2032.1002678968846,0.16009658772724505,1.3378386837014835,0.8518202398556961,0.2884007375,0.6360491830192889
0.016,1.7936,1.0,2077.00893707702,0.16480778201436624,1.3371903550795252,0.858754284124115,0.2883842,0.6374447207951011
0.0165,1.7931937500000001,1.0,2119.622711958562,0.1694925497219359,1.3365651058074322,0.8651965408568459,0.2883671375,0.6387880406659183
0.017,1.792775,1.0,2160.029545526018,0.17415103896849676,1.33596117471317,0.8711911142939698,0.28834955,0.6400831922364375
0.0175,1.7923437500000001,1.0,2198.324231618601,0.1787833983410178,1.3353768481415982,0.8767774533809896,0.2883314375,0.6413340871511715
0.018000000000000002,1.7919,1.0,2234.5942983297523,0.18338977510667642,1.3348105894988183,0.8819909314710985,0.2883128,0.6425442256360134
0.0185,1.79144375,1.0,2268.907485882268,0.18797031358379077,1.3342611481243258,0.8868633464068364,0.2882936375,0.6437164695618862
0.019,1.790975,1.0,2301.3388273828364,0.1925251580906791,1.3337272733576155,0.8914232610638351,0.28827395,0.6448536575806485
0.0195,1.79049375,1.0,2331.970043300445,0.19705445294565954,1.333207714538183,0.8956963744762289,0.2882537375,0.6459586064165839
0.02,1.79,1.0,2360.881776151287,0.201558341462381,1.3327012913206768,0.8997058627266452,0.288233,0.6470339628620987
0.0205,1.78949375,1.0,2388.158591021138,0.20603696745091268,1.3322068378577714,0.903472649943625,0.2882117375,0.6480823242364171
0.021,1.788975,1.0,2413.877426531186,0.2104904733571529,1.3317233094399126,0.9070156800727609,0.28818995000000003,0.6491060139484439
0.021500000000000002,1.78844375,1.0,2438.0981039518747,0.21491899856084412,1.3312498665193664,0.9103521494724622,0.2881676375,0.650106906667417
0.022,1.7879,1.0,2460.8838893315883,0.21932268244172876,1.3307856695483984,0.9134976539169015,0.2881448,0.651086864864215
0.0225,1.78734375,1.0,2482.301208499018,0.22370166437954922,1.3303298789792746,0.9164663597022935,0.28812143749999997,0.6520477393288834
0.023,1.786775,1.0,2502.419046048891,0.2280560836884655,1.329881658412588,0.9192711550428605,0.28809755,0.6529913630196447
0.0235,1.78619375,1.0,2521.2941690791645,0.232386076670527,1.3294403118844824,0.9219238072813144,0.28807313749999996,0.6539192630913743
0.024,1.7856,1.0,2539.0084540981575,0.23669178463867105,1.3290049273911464,0.9244350163480569,0.2880482,0.6548334112000844
0.0245,1.78499375,1.0,2555.6079193031283,0.24097334177196805,1.3285749513553797,0.9268146199530506,0.2880227375,0.6557350170338324
0.025,1.784375,1.0,2571.140190182416,0.24523088224948836,1.3281498301999821,0.9290716193192269,0.28799675,0.6566252836088103
0.025500000000000002,1.78374375,1.0,2585.654367244649,0.24946454025030237,1.3277290103477533,0.9312142617247227,0.2879702375,0.6575054074505173
0.026000000000000002,1.7831000000000001,1.0,2599.2009005420045,0.25367444995348043,1.3273119382214933,0.9332501138947672,0.2879432,0.658376578755387
0.0265,1.78244375,1.0,2611.8314709880715,0.25786074553809285,1.326898060244002,0.9351861273537896,0.2879156375,0.6592399815328728
0.027,1.781775,1.0,2623.591777231859,0.26202355707837827,1.3264868886755365,0.9370287050979331,0.28788755,0.6600966566421167
0.0275,1.7810937500000001,1.0,2634.5367125445587,0.2661630220305639,1.3260778595404141,0.938783736124367,0.2878589375,0.6609477982064476
0.028,1.7804,1.0,2644.7019237703034,0.27027926921889894,1.3256705951809835,0.9404566750175204,0.2878298,0.661794207380306
0.0285,1.77969375,1.0,2654.123427152264,0.2743724272979654,1.3252647209190747,0.9420525579022613,0.2878001375,0.6626366751448867
0.029,1.778975,1.0,2662.8378689792003,0.27844262492234534,1.3248598620765164,0.9435760396606861,0.28776995,0.6634759885574832
0.029500000000000002,1.7782437500000001,1.0,2670.882468698335,0.28248999074662096,1.3244556439751387,0.945031427716038,0.2877392375,0.6643129307802234
0.03,1.7775,1.0,2678.2949651411254,0.2865146534253743,1.3240516919367709,0.9464227124190185,0.287708,0.6651482810998602
0.0305,1.77674375,1.0,2685.1090162495493,0.2905167388074435,1.323647672977915,0.9477535989126484,0.2876762375,0.6659827288774892
0.031,1.775975,1.0,2691.3538883609085,0.29449637166782827,1.3232432979763513,0.949027532208191,0.28764395,0.6668168696217212
0.0315,1.7751937500000001,1.0,2697.0760441402967,0.29845368918717713,1.322838123670994,0.9502476984677425,0.2876111375,0.6676516132161733
0.032,1.7744,1.0,2702.297886163861,0.3023888132538986,1.3224319299932272,0.9514170843079771,0.2875778,0.6684874059975849
0.0325,1.77359375,1.0,2707.042057103311,0.306301865756401,1.322024496874435,0.9525384706965823,0.2875439375,0.6693246920049969
0.033,1.772775,1.0,2711.3314176922772,0.3101929685830927,1.3216156042460017,0.9536144496070692,0.28750955,0.6701639129639007
0.0335,1.7719437500000002,1.0,2715.1890257666705,0.31406224362238216,1.321205032039311,0.95464743913468,0.2874746375,0.6710055082672999
0.034,1.7711000000000001,1.0,2718.6381163786464,0.3179098127626777,1.320792560185747,0.9556396972319354,0.2874392,0.6718499149536794
0.0345,1.7702437500000001,1.0,2721.702082984539,0.3217357978923878,1.320377968616694,0.9565933342044728,0.2874032375,0.6726975676818896
0.035,1.7693750000000001,1.0,2724.404459706202,0.3255403208999208,1.3199610372635362,0.957510324092104,0.28736675,0.6735488987029401
0.035500000000000004,1.76849375,1.0,2726.7689046665155,0.32932350367368507,1.3195415460576576,0.9583925150462207,0.2873297375,0.674404337828705
0.036000000000000004,1.7676,1.0,2728.8139223154412,0.33308546359045965,1.3191193227667786,0.9592416426998166,0.2872922,0.6752642150410479
0.0365,1.76669375,1.0,2730.558197888503,0.3368263212356032,1.318694194307553,0.9600593353192401,0.2872541375,0.6761288600595015
0.037,1.765775,1.0,2732.026011844909,0.34054620195435426,1.3182659374561638,0.9608471170700961,0.28721555,0.6769987023442259
0.0375,1.76484375,1.0,2733.230443890295,0.34424522041614347,1.3178344313759718,0.9616064272261434,0.2871764375,0.6778739611987012
0.038,1.7639,1.0,2734.184624954442,0.3479234912904016,1.3173995552303377,0.9623386186243853,0.28713679999999997,0.678754854399183
0.0385,1.76294375,1.0,2734.9017309344563,0.3515811292465594,1.316961188182623,0.9630449638020342,0.28709663750000003,0.6796415981691958
0.039,1.761975,1.0,2735.394976761001,0.35521824895404747,1.3165192093961886,0.963726660633478,0.28705595,0.6805344071530985
0.0395,1.7609937500000001,1.0,2735.6776107891105,0.3588349650822966,1.3160734980343953,0.9643848375129329,0.2870147375,0.6814334943887153
0.04,1.76,1.0,2735.762909511866,0.36243139230073756,1.315623933260604,0.9650205581238868,0.286973,0.6823390712790365
0.0405,1.7589937500000001,1.0,2735.6641725983563,0.366007645278801,1.3151703942381758,0.9656348258323116,0.2869307375,0.6832513475629873
0.041,1.757975,1.0,2735.394718255251,0.3695638386859177,1.3147127601304718,0.9662285877369872,0.28688795,0.6841705312852684
0.0415,1.75694375,1.0,2734.9620856530855,0.37310008144490275,1.314250962706748,0.9668027419074806,0.2868446375,0.6850967233350831
0.042,1.7559,1.0,2734.3796553320194,0.3766164900939225,1.3137848808030088,0.9673581339811108,0.28680079999999997,0.6860301293987294
0.0425,1.75484375,1.0,2733.661407560053,0.38011317998596,1.3133143878752769,0.96789556304869,0.2867564375,0.6869709641273615
0.043000000000000003,1.753775,1.0,2732.8145160754634,0.3835902589964998,1.3128394192429267,0.9684157891361624,0.28671155,0.6879193168614425
0.043500000000000004,1.75269375,1.0,2731.8461596454863,0.3870478350010265,1.3123599102253334,0.9689195319031512,0.28666613750000003,0.6888752757781303
0.044,1.7516,1.0,2730.763520435023,0.3904860158750246,1.3118757961418717,0.9694074731860645,0.2866202,0.6898389278726841
0.0445,1.75049375,1.0,2729.5737824693206,0.39390490949397866,1.3113870123119167,0.9698802593566407,0.2865737375,0.6908103589395991
0.045,1.7493750000000001,1.0,2728.2841301883873,0.39730462373337333,1.310893494054843,0.9703385035110065,0.28652675,0.6917896535534802
0.0455,1.74824375,1.0,2726.9017470945637,0.4006852664686931,1.3103951766900257,0.9707827875029785,0.2864792375,0.692776895049642
0.046,1.7471,1.0,2725.4338144931407,0.40404694557542253,1.3098919955368398,0.9712136638340834,0.2864312,0.6937721655044493
0.0465,1.7459437500000001,1.0,2723.8875103250116,0.4073897689290462,1.3093838859146603,0.9716316574116881,0.28638263750000004,0.6947755457153842
0.047,1.744775,1.0,2722.265202493501,0.41071383365689823,1.3088708268819302,0.9720372689382211,0.28633355,0.6957870290219155
0.0475,1.74359375,1.0,2720.5775396469653,0.4140192565112857,1.3083527221098161,0.9724309717774698,0.28628393750000003,0.6968067562738091
0.048,1.7424,1.0,2718.8314513669225,0.4173061460392437,1.307829509045395,0.9728132176510286,0.2862338,0.6978348002578796
0.0485,1.74119375,1.0,2717.030469165315,0.42057460308547484,1.3073011560322443,0.973184437780144,0.2861831375,0.698871171878974
0.049,1.739975,1.0,2715.1781217189573,0.42382472849468167,1.3067676314139403,0.9735450428935265,0.28613195,0.6999158811118651
0.0495,1.73874375,1.0,2713.277934526573,0.4270566231115666,1.3062289035340602,0.9738954243851035,0.2860802375,0.7009689369908395
0.05,1.7375,1.0,2711.333429587205,0.43027038778083226,1.3056849407361806,0.974235955396215,0.286028,0.7020303475992276
0.0505,1.73624375,1.0,2709.3481251012636,0.43346612334718104,1.3051357113638784,0.9745669918278174,0.2859752375,0.7031001200588645
0.051000000000000004,1.734975,1.0,2707.3255351937646,0.4366439306553155,1.3045811837607306,0.974888873287807,0.28592195,0.70417826051949
0.051500000000000004,1.73369375,1.0,2705.2691696596544,0.4398039105499381,1.3040213262703138,0.9752019239781646,0.2858681375,0.705264774148085
0.052000000000000005,1.7324,1.0,2703.1825337311902,0.4429461638757515,1.303456107236205,0.9755064535262375,0.2858138,0.7063596651181405
0.0525,1.73109375,1.0,2701.069127868323,0.44607079147745793,1.302885495001981,0.975802757764135,0.28575893750000003,0.7074629365988678
0.053,1.729775,1.0,2698.9324475702224,0.4491778941997602,1.3023094579112187,0.9760911194598997,0.28570355000000003,0.7085745907443404
0.0535,1.72844375,1.0,2696.77569045438,0.45226754763630905,1.3017279669846273,0.9763718066036454,0.2856476375,0.7096946235310065
0.054,1.7271,1.0,2694.6035094526437,0.45533988222699484,1.3011409798853835,0.9766450802855261,0.2855912,0.7108230555920634
0.0545,1.7257437500000001,1.0,2692.4175408138663,0.4583949943751581,1.300548481818722,0.9769111886079205,0.2855342375,0.7119598535601444
0.055,1.724375,1.0,2690.219271290482,0.46143297702590375,1.2999504593357802,0.9771703688508621,0.28547675,0.7131049806895868
0.0555,1.72299375,1.0,2688.0101853396777,0.4644539231243365,1.2993468989876942,0.9774228482802547,0.2854187375,0.7142583994465919
0.056,1.7216,1.0,2685.7917650889035,0.46745792561556104,1.2987377873256007,0.9776688446509427,0.2853602,0.7154200715044775
0.0565,1.72019375,1.0,2683.565490306179,0.4704450774446822,1.2981231109006368,0.9779085666805121,0.28530113749999997,0.7165899577389241
0.057,1.718775,1.0,2681.332838374309,0.4734154715568048,1.2975028562639386,0.9781422144957458,0.28524155,0.7177680182232089
0.0575,1.71734375,1.0,2679.0952842681972,0.4763692008970336,1.2968770099666431,0.9783699800535208,0.2851814375,0.7189542122234238
0.058,1.7159,1.0,2676.8543005376414,0.4793063584104733,1.2962455585598869,0.9785920475378039,0.2851208,0.7201484981936883
0.0585,1.71444375,1.0,2674.6113572931545,0.48222703704222875,1.2956084885948065,0.9788085937342832,0.2850596375,0.7213508337713462
0.059000000000000004,1.7129750000000001,1.0,2672.3679221956368,0.4851313297374047,1.2949657866225388,0.9790197883840605,0.28499795,0.7225611757721522
0.059500000000000004,1.71149375,1.0,2670.1254604511,0.48801932944110593,1.2943174391942205,0.9792257945177336,0.2849357375,0.7237794801854476
0.06,1.71,1.0,2667.88543480823,0.49089112909843713,1.2936634328609882,0.9794267687710964,0.284873,0.7250057021693237
0.0605,1.7084937500000001,1.0,2665.6493055608676,0.49374682165450323,1.2930037541739783,0.9796228616836052,0.2848097375,0.7262397960457746
0.061,1.7069750000000001,1.0,2663.4121312594175,0.4965864996713261,1.292338448568695,0.979814221088943,0.28474595,0.727481605511634
0.0615,1.7054437500000001,1.0,2661.182578663241,0.49941025111262044,1.291667436285721,0.9800009821922974,0.2846816375,0.7287312073039378
0.062,1.7039003619736994,1.0,2658.99205020498,0.5022181642696396,1.29099059152296,0.9801832726631827,0.2846168152028954,0.7299887616234624
0.0625,1.7023533701862057,1.0,2657.218803256394,0.5050103271625729,1.290308283241367,0.9803612410172325,0.28455184154782065,0.731253509826053
0.063,1.700806378398712,1.0,2655.9990018059084,0.5077868278116097,1.2896208804018967,0.9805350303001159,0.2844868678927459,0.7325246990919332
0.0635,1.699259386611218,1.0,2655.292229005758,0.5105477542369391,1.2889287519655037,0.9807047783405382,0.28442189423767117,0.7338015825499249
0.064,1.6977123948237243,1.0,2655.0605319796605,0.5132931937874697,1.2882322458241477,0.9808706168727075,0.28435692058259643,0.7350834581223471
0.0645,1.6961654030362305,1.0,2655.2590842971476,0.5160232342966867,1.2875317745153456,0.9810326762033786,0.2842919469275217,0.736369510982323
0.065,1.6946184112487368,1.0,2655.854178167176,0.5187379617723206,1.2868276490929114,0.9811910768407077,0.28422697327244695,0.7376591189918167
0.0655,1.693071419461243,1.0,2656.8161138172513,0.5214374615026792,1.286120144411585,0.9813459332147966,0.2841619996173722,0.7389517313835896
0.066,1.6915244276737493,1.0,2658.1152501117035,0.5241218187760709,1.2854095353261066,0.9814973557654534,0.28409702596229747,0.7402468021203314
0.0665,1.6899774358862556,1.0,2659.7219847961455,0.5267911188808038,1.2846960966912158,0.9816454511173459,0.2840320523072227,0.7415437899514858
0.067,1.6884304440987619,1.0,2661.6110828713145,0.529445446032703,1.2839800633533258,0.9817903202360553,0.283967078652148,0.7428422309242381
0.0675,1.6868834523112681,1.0,2663.755538896023,0.532084885401216,1.2832616865536044,0.9819320615074659,0.28390210499707325,0.7441416356211976
0.068,1.6853364605237744,1.0,2666.1366034578896,0.5347095196393732,1.2825411415592924,0.9820707662141406,0.2838371313419985,0.7454416560152164
0.0685,1.6837894687362807,1.0,2668.7355654069443,0.537319431388391,1.2818186032764876,0.9822065225609473,0.28377215768692376,0.7467419478548779
0.069,1.682242476948787,1.0,2671.5337045663805,0.5399147032894857,1.2810942466112878,0.9823394158217066,0.283707184031849,0.7480421700319915
0.0695,1.6806954851612932,1.0,2674.5173457563196,0.5424954151882508,1.2803681999929324,0.9824695261103592,0.2836422103767743,0.7493420677063873
0.07,1.6791484933737992,1.0,2677.666377498279,0.5450616510510482,1.2796406508147231,0.9825969339117288,0.28357723672169954,0.7506412832012694
0.07050000000000001,1.6776015015863055,1.0,2680.9595585024786,0.5476134962099857,1.2789117965413412,0.9827217176564941,0.2835122630666248,0.7519394443561271
0.07100000000000001,1.6760545097988118,1.0,2684.3875243003254,0.5501510294505341,1.2781817254083376,0.9828439478535523,0.28344728941155006,0.7532363764312509
0.07150000000000001,1.674507518011318,1.0,2687.9408961710456,0.5526743295581648,1.2774505256512632,0.9829636927476758,0.2833823157564753,0.7545319063005032
0.07200000000000001,1.6729605262238243,1.0,2691.6102788477547,0.5551834753183488,1.2767182855056685,0.9830810184094897,0.28331734210140064,0.7558258624579189
0.0725,1.6714135344363306,1.0,2695.386258395337,0.5576785455165573,1.2759850932071048,0.9831959888213295,0.2832523684463259,0.7571180750238062
0.073,1.6698665426488368,1.0,2699.259400261976,0.5601596189382613,1.2752510369911227,0.9833086659591854,0.28318739479125116,0.7584083757503558
0.0735,1.668319550861343,1.0,2703.2202475023305,0.562626774368932,1.2745162050932735,0.9834191098709439,0.2831224211361764,0.7596965980267469
0.074,1.6667725590738494,1.0,2707.2593191740384,0.5650800905940405,1.2737806857491076,0.9835273787511093,0.2830574474811017,0.7609825768837639
