Time [s],Phi [rad],STIM [ ],Fsee [N],Gamma [ ],Lcerel [ ],q [ ],Lmtc [m],fisomrel [ ]
0.0,1.8,1.0,17.987495410136766,0.0001442861468305565,1.3793374684128048,0.005005432788635637,0.288653,0.5411450416395547
0.0005,1.79999375,1.0,18.34100555497606,0.005752686124478572,1.3792952558613374,0.013317521778690188,0.2886527375,0.5412471584218196
0.001,1.799975,1.0,21.78239664622352,0.011329627412532843,1.3789215820396976,0.0363117623330709,0.28865195,0.5421506207414947
0.0015,1.79994375,1.0,31.447483823276677,0.016875286470318315,1.3780140758019865,0.07156203916700392,0.2886506375,0.5443410666312819
0.002,1.7999,1.0,54.387447027401706,0.02238983876535449,1.3763160983131222,0.11585376016029793,0.2886488,0.5484253639999636
0.0025,1.79984375,1.0,98.46363462960635,0.02787345878174994,1.3738705922772605,0.16580958272301177,0.28864643749999996,0.5542754471627884
0.003,1.7997750000000001,1.0,162.7024175018604,0.03332632002673266,1.371149230720071,0.2185536721810115,0.28864354999999997,0.5607405884435572
0.0035,1.79969375,1.0,239.65111298150103,0.038748595031227,1.3685242462963887,0.27187887069067546,0.2886401375,0.56693201496071
0.004,1.7996,1.0,323.5585101173995,0.044140455360332495,1.3661007800568834,0.32414135500477825,0.2886362,0.5726091162045328
0.0045000000000000005,1.7994937500000001,1.0,411.43258451475685,0.04950207161860272,1.3638720642896638,0.37419769707760103,0.2886317375,0.5777969414208508
0.005,1.799375,1.0,501.621518442294,0.0548336134418055,1.3618114739734801,0.4213355881113152,0.28862675,0.5825652337408729
0.0055,1.79924375,1.0,593.017090778813,0.060135249537247214,1.3598953721489704,0.4651810573619453,0.2886212375,0.5869748759749813
0.006,1.7991000000000001,1.0,684.746006545118,0.06540714764435206,1.3581059504822088,0.5056056762047576,0.2886152,0.591071837465669
0.006500000000000001,1.79894375,1.0,776.0955676804216,0.07064947456237679,1.3564294808963329,0.5426471429289323,0.2886086375,0.5948916618238862
0.007,1.798775,1.0,866.4728315601491,0.07586239620016014,1.354855089929899,0.5764480865528544,0.28860155,0.5984625802003931
0.0075,1.79859375,1.0,955.3871404693379,0.08104607733657088,1.3533738219286198,0.6072114700185068,0.2885939375,0.6018078506873729
0.008,1.7984,1.0,1042.4631431752782,0.08620068233369868,1.3519776747018957,0.6351694523116239,0.2885858,0.6049480756104799
0.0085,1.79819375,1.0,1127.3767763057108,0.09132637406362344,1.3506600567577236,0.6605633903838055,0.2885771375,0.6079002697534122
0.009000000000000001,1.797975,1.0,1209.879505631955,0.09642331453894086,1.3494150009969308,0.6836305330427265,0.28856795,0.6106797100711571
0.0095,1.79774375,1.0,1289.808263235942,0.10149166516166178,1.348236778661814,0.7045962085141688,0.2885582375,0.613300848173606
0.01,1.7975,1.0,1367.041290492926,0.1065315867215435,1.3471203044753142,0.7236699846944288,0.288548,0.6157764484086901
0.0105,1.79724375,1.0,1441.47384543248,0.11154323803717427,1.346061245601842,0.7410439298161715,0.2885372375,0.6181173925143548
0.011,1.796975,1.0,1513.0576137912253,0.11652677756654833,1.345055361068384,0.7568919594316862,0.28852595000000003,0.620334176651681
0.0115,1.79669375,1.0,1581.7930674734862,0.12148236378652731,1.3440985130653227,0.7713704439830457,0.2885141375,0.622436904675491
0.012,1.7964,1.0,1647.68442391856,0.1264101536130678,1.3431871210766344,0.7846194962104803,0.28850180000000003,0.6244343109921284
0.0125,1.79609375,1.0,1710.7361876194334,0.1313103020558425,1.3423180942637878,0.7967642353136912,0.2884889375,0.6263339360319149
0.013000000000000001,1.7957750000000001,1.0,1770.9889038981803,0.13618296412452405,1.3414883417882524,0.8079159802134731,0.28847555,0.6281432156336407
0.0135,1.79544375,1.0,1828.5002220535193,0.1410282940695262,1.340694947753196,0.8181737316296332,0.2884616375,0.6298691089778288
0.014,1.7951000000000001,1.0,1883.3517974887195,0.14584644644526498,1.339935050313751,0.8276254604679928,0.2884472,0.6315183723475368
0.0145,1.79474375,1.0,1935.6024205108106,0.15063757307172437,1.3392063156281677,0.8363495122836051,0.2884322375,0.63309654157514
0.015,1.794375,1.0,1985.3140419468193,0.15540182478137188,1.3385066016679807,0.8444155910276967,0.28841675,0.6346086754693718
0.0155,1.79399375,1.0,2032.5670740222595,0.16013935240667493,1.3378337664047248,0.8518857047985274,0.2884007375,0.6360597776683604
0.016,1.7936,1.0,2077.445301830096,0.16485030584006338,1.3371858083926036,0.8588151181909589,0.2883842,0.6374544981461302
0.0165,1.7931937500000001,1.0,2120.048485586174,0.16953483560167354,1.336560714285603,0.8652531045149776,0.2883671375,0.6387974668353464
0.017,1.792775,1.0,2160.452035657264,0.174193089201131,1.3359568580032402,0.8712437685914752,0.28834955,0.6400924412008633
0.0175,1.7923437500000001,1.0,2198.7300407890475,0.17882521318542116,1.3353727381274176,0.8768265790186869,0.2883314375,0.6413428779366026
0.018000000000000002,1.7919,1.0,2234.9662332745834,0.18343135410152953,1.334806853240038,0.8820368784000903,0.2883128,0.6425522035188257
0.0185,1.79144375,1.0,2269.2460547140886,0.18801165765642724,1.3342577728446947,0.8869063828889291,0.2882936375,0.6437236648370679
0.019,1.790975,1.0,2301.6606661721776,0.19256627008643357,1.333724087544481,0.891463589889579,0.28827395,0.6448604381141698
0.0195,1.79049375,1.0,2332.290018771904,0.197095335798182,1.3332045680385514,0.8957341835471161,0.2882537375,0.6459652928515383
0.02,1.79,1.0,2361.2006464182996,0.2015989967896304,1.3326981749463351,0.8997413537179999,0.288233,0.6470405752148527
0.0205,1.78949375,1.0,2388.464128139039,0.2060773950587366,1.332203868887262,0.9035060324957319,0.2882117375,0.6480886144653536
0.021,1.788975,1.0,2414.156667476597,0.21053067260345842,1.3317206104807606,0.9070471447554934,0.28818995000000003,0.6491117237955086
0.021500000000000002,1.78844375,1.0,2438.349362033904,0.21495896978823023,1.3312474501092717,0.91038184618648,0.2881676375,0.6501120114671733
0.022,1.7879,1.0,2461.1225916762746,0.21936242911744358,1.3307833845391068,0.9135256870005096,0.2881448,0.6510916853088438
0.0225,1.78734375,1.0,2482.5412959798136,0.22374118994533235,1.330327590646649,0.9164928272148043,0.28812143749999997,0.652052560132589
0.023,1.786775,1.0,2502.6607160264193,0.22809538927543133,1.3298793642743891,0.9192961705083917,0.28809755,0.652996189495934
0.0235,1.78619375,1.0,2521.5384915251525,0.2324251641112753,1.3294380012648177,0.9219474731255208,0.28807313749999996,0.6539241177380165
0.024,1.7856,1.0,2539.234460029557,0.23673065145639913,1.3290027974604262,0.924457461757468,0.2880482,0.6548378803036154
0.0245,1.78499375,1.0,2555.810467148263,0.2410119883143376,1.328573048703705,0.926835937893958,0.2880227375,0.6557390040355633
0.025,1.784375,1.0,2571.319327988383,0.24526930835234717,1.3281481525390704,0.9290918861791952,0.28799675,0.6566287945956474
0.025500000000000002,1.78374375,1.0,2585.8254213633786,0.249502751062865,1.3277274128932577,0.9312335262574855,0.2879702375,0.6575087462955747
0.026000000000000002,1.7831000000000001,1.0,2599.3730610090656,0.2537124490550159,1.3273103346301818,0.9332684295552472,0.2879432,0.6583799261616021
0.0265,1.78244375,1.0,2612.004647199938,0.2578985338682367,1.326896451096559,0.9352035558649407,0.2879156375,0.6592433362897798
0.027,1.781775,1.0,2623.763605087815,0.2620611370419643,1.326485295639105,0.9370453072299579,0.28788755,0.6600999736334379
0.0275,1.7810937500000001,1.0,2634.694295654406,0.26620039011563573,1.3260764016045365,0.9387995800718941,0.2878589375,0.6609508300913169
0.028,1.7804,1.0,2644.841931492735,0.27031642462868777,1.3256693023395691,0.9404718118126614,0.2878298,0.6617968925818186
0.0285,1.77969375,1.0,2654.24748414875,0.27440937029132,1.3252635774010675,0.942067028557979,0.2878001375,0.6626390472457264
0.029,1.778975,1.0,2662.9480272417163,0.27847935650469957,1.324858848334139,0.9435898818662124,0.28776995,0.6634780888361507
0.029500000000000002,1.7782437500000001,1.0,2670.994627853297,0.28252651785365435,1.32445461337509,0.9450446611178891,0.2877392375,0.6643150633278725
0.03,1.7775,1.0,2678.4153032413446,0.2865509797633139,1.3240505877146365,0.9464353659808876,0.287708,0.6651505631434909
0.0305,1.77674375,1.0,2685.238478322329,0.2905528676588079,1.3236464865434938,0.9477657056177071,0.2876762375,0.6659851777680232
0.031,1.775975,1.0,2691.4929496019927,0.29453230696526606,1.3232420250523782,0.9490391234393699,0.28764395,0.6668194937501203
0.0315,1.7751937500000001,1.0,2697.2078509037647,0.29848942310781784,1.3228369184320052,0.9502588194596282,0.2876111375,0.6676540946981084
0.032,1.7744,1.0,2702.412620896318,0.30242434151159303,1.3224308818730908,0.9514277705080499,0.2875778,0.6684895612708577
0.0325,1.77359375,1.0,2707.1369724192205,0.3063371876017212,1.3220236305663509,0.9525487485301193,0.2875439375,0.669326471163477
0.033,1.772775,1.0,2711.4086307473917,0.31022808541153757,1.3216149000659474,0.9536243391613087,0.28750955,0.6701653573200596
0.0335,1.7719437500000002,1.0,2715.2514942898415,0.31409715683245676,1.3212044627328874,0.9546569582753865,0.2874746375,0.6710066744913175
0.034,1.7711000000000001,1.0,2718.6986233691955,0.3179445302795892,1.3207920091055392,0.955648854342254,0.2874392,0.6718510423916826
0.0345,1.7702437500000001,1.0,2721.768230393707,0.3217703249525667,1.3203773665046907,0.9566021415219994,0.2874032375,0.6726987979321399
0.035,1.7693750000000001,1.0,2724.478652739179,0.3255746600510212,1.3199603622511293,0.9575187974389668,0.28736675,0.673550276110096
0.035500000000000004,1.76849375,1.0,2726.848339847267,0.3293576547745845,1.3195408236656427,0.9584006735803564,0.2873297375,0.6744058099843195
0.036000000000000004,1.7676,1.0,2728.8958409848997,0.3331194283228886,1.3191185780690187,0.9592495047885398,0.2872922,0.6752657306479836
0.0365,1.76669375,1.0,2730.639793665102,0.3368600998955652,1.3186934527820449,0.9600669179354451,0.2872541375,0.676130367199804
0.037,1.765775,1.0,2732.098912728216,0.34057978869224637,1.3182652751255084,0.9608544398578865,0.28721555,0.6770000467132795
0.0375,1.76484375,1.0,2733.2904756147186,0.3442786118949588,1.3178338860857781,0.9616135055302866,0.2871764375,0.6778750665038669
0.038,1.7639,1.0,2734.2279918864742,0.34795668094342025,1.3173991613807123,0.9623454659182514,0.28713679999999997,0.6787556516416471
0.0385,1.76294375,1.0,2734.937633152986,0.35161412718870305,1.316960862168529,0.9630515850506466,0.28709663750000003,0.679642257185532
0.039,1.761975,1.0,2735.430182303616,0.35525106294238684,1.3165188897371414,0.9637330620059041,0.28705595,0.6805350524220898
0.0395,1.7609937500000001,1.0,2735.7164528925646,0.35886760051605143,1.3160731453744636,0.9643910263223997,0.2870147375,0.6814342052713431
0.04,1.76,1.0,2735.807284930616,0.3624638522212764,1.31562353036841,0.9650265427713132,0.286973,0.6823398822633333
0.0405,1.7589937500000001,1.0,2735.713540894069,0.3660399303696416,1.3151699460068944,0.965640615753145,0.2869307375,0.6832522485140666
0.041,1.757975,1.0,2735.4461019484356,0.3695959472727267,1.3147122935778304,0.9662341933512096,0.28688795,0.6841714677008339
0.0415,1.75694375,1.0,2735.0158643890572,0.37313201524211137,1.3142504743691323,0.9668081710721823,0.2868446375,0.6850977020369111
0.042,1.7559,1.0,2734.4337362976726,0.3766482465893753,1.3137843896687138,0.9673633953008512,0.28680079999999997,0.6860311122456402
0.0425,1.75484375,1.0,2733.7106344146255,0.3801447536260983,1.3133139407644892,0.9679006664936302,0.2867564375,0.6869718575338846
0.043000000000000003,1.753775,1.0,2732.857481227217,0.38362164866386,1.312839028944372,0.9684207421330493,0.28671155,0.6879200955648671
0.043500000000000004,1.75269375,1.0,2731.877917810199,0.38707903089244694,1.3123596216804394,0.9689243427306908,0.28666613750000003,0.6888758505856274
0.044,1.7516,1.0,2730.784559176403,0.3905170196185655,1.311875604952278,0.9694121475865768,0.2866202,0.6898393081493963
0.0445,1.75049375,1.0,2729.591023149796,0.3939357351586845,1.3113868556030115,0.9698848000616481,0.2865737375,0.6908106701456291
0.045,1.7493750000000001,1.0,2728.3025148881475,0.3973352817543335,1.3108933269079186,0.9703429138889593,0.28652675,0.6917899849621367
0.0455,1.74824375,1.0,2726.924239865792,0.40071576364704203,1.3103949721422772,0.9707870715442888,0.2864792375,0.6927772999642697
0.046,1.7471,1.0,2725.4614030011835,0.40407728507833957,1.3098917445813654,0.9712178261362395,0.2864312,0.6937726614806052
0.0465,1.7459437500000001,1.0,2723.9192078320257,0.40741995028975564,1.3093835975004615,0.9716357031645395,0.28638263750000004,0.6947761147884963
0.047,1.744775,1.0,2722.302855739765,0.41074386352281983,1.3088704841748435,0.9720412021569068,0.28633355,0.6957877040994827
0.0475,1.74359375,1.0,2720.617545222058,0.41404912901906166,1.3083523578797898,0.9724347981939321,0.28628393750000003,0.6968074725445601
0.048,1.7424,1.0,2718.868471213253,0.4173358510200106,1.3078291718905781,0.9728169433306226,0.2862338,0.6978354621593141
0.0485,1.74119375,1.0,2717.0608244542236,0.42060413376719624,1.307300879482487,0.9731880679225068,0.2861831375,0.6988717138689096
0.049,1.739975,1.0,2715.199790909529,0.4238540815021481,1.3067674339307942,0.9735485818635313,0.28613195,0.6999162674729459
0.0495,1.73874375,1.0,2713.2905512337315,0.4270857984663956,1.3062287885107784,0.9738988757423718,0.2860802375,0.700969161630169
0.05,1.7375,1.0,2711.338280286021,0.4302993889014684,1.3056848964977175,0.9742393219232302,0.286028,0.7020304338430478
0.0505,1.73624375,1.0,2709.3469917645243,0.4334949529142731,1.3051357217037225,0.9745702757837357,0.2859752375,0.7031000999373356
0.051000000000000004,1.734975,1.0,2707.316931117269,0.4366725785844494,1.304581262288226,0.974892077342063,0.28592195,0.7041781079812208
0.051500000000000004,1.73369375,1.0,2705.2588124721133,0.43983239328578055,1.3040214208339997,0.9752050493566943,0.2858681375,0.7052645907974363
0.052000000000000005,1.7324,1.0,2703.174631116807,0.4429744929684417,1.3034561794168567,0.9755095016980285,0.2858138,0.7063595254264174
0.0525,1.73109375,1.0,2701.0663797340635,0.446098973582608,1.30288552011261,0.9758057304474113,0.28575893750000003,0.707462888093475
0.053,1.729775,1.0,2698.936048306958,0.44920593107845475,1.3023094249970724,0.9760940186272881,0.28570355000000003,0.7085746542026132
0.0535,1.72844375,1.0,2696.785624032757,0.452295461406157,1.3017278761460573,0.9763746368866337,0.2856476375,0.7096947983303237
0.054,1.7271,1.0,2694.6170912430534,0.45536766051589,1.3011408556353774,0.9766478441447508,0.2855912,0.7108232942193649
0.0545,1.7257437500000001,1.0,2692.4324313311286,0.45842262435782893,1.300548345540846,0.9769138881963011,0.2855342375,0.7119601147725136
0.055,1.724375,1.0,2690.2336226868174,0.46146044888214893,1.299950327938276,0.9771730062802061,0.28547675,0.7131052320463032
0.0555,1.72299375,1.0,2688.022640638019,0.4644812300390252,1.2993467849034803,0.9774254256148615,0.2854187375,0.7142586172447369
0.056,1.7216,1.0,2685.8014573996816,0.46748506377863297,1.2987376985122718,0.9776713639019196,0.2853602,0.7154202407129815
0.0565,1.72019375,1.0,2683.5720420297525,0.47047204605114734,1.298123050840464,0.9779110298007315,0.28530113749999997,0.7165900719310401
0.057,1.718775,1.0,2681.3363603923467,0.4734422728067435,1.2975028239638695,0.9781446233753787,0.28524155,0.7177680795074071
0.0575,1.71734375,1.0,2679.09637512781,0.4763958399955967,1.2968769999583016,0.978372336516093,0.2851814375,0.7189542311726995
0.058,1.7159,1.0,2676.853893111089,0.47933283664275367,1.2962455622994802,0.9785943528127282,0.2851208,0.7201484911283955
0.0585,1.71444375,1.0,2674.6108285272985,0.48225333631777534,1.2956084934501553,0.9788108471086404,0.2850596375,0.7213508246177599
0.059000000000000004,1.7129750000000001,1.0,2672.369475208193,0.48515747166455053,1.2949657723561465,0.9790219921047248,0.28499795,0.7225612026095087
0.059500000000000004,1.71149375,1.0,2670.130489622984,0.48804533008221884,1.2943173929755107,0.9792279506630902,0.2849357375,0.7237795669390905
0.06,1.71,1.0,2667.894527139262,0.49091699896991986,1.2936633492663043,0.9794288792705627,0.284873,0.7250058587298998
0.0605,1.7084937500000001,1.0,2665.6622420255812,0.49377256572679323,1.2930036351865841,0.9796249283356911,0.2848097375,0.7262400183910942
0.061,1.7069750000000001,1.0,2663.4342874540084,0.4966121177519786,1.2923382446944065,0.9798162424697019,0.28474595,0.7274819856154123
0.0615,1.7054437500000001,1.0,2661.2113155039397,0.4994357424446155,1.291667171747828,0.980002960752382,0.2846816375,0.7287316993769866
0.062,1.7039,1.0,2658.9939771671447,0.5022435272038437,1.2909904103049055,0.9801852169838106,0.2846168,0.7299890979291542
0.0625,1.70234375,1.0,2656.7829223525814,0.5050355594288025,1.2903079543236955,0.980363139922789,0.2845514375,0.7312541188022676
0.063,1.7007750000000001,1.0,2654.578799892901,0.5078119265186318,1.2896197977622548,0.9805368535127705,0.28448555,0.7325266988015008
0.0635,1.69919375,1.0,2652.382257551626,0.5105727158724711,1.2889259345786397,0.980706477096028,0.28441913750000003,0.7338067740046544
0.064,1.6976,1.0,2650.1939420304634,0.51331801488946,1.2882263587309069,0.9808721256167579,0.2843522,0.7350942797599573
0.0645,1.69599375,1.0,2648.014498978555,0.5160479109687383,1.287521064177113,0.9810339098137663,0.2842847375,0.7363891506838661
0.065,1.694375,1.0,2645.844573001506,0.5187624915094453,1.286810044875315,0.9811919364033446,0.28421675,0.7376913206588641
0.0655,1.69274375,1.0,2643.684807671835,0.5214618439107208,1.2860932947835688,0.9813463082528996,0.2841482375,0.7390007228312564
0.066,1.6911,1.0,2641.5358455397486,0.5241460555717044,1.2853708078599317,0.9814971245458712,0.2840792,0.7403172896089603
0.0665,1.6894437500000001,1.0,2639.398328145665,0.5268152138915356,1.28464257806246,0.9816444809384297,0.2840096375,0.7416409526592997
0.067,1.687775,1.0,2637.271152035043,0.5294694052029231,1.2839086154762867,0.9817884704180475,0.28393955,0.742971613706435
0.0675,1.68609375,1.0,2635.1557109709593,0.5321087099033333,1.2831689071018015,0.9819291812121118,0.2838689375,0.7443092157231228
0.068,1.6844000000000001,1.0,2633.0530169027547,0.5347332102826122,1.2824234434526238,0.982066698770969,0.2837978,0.7456536944781971
0.0685,1.68269375,1.0,2630.961250317455,0.5373429890657759,1.2816722412423767,0.9822011068626032,0.2837261375,0.7470049378619144
0.069,1.680975,1.0,2628.8789430292713,0.5399381289423901,1.280915313957903,0.9823324862329514,0.28365395,0.7483628392344795
0.0695,1.67924375,1.0,2626.811364244569,0.5425187121492485,1.280152612681921,0.9824609119318475,0.28358123749999997,0.7497274030851199
0.07,1.6775,1.0,2624.754311150989,0.5450848206686362,1.2793841762190623,0.982586460514816,0.283508,0.7510984760152932
0.07050000000000001,1.67574375,1.0,2622.7087683931713,0.5476365352001596,1.27860999533303,0.9827092036783559,0.2834342375,0.7524759901164826
0.07100000000000001,1.673975,1.0,2620.675719124124,0.5501739364434253,1.2778300607875275,0.9828292107213283,0.28335995,0.753859876667088
0.07150000000000001,1.67219375,1.0,2618.650334712796,0.5526971047771828,1.2770444172660167,0.9829465510802018,0.2832851375,0.7552499708601187
0.07200000000000001,1.6704,1.0,2616.640708788577,0.5552061205029031,1.276252989556561,0.9830612864779664,0.2832098,0.7566463193911434
0.0725,1.66859375,1.0,2614.645285078321,0.5577010626317656,1.2754557919522584,0.9831734805438345,0.2831339375,0.7580488095661801
0.073,1.6667750000000001,1.0,2612.657575917857,0.5601820098875571,1.2746528845848764,0.9832831968782867,0.28305755,0.759457248052317
0.0735,1.6649494137356584,1.0,2610.9474853391107,0.562649040713079,1.273844316726813,0.9833904965487024,0.28298087537689764,0.7608714610855387
0.074,1.6631238130378,1.0,2609.8097626905314,0.5651022335882969,1.27303042669235,0.9834954514851102,0.2829042001475876,0.7622907720031674
0.0745,1.6612982123399418,1.0,2609.191170886844,0.5675416666307282,1.2722117124569636,0.983598138475151,0.28282752491827756,0.7637142334223449
0.075,1.6594726116420835,1.0,2609.053303087725,0.5699674162994017,1.2713885293747331,0.9836986257454376,0.2827508496889675,0.7651411547315676
