Time [s],Phi [rad],STIM [ ],Fsee [N],Gamma [ ],Lcerel [ ],q [ ],Lmtc [m],fisomrel [ ]
0.0,1.8,1.0,17.966842122007954,1.0047339903104012e-05,1.3793397816275503,0.005000026903708108,0.288653,0.541139445391462
0.0005,1.79999375,1.0,18.276219209722782,0.005619200291066596,1.3793024461001326,0.012940646579358037,0.2886527375,0.5412297652501785
0.001,1.799975,1.0,21.617890886797767,0.011196890329095904,1.3789383522288037,0.03560882707674262,0.28865195,0.5421100931445125
0.0015,1.79994375,1.0,31.06873062549207,0.016743293936918306,1.378046246785687,0.07060204931831643,0.2886506375,0.5442635053930338
0.002,1.7999,1.0,53.58175833303426,0.02225858660580952,1.3763681725262153,0.11471824458953643,0.2886488,0.5483003785372353
0.0025,1.79984375,1.0,97.11813151830017,0.027742942842958144,1.3739352061050352,0.16457511718722861,0.28864643749999996,0.5541213700101559
0.003,1.7997750000000001,1.0,160.9573946607513,0.033196536179182196,1.3712143726589945,0.2172806837236559,0.28864354999999997,0.5605863824342767
0.0035,1.79969375,1.0,237.68261273363976,0.03861953916852074,1.3685847563743998,0.27061311540145283,0.2886401375,0.5667897875268634
0.004,1.7996,1.0,321.46612624235325,0.04401212339901615,1.3661561094823178,0.3229160202746717,0.2886362,0.5724799218391994
0.0045000000000000005,1.7994937500000001,1.0,409.2671906146065,0.04937445949789847,1.3639228273160175,0.37303471456785553,0.2886317375,0.5776791318823855
0.005,1.799375,1.0,499.4130100458157,0.05470671712267753,1.3618583528468664,0.42024765436943856,0.28862675,0.5824570550859463
0.0055,1.79924375,1.0,590.7899831477962,0.06000906500859606,1.3599388435171125,0.464173877803105,0.2886212375,0.5868750922435064
0.006,1.7991000000000001,1.0,682.517728745051,0.06528167091181268,1.3581464216472077,0.5046801276165915,0.2886152,0.590979402618943
0.006500000000000001,1.79894375,1.0,773.8811455804575,0.07052470166478295,1.3564672555339794,0.5418009100533496,0.2886086375,0.5948057899619663
0.007,1.798775,1.0,864.2852170647519,0.07573832316074057,1.3548904045936176,0.5756769237331311,0.28860155,0.5983826553806708
0.0075,1.79859375,1.0,953.242280032229,0.0809227003622526,1.353406793578235,0.6065100504840927,0.2885939375,0.6017335403467818
0.008,1.7984,1.0,1040.3532229869397,0.08607799724045034,1.3520087233695324,0.6345322202733994,0.2885858,0.6048783758665562
0.0085,1.79819375,1.0,1125.318872802228,0.09120437715140638,1.350689175738359,0.6599845059204158,0.2885771375,0.6078351467472907
0.009000000000000001,1.797975,1.0,1207.8846523369364,0.09630200199218561,1.3494422472262602,0.6831044111481764,0.28856795,0.6106189918796596
0.0095,1.79774375,1.0,1287.8704411050453,0.1013710330871153,1.3482624118087034,0.7041177237570844,0.2885582375,0.6132439174782687
0.01,1.7975,1.0,1365.162509590171,0.10641163122841056,1.3471444436264077,0.7232343421922013,0.288548,0.6157230078421934
0.0105,1.79724375,1.0,1439.6602029853773,0.11142395542065969,1.3460839375789408,0.7406467332734775,0.2885372375,0.6180673091513258
0.011,1.796975,1.0,1511.311252905774,0.11640816414645402,1.3450766875400595,0.756529261946255,0.28852595000000003,0.6202872439935592
0.0115,1.79669375,1.0,1580.1134919677131,0.12136441582487051,1.3441185729026983,0.7710387153924898,0.2885141375,0.6223928819624054
0.012,1.7964,1.0,1646.0650023181304,0.1262928670241769,1.3432060714180307,0.7843156094901178,0.28850180000000003,0.6243928333603368
0.0125,1.79609375,1.0,1709.1767536932598,0.13119367314210012,1.3423360028721922,0.7964853688601359,0.2884889375,0.626294837810875
0.013000000000000001,1.7957750000000001,1.0,1769.4921234963447,0.13606698928054115,1.3415052356656445,0.8076596088784743,0.28847555,0.6281064222351805
0.0135,1.79544375,1.0,1827.0765039720836,0.14091297028164582,1.340710761997112,0.8179375775055002,0.2884616375,0.6298347470004699
0.014,1.7951000000000001,1.0,1881.992154215016,0.14573176976942598,1.3399499310710887,0.8274075770586298,0.2884472,0.6314861108570218
0.0145,1.79474375,1.0,1934.292986574738,0.15052353926178322,1.3392204519479394,0.8361481846266857,0.2884322375,0.6330659597584049
0.015,1.794375,1.0,1984.0539575553685,0.15528843027661918,1.3385200336880283,0.8442292439355695,0.28841675,0.6345796772699497
0.0155,1.79399375,1.0,2031.3577276588508,0.16002659344924602,1.3378465067222527,0.85171292677342,0.2884007375,0.6360323274731214
0.016,1.7936,1.0,2076.30114692499,0.16473818023000195,1.3371977308894252,0.8586546097695877,0.2883842,0.6374288593208636
0.0165,1.7931937500000001,1.0,2118.961621141889,0.16942333942893206,1.3365719253161246,0.865103774978907,0.2883671375,0.6387734027072611
0.017,1.792775,1.0,2159.4097227707884,0.1740822181855177,1.3359675083944775,0.8711046560325263,0.28834955,0.6400696215025723
0.0175,1.7923437500000001,1.0,2197.726905803016,0.17871496363924017,1.33538289851661,0.8766968006902186,0.2883314375,0.6413211459904249
0.018000000000000002,1.7919,1.0,2234.0045855059075,0.18332172292958082,1.3348165140746484,0.8819156219195231,0.2883128,0.6425315749454744
0.0185,1.79144375,1.0,2268.321707728831,0.18790264117141345,1.3342669884920009,0.8867929351968504,0.2882936375,0.6437040191469661
0.019,1.790975,1.0,2300.781427962752,0.1924578659307574,1.3337327914619517,0.8913572804977362,0.28827395,0.6448419129560379
0.0195,1.79049375,1.0,2331.4485923192474,0.1969875397524468,1.3332128427229424,0.8956344434287278,0.2882537375,0.6459477086878052
0.02,1.79,1.0,2360.3924976623807,0.20149180505416758,1.3327060735333227,0.8996476630903014,0.288233,0.6470238157973192
0.0205,1.78949375,1.0,2387.6875794618513,0.20597080425360573,1.3322114151514435,0.9034179154093498,0.2882117375,0.6480726264128676
0.021,1.788975,1.0,2413.4129783921157,0.21042467976844711,1.3317277988356546,0.9069641643508323,0.28818995000000003,0.6490965161978682
0.021500000000000002,1.78844375,1.0,2437.634990616086,0.21485357144765418,1.3312543207192442,0.9103036159383384,0.2881676375,0.650097496826633
0.022,1.7879,1.0,2460.442728948157,0.21925762285008746,1.3307898929053341,0.9134518392110517,0.2881448,0.6510779552030536
0.0225,1.78734375,1.0,2481.891423688361,0.22363697151960774,1.3303337849943935,0.9164230450150637,0.28812143749999997,0.6520395104951462
0.023,1.786775,1.0,2502.0384840917995,0.22799175492077672,1.3298852712568758,0.9192301615355526,0.28809755,0.6529837621421475
0.0235,1.78619375,1.0,2520.9437626097742,0.23232211051815624,1.3294436259632345,0.9218849670193963,0.28807313749999996,0.6539123001026672
0.024,1.7856,1.0,2538.6693477009526,0.23662817577630801,1.3290081233839228,0.9243982079489721,0.2880482,0.6548267051893796
0.0245,1.78499375,1.0,2555.2712362717275,0.2409100862544104,1.3285781141850102,0.9267797162172711,0.2880227375,0.6557283892813215
0.025,1.784375,1.0,2570.8124408376852,0.24516797988597683,1.3281528997885765,0.9290384806731229,0.28799675,0.6566188595674377
0.025500000000000002,1.78374375,1.0,2585.347477856116,0.2494019921275695,1.3277318764844628,0.9311827523177421,0.2879702375,0.6574994168876684
0.026000000000000002,1.7831000000000001,1.0,2598.9192757432716,0.2536122551422044,1.3273145615345,0.9332201195424181,0.2879432,0.6583711027024174
0.0265,1.78244375,1.0,2611.571907333188,0.2577989010928977,1.3269004722005189,0.9351575534295365,0.2879156375,0.6592349530455286
0.027,1.781775,1.0,2623.350492350392,0.2619620621426654,1.3264891257443512,0.9370014662506739,0.28788755,0.6600919986310243
0.0275,1.7810937500000001,1.0,2634.301105048834,0.2661018704545235,1.3260800394278278,0.9387577637090265,0.2878589375,0.6609432649449818
0.028,1.7804,1.0,2644.468008327488,0.2702184572191626,1.325672755249416,0.9404318949140832,0.2878298,0.6617897209446874
0.0285,1.77969375,1.0,2653.889717554437,0.27431195184950036,1.325266875252547,0.9420288986187093,0.2878001375,0.6626322061972069
0.029,1.778975,1.0,2662.6180855065727,0.27838248897414297,1.3248618847184577,0.9435534176889891,0.28776995,0.6634717980139397
0.029500000000000002,1.7782437500000001,1.0,2670.683244978592,0.28243019501515093,1.324457474641211,0.9450097737957773,0.2877392375,0.6643091426959437
0.03,1.7775,1.0,2678.11579856054,0.2864551963945845,1.3240533360148699,0.9464019702961282,0.287708,0.6651448833470468
0.0305,1.77674375,1.0,2684.946777044083,0.2904576195345042,1.3236491598334974,0.9477337197188043,0.2876762375,0.6659796598822425
0.031,1.775975,1.0,2691.2075999455324,0.2944375908569704,1.3232446370911566,0.9490084685519092,0.28764395,0.6668141090299952
0.0315,1.7751937500000001,1.0,2696.9300381457692,0.2983952367840435,1.3228394587819103,0.9502294196266949,0.2876111375,0.6676488643284542
0.032,1.7744,1.0,2702.1461786475115,0.30233068373778393,1.3224333158998218,0.9513995523566646,0.2875778,0.6684845561155794
0.0325,1.77359375,1.0,2706.8771204586133,0.3062440506696605,1.3220260023151151,0.9525216511580837,0.2875439375,0.6693216002326068
0.033,1.772775,1.0,2711.1651050672695,0.3101354720296065,1.3216171210447203,0.9535982932923486,0.28750955,0.6701608018204903
0.0335,1.7719437500000002,1.0,2715.031605414733,0.3140050693119598,1.3212064667175702,0.9546319015872698,0.2874746375,0.6710025693201991
0.034,1.7711000000000001,1.0,2718.4959910027796,0.3178529625076325,1.3207938546467748,0.9556247402834742,0.2874392,0.6718472666481631
0.0345,1.7702437500000001,1.0,2721.577776567435,0.3216792716075366,1.3203791001454441,0.9565789255050796,0.2874032375,0.6726952557078938
0.035,1.7693750000000001,1.0,2724.296607357941,0.3254841166025842,1.3199620185266876,0.9574964366804384,0.28736675,0.6735468963658406
0.035500000000000004,1.76849375,1.0,2726.6722451717496,0.32926761748368727,1.3195424251036159,0.9583791269556884,0.2873297375,0.6744025464250639
0.036000000000000004,1.7676,1.0,2728.7245551461974,0.33302989424175794,1.3191201351893382,0.959228732700408,0.2872922,0.6752625615967427
0.0365,1.76669375,1.0,2730.4734933060727,0.3367710668677082,1.318694964096965,0.9600468821939091,0.2872541375,0.6761272954694969
0.037,1.765775,1.0,2731.9390948675955,0.3404912553524501,1.3182667271396058,0.9608351035712158,0.28721555,0.6769970994765424
0.0375,1.76484375,1.0,2733.1359487356044,0.3441905718502249,1.3178352897222876,0.9615948353270464,0.2871764375,0.6778722213238186
0.038,1.7639,1.0,2734.088452248185,0.3478691434925125,1.317400428662371,0.9623274241918921,0.28713679999999997,0.6787530863678033
0.0385,1.76294375,1.0,2734.8088397674546,0.3515270846602225,1.3169620317011421,0.9630341448177014,0.28709663750000003,0.6796398930481
0.039,1.761975,1.0,2735.308649032974,0.35516450880886735,1.3165199932428147,0.9637161974872605,0.28705595,0.6805328248646958
0.0395,1.7609937500000001,1.0,2735.599449701185,0.3587815293939599,1.3160742076916023,0.9643747128489196,0.2870147375,0.6814320638779523
0.04,1.76,1.0,2735.69283877752,0.3623782598710128,1.3156245694517186,0.9650107566976541,0.286973,0.6823377906837287
0.0405,1.7589937500000001,1.0,2735.600436296348,0.3659548136955387,1.315170972927377,0.9656253343789608,0.2869307375,0.6832501843877887
0.041,1.757975,1.0,2735.333881248084,0.36951130432305035,1.3147133125227917,0.9662193948490215,0.28688795,0.6841694225795015
0.0415,1.75694375,1.0,2734.9048277532243,0.3730478452090603,1.3142514826421756,0.9667938344212681,0.2868446375,0.6850956813048291
0.042,1.7559,1.0,2734.324941484165,0.37656454980908144,1.3137853776897428,0.9673495002265772,0.28680079999999997,0.6860291350386016
0.0425,1.75484375,1.0,2733.598504650965,0.3800615105587351,1.3133149592068787,0.9678871955344945,0.2867564375,0.6869698225038009
0.043000000000000003,1.753775,1.0,2732.747933259465,0.3835388681609669,1.312840024092118,0.9684076748608452,0.28671155,0.6879181100958003
0.043500000000000004,1.75269375,1.0,2731.7798245604968,0.38699672960313425,1.3123605129308753,0.9689116587770196,0.28666613750000003,0.6888740751325271
0.044,1.7516,1.0,2730.7002940101943,0.3904352006790589,1.3118763707165344,0.9693998301491631,0.2866202,0.6898377850404427
0.0445,1.75049375,1.0,2729.515459374206,0.39385438718256266,1.311387542442479,0.9698728363292226,0.2865737375,0.6908093061595451
0.045,1.7493750000000001,1.0,2728.231439523989,0.3972543949074672,1.310893973102093,0.970331291346893,0.28652675,0.6917887037270252
0.0455,1.74824375,1.0,2726.8543533007532,0.4006353296475943,1.3103956076887602,0.9707757779456335,0.2864792375,0.6927760418607312
0.046,1.7471,1.0,2725.3903184465153,0.4039972971967658,1.3098923911958646,0.9712068494752567,0.2864312,0.6937713835424401
0.0465,1.7459437500000001,1.0,2723.845450601948,0.4073404033488033,1.30938426861679,0.9716250316524698,0.28638263750000004,0.6947747906009372
0.047,1.744775,1.0,2722.2258623714774,0.41066475389752866,1.3088711849449202,0.9720308241997638,0.28633355,0.6957863236949009
0.0475,1.74359375,1.0,2720.5376624557575,0.4139704546367636,1.308353085173639,0.9724247023721211,0.28628393750000003,0.6968060422955951
0.048,1.7424,1.0,2718.786954850349,0.41725761136032985,1.3078299142963303,0.9728071183802077,0.2862338,0.6978340046693684
0.0485,1.74119375,1.0,2716.979838112855,0.42052632986204924,1.307301617306378,0.973178502717969,0.2861831375,0.698870267859963
0.049,1.739975,1.0,2715.122404695572,0.4237767159357434,1.306768139197166,0.9735392654018722,0.28613195,0.6999148876706258
0.0495,1.73874375,1.0,2713.214448266807,0.4270088487566601,1.3062294823260587,0.9738897978665821,0.2860802375,0.700967806614522
0.05,1.7375,1.0,2711.266899519896,0.43022286273989374,1.3056855474956188,0.9742304729792912,0.286028,0.7020291647076013
0.0505,1.73624375,1.0,2709.2833920921594,0.4334188606767985,1.30513630195017,0.9745616470559099,0.2859752375,0.703098970765863
0.051000000000000004,1.734975,1.0,2707.266292331201,0.4365969397042716,1.3045817244597093,0.9748836602148903,0.28592195,0.7041772102205028
0.051500000000000004,1.73369375,1.0,2705.217963802085,0.4397571969592102,1.3040217937942336,0.9751968371565529,0.2858681375,0.7052638676598741
0.052000000000000005,1.7324,1.0,2703.14076714477,0.4428997295785114,1.3034564887237392,0.9755014879945819,0.2858138,0.706358926822255
0.0525,1.73109375,1.0,2701.037059942028,0.44602463469907244,1.3028857880182234,0.9757979090356647,0.28575893750000003,0.7074623705885836
0.053,1.729775,1.0,2698.9091965965044,0.4491320094577905,1.302309670447683,0.9760863835109317,0.28570355000000003,0.7085741809751698
0.0535,1.72844375,1.0,2696.7595282187194,0.4522219509915628,1.301728114782115,0.9763671822625685,0.2856476375,0.709694339126374
0.054,1.7271,1.0,2694.5904025243776,0.4552945564372865,1.3011410997915156,0.9766405643887011,0.2855912,0.710822825307259
0.0545,1.7257437500000001,1.0,2692.4041637419296,0.45834992293185867,1.300548604245882,0.9769067778494263,0.2855342375,0.7119596188962123
0.055,1.724375,1.0,2690.2031525299976,0.46138814761217656,1.2999506069152114,0.9771660600366346,0.28547675,0.7131046983775394
0.0555,1.72299375,1.0,2687.9897059050877,0.46440932761513737,1.2993470865695,0.9774186383100698,0.2854187375,0.7142580413340314
0.056,1.7216,1.0,2685.7661571789686,0.46741356007763823,1.298738021978745,0.977664730501894,0.2853602,0.715419624439499
0.0565,1.72019375,1.0,2683.534835906173,0.47040094213657635,1.2981233919129431,0.9779045453918475,0.28530113749999997,0.7165894234512811
0.057,1.718775,1.0,2681.298067841721,0.47337157092884885,1.2975031751420911,0.9781382831549466,0.28524155,0.7177674132027241
0.0575,1.71734375,1.0,2679.045470543284,0.47632553927491694,1.29687746699625,0.9783661420305492,0.2851814375,0.7189533469065387
0.058,1.7159014234065284,1.0,2676.873626884975,0.4792629393732213,1.2962460240007356,0.9785882931052203,0.2851208597830742,0.7201476188257512
0.0585,1.7144573887366292,1.0,2675.203274064228,0.4821838631563609,1.2956092130980081,0.9788049345998966,0.2850602103269384,0.7213494678940575
0.059000000000000004,1.71301335406673,1.0,2674.0760858243857,0.48508840246296636,1.2949674186666698,0.9790162578448236,0.2849995608708027,0.7225581056285764
0.059500000000000004,1.7115693193968307,1.0,2673.4498677207202,0.48797664913166844,1.2943210250853228,0.9792224466719934,0.2849389114146669,0.723772749339046
0.06,1.7101252847269315,1.0,2673.2825937730886,0.4908486950010977,1.293670416732569,0.9794236777789261,0.2848782619585311,0.7249926222452783
0.0605,1.7086812500570323,1.0,2673.538575893483,0.4937046305371485,1.2930159209804137,0.9796201178957613,0.28481761250239535,0.7262170601147957
0.061,1.707237215387133,1.0,2674.1770900223783,0.49654454768804285,1.292357912361363,0.979811930032167,0.2847569630462596,0.7274453159429386
0.0615,1.7057931807172337,1.0,2675.171122766541,0.4993685352831567,1.29169664015508,0.9799992641886613,0.2846963135901238,0.7286768817673398
0.062,1.7043491460473343,1.0,2676.4937811962536,0.5021766821364535,1.291032353034922,0.980182264715808,0.28463566413398805,0.7299112547415707
0.0625,1.7029051113774352,1.0,2678.1182095242393,0.5049690770618964,1.2903652996742465,0.9803610706078145,0.2845750146778523,0.7311479360493782
0.063,1.701461076707536,1.0,2680.017750864978,0.5077458088106604,1.289695727116379,0.9805358156594866,0.2845143652217165,0.7323864339620936
0.0635,1.7000170420376366,1.0,2682.169892093164,0.5105069649885765,1.2890238444720348,0.9807066267676005,0.28445371576558076,0.7336263307608579
0.064,1.6985730073677374,1.0,2684.5502125895564,0.5132526343382404,1.2883498783452367,0.9808736272108112,0.28439306630944494,0.7348671800328035
0.0645,1.697128972697838,1.0,2687.142185995509,0.5159829027485643,1.2876739829037591,0.9810369320049085,0.2843324168533092,0.7361086720672441
0.065,1.6956849380279388,1.0,2689.9292796088266,0.5186978561084605,1.286996312315376,0.9811966520718368,0.2842717673971734,0.7373504997365279
0.0655,1.6942409033580397,1.0,2692.894948053089,0.5213975803068411,1.2863170207478618,0.9813528944190406,0.28421111794103765,0.738592358514249
0.066,1.6927968686881403,1.0,2696.0238026482552,0.5240821604468014,1.2856362516209794,0.9815057617274561,0.2841504684849019,0.7398339660711625
0.0665,1.691352834018241,1.0,2699.3068838390004,0.5267516776806263,1.2849540893991709,0.9816553499702229,0.2840898190287661,0.7410751496641879
0.067,1.6899087993483417,1.0,2702.7173269882196,0.5294062261405145,1.2842707820188668,0.9818017605934594,0.28402916957263036,0.7423154416147383
0.0675,1.6884647646784425,1.0,2706.2470666148142,0.5320458875452967,1.2835864052732808,0.981945082500138,0.2839685201164946,0.7435546898730183
0.068,1.6870207300085434,1.0,2709.888023550267,0.5346707436138038,1.2829010349556271,0.982085401572619,0.28390787066035883,0.744792743689525
0.0685,1.685576695338644,1.0,2713.6321032052447,0.5372808760648666,1.2822147468591198,0.9822228007982237,0.283847221204223,0.7460294536200348
0.069,1.6841326606687448,1.0,2717.4711939639938,0.5398763666173161,1.2815276167769731,0.982357360388771,0.2837865717480873,0.7472646715302225
0.0695,1.6826886259988456,1.0,2721.3971657051525,0.5424572969899827,1.2808397205024007,0.982489157894409,0.2837259222919515,0.7484982505999154
0.07,1.6812445913289462,1.0,2725.401868451108,0.5450237489016975,1.280151133828617,0.9826182683120508,0.2836652728358157,0.7497300453269783
0.07050000000000001,1.679800556659047,1.0,2729.477131143741,0.5475758040712911,1.2794619325488357,0.9827447641887025,0.28360462337967995,0.7509599115308355
0.07100000000000001,1.6783565219891476,1.0,2733.614760548058,0.5501135442175945,1.2787721924562712,0.9828687157199612,0.2835439739235442,0.7521877063556242
0.07150000000000001,1.6769124873192485,1.0,2737.8091872208106,0.552637046818196,1.2780819653210058,0.9829901894957652,0.2834833244674084,0.7534133308775731
0.07200000000000001,1.6754684526493493,1.0,2742.055782831472,0.5551463907287317,1.2773912942351817,0.9831092496678823,0.28342267501127266,0.7546367024315397
0.0725,1.67402441797945,1.0,2746.343392961676,0.5576416662940461,1.276700281307658,0.9832259616763075,0.2833620255551369,0.7558576349625732
0.073,1.6725803833095507,1.0,2750.6690539394813,0.5601229498250939,1.276008954173437,0.9833403847649398,0.28330137609900113,0.7570760753063954
0.0735,1.6711363486396515,1.0,2755.029793186796,0.5625903176328296,1.2753173404675207,0.9834525763208515,0.28324072664286537,0.7582919707840923
