Time [s],Phi [rad],STIM [ ],Fsee [N],Gamma [ ],Lcerel [ ],q [ ],Lmtc [m],fisomrel [ ]
0.0,1.8,1.0,17.967798951573553,1.0148942027307162e-05,1.3793396744311242,0.005000027448391263,0.288653,0.5411397047273239
0.0005,1.79999375,1.0,18.27712177949619,0.005619301323282921,1.3793023458419975,0.01294092671977341,0.2886527375,0.5412300077766509
0.001,1.799975,1.0,21.618817028333375,0.011196990794601657,1.3789382576370168,0.035609350225793944,0.28865195,0.5421103217443299
0.0015,1.79994375,1.0,31.069811399586065,0.016743393838891712,1.3780461547074971,0.07060276331292574,0.2886506375,0.5442637273943722
0.002,1.7999,1.0,53.58317566686611,0.022258685947412087,1.3763680805769676,0.11471908964707872,0.2886488,0.5483005992436519
0.0025,1.79984375,1.0,97.11994322088508,0.02774304162733275,1.3739351188034563,0.16457603771519047,0.28864643749999996,0.5541215782061385
0.003,1.7997750000000001,1.0,160.95945028221848,0.03319663440945463,1.3712142957151876,0.21728163523913513,0.28864354999999997,0.5605865645939965
0.0035,1.79969375,1.0,237.6847614086283,0.03861963684779923,1.3685846901895757,0.2706140634427915,0.2886401375,0.5667899431054033
0.004,1.7996,1.0,321.468295666271,0.04401222053039122,1.3661560520226037,0.3229169394905207,0.2886362,0.572480056017922
0.0045000000000000005,1.7994937500000001,1.0,409.2693513848957,0.049374556084442967,1.363922776594535,0.37303558806448267,0.2886317375,0.5776792496037124
0.005,1.799375,1.0,499.4151440997433,0.05470681316744174,1.3618583074984236,0.4202484723316545,0.28862675,0.5824571597397203
0.0055,1.79924375,1.0,590.7920862345645,0.06000916051463468,1.3599388024279184,0.46417463560094435,0.2886212375,0.5868751865649104
0.006,1.7991000000000001,1.0,682.5197859530915,0.06528176588214177,1.3581463842526589,0.50468082450011,0.2886152,0.5909794880317182
0.006500000000000001,1.79894375,1.0,773.8830131134837,0.07052479610259695,1.3564672236539823,0.5418015491175254,0.2886086375,0.5948058624375694
0.007,1.798775,1.0,864.2874960730982,0.07573841706873631,1.3548903677803419,0.5756775016905129,0.28860155,0.5983827387013191
0.0075,1.79859375,1.0,953.2449602880655,0.08092279374313448,1.3534067523531392,0.606510571933633,0.2885939375,0.6017336332627772
0.008,1.7984,1.0,1040.3462839700744,0.08607808974983053,1.3520088255330025,0.634532776526726,0.2885858,0.6048781465142736
0.0085,1.79819375,1.0,1125.3162836408749,0.09120446920805637,1.3506892123913097,0.6599849772413906,0.2885771375,0.6078350647715653
0.009000000000000001,1.797975,1.0,1207.9021304103323,0.09630209405743531,1.3494420084084926,0.6831046885970166,0.28856795,0.610619524105354
0.0095,1.79774375,1.0,1287.8942336578777,0.10137112481085273,1.3482620969683965,0.7041179284896848,0.2885582375,0.613244616757574
0.01,1.7975,1.0,1365.1689029145598,0.10641172198119407,1.3471443614548664,0.7232346389427883,0.288548,0.6157231897643275
0.0105,1.79724375,1.0,1439.6609214720888,0.11142404553136215,1.3460839285865316,0.740647037710078,0.2885372375,0.6180673289990832
0.011,1.796975,1.0,1511.3236920295315,0.11640825423341761,1.3450765355905456,0.7565294727194412,0.28852595000000003,0.620287578395494
0.0115,1.79669375,1.0,1580.1224879922697,0.12136450526477077,1.3441184654312128,0.7710389248372084,0.2885141375,0.6223931178229183
0.012,1.7964,1.0,1646.0587096528207,0.1262929552735706,1.3432061450724715,0.784315877072588,0.28850180000000003,0.6243926721444313
0.0125,1.79609375,1.0,1709.1755084016181,0.13119376107731903,1.3423360171764405,0.7964855910601354,0.2884889375,0.6262948065809052
0.013000000000000001,1.7957750000000001,1.0,1769.5081274490008,0.13606707755652814,1.3415050549942749,0.8076597362674797,0.28847555,0.628106815731369
0.0135,1.79544375,1.0,1827.092935098714,0.14091305817760796,1.3407105794498269,0.8179376914550384,0.2884616375,0.6298351436574083
0.014,1.7951000000000001,1.0,1881.993945107187,0.1457318564069687,1.339949911466948,0.827407738701188,0.2884472,0.6314861533597393
0.0145,1.79474375,1.0,1934.280732504811,0.1505236246448945,1.339220584262394,0.8361483866134469,0.2884322375,0.6330656735098215
0.015,1.794375,1.0,1984.0534141894098,0.15528851592217033,1.3385200394810224,0.8442293902771001,0.28841675,0.6345796647632878
0.0155,1.79399375,1.0,2031.3735051126353,0.16002667991860442,1.3378463404842753,0.8517130077376655,0.2884007375,0.6360326856549208
0.016,1.7936,1.0,2076.313122292461,0.16473826601725183,1.3371976060848723,0.8586546959674247,0.2883842,0.6374291277124724
0.0165,1.7931937500000001,1.0,2118.9587345188374,0.16942342360116774,1.3365719550955322,0.8651038994772091,0.2883671375,0.638773338785622
0.017,1.792775,1.0,2159.3921079391157,0.17408230070571032,1.3359676884055567,0.8711048148754412,0.28834955,0.6400692358017435
0.0175,1.7923437500000001,1.0,2197.7203687101637,0.17871504649792552,1.3353829647360485,0.87669691920226,0.2883314375,0.6413210043522273
0.018000000000000002,1.7919,1.0,2234.013373814269,0.18332180634842857,1.3348164257767825,0.8819156921747172,0.2883128,0.6425317634887127
0.0185,1.79144375,1.0,2268.3455083392773,0.18790272533464544,1.3342667511787376,0.8867929622940457,0.2882936375,0.6437045250523339
0.019,1.790975,1.0,2300.7986869198035,0.19245794853400214,1.3337326205928919,0.8913573198744816,0.28827395,0.6448422766332936
0.0195,1.79049375,1.0,2331.4531676351153,0.19698761990830516,1.333212797724723,0.8956345081253235,0.2882537375,0.6459478043127004
0.02,1.79,1.0,2360.3983602554463,0.2014918845302353,1.3327060162293485,0.899647720420098,0.288233,0.647023937387744
0.0205,1.78949375,1.0,2387.70674681252,0.2059708846439124,1.332211228874182,0.9034179405653119,0.2882117375,0.6480730210775059
0.021,1.788975,1.0,2413.4428518765576,0.21042476076215613,1.3317275100629813,0.9069641650575122,0.28818995000000003,0.6490971271282355
0.021500000000000002,1.78844375,1.0,2437.675176213389,0.21485365339778623,1.3312539341995047,0.910303595079545,0.2881676375,0.6500983133844076
0.022,1.7879,1.0,2460.475863286027,0.21925770306362238,1.3307895756875099,0.9134518309277956,0.2881448,0.6510786244147869
0.0225,1.78734375,1.0,2481.9106461901724,0.22363704826227562,1.330333601760817,0.9164230604748107,0.28812143749999997,0.6520398965169834
0.023,1.786775,1.0,2502.0550938135793,0.22799183055619737,1.3298851135676495,0.9192301798091822,0.28809755,0.6529840938981473
0.0235,1.78619375,1.0,2520.9676513228023,0.23232218739642824,1.329443400020946,0.9218849716927888,0.28807313749999996,0.6539127748170883
0.024,1.7856,1.0,2538.700218231428,0.23662825423532585,1.3290078324280812,0.9243982006146884,0.2880482,0.6548273156918867
0.0245,1.78499375,1.0,2555.306586039827,0.2409101665252478,1.328577782096429,0.9267797019576663,0.2880227375,0.6557290851804578
0.025,1.784375,1.0,2570.8422782594484,0.24516805971855174,1.3281526203333638,0.9290384749400131,0.28799675,0.6566194444143725
0.025500000000000002,1.78374375,1.0,2585.3643992009524,0.24940206926759528,1.3277317184462598,0.9311827651294017,0.2879702375,0.6574997472074665
0.026000000000000002,1.7831000000000001,1.0,2598.9196389480235,0.2536123272831275,1.3273145581511845,0.9332201542891245,0.2879432,0.6583711097649709
0.0265,1.78244375,1.0,2611.56914511516,0.2577989716477095,1.326900497868662,0.9351575905774197,0.2879156375,0.6592348995319544
0.027,1.781775,1.0,2623.3567841785884,0.2619621344683854,1.326489067408463,0.9370014896341728,0.28788755,0.6600921200980614
0.0275,1.7810937500000001,1.0,2634.3200476679704,0.266101945544422,1.3260798641633442,0.9387577694630445,0.2878589375,0.6609436294235171
0.028,1.7804,1.0,2644.4972163081607,0.27021853467508633,1.3256724855260615,0.9404318870623375,0.2878298,0.6617902811584095
0.0285,1.77969375,1.0,2653.927291543742,0.2743120316596452,1.3252665288893717,0.9420288803863582,0.2878001375,0.6626329246947051
0.029,1.778975,1.0,2662.6499306581113,0.2783825662973655,1.324861591646031,0.9435534059813274,0.28776995,0.6634724052079319
0.029500000000000002,1.7782437500000001,1.0,2670.705385485657,0.2824302683875143,1.3244572711887956,0.9450097727888158,0.2877392375,0.6643095636885215
0.03,1.7775,1.0,2678.1258397947145,0.28645526338522576,1.3240532438724972,0.94640198158674,0.287708,0.6651450737745914
0.0305,1.77674375,1.0,2684.953405536471,0.2904576842152644,1.323649099085211,0.9477337337437445,0.2876762375,0.6659797852721023
0.031,1.775975,1.0,2691.2191982341146,0.2944376576602349,1.3232445309198357,0.9490084768519959,0.28764395,0.6668143279031102
0.0315,1.7751937500000001,1.0,2696.9492441366265,0.2983953074515603,1.322839283156043,0.9502294199958045,0.2876111375,0.6676492259288659
0.032,1.7744,1.0,2702.1698584104815,0.30233075732066383,1.3224330995735039,0.9513995483440841,0.2875778,0.6684850009547926
0.0325,1.77359375,1.0,2706.9076176591243,0.3062441309989688,1.3220257239518902,0.9525216415165867,0.2875439375,0.6693221719172864
0.033,1.772775,1.0,2711.189333897747,0.31013555221789835,1.3216169000708735,0.9535982902323166,0.28750955,0.6701612550663322
0.0335,1.7719437500000002,1.0,2715.04202998406,0.3140051447088757,1.3212063717101254,0.9546319114191413,0.2874746375,0.6710027639439309
0.034,1.7711000000000001,1.0,2718.4929165040726,0.3178530322033241,1.3207938826493173,0.955624761943203,0.2874392,0.6718472093583421
0.0345,1.7702437500000001,1.0,2721.561451001941,0.321679336726037,1.32037924875471,0.9565789585811179,0.2874032375,0.6726949520643104
0.035,1.7693750000000001,1.0,2724.274299228187,0.3254841797072332,1.3199622214931275,0.9574964742539215,0.28736675,0.6735464821976493
0.035500000000000004,1.76849375,1.0,2726.650525816677,0.32926768061048656,1.3195426226270826,0.9583791630425647,0.2873297375,0.6744021438922383
0.036000000000000004,1.7676,1.0,2728.707619812739,0.33302995860789864,1.3191202891472296,0.9592287636977196,0.2872922,0.6752622482608055
0.0365,1.76669375,1.0,2730.4631558112505,0.33677113287157107,1.3186950580442234,0.9600469067106686,0.2872541375,0.6761271045222867
0.037,1.765775,1.0,2731.9235940347335,0.340491321835597,1.318266867973608,0.9608351322461967,0.28721555,0.6769968136169322
0.0375,1.7648437726941892,1.0,2733.130885191841,0.3441906442972958,1.317835345966372,0.9615948563135978,0.28717643845315594,0.6778721073164431
0.038,1.7639070259237235,1.0,2734.4216849612026,0.34786921675989735,1.3174005753356781,0.9623274534954006,0.28713709508879637,0.6787527894661369
0.0385,1.7629702791532575,1.0,2736.0435838648195,0.35152715495241393,1.3169628014158457,0.9630342316537042,0.2870977517244368,0.6796383371129439
0.039,1.7620335323827918,1.0,2737.969843585207,0.35516457460385775,1.3165222695411944,0.9637164215089288,0.28705840836007723,0.680528229861261
0.0395,1.7610967856123259,1.0,2740.174846781566,0.35878159095248263,1.3160792150189342,0.9643751810207893,0.28701906499571767,0.6814219701307855
0.04,1.7601600388418601,1.0,2742.6306651932714,0.36237831926043973,1.3156338941415155,0.9650116033100734,0.2869797216313581,0.6823190206283882
0.0405,1.7592232920713942,1.0,2745.3140302737083,0.3659548732506982,1.315186520843946,0.965626715196201,0.2869403782669986,0.6832189320098496
0.041,1.7582865453009284,1.0,2748.2056366180313,0.36951136530865775,1.3147372730148363,0.9662214823337194,0.28690103490263896,0.6841213296402563
0.0415,1.7573497985304625,1.0,2751.2861624075126,0.3730479078197181,1.3142863285427988,0.9667968166605625,0.28686169153827945,0.6850258408516834
0.042,1.7564130517599967,1.0,2754.538925491847,0.3765646113490742,1.3138338412199086,0.9673535776202234,0.2868223481739198,0.6859321431924654
0.0425,1.7554763049895308,1.0,2757.9489366165376,0.38006158571790344,1.31337994932009,0.967892576521107,0.2867830048095603,0.6868399469519701
0.043000000000000003,1.754539558219065,1.0,2761.4887599150547,0.38353895034982516,1.312924903379887,0.9684145917059617,0.28674366144520075,0.6877487399384195
0.043500000000000004,1.753602811448599,1.0,2765.148896622276,0.38699681256466517,1.312468791399253,0.9689203450887669,0.2867043180808412,0.6886583367394457
0.044,1.7526660646781334,1.0,2768.9198301598503,0.3904352796822492,1.3120117013781407,0.9694105206468483,0.2866649747164816,0.689568552943616
0.0445,1.7517293179076674,1.0,2772.7920241424654,0.3938544590224031,1.3115537213165032,0.969885766792927,0.28662563135212205,0.6904792051461692
0.045,1.7507925711372017,1.0,2776.7559205552216,0.3972544579049526,1.3110949392142932,0.9703466985764521,0.2865862879877625,0.6913901109542577
0.0455,1.7498558243667357,1.0,2780.8019381028594,0.4006353836497235,1.3106354430714644,0.9707938997280543,0.2865469446234029,0.6923010889916932
0.046,1.74891907759627,1.0,2784.920470731151,0.4039973435765415,1.3101753208879692,0.9712279245597079,0.28650760125904334,0.6932119589032059
0.0465,1.747982330825804,1.0,2789.1018863191252,0.40734044500523237,1.3097146606637606,0.9716492997320807,0.2864682578946838,0.6941225413582003
0.047,1.7470455840553383,1.0,2793.3365255437207,0.41066479525562194,1.3092535503987919,0.9720585258995291,0.2864289145303242,0.6950326580540239
0.0475,1.7461088372848723,1.0,2797.624008945886,0.41397048825372246,1.3087919945229303,0.9724560715482984,0.28638957116596464,0.6959422962963986
0.048,1.7451720905144066,1.0,2801.9478499534785,0.4172576474595389,1.3083301419665925,0.9728423964908398,0.2863502278016051,0.6968511592948372
0.0485,1.7442353437439406,1.0,2806.304403315826,0.42052637402230447,1.3078680260936266,0.9732179276172281,0.2863108844372455,0.6977591789196876
0.049,1.743298596973475,1.0,2810.690327150741,0.4237767685688555,1.3074056774514493,0.9735830713493997,0.28627154107288594,0.6986662929547689
0.0495,1.742361850203009,1.0,2815.1022693227073,0.4270089317260282,1.3069431265874762,0.9739382150553001,0.28623219770852637,0.6995724395430629
0.05,1.7414251034325432,1.0,2819.5368672954155,0.43022296412065897,1.3064804040491242,0.9742837281158322,0.2861928543441668,0.7004775571871351
0.0505,1.7404883566620772,1.0,2823.9907480054417,0.43341896637958416,1.3060175403838095,0.9746199629228031,0.28615351097980724,0.7013815847495011
0.051000000000000004,1.7395516098916115,1.0,2828.4605277560545,0.43659703912964004,1.305554566138948,0.9749472558129004,0.28611416761544767,0.7022844614529312
0.051500000000000004,1.7386148631211455,1.0,2832.942812132045,0.4397572829976629,1.3050915118619562,0.9752659279423442,0.2860748242510881,0.7031861268806947
0.052000000000000005,1.7376781163506798,1.0,2837.4341959353414,0.44289979861048917,1.3046284081002504,0.9755762861064643,0.28603548088672853,0.7040865209767453
0.0525,1.7367413695802139,1.0,2841.931263140852,0.44602468659495503,1.3041652854012469,0.9758786235081288,0.28599613752236897,0.7049855840458483
0.053,1.7358046228097481,1.0,2846.4305868735937,0.44913204757789693,1.303702174312362,0.9761732204786303,0.2859567941580094,0.7058832567536469
0.0535,1.7348678760392822,1.0,2850.932292054305,0.45222196603206527,1.3032390736950414,0.9764603415700117,0.28591745079364983,0.7067795414048892
0.054,1.7339311292688164,1.0,2855.4317029612125,0.4552945570729534,1.3027760250772626,0.9767402456228551,0.2858781074292903,0.7076743579031022
0.0545,1.7329943824983505,1.0,2859.926240509981,0.45834992313025336,1.3023130512382712,0.9770131780075975,0.2858387640649307,0.7085676627901989
0.055,1.7320576357278847,1.0,2864.415103270951,0.4613881573787427,1.3018501591129263,0.977279371870253,0.2857994207005712,0.7094594433785111
0.0555,1.7311208889574188,1.0,2868.89748740552,0.4644093529931989,1.3013873556360869,0.9775390505933153,0.28576007733621156,0.7103496870621393
0.056,1.730184142186953,1.0,2873.372586680047,0.4674136031483995,1.3009246477426117,0.9777924282856849,0.28572073397185205,0.7112383813169166
0.0565,1.729247395416487,1.0,2877.839592479105,0.4704010010191221,1.3004620423673598,0.9780397102441287,0.2856813906074924,0.7121255137003664
0.057,1.7283106486460214,1.0,2882.2976938216566,0.4733716397801441,1.2999995464451901,0.9782810933881387,0.2856420472431329,0.7130110718516589
0.0575,1.7273739018755556,1.0,2886.7460773764064,0.47632561260624307,1.2995371669109614,0.9785167666699327,0.28560270387877335,0.7138950434915652
0.058,1.7264371551050897,1.0,2891.183927479969,0.4792630126721966,1.2990749106995327,0.9787469114612046,0.2855633605144138,0.7147774164224061
0.0585,1.7255004083346237,1.0,2895.6104261548967,0.48218393315278213,1.2986127847457631,0.9789717019181167,0.2855240171500542,0.7156581785279992
0.059000000000000004,1.724563661564158,1.0,2900.0247531291384,0.48508846722277726,1.2981507959845113,0.9791913053259266,0.28548467378569464,0.7165373177736043
0.059500000000000004,1.7236269147936922,1.0,2904.42608585677,0.4879767080569594,1.2976889513506364,0.9794058824245325,0.2854453304213351,0.7174148222058623
0.06,1.7226901680232263,1.0,2908.8135995396206,0.4908487488301062,1.2972272577789972,0.9796155877161349,0.2854059870569755,0.7182906799527347
0.0605,1.7217534212527603,1.0,2913.1866258618716,0.4937046787606867,1.2967657208080412,0.9798205693663317,0.28536664369261594,0.7191648818663385
0.061,1.7208166744822946,1.0,2917.546644252737,0.49654454412996046,1.2963043270784196,0.9800209655241775,0.2853273003282564,0.7200374545746331
0.0615,1.7198799277118288,1.0,2921.8909106811325,0.49936850364092916,1.2958431003762214,0.9802169198231785,0.2852879569638968,0.7209083544636001
0.062,1.718943180941363,1.0,2926.2194449171707,0.5021766414820321,1.2953820401555218,0.9804085634497905,0.28524861359953724,0.7217775840355921
0.0625,1.718006434170897,1.0,2930.532267099903,0.5049690418417089,1.2949211458703955,0.9805960227166662,0.28520927023517767,0.7226451457860105
0.063,1.7170696874004312,1.0,2934.829397735033,0.5077457889083987,1.2944604169749172,0.9807794192803231,0.2851699268708181,0.7235110422033096
0.0635,1.7161329406299655,1.0,2939.1108576931165,0.5105069668705412,1.2939998529231618,0.9809588703475294,0.28513058350645853,0.7243752757690027
0.064,1.7151961938594995,1.0,2943.3766682074943,0.5132526599165758,1.2935394531692042,0.9811344888710702,0.28509124014209897,0.7252378489576677
0.0645,1.7142594470890336,1.0,2947.626850872232,0.5159829522349417,1.2930792171671193,0.9813063837355189,0.2850518967777394,0.7260987642369533
0.065,1.7133227003185678,1.0,2951.8614276403405,0.5186979280140787,1.2926191443709816,0.9814746599335845,0.28501255341337983,0.726958024067585
0.0655,1.712385953548102,1.0,2956.0804208214554,0.5213976714424259,1.2921592342348662,0.981639418733588,0.28497321004902026,0.7278156309033692
0.066,1.7114492067776361,1.0,2960.283853080308,0.524082266708423,1.291699486212848,0.9818007578385666,0.2849338666846607,0.7286715871912008
0.0665,1.7105124600071704,1.0,2964.4717474343834,0.5267517980005091,1.2912398997590016,0.9819587715374863,0.2848945233203012,0.7295258953710674
0.067,1.7095757132367044,1.0,2968.6441272519646,0.529406349507124,1.290780474327402,0.9821135508490044,0.28485517995594156,0.7303785578760558
0.0675,1.7086389664662387,1.0,2972.8010162507244,0.5320460054167069,1.290321209372124,0.982265183658201,0.28481583659158205,0.7312295771323578
0.068,1.7077022196957727,1.0,2976.942438494857,0.5346708499176972,1.2898621043472425,0.9824137548466687,0.2847764932272224,0.7320789555592739
0.0685,1.706765472925307,1.0,2981.0684183941653,0.5372809671985345,1.289403158706832,0.9825593464163291,0.2847371498628629,0.7329266955692226
0.069,1.705828726154841,1.0,2985.178980701068,0.5398764414476582,1.2889443719049678,0.9827020376073173,0.2846978064985033,0.7337727995677412
0.0695,1.7048919793843753,1.0,2989.2741505098384,0.5424573568535076,1.2884857433957244,0.9828419050102607,0.2846584631341438,0.7346172699534956
0.07,1.7039552326139094,1.0,2993.353953253379,0.5450237976045224,1.2880272726331767,0.9829790226732521,0.28461911976978416,0.7354601091182835
0.07050000000000001,1.7030184858434436,1.0,2997.4184147027904,0.5475758478891416,1.2875689590713995,0.9831134622038044,0.28457977640542464,0.7363013194470402
0.07100000000000001,1.7020817390729777,1.0,3001.4676112337347,0.5501135430801902,1.2871108017287267,0.9832452899347102,0.2845404330410651,0.7371409041157135
0.07150000000000001,1.701144992302512,1.0,3005.501884471126,0.5526370074338623,1.2866527973299116,0.9833745752261509,0.2845010896767055,0.7379788704813031
