Time [s],Phi [rad],STIM [ ],Fsee [N],Gamma [ ],Lcerel [ ],q [ ],Lmtc [m],fisomrel [ ]
0.0,1.8,1.0,17.967451347546437,1.0000013502508421e-05,1.379339713373894,0.005000026651842091,0.288653,0.5411396105147064
0.0005,1.79999375,1.0,18.276756160051473,0.005619153230129441,1.3793023864549845,0.012940513960976133,0.2886527375,0.5412299095330153
0.001,1.799975,1.0,21.618359370685855,0.011196843532133582,1.378938304379786,0.035608576458983736,0.28865195,0.5421102087811627
0.0015,1.79994375,1.0,31.06912039714126,0.0167432474024497,1.3780462135783151,0.07060170487166915,0.2886506375,0.5442635854563104
0.002,1.7999,1.0,53.58200859762048,0.022258540332362742,1.376368156290262,0.11471783626900761,0.2886488,0.5483004175085104
0.0025,1.79984375,1.0,97.11818190451194,0.027742896829068667,1.373935203677034,0.16457467366781245,0.28864643749999996,0.5541213758004309
0.003,1.7997750000000001,1.0,160.95726393098897,0.033196490423394315,1.3712143775523464,0.21728022729166954,0.28864354999999997,0.5605863708495664
0.0035,1.79969375,1.0,237.68235196952602,0.038619493669386856,1.3685847644066387,0.27061266243172566,0.2886401375,0.5667897686457355
0.004,1.7996,1.0,321.46577326349137,0.04401207815509654,1.3661561188313915,0.32291558243475066,0.2886362,0.5724799000074359
0.0045000000000000005,1.7994937500000001,1.0,409.26676964840004,0.04937441450776104,1.3639228371977083,0.3730342995004371,0.2886317375,0.5776791089476093
0.005,1.799375,1.0,499.41253494059237,0.05470667238489428,1.3618583629428203,0.4202472664948332,0.28862675,0.5824570317868054
0.0055,1.79924375,1.0,590.789471273079,0.060009020521764246,1.3599388535179089,0.46417351899652903,0.2886212375,0.5868750692863947
0.006,1.7991000000000001,1.0,682.5171847636968,0.06528162667451994,1.3581464315353453,0.5046797981743922,0.2886152,0.5909793800334765
0.006500000000000001,1.79894375,1.0,773.8804414877968,0.07052465767581977,1.3564672675533067,0.541800610570914,0.2886086375,0.5948057626373701
0.007,1.798775,1.0,864.2849618842927,0.07573827941842542,1.3548904087156015,0.5756766463236901,0.28860155,0.5983826460512542
0.0075,1.79859375,1.0,953.2424742357434,0.08092265686493583,1.353406790591183,0.6065097939274738,0.2885939375,0.6017335470792082
0.008,1.7984,1.0,1040.3441280071524,0.08607795365172236,1.352008857275415,0.6345320672315236,0.2885858,0.6048780752540068
0.0085,1.79819375,1.0,1125.3142714727985,0.09120433387646985,1.3506892408761983,0.6599843321623076,0.2885771375,0.607835001064017
0.009000000000000001,1.797975,1.0,1207.8997291721087,0.09630195946754294,1.3494420412185482,0.6831041057025854,0.28856795,0.6106194509853778
0.0095,1.79774375,1.0,1287.8914335483653,0.10137099096071858,1.3482621340213246,0.7041174016523614,0.2885582375,0.6132445344608195
0.01,1.7975,1.0,1365.1662926832369,0.10641158889177381,1.3471443950033881,0.7232341586010641,0.288548,0.6157231154902157
0.0105,1.79724375,1.0,1439.659209988238,0.11142391320018226,1.3460839500070612,0.7406465947298556,0.2885372375,0.6180672817203763
0.011,1.796975,1.0,1511.3221410094377,0.11640812264537086,1.3450765545369223,0.756529067678456,0.28852595000000003,0.620287536699383
0.0115,1.79669375,1.0,1580.1205949701991,0.12136437440597798,1.3441184880462762,0.771038556590972,0.2885141375,0.6223930681911507
0.012,1.7964,1.0,1646.05612303253,0.12629282510334436,1.3432061753484068,0.7843155435415713,0.28850180000000003,0.6243926058760161
0.0125,1.79609375,1.0,1709.1733097458991,0.1311936316597376,1.3423360424316757,0.7964852835887644,0.2884889375,0.6262947514420215
0.013000000000000001,1.7957750000000001,1.0,1769.50642028307,0.13606694890633567,1.341505074266725,0.8076594518230157,0.28847555,0.6281067737566285
0.0135,1.79544375,1.0,1827.0916515223105,0.1409129302744215,1.3407105937101333,0.8179374280262517,0.2884616375,0.6298351126712005
0.014,1.7951000000000001,1.0,1881.9928350311416,0.14573172919527805,1.3399499236184806,0.827407495160396,0.2884472,0.6314861270146339
0.0145,1.79474375,1.0,1934.278503110677,0.1505234981201681,1.3392206083345288,0.8361481660358573,0.2884322375,0.6330656214322455
0.015,1.794375,1.0,1984.0493590079823,0.15528839005491948,1.3385200827146038,0.844229192983679,0.28841675,0.6345795714250568
0.0155,1.79399375,1.0,2031.3699358893252,0.16002655480122996,1.3378463780910768,0.851712823608027,0.2884007375,0.636032604626088
0.016,1.7936,1.0,2076.311092174909,0.16473814165728998,1.3371976272422696,0.8586545203166213,0.2883842,0.637429082213595
0.0165,1.7931937500000001,1.0,2118.9579734966965,0.16942329992129,1.336571962946505,0.8651037322970193,0.2883671375,0.638773321933471
0.017,1.792775,1.0,2159.3926110217917,0.17408217776915533,1.3359676832643983,0.8711046555223325,0.28834955,0.640069246817452
0.0175,1.7923437500000001,1.0,2197.7197077215624,0.178714924154474,1.335382971431736,0.8766967737813611,0.2883314375,0.641320990030674
0.018000000000000002,1.7919,1.0,2234.012288811311,0.18332168466464088,1.3348164366780115,0.8819155575352323,0.2883128,0.6425317402112216
0.0185,1.79144375,1.0,2268.34447352111,0.18790260434879963,1.3342667614967696,0.8867928363219277,0.2882936375,0.6437045030563193
0.019,1.790975,1.0,2300.7979002093944,0.19245782825609403,1.3337326283815565,0.8913572013618667,0.28827395,0.6448422600559245
0.0195,1.79049375,1.0,2331.452804041315,0.1969875003543854,1.3332128013006654,0.8956343960555823,0.2882537375,0.6459477967135308
0.02,1.79,1.0,2360.398069278477,0.20149176569104268,1.3327060190735038,0.8996476150775631,0.288233,0.6470239313528741
0.0205,1.78949375,1.0,2387.7055765429413,0.20597076642777212,1.3322112402473865,0.9034178434598701,0.2882117375,0.6480729969811648
0.021,1.788975,1.0,2413.440393159489,0.2104246431353107,1.3317275338301546,0.906964076405762,0.28818995000000003,0.649097076846185
0.021500000000000002,1.78844375,1.0,2437.6715757807974,0.21485353638439533,1.3312539688296492,0.9103035139615967,0.2881676375,0.6500982402251461
0.022,1.7879,1.0,2460.471834920483,0.21925758674576298,1.3307896142537121,0.9134517554257644,0.2881448,0.6510785430544654
0.0225,1.78734375,1.0,2481.9051553831287,0.2236369324884078,1.330333654100457,0.9164229920558674,0.28812143749999997,0.6520397862520398
0.023,1.786775,1.0,2502.050747614898,0.2279917156911498,1.3298851548295005,0.9192301133770794,0.28809755,0.6529840070890194
0.0235,1.78619375,1.0,2520.9646090434776,0.23232207323307047,1.3294434287951262,0.9218849066753291,0.28807313749999996,0.6539127143613221
0.024,1.7856,1.0,2538.6984804382046,0.2366281406465053,1.329007848806797,0.9243981368221992,0.2880482,0.6548272813250124
0.0245,1.78499375,1.0,2555.3059923257774,0.24091005346378974,1.328577787673976,0.926779639535984,0.2880227375,0.655729073492588
0.025,1.784375,1.0,2570.842505385138,0.24516794721725918,1.3281526182061267,0.929038414329318,0.28799675,0.6566194488662755
0.025500000000000002,1.78374375,1.0,2585.364959564234,0.2494019574392491,1.3277317132127127,0.9311827070281634,0.2879702375,0.6574997581462381
0.026000000000000002,1.7831000000000001,1.0,2598.9201518963664,0.25361221612349577,1.3273145533729818,0.9332200991095062,0.2879432,0.6583711197393032
0.0265,1.78244375,1.0,2611.5708994210763,0.2577988615106879,1.3269004815666254,0.9351575363847339,0.2879156375,0.6592349335188405
0.027,1.781775,1.0,2623.3585151197217,0.2619620249766243,1.3264890513597234,0.9370014380045572,0.28788755,0.6600921535147574
0.0275,1.7810937500000001,1.0,2634.3207881363383,0.2661018364619392,1.3260798573122554,0.93875772149161,0.2878589375,0.6609436436709795
0.028,1.7804,1.0,2644.4963003850203,0.27021842590726697,1.325672493984202,0.9404318434056484,0.2878298,0.6617902635909119
0.0285,1.77969375,1.0,2653.9243575254723,0.2743119232532419,1.3252665559355434,0.9420288413010255,0.2878001375,0.6626328685900191
0.029,1.778975,1.0,2662.644923583283,0.27838245844049825,1.3248616377262596,0.943553371359069,0.28776995,0.6634723097379223
0.029500000000000002,1.7782437500000001,1.0,2670.698559214107,0.2824301614096705,1.324457333916331,0.9450097421882946,0.2877392375,0.664309433890008
0.03,1.7775,1.0,2678.115461323962,0.28645515502339125,1.3240533391094902,0.9464019561203788,0.287708,0.6651448769514979
0.0305,1.77674375,1.0,2684.9454819429475,0.29045757700873215,1.3236491717027474,0.9477337068273528,0.2876762375,0.6659796353830534
0.031,1.775975,1.0,2691.2150508128007,0.29443755178642855,1.323244568885514,0.9490084470485296,0.28764395,0.6668142496365379
0.0315,1.7751937500000001,1.0,2696.949627660984,0.29839520296428124,1.322839279648977,0.9502293865761545,0.2876111375,0.6676492331496482
0.032,1.7744,1.0,2702.1749582230586,0.30233065415009086,1.322433052984324,0.951399511227701,0.2875778,0.668485096757679
0.0325,1.77359375,1.0,2706.917047344928,0.30624402895165825,1.322025637882742,0.952521601217554,0.2875439375,0.6693223486805266
0.033,1.772775,1.0,2711.202133481292,0.3101354509767842,1.3216167833354182,0.9535982478103546,0.28750955,0.6701614945056718
0.0335,1.7719437500000002,1.0,2715.0566645916106,0.3140050438332693,1.32120623833354,0.9546318684350827,0.2874746375,0.6710030371671466
0.034,1.7711000000000001,1.0,2718.5072754324033,0.31785293112891444,1.3207937518682946,0.955624720418525,0.2874392,0.6718474769204816
0.0345,1.7702437500000001,1.0,2721.5750322828476,0.32167923212376653,1.3203791251262393,0.9565789180962243,0.2874032375,0.6726952046662802
0.035,1.7693750000000001,1.0,2724.282811945727,0.32548406962146204,1.3199621440416252,0.9574964384982468,0.28736675,0.6735466402432599
0.035500000000000004,1.76849375,1.0,2726.659573723185,0.3292675713903791,1.3195425403421377,0.9583791280020009,0.2873297375,0.6744023115806548
0.036000000000000004,1.7676,1.0,2728.7205561835467,0.3330298540715308,1.3191201715435752,0.9592287270695119,0.2872922,0.6752624876084157
0.0365,1.76669375,1.0,2730.4810786125536,0.33677103430593003,1.3186948951617354,0.9600468678042959,0.2872541375,0.6761274355798803
0.037,1.765775,1.0,2731.956532139457,0.34049122873458987,1.3182665687124167,0.9608350819174848,0.28721555,0.6769974210459968
0.0375,1.76484375,1.0,2733.162371314383,0.3441905539985233,1.3178350497114166,0.9615948080228095,0.2871764375,0.6778727078282568
0.038,1.7639,1.0,2734.114106134831,0.34786912673874326,1.3174001956745336,0.9623273983237784,0.28713679999999997,0.678753557990331
0.0385,1.76294375,1.0,2734.8272945230483,0.3515270635962628,1.316961864117565,0.9630341247498135,0.28709663750000003,0.6796402318084127
0.039,1.761975,1.0,2735.3175352527046,0.35516448121209493,1.3165199125563096,0.9637161845922537,0.28705595,0.6805329877402618
0.0395,1.7609937500000001,1.0,2735.6004613268688,0.3587814962272526,1.316074198506565,0.9643747056859673,0.2870147375,0.6814320823929612
0.04,1.76,1.0,2735.6843531415752,0.3623782191616011,1.3156246464956511,0.965010756046727,0.286973,0.6823376356010691
0.0405,1.7589937500000001,1.0,2735.5859497953948,0.3659547692287106,1.3151711044574679,0.965625337936224,0.2869307375,0.6832499200097573
0.041,1.757975,1.0,2735.321270441198,0.36951126312028915,1.3147134270280896,0.9662193975250386,0.28688795,0.6841691927558525
0.0415,1.75694375,1.0,2734.898769402999,0.37304781059433423,1.3142515376558797,0.9667938331796825,0.2868446375,0.6850955710488369
0.042,1.7559,1.0,2734.326912562685,0.37656452140884333,1.3137853597892015,0.9673494939796768,0.28680079999999997,0.6860291708608461
0.0425,1.75484375,1.0,2733.614174992395,0.38006150532181415,1.3133148168764193,0.9678871829225285,0.2867564375,0.686970106905918
0.043000000000000003,1.753775,1.0,2732.7690387165644,0.38353887209124404,1.3128398323658959,0.9684076598888515,0.28671155,0.6879184926188717
0.043500000000000004,1.75269375,1.0,2731.7999906048212,0.3869967314751307,1.312360329705995,0.9689116443878252,0.28666613750000003,0.6888744401338078
0.044,1.7516,1.0,2730.715520393227,0.3904351932314716,1.3118762323450803,0.969399818101307,0.2866202,0.6898380602622369
0.0445,1.75049375,1.0,2729.5241188374903,0.39385436711826427,1.3113874637315153,0.969872827243224,0.2865737375,0.6908094624708363
0.045,1.7493750000000001,1.0,2728.23427599423,0.39725436289350624,1.3108939473136636,0.9703312847493425,0.28652675,0.6917887548588296
0.0455,1.74824375,1.0,2726.848945775567,0.4006352774926484,1.3103956568649835,0.9707757743049672,0.2864792375,0.6927759445132508
0.046,1.7471,1.0,2725.381305050325,0.4039972330779872,1.3098924731860455,0.9712068467434107,0.2864312,0.6937712215007528
0.0465,1.7459437500000001,1.0,2723.838445754158,0.40734033852023555,1.3093843323543053,0.9716250275958943,0.28638263750000004,0.6947746648395432
0.047,1.744775,1.0,2722.2247336442306,0.41066469634286745,1.3088711952183238,0.9720308173550348,0.28633355,0.6957863034579213
0.0475,1.74359375,1.0,2720.54453229529,0.413970409069357,1.3083530226266618,0.9724246920202217,0.28628393750000003,0.6968061652965607
0.048,1.7424,1.0,2718.802202552795,0.4172575792231782,1.30782977542788,0.9728071045218725,0.2862338,0.6978342772959851
0.0485,1.74119375,1.0,2717.0021020215077,0.42052630932780505,1.3073014144705395,0.9731784860500845,0.2861831375,0.6988706653839468
0.049,1.739975,1.0,2715.148584586271,0.4237767019067115,1.3067679006032014,0.9735392472949204,0.28613195,0.6999153544627053
0.0495,1.73874375,1.0,2713.2459999686344,0.42700885948337175,1.306229194674426,0.9738897796049628,0.2860802375,0.7009683683962133
0.05,1.7375,1.0,2711.298693315828,0.43022288458125973,1.3056852575327746,0.9742304560702212,0.286028,0.7020297299971978
0.0505,1.73624375,1.0,2709.3110048248727,0.43341887972384946,1.305136050026808,0.9745616325349619,0.2859752375,0.7030994610141494
0.051000000000000004,1.734975,1.0,2707.2872694002094,0.436596947434615,1.3045815330050872,0.9748836485455888,0.28592195,0.7041775821182111
0.051500000000000004,1.73369375,1.0,2705.231816345058,0.43975719023703036,1.3040216673161729,0.9751968282382789,0.2858681375,0.7052641128899692
0.052000000000000005,1.7324,1.0,2703.148408410207,0.4428997073337498,1.3034564189297493,0.9755014811412189,0.2858138,0.7063590618951929
0.0525,1.73109375,1.0,2701.0400809616513,0.44602459943350586,1.302885760414,0.9757979035715367,0.28575893750000003,0.7074624239108194
0.053,1.729775,1.0,2698.909027002164,0.449131964760998,1.3023096719979432,0.9760863789808603,0.28570355000000003,0.7085741779862755
0.0535,1.72844375,1.0,2696.7572616518555,0.4522219003063678,1.3017281355090407,0.9763671783922592,0.2856476375,0.7096942992418304
0.054,1.7271,1.0,2694.5867971351536,0.45529450305975694,1.3011411327747546,0.9766405610774544,0.2855912,0.7108227619615357
0.0545,1.7257437500000001,1.0,2692.399642705059,0.4583498700113071,1.300548645622547,0.9769067751632882,0.2855342375,0.7119595395869026
0.055,1.724375,1.0,2690.197804574715,0.46138809815116005,1.2999506558798801,0.977166058201965,0.28547675,0.713104604710554
0.0555,1.72299375,1.0,2687.983285856437,0.4644092844694574,1.2993471453742158,0.9774186377075029,0.2854187375,0.7142579290698601
0.056,1.7216,1.0,2685.763661523795,0.4674135247461461,1.2987380448472596,0.9776647285542643,0.2853602,0.715419580870015
0.0565,1.72019375,1.0,2683.536952581872,0.4704009139760964,1.2981233725090893,0.9779045416896716,0.28530113749999997,0.7165894603437717
0.057,1.718775,1.0,2681.3041731194044,0.4733715461559272,1.2975031191508617,0.9781382777100276,0.28524155,0.7177675194372073
0.0575,1.71734375,1.0,2679.066443479679,0.4763255152675839,1.2968772745738064,0.9783661289620503,0.2851814375,0.7189537112296835
0.058,1.715900405407505,1.0,2676.844151234533,0.47926291488742434,1.296245834803322,0.9785882803163821,0.2851208170271152,0.7201479762808767
0.0585,1.7144535889884491,1.0,2675.046117614656,0.48218383839148143,1.2956089400203714,0.9788049172424198,0.28506005073751484,0.7213499827169403
0.059000000000000004,1.7130067725693932,1.0,2673.8009837565005,0.48508837772116015,1.2949669727973891,0.9790162311148373,0.2849992844479145,0.722558944383751
0.059500000000000004,1.711559956150337,1.0,2673.0655468959358,0.48797662468145786,1.2943203264100365,0.9792224063813728,0.28493851815831417,0.7237740607840868
0.06,1.710113139731281,1.0,2672.798312051883,0.4908486707712187,1.2936693800792758,0.9794236195437549,0.2848777518687138,0.7249945637877993
0.0605,1.708666323312225,1.0,2672.9592830017855,0.4937046073132007,1.293014500534386,0.979620039633061,0.28481698557911345,0.7262197145299244
0.061,1.707219506893169,1.0,2673.5155850788583,0.4965445242732876,1.2923559900604753,0.9798118257012177,0.2847562192895131,0.7274489001140283
0.0615,1.705772690474113,1.0,2674.435837808934,0.4993685113299541,1.2916941379479048,0.9799991300850167,0.2846954529999127,0.7286815366289181
0.062,1.704325874055057,1.0,2675.695986382505,0.5021766557296229,1.2910291667571936,0.9801820957372259,0.2846346867103124,0.729917168675426
0.0625,1.702879057636001,1.0,2677.258779770259,0.5049690494829557,1.29036142057554,0.9803608669786111,0.28457392042071206,0.7311551193920738
0.063,1.701432241216945,1.0,2679.0938476517304,0.5077457828966399,1.2896911804709943,0.9805355794607284,0.28451315413111167,0.7323948340475823
0.0635,1.699985424797889,1.0,2681.1834916769585,0.5105069420948035,1.289018611319411,0.98070635765033,0.28445238784151133,0.7336359767570126
0.064,1.698538608378833,1.0,2683.5100233111757,0.5132526132015753,1.2883438779966454,0.9808733215080647,0.284391621551911,0.7348782143554071
0.0645,1.6970917919597768,1.0,2686.0557556226117,0.5159828823410836,1.2876671453785526,0.9810365866889702,0.2843308552623106,0.7361212164214115
0.065,1.6956449755407208,1.0,2688.8029956727864,0.5186978356374569,1.2869885783409873,0.9811962647326835,0.2842700889727103,0.7373646552991677
0.0655,1.6941981591216648,1.0,2691.7340375087933,0.5213975592148236,1.286308341759805,0.9813524632439621,0.28420932268310994,0.7386082061184654
0.066,1.6927513427026089,1.0,2694.83115575937,0.5240821391973121,1.28562660051086,0.9815052860640808,0.28414855639350955,0.7398515468131682
0.0665,1.6913045262835529,1.0,2698.07938443057,0.5267516598775361,1.284943494012108,0.9816548320674009,0.2840877901039092,0.7410944044010579
0.067,1.6898577098644967,1.0,2701.4663473999167,0.5294062054838837,1.2842591378045118,0.9818011955652364,0.2840270238143089,0.7423365515772817
0.0675,1.6884108934454407,1.0,2704.973462957081,0.5320458650750065,1.2835737039019428,0.9819444706788659,0.2839662575247085,0.7435776608907312
0.068,1.6869640770263847,1.0,2708.5927902834633,0.5346707201891672,1.2828872668566167,0.9820847432043083,0.28390549123510816,0.7448175837066113
0.0685,1.6855172606073288,1.0,2712.3163737548766,0.5372808523646285,1.2821999012207492,0.9822220960453566,0.28384472494550783,0.7460561726753807
0.069,1.6840704441882728,1.0,2716.1362413452944,0.5398763431396529,1.2815116815465564,0.9823566093329682,0.28378395865590744,0.7472932817373413
0.0695,1.6826236277692166,1.0,2720.0444031537622,0.5424572740525034,1.2808226823862539,0.982488360538962,0.2837231923663071,0.7485287661268789
0.07,1.6811768113501606,1.0,2724.0328500539827,0.5450237266414425,1.2801329782920574,0.9826174245843221,0.2836624260767068,0.7497624823763447
0.07050000000000001,1.6797299949311046,1.0,2728.0935524676543,0.5475757824447329,1.279442643816183,0.9827438739424076,0.2836016597871064,0.750994288319585
0.07100000000000001,1.6782831785120487,1.0,2732.218459261005,0.5501135230006373,1.2787517535108466,0.982867778737331,0.28354089349750605,0.7522240430951156
0.07150000000000001,1.6768363620929927,1.0,2736.4012689838505,0.5526370269944166,1.2780603658397804,0.9829892059340706,0.2834801272079057,0.7534516356793606
0.07200000000000001,1.6753895456739365,1.0,2740.638822008855,0.5551463701349201,1.27736851060432,0.9831082188856892,0.28341936091830533,0.7546770067765983
0.0725,1.6739427292548805,1.0,2744.9182603443655,0.5576416452280388,1.2766763054338977,0.9832248838818549,0.283358594628705,0.7558999426385478
0.073,1.6724959128358245,1.0,2749.2365911789366,0.5601229285389252,1.2759837782522276,0.9833392601658101,0.2832978283391046,0.7571203894822234
0.0735,1.6710490964167686,1.0,2753.590812743234,0.5625902963327312,1.2752909569830246,0.9834514051240956,0.2832370620495043,0.7583382940158497
