Time [s],Phi [rad],STIM [ ],Fsee [N],Gamma [ ],Lcerel [ ],q [ ],Lmtc [m],fisomrel [ ]
0.0,1.8,1.0,17.992042699453116,0.00016243655990471264,1.379336959284583,0.005006879135053931,0.288653,0.5411462733441538
0.0005,1.79999375,1.0,18.351484813301813,0.005770734728091907,1.3792940940266667,0.01336912545144782,0.2886527375,0.5412499688663588
0.001,1.799975,1.0,21.806391396104306,0.011347574777752336,1.3789191412451605,0.036407340762100934,0.28865195,0.5421565191263716
0.0015,1.79994375,1.0,31.500757472850314,0.016893133165015332,1.378009566357302,0.07169222591805934,0.2886506375,0.5443519379539685
0.002,1.7999,1.0,54.498874537766284,0.022407585354191753,1.376308926842947,0.11600752676706019,0.2886488,0.5484425751859363
0.0025,1.79984375,1.0,98.64796746838202,0.02789110582626706,1.3738617747047277,0.165976603414559,0.28864643749999996,0.5542964713476768
0.003,1.7997750000000001,1.0,162.94029902299968,0.03334386808527953,1.3711403776800537,0.2187258083943154,0.28864354999999997,0.5607615435443467
0.0035,1.79969375,1.0,239.91881328449804,0.038766044659030906,1.368516036634237,0.27204996010969307,0.2886401375,0.5669513097684746
0.004,1.7996,1.0,323.8426962887266,0.04415780710951656,1.3660932790670774,0.3243069317340608,0.2886362,0.5726266295341675
0.0045000000000000005,1.7994937500000001,1.0,411.72645489970824,0.049519326038220804,1.3638651854319106,0.3743548140264813,0.2886317375,0.5778129044343154
0.005,1.799375,1.0,501.9210642203026,0.05485077107794225,1.361805123623207,0.42148254297368365,0.28862675,0.582579886862232
0.0055,1.79924375,1.0,593.3190406328574,0.06015231093233075,1.359889484616374,0.46531708877937505,0.2886212375,0.5869883892301042
0.006,1.7991000000000001,1.0,685.0478233313416,0.06542411333858814,1.3581004737921198,0.5057306749026138,0.2886152,0.5910843452482759
0.006500000000000001,1.79894375,1.0,776.394921497845,0.07066634509445086,1.35642437851745,0.5427614294278875,0.2886086375,0.5949032601991378
0.007,1.798775,1.0,866.7684493926437,0.07587917209656617,1.3548503211915552,0.576552231825328,0.28860155,0.5984733722903383
0.0075,1.79859375,1.0,955.6782820590046,0.08106275916065987,1.353369349238102,0.6073061824312975,0.2885939375,0.601817930545409
0.008,1.7984,1.0,1042.7486735463103,0.08621727060748659,1.3519734753758277,0.6352555042975431,0.2885858,0.604957502014865
0.0085,1.79819375,1.0,1127.6528426917648,0.09134286918595035,1.3506561524882832,0.6606415824876664,0.2885771375,0.6079090010271488
0.009000000000000001,1.797975,1.0,1210.1485179182296,0.0964397170909775,1.3494113284758746,0.6837015878044419,0.28856795,0.6106878939181264
0.0095,1.79774375,1.0,1290.0748238632227,0.10150797598676939,1.3482332541549111,0.7046607942402586,0.2885582375,0.6133086757037025
0.01,1.7975,1.0,1367.2919369473877,0.10654780582196613,1.3471170853474892,0.7237288396865631,0.288548,0.6157835748082394
0.0105,1.79724375,1.0,1441.7113183942581,0.11155936596159992,1.3460582754388821,0.7410976188521227,0.2885372375,0.6181239477049324
0.011,1.796975,1.0,1513.2976333483243,0.1165428155615521,1.3450524309237821,0.7569409211485547,0.28852595000000003,0.6203406247244534
0.0115,1.79669375,1.0,1582.0244762872699,0.12149831202010476,1.3440957500928545,0.7714152238865849,0.2885141375,0.6224429680103183
0.012,1.7964,1.0,1647.8902863602925,0.12642601176151685,1.3431847127581724,0.7846606059643894,0.28850180000000003,0.6244395820442943
0.0125,1.79609375,1.0,1710.9205945522574,0.13132607059786403,1.3423159770661623,0.7968020257107951,0.2884889375,0.6263385581799701
0.013000000000000001,1.7957750000000001,1.0,1771.1776045232614,0.13619864477091173,1.3414862124668043,0.8079506689537383,0.28847555,0.6281478529817492
0.0135,1.79544375,1.0,1828.7020537311755,0.14104388784962482,1.3406927063643028,0.8182055903459863,0.2884616375,0.6298739790502772
0.014,1.7951000000000001,1.0,1883.5420428761663,0.1458619524731455,1.339932968581735,0.8276548655270484,0.2884472,0.6315228854311519
0.0145,1.79474375,1.0,1935.7698040574942,0.1506529912806159,1.3392045089421774,0.8363767434093247,0.2884322375,0.6331004499786235
0.015,1.794375,1.0,1985.460510396687,0.15541715585307972,1.3385050406466186,0.8444408482390046,0.28841675,0.6346120454618339
0.0155,1.79399375,1.0,2032.7166055232337,0.1601545982714293,1.3378321913717868,0.8519090920302569,0.2884007375,0.6360631711509452
0.016,1.7936,1.0,2077.604084445266,0.16486546738630453,1.337184154081322,0.8588367884089891,0.2883842,0.637458055600967
0.0165,1.7931937500000001,1.0,2120.1970859466423,0.16954991171627665,1.3365591816929676,0.8652732728251712,0.2883671375,0.6388007564354592
0.017,1.792775,1.0,2160.582301328328,0.1742080797799169,1.3359555271244672,0.871262592909537,0.28834955,0.6400952927121217
0.0175,1.7923437500000001,1.0,2198.8411629952266,0.17884011872591618,1.3353716127536412,0.8768441797343399,0.2883314375,0.6413452849458601
0.018000000000000002,1.7919,1.0,2235.079725371436,0.1834461769285407,1.3348057132212683,0.8820533043713156,0.2883128,0.6425546377372381
0.0185,1.79144375,1.0,2269.3675028865664,0.18802639889676964,1.3342565621580356,0.8869217198710673,0.2882936375,0.6437262457088371
0.019,1.790975,1.0,2301.7778643182933,0.1925809288549221,1.333722927480497,0.8914779579885297,0.28827395,0.6448629071232366
0.0195,1.79049375,1.0,2332.3907938244083,0.19710991102731695,1.3332035771052058,0.8957476901110872,0.2882537375,0.6459673986106352
0.02,1.79,1.0,2361.2844532457557,0.20161348853690214,1.3326973559226178,0.8997540691987175,0.288233,0.6470423130168972
0.0205,1.78949375,1.0,2388.545539531822,0.20609180559234389,1.3322030778271243,0.9035179888220667,0.2882117375,0.6480902904406428
0.021,1.788975,1.0,2414.245867289883,0.21054500382605795,1.3317197483669814,0.907058380421404,0.28818995000000003,0.6491135476509775
0.021500000000000002,1.78844375,1.0,2438.4474577069673,0.21497322285491835,1.3312465067331136,0.9103924145257696,0.2881676375,0.6501140043912925
0.022,1.7879,1.0,2461.2158213035877,0.21937660229579917,1.3307824921164453,0.9135356639141129,0.2881448,0.6510935679503629
0.0225,1.78734375,1.0,2482.619665877548,0.22375528176557447,1.3303268437079,0.9165022743861313,0.28812143749999997,0.6520541336925272
0.023,1.786775,1.0,2502.723402460711,0.22810939922638518,1.3298787692192127,0.9193051275814696,0.28809755,0.6529974413852597
0.0235,1.78619375,1.0,2521.596773042461,0.23243909468665327,1.3294374500981856,0.9219559564701328,0.28807313749999996,0.6539252757423644
0.024,1.7856,1.0,2539.3000982622266,0.23674450582329473,1.3290021788887232,0.9244654860366402,0.2880482,0.6548391782094152
0.0245,1.78499375,1.0,2555.882805583837,0.24102576713483806,1.3285723692042775,0.9268435360471197,0.2880227375,0.6557404279192857
0.025,1.784375,1.0,2571.3959839941235,0.24528301311981188,1.3281474346583,0.9290990916118014,0.28799675,0.6566302969616606
0.025500000000000002,1.78374375,1.0,2585.8922434158208,0.24951637827674467,1.327726788864243,0.9312403855256182,0.2879702375,0.6575100505763134
0.026000000000000002,1.7831000000000001,1.0,2599.425581744328,0.25372599710416505,1.3273098454355587,0.9332749714819202,0.2879432,0.65838094732446
0.0265,1.78244375,1.0,2612.0427816246674,0.2579120018179858,1.3268960967599541,0.9352098007706134,0.2879156375,0.6592440750099067
0.027,1.781775,1.0,2623.794374654599,0.26207452719861973,1.326485010376309,0.9370512650617194,0.28788755,0.6601005676007059
0.0275,1.7810937500000001,1.0,2634.7312962520014,0.2662137071564979,1.3260760592867413,0.9388052518189792,0.2878589375,0.66095154196438
0.028,1.7804,1.0,2644.8888087513183,0.2703296704682009,1.3256688694792267,0.9404772108104584,0.2878298,0.6617977916202884
0.0285,1.77969375,1.0,2654.3028633564527,0.27442254591030935,1.32526306694174,0.9420721734140884,0.2878001375,0.6626401061340981
0.029,1.778975,1.0,2663.0100402743574,0.27849246225940394,1.324858277662257,0.9435947901834415,0.28776995,0.6634792711553313
0.029500000000000002,1.7782437500000001,1.0,2671.0474919496314,0.28253954829206523,1.3244541276287527,0.9450493645897157,0.2877392375,0.6643160684459983
0.03,1.7775,1.0,2678.452889401225,0.28656393278487396,1.3240502428292027,0.9464398833707829,0.287708,0.6651512759003022
0.0305,1.77674375,1.0,2685.2553231658103,0.2905657432352292,1.323646332173728,0.9477700542668556,0.2876762375,0.6659854963982557
0.031,1.775975,1.0,2691.488519134873,0.2945451061973653,1.323242065607009,0.9490433140616799,0.28764395,0.6668194101470476
0.0315,1.7751962591839583,1.0,2697.3200088371054,0.29850215145243936,1.3228370260646558,0.9502628468634368,0.28761124288572626,0.6676538730922472
0.032,1.7744166793859097,1.0,2703.18799653198,0.3024370019832457,1.322431331901686,0.9514316782183273,0.2875785005342082,0.6684886358676811
0.0325,1.7736370995878614,1.0,2709.1211367563947,0.30634978077257863,1.3220251014731175,0.9525526246163345,0.2875457581826902,0.6693234503227947
0.033,1.772857519789813,1.0,2715.1066361694902,0.31024061080323245,1.3216184531339674,0.9536283104724813,0.28751301583117217,0.6701580695271492
0.0335,1.7720779399917646,1.0,2721.1316455528963,0.31410961505800156,1.3212115052392537,0.9546611835367084,0.2874802734796541,0.6709922477740208
0.034,1.7712983601937162,1.0,2727.183258869574,0.3179569165196802,1.3208043761439936,0.9556535288943366,0.2874475311281361,0.6718257405831093
0.0345,1.770518780395668,1.0,2733.248613830308,0.3217826380861538,1.3203971832839863,0.9566074815780491,0.2874147887766181,0.6726583065806369
0.035,1.7697392005976194,1.0,2739.3189683596684,0.3255869002794573,1.3199900061909209,0.9575250336276218,0.2873820464251,0.6734897829653521
0.035500000000000004,1.768959620799571,1.0,2745.384998940687,0.32936982517081076,1.319582929314059,0.958408050617526,0.28734930407358195,0.6743199977393021
0.036000000000000004,1.7681800410015227,1.0,2751.44128668614,0.3331315310356463,1.319176001380263,0.959258275706427,0.28731656172206393,0.6751488524965128
0.0365,1.7674004612034744,1.0,2757.4823891222077,0.3368721361493962,1.3187692711163954,0.9600773433986108,0.2872838193705459,0.675976249336486
0.037,1.7666208814054258,1.0,2763.5028403761053,0.3405917587874928,1.3183627872493187,0.960866787547487,0.28725107701902786,0.6768020908636642
0.0375,1.7658413016073775,1.0,2769.4971514158215,0.34429051722536835,1.3179565985058952,0.9616280486840224,0.28721833466750984,0.6776262801867379
0.038,1.7650617218093292,1.0,2775.4662385459455,0.3479685160114365,1.317550695668881,0.9623624723249402,0.28718559231599183,0.678448838265975
0.0385,1.7642821420112806,1.0,2781.3970787639296,0.3516258932439174,1.3171451950809185,0.9630713428621879,0.28715284996447377,0.6792695320060145
0.039,1.7635025622132323,1.0,2787.288039195528,0.35526276215725816,1.3167401101436378,0.9637558545661407,0.28712010761295576,0.6800883374559827
0.0395,1.762722982415184,1.0,2793.1380852777447,0.3588792346437905,1.3163354488360417,0.9644171317269638,0.28708736526143774,0.6809052417401149
0.04,1.7619434026171354,1.0,2798.9461799048627,0.36247542259584614,1.3159312191371337,0.9650562342221161,0.2870546229099197,0.6817202320616211
0.0405,1.7611638228190871,1.0,2804.711283504168,0.36605143790575667,1.3155274290259171,0.9656741618923813,0.28702188055840167,0.6825332957024708
0.041,1.7603842430210388,1.0,2810.432354112671,0.3696073924658538,1.3151240864813953,0.9662718585763228,0.28698913820688365,0.68334442002317
0.0415,1.7596046632229903,1.0,2816.108347455747,0.3731433981684692,1.3147211994825714,0.9668502158331367,0.2869563958553656,0.6841535924625368
0.042,1.758825083424942,1.0,2821.738217027318,0.37665956690593455,1.3143187760084487,0.9674100763809458,0.2869236535038476,0.6849608005374702
0.0425,1.7580455036268936,1.0,2827.320914170616,0.3801560105705815,1.3139168240380306,0.9679522372749977,0.2868909111523295,0.6857660318427173
0.043000000000000003,1.757265923828845,1.0,2832.8553881613548,0.38363284105474177,1.3135153515503202,0.9684774528478988,0.2868581688008115,0.6865692740506351
0.043500000000000004,1.7564863440307967,1.0,2838.3405862914806,0.387090170250747,1.313114366524321,0.9689864374319367,0.28682542644929343,0.6873705149109477
0.044,1.7557067642327484,1.0,2843.7768793754135,0.3905280938511444,1.3127138642454996,0.9694798644382271,0.2867926840977754,0.6881697675658394
0.0445,1.7549271844347,1.0,2849.164016143136,0.3939467330294754,1.3123138455657135,0.9699583766167595,0.2867599417462574,0.6889670340177158
0.045,1.7541476046366515,1.0,2854.5013926754827,0.3973462091651321,1.3119143144818874,0.970422583908985,0.28672719939473934,0.6897623100168822
0.0455,1.7533680248386032,1.0,2859.789642349454,0.4007266256220864,1.3115152640025967,0.9708730618293974,0.28669445704322133,0.6905556131804609
0.046,1.7525884450405549,1.0,2865.029403006306,0.4040880857643104,1.3111166871364164,0.9713103569878162,0.2866617146917033,0.6913469610499401
0.0465,1.7518088652425063,1.0,2870.2213168778626,0.4074306929557761,1.3107185768919214,0.9717349888185337,0.28662897234018525,0.6921363710913875
0.047,1.751029285444458,1.0,2875.36603051364,0.4107545505604555,1.310320926277687,0.972147451190131,0.28659622998866724,0.6929238606956583
0.0475,1.7502497056464097,1.0,2880.4641947089945,0.4140597619423208,1.309923728302288,0.9725482139052599,0.28656348763714923,0.6937094471786021
0.048,1.7494701258483611,1.0,2885.5164644342112,0.41734643046534387,1.3095269759742993,0.9729377240988718,0.28653074528563116,0.6944931477812677
0.0485,1.7486905460503128,1.0,2890.523498765423,0.4206146594934968,1.3091306623022967,0.9733164075426592,0.28649800293411315,0.6952749796701002
0.049,1.7479109662522645,1.0,2895.485960815498,0.4238645523907516,1.3087347802948543,0.9736846698628129,0.28646526058259514,0.6960549599371428
0.0495,1.747131386454216,1.0,2900.404517666754,0.4270962125210804,1.308339322960548,0.9740428976775958,0.28643251823107707,0.696833105600226
0.05,1.7463518066561676,1.0,2905.2798403048605,0.4303097432484551,1.3079442833079524,0.974391459660703,0.286399775879559,0.6976094336031617
0.0505,1.7455722268581193,1.0,2910.112603553346,0.43350524793684786,1.3075496543456426,0.9747307075358739,0.286367033528041,0.6983839608159303
0.051000000000000004,1.7447926470600708,1.0,2914.9034860092265,0.43668282995023067,1.3071554290821938,0.9750609770077835,0.286334291176523,0.6991567040348641
0.051500000000000004,1.7440130672620224,1.0,2919.652632213707,0.4398425673087437,1.3067616052524176,0.975382586180967,0.2863015488250049,0.6999276707364794
0.052000000000000005,1.743233487463974,1.0,2924.360691862552,0.44298454250061653,1.306368176171893,0.9756958392254182,0.2862688064734869,0.700696877006084
0.0525,1.7424539076659258,1.0,2929.030098368316,0.44610892314510553,1.3059751195355742,0.9760010348327296,0.2862360641219689,0.7014643693405328
0.053,1.7416743278678772,1.0,2933.6615228468145,0.44921580199164035,1.3055824285690958,0.9762984516465664,0.2862033217704508,0.7022301637430277
0.0535,1.740894748069829,1.0,2938.2556397550215,0.45230527178965046,1.305190096498093,0.9765883562263852,0.2861705794189328,0.7029942761463162
0.054,1.7401151682717806,1.0,2942.8131268363168,0.45537742528856545,1.304798116548201,0.9768710036742874,0.2861378370674148,0.7037567224128485
0.0545,1.739335588473732,1.0,2947.3346650673616,0.4584323552378149,1.3044064819450552,0.977146638224237,0.28610509471589674,0.7045175183349324
0.055,1.7385560086756837,1.0,2951.8209386059552,0.46147015438682837,1.30401518591429,0.9774154937961966,0.2860723523643787,0.705276679634884
0.0555,1.7377764288776354,1.0,2956.2726347390976,0.46449091548503535,1.303624221681541,0.9776777945175463,0.2860396100128607,0.7060342219651736
0.056,1.7369968490795868,1.0,2960.6904438329834,0.4674947312818655,1.3032335824724435,0.977933755213976,0.28600686766134265,0.7067901609085709
0.0565,1.7362172692815385,1.0,2965.0750592838835,0.4704816945267484,1.3028432615126322,0.9781835818718718,0.28597412530982463,0.7075445119782892
0.057,1.7354376894834902,1.0,2969.4271774693193,0.4734518979691135,1.302453252027742,0.9784274720740738,0.28594138295830657,0.7082972906181222
0.0575,1.7346581096854417,1.0,2973.7474977012184,0.4764054343583905,1.3020635472434088,0.9786656154107408,0.28590864060678856,0.7090485122025796
0.058,1.7338785298873933,1.0,2978.0367221792635,0.47934239644400883,1.3016741403852672,0.9788981938669368,0.2858758982552705,0.709798192037022
0.0585,1.733098950089345,1.0,2982.295555946218,0.48226287697539816,1.3012850246789525,0.9791253821884283,0.2858431559037525,0.7105463453577903
0.059000000000000004,1.7323193702912965,1.0,2986.524706842967,0.485166968701988,1.3008961933500993,0.9793473482270871,0.28581041355223447,0.711292987332333
0.059500000000000004,1.7315397904932481,1.0,2990.7248854656377,0.48805476437320794,1.3005076396243436,0.979564253267184,0.2857776712007164,0.7120381330593293
0.06,1.7307602106951998,1.0,2994.8968051237403,0.49092635673848745,1.3001193567273197,0.9797762523337713,0.2857449288491984,0.7127817975688132
0.0605,1.7299806308971513,1.0,2999.0411817982244,0.49378183854725627,1.299731337884663,0.9799834944842749,0.2857121864976804,0.7135239958222893
0.061,1.729201051099103,1.0,3003.158734101895,0.4966213025489438,1.299343576322009,0.9801861230843235,0.2856794441461623,0.7142647427128496
0.0615,1.7284214713010546,1.0,3007.2501832402245,0.49944484149297974,1.298956065264992,0.9803842760687916,0.2856467017946443,0.7150040530652864
0.062,1.7276418915030063,1.0,3011.316252972912,0.5022525481287936,1.2985687979392477,0.9805780861889477,0.2856139594431263,0.7157419416362011
0.0625,1.7268623117049577,1.0,3015.3571372801507,0.505044493654095,1.2981817721737376,0.980767679876349,0.2855812170916082,0.716478414360106
0.063,1.7260827319069094,1.0,3019.372835237759,0.5078207447526543,1.2977949874910373,0.9809531786758263,0.2855484747400902,0.7172134739324393
0.0635,1.725303152108861,1.0,3023.365328555746,0.5105814493771929,1.2974084262951415,0.9811347047295378,0.2855157323885722,0.7179471555122685
0.064,1.7245235723108125,1.0,3027.3349990547504,0.5133266894744157,1.2970220848480434,0.9813123716277611,0.28548299003705413,0.7186794678332964
0.0645,1.7237439925127642,1.0,3031.2822300166017,0.516056546991028,1.2966359594117354,0.9814862888723656,0.28545024768553606,0.7194104195914519
0.065,1.722964412714716,1.0,3035.2074061660956,0.5187711038737346,1.2962500462482105,0.9816565620537674,0.28541750533401805,0.7201400194449399
0.0655,1.7221848329166674,1.0,3039.110913653241,0.5214704420692408,1.2958643416194613,0.9818232930189972,0.28538476298250004,0.7208682760142944
0.066,1.721405253118619,1.0,3042.9931400356872,0.5241546435242513,1.295478841787481,0.981986580031377,0.285352020630982,0.721595197882426
0.0665,1.7206256733205707,1.0,3046.854474262218,0.5268237901854715,1.2950935430142616,0.9821465179222899,0.28531927827946396,0.7223207935946752
0.067,1.7198460935225222,1.0,3050.695306655034,0.5294779639996063,1.2947084415617967,0.9823031982354818,0.28528653592794595,0.7230450716588556
0.0675,1.7190665137244738,1.0,3054.5160288938314,0.5321172469133608,1.2943235336920786,0.9824567093643178,0.2852537935764279,0.7237680405453056
0.068,1.7182869339264255,1.0,3058.31703399964,0.53474172087344,1.2939388156671001,0.9826071366823786,0.28522105122490987,0.7244897086869342
0.0685,1.7175073541283772,1.0,3062.098716318518,0.537351467826549,1.2935542837488543,0.9827545626677683,0.28518830887339186,0.7252100844792639
0.069,1.7167277743303286,1.0,3065.8614715063195,0.5399465697193927,1.2931699341993337,0.9828990670214768,0.2851555665218738,0.7259291762804795
0.0695,1.7159481945322803,1.0,3069.605696513425,0.5425271084986762,1.292785763280531,0.9830407267801189,0.2851228241703558,0.7266469924114695
0.07,1.7151686147342318,1.0,3073.3317895694368,0.5450931661111047,1.2924017672544392,0.9831796164233545,0.2850900818188377,0.7273635411558698
0.07050000000000001,1.7143890349361834,1.0,3077.040150169048,0.5476448245033831,1.2920179423830511,0.983315807976275,0.2850573394673197,0.7280788307601054
0.07100000000000001,1.7136094551381351,1.0,3080.731179057219,0.5501821656222166,1.2916342849283593,0.9834493711070257,0.2850245971158017,0.7287928694334329
