Time [s],Phi [rad],STIM [ ],Fsee [N],Gamma [ ],Lcerel [ ],q [ ],Lmtc [m],fisomrel [ ]
0.0,1.8,1.0,17.964972941215194,1.0004161976332323e-05,1.3793399910455988,0.005000026673891073,0.288653,0.5411389387548631
0.0005,1.79999375,1.0,18.274508323168845,0.005619157355334517,1.3793026361535035,0.012940530482858582,0.2886527375,0.5412293055070249
0.001,1.799975,1.0,21.616249673662505,0.011196847634198792,1.3789385198596527,0.03560861437101637,0.28865195,0.5421096880311723
0.0015,1.79994375,1.0,31.067032936991293,0.016743251481506446,1.37804639142607,0.07060176234750935,0.2886506375,0.5442631566636691
0.002,1.7999,1.0,53.57989368865788,0.022258544388538366,1.376368293496497,0.11471790583608465,0.2886488,0.5483000881713481
0.0025,1.79984375,1.0,97.11612173542821,0.027742900862492818,1.3739353029525778,0.16457474642179695,0.28864643749999996,0.5541211390489919
0.003,1.7997750000000001,1.0,160.9553747886652,0.033196494434193924,1.3712144482651474,0.2172802976795737,0.28864354999999997,0.5605862034413336
0.0035,1.79969375,1.0,237.680673484755,0.03861949765768836,1.3685848161086076,0.2706127282770389,0.2886401375,0.5667896471115559
0.004,1.7996,1.0,321.4642926228832,0.044012082121026454,1.3661561580480122,0.32291564303904174,0.2886362,0.5724798084295891
0.0045000000000000005,1.7994937500000001,1.0,409.2654605366535,0.04937441845144665,1.363922867927612,0.37303435471413626,0.2886317375,0.5776790376254524
0.005,1.799375,1.0,499.4113836133679,0.05470667630647717,1.361858387408466,0.42024731627961487,0.28862675,0.582456975325716
0.0055,1.79924375,1.0,590.7884408530489,0.06000902442132131,1.3599388736498423,0.4641735638347053,0.2886212375,0.5868750230729682
0.006,1.7991000000000001,1.0,682.516279978358,0.0652816305521921,1.3581464479819512,0.504679838163128,0.2886152,0.5909793424678302
0.006500000000000001,1.79894375,1.0,773.8633291285306,0.07052466130065276,1.356467559674276,0.5418008224001631,0.2886086375,0.5948050985327378
0.007,1.798775,1.0,864.2917131724391,0.07573828332350803,1.354890299660824,0.5756766026950815,0.28860155,0.5983828928783498
0.0075,1.79859375,1.0,953.256046107964,0.08092266084444424,1.3534065818424241,0.6065096887047382,0.2885939375,0.6017340175716007
0.008,1.7984,1.0,1040.3585099370073,0.08607795784950019,1.3520086455297475,0.6345319628471727,0.2885858,0.6048785506132416
0.0085,1.79819375,1.0,1125.3182162303685,0.09120433787326976,1.3506891850329845,0.6599843192911241,0.2885771375,0.6078351259595063
0.009000000000000001,1.797975,1.0,1207.883914018307,0.09630196295881216,1.3494422573145728,0.6831042424197782,0.28856795,0.6106189693969895
0.0095,1.79774375,1.0,1287.8723675225644,0.10137099428973333,1.348262386316842,0.7041175514854017,0.2885582375,0.6132439740972537
0.01,1.7975,1.0,1365.1608510432245,0.10641159251599615,1.3471444649432613,0.7232342084747265,0.288548,0.6157229606481402
0.0105,1.79724375,1.0,1439.661538502765,0.11142391712448571,1.3460839208639237,0.7406465936476517,0.2885372375,0.6180673460441755
0.011,1.796975,1.0,1511.3149675132597,0.11640812627508246,1.3450766421643863,0.7565291210448796,0.28852595000000003,0.6202873438538015
0.0115,1.79669375,1.0,1580.1018041056163,0.12136437753735967,1.344118712532821,0.7710386687175493,0.2885141375,0.6223925755253628
0.012,1.7964,1.0,1646.0521606345558,0.12629282892439675,1.343206221727624,0.7843155741424332,0.28850180000000003,0.624392504360488
0.0125,1.79609375,1.0,1709.1771775444045,0.13119363579400822,1.3423359980035572,0.7964852749960495,0.2884889375,0.626294848440397
0.013000000000000001,1.7957750000000001,1.0,1769.5006567382586,0.1360669525399213,1.3415051393323094,0.8076594864180101,0.28847555,0.6281066320459819
0.0135,1.79544375,1.0,1827.0781521952326,0.14091293355586326,1.3407107436855694,0.8179374931645497,0.2884616375,0.6298347867896245
0.014,1.7951000000000001,1.0,1881.9747998885457,0.14573173223132688,1.3399501210420577,0.8274075746399375,0.2884472,0.6314856989907217
0.0145,1.79474375,1.0,1934.2806468239737,0.1505235021997785,1.3392205851875423,0.8361481651469256,0.2884322375,0.633065671508359
0.015,1.794375,1.0,1984.0532352821426,0.15528839405967837,1.3385200413884089,0.8442291855384815,0.28841675,0.6345796606453762
0.0155,1.79399375,1.0,2031.3633885301188,0.1600265581400922,1.337846447076826,0.8517128516216935,0.2884007375,0.6360324559871344
0.016,1.7936,1.0,2076.29687387424,0.16473814462094796,1.3371977754222741,0.8586545716826309,0.2883842,0.6374287635531555
0.0165,1.7931937500000001,1.0,2118.9427108691116,0.1694233026643239,1.3365721204014467,0.8651037841217776,0.2883671375,0.6387729839555933
0.017,1.792775,1.0,2159.397169537943,0.17408218185653326,1.3359676366795334,0.8711046470822906,0.28834955,0.6400693466325543
0.0175,1.7923437500000001,1.0,2197.7283873020488,0.17871492829303826,1.3353828835093362,0.8766967538820735,0.2883314375,0.6413211780898056
0.018000000000000002,1.7919,1.0,2234.0139344811832,0.18332168806930121,1.3348164201436574,0.8819155568757702,0.2883128,0.6425317755171744
0.0185,1.79144375,1.0,2268.3400267149755,0.1879026072807843,1.3342668058352989,0.8867928511033053,0.2882936375,0.6437044085352889
0.019,1.790975,1.0,2300.7850043484846,0.19245783021863827,1.3337327560545646,0.8913572357352545,0.28827395,0.6448419883170422
0.0195,1.79049375,1.0,2331.4492099380145,0.19698750376883917,1.3332128366486609,0.8956344079451065,0.2882537375,0.6459477215961507
0.02,1.79,1.0,2360.4003224615626,0.20149177006693153,1.3327059970497608,0.8996476137656894,0.288233,0.6470239780839432
0.0205,1.78949375,1.0,2387.704942389915,0.20597077048942788,1.3322112464103713,0.9034178482967266,0.2882117375,0.648072983923685
0.021,1.788975,1.0,2413.434180690727,0.21042464641284075,1.3317275938829995,0.906964092323788,0.28818995000000003,0.6490969497978181
0.021500000000000002,1.78844375,1.0,2437.663280118668,0.21485353921368266,1.3312540486201527,0.9103035332095024,0.2881676375,0.6500980716605788
0.022,1.7879,1.0,2460.460960930669,0.21925758844496,1.3307897183577513,0.9134517782637088,0.2881448,0.6510783234336721
0.0225,1.78734375,1.0,2481.9048053806096,0.22363693603891832,1.3303336574367637,0.9164229951485594,0.28812143749999997,0.6520397792233765
0.023,1.786775,1.0,2502.0560334315383,0.2279917203006759,1.3298851046471285,0.9192301065733471,0.28809755,0.6529841126656668
0.0235,1.78619375,1.0,2520.968115763888,0.23232207750749076,1.3294433956282175,0.9218849030340405,0.28807313749999996,0.6539127840463961
0.024,1.7856,1.0,2538.6966541692755,0.23662814393662082,1.329007866019403,0.9243981419207865,0.2880482,0.6548272452084141
0.0245,1.78499375,1.0,2555.2992024831283,0.24091005586532413,1.328577851460057,0.9267796522701134,0.2880227375,0.6557289398274639
0.025,1.784375,1.0,2570.8350973031734,0.24516794957085866,1.3281526875895517,0.9290384276266462,0.28799675,0.65661930365993
0.025500000000000002,1.78374375,1.0,2585.3544167104064,0.24940195782881383,1.3277318116784365,0.9311827238367888,0.2879702375,0.6574995523404652
0.026000000000000002,1.7831000000000001,1.0,2598.9206627789295,0.25361221965088343,1.3273145486140228,0.9332201000547107,0.2879432,0.6583711296734647
0.0265,1.78244375,1.0,2611.5760098094347,0.25779886682856934,1.3269004340779385,0.9351575312913277,0.2879156375,0.6592350325244114
0.027,1.781775,1.0,2623.3607750895585,0.26196203014851815,1.3264890304060049,0.9370014370667534,0.28788755,0.6600921971446009
0.0275,1.7810937500000001,1.0,2634.3161815584544,0.26610184039737633,1.3260798999340428,0.9387577296423829,0.2878589375,0.6609435550350913
0.028,1.7804,1.0,2644.484278845785,0.2702184283617902,1.3256726049978735,0.9404318608124225,0.2878298,0.6617900330162597
0.0285,1.77969375,1.0,2653.907868558575,0.27431192482840644,1.3252667079333178,0.9420288638124964,0.2878001375,0.6626325532851458
0.029,1.778975,1.0,2662.6278187879793,0.2783824593886371,1.3248617951424253,0.9435533938332649,0.28776995,0.6634719835996202
0.029500000000000002,1.7782437500000001,1.0,2670.6783136373224,0.28243015915048664,1.3244575199561548,0.945009766866353,0.2877392375,0.664309048928257
0.03,1.7775,1.0,2678.108726134441,0.28645515933115984,1.324053400914378,0.9464019659128844,0.287708,0.665144749221382
0.0305,1.77674375,1.0,2684.945727607202,0.29045758459480087,1.3236491694513008,0.947733709109491,0.2876762375,0.6659796400302397
0.031,1.775975,1.0,2691.2163490785542,0.29443755960555384,1.3232445570011286,0.9490084480893681,0.28764395,0.6668142741363015
0.0315,1.7751937500000001,1.0,2696.947949121336,0.2983952090275629,1.322839294998067,0.9502293904072768,0.2876111375,0.667649201547038
0.032,1.7744,1.0,2702.168183312259,0.30233065752497207,1.3224331148763213,0.9513995198161537,0.2875778,0.668484969487095
0.0325,1.77359375,1.0,2706.9049752852966,0.3062440297619256,1.3220257480700977,0.9525216146242883,0.2875439375,0.6693221223848661
0.033,1.772775,1.0,2711.186489383796,0.31013545040256757,1.3216169260136015,0.9535982643353637,0.28750955,0.6701612018544694
0.0335,1.7719437500000002,1.0,2715.0406761600443,0.3140050436419591,1.3212063840485972,0.9546318850689539,0.2874746375,0.6710027386684472
0.034,1.7711000000000001,1.0,2718.4911205726394,0.3178529285398012,1.320793899006673,0.955624736232976,0.2874392,0.6718471758931648
0.0345,1.7702437500000001,1.0,2721.5671796940533,0.3216792346696224,1.3203791966072018,0.9565789266055716,0.2874032375,0.6726950586139155
0.035,1.7693750000000001,1.0,2724.2862232394236,0.3254840804839829,1.3199621130045878,0.9574964378607621,0.28736675,0.6735467035766562
0.035500000000000004,1.76849375,1.0,2726.665730172157,0.32926758443544285,1.3195424843532348,0.9583791252378242,0.2873297375,0.6744024256803656
0.036000000000000004,1.7676,1.0,2728.7232771439767,0.3330298649765625,1.319120146807547,0.9592287270586326,0.2872922,0.6752625379513062
0.0365,1.76669375,1.0,2730.476527531358,0.3367710405599019,1.3186949365219283,0.9600468734247548,0.2872541375,0.6761273515155743
0.037,1.765775,1.0,2731.9432210659465,0.3404912296380214,1.3182666896507826,0.9608350941734145,0.28721555,0.6769971755699375
0.0375,1.76484375,1.0,2733.1411640611705,0.34419055066348114,1.317835242348514,0.9615948261630387,0.2871764375,0.677872317350961
0.038,1.7639,1.0,2734.088220233492,0.3478691220888413,1.3174004307695266,0.9623274199516815,0.28713679999999997,0.6787530821024201
0.0385,1.76294375,1.0,2734.7871172422047,0.35152704385455585,1.3169622289593412,0.9630341552074386,0.28709663750000003,0.6796394943020605
0.039,1.761975,1.0,2735.275385820236,0.3551644589789769,1.3165202952725643,0.9637162157283761,0.28705595,0.680532215180385
0.0395,1.7609937500000001,1.0,2735.5631204503634,0.35878147913986097,1.3160745375435159,0.9643747333313419,0.2870147375,0.6814313989689176
0.04,1.76,1.0,2735.65983342787,0.36237821529236663,1.3156248691190213,0.9650107752783584,0.286973,0.682337187479594
0.0405,1.7589937500000001,1.0,2735.575058415872,0.36595477839165236,1.3151712033459066,0.9656253483056808,0.2869307375,0.6832497212420063
0.041,1.757975,1.0,2735.318347196449,0.3695112793928767,1.3147134535709974,0.9662194026886263,0.28688795,0.684169139481555
0.0415,1.75694375,1.0,2734.89926658789,0.37304782925119817,1.3142515331411198,0.9667938359925619,0.2868446375,0.6850955800971165
0.042,1.7559,1.0,2734.327395528782,0.3765645389217754,1.313785355403099,0.9673494965372781,0.28680079999999997,0.6860291796382363
0.0425,1.75484375,1.0,2733.612322328382,0.38006151935976673,1.3133148337037608,0.9678871865993733,0.2867564375,0.6869700732818391
0.043000000000000003,1.753775,1.0,2732.7636420830104,0.3835388815203309,1.3128398813899314,0.968407665374937,0.28671155,0.6879183948084621
0.043500000000000004,1.75269375,1.0,2731.7909542602374,0.38699673635862625,1.3123604118084362,0.9689116517227113,0.28666613750000003,0.6888742765780107
0.044,1.7516,1.0,2730.703860447683,0.3904351948298114,1.3118763383061012,0.969399826706044,0.2866202,0.689837849505033
0.0445,1.75049375,1.0,2729.5119622703264,0.39385436788904493,1.3113875742297518,0.9698728359502463,0.2865737375,0.6908092430335167
0.045,1.7493754664128747,1.0,2728.249707078387,0.3972543637158553,1.3108940176566783,0.970331290259479,0.28652676958934076,0.6917886153867634
0.0455,1.7482538811342199,1.0,2727.328325214197,0.4006352900781221,1.3103958729119396,0.9707757924037724,0.2864796630076372,0.6927755168342955
0.046,1.747132295855565,1.0,2726.8761581392328,0.40399725342239634,1.3098934623623197,0.971206923241376,0.28643255642593374,0.6937692665340993
0.0465,1.74601071057691,1.0,2726.860579847026,0.4073403588054217,1.3093870816475113,0.9716252323308581,0.2863854498442302,0.6947692401455237
0.047,1.7448891252982552,1.0,2727.249074942949,0.4106647112839418,1.308877026407207,0.9720312419538677,0.2863383432625267,0.6957748168298521
0.0475,1.7437675400196004,1.0,2728.009213589059,0.41397041591470024,1.3083635922810994,0.9724254487342482,0.28629123668082324,0.6967853793223721
0.048,1.7426459547409456,1.0,2729.1086283875634,0.4172575777544407,1.3078470749088813,0.9728083251466387,0.2862441300991197,0.69780031399887
0.0485,1.7415243694622908,1.0,2730.520455395968,0.4205262996781947,1.3073277202902212,0.9731803171957907,0.2861970235174162,0.6988191082309171
0.049,1.740402784183636,1.0,2732.214765247389,0.4237766869548115,1.306805802535925,0.9735418518779198,0.2861499169357127,0.6998411974817824
0.0495,1.739281198904981,1.0,2734.1618081815845,0.4270088453020476,1.306281594212406,0.9738933359965315,0.2861028103540092,0.7008660237458773
0.05,1.7381596136263262,1.0,2736.3448733421787,0.4302228750074397,1.3057552494708835,0.9742351487837809,0.2860557037723057,0.7018932634598145
0.0505,1.7370380283476714,1.0,2738.747254645579,0.43341887635852494,1.3052269224625779,0.9745676519761022,0.2860085971906022,0.7029225950383402
0.051000000000000004,1.7359164430690166,1.0,2741.352243743084,0.4365969496428401,1.3046967673387089,0.9748911907814312,0.2859614906088987,0.7039536988945814
0.051500000000000004,1.7347948577903618,1.0,2744.1431235086025,0.4397571951479221,1.3041649382504967,0.9752060947847708,0.2859143840271952,0.704986257458774
0.052000000000000005,1.733673272511707,1.0,2747.103162054564,0.4428997131613079,1.3036315893491612,0.9755126787965309,0.2858672774454917,0.7060199551954793
0.0525,1.732551687233052,1.0,2750.2156072742664,0.4460246039705343,1.3030968747859222,0.9758112436477283,0.2858201708637882,0.7070544786192826
0.053,1.7314301019543972,1.0,2753.467043739101,0.4491319654111923,1.3025609182875206,0.9761020747822375,0.2857730642820847,0.708089575015983
0.0535,1.7303085166757424,1.0,2756.843227522543,0.452221897874461,1.3020238508811355,0.9763854459244228,0.2857259577003812,0.709124979269546
0.054,1.7291869313970876,1.0,2760.330804470833,0.4552945011441287,1.3014857953110952,0.9766616184141621,0.2856788511186777,0.7101604439592998
0.0545,1.7280653461184328,1.0,2763.9217939018154,0.45834987059081816,1.300946825537737,0.9769308390347802,0.28563174453697415,0.7111958169603281
0.055,1.7269437608397777,1.0,2767.608199721571,0.4613881015851522,1.300407015521398,0.9771933441242228,0.28558463795527067,0.7122309471477248
0.0555,1.725822175561123,1.0,2771.382008985472,0.4644092894977536,1.299866439222416,0.9774493601061232,0.2855375313735672,0.7132656844007306
0.056,1.7247005902824681,1.0,2775.2351905811465,0.4674135296992451,1.299325170601128,0.9776991039896532,0.28549042479186365,0.7142998796065232
0.0565,1.7235790050038133,1.0,2779.159694032889,0.47040091756024943,1.2987832836178712,0.9779427838402291,0.28544331821016017,0.7153333846636567
0.057,1.7224574197251585,1.0,2783.1474484262662,0.47337154845138946,1.2982408522329831,0.9781805992230008,0.28539621162845663,0.7163660524851528
0.0575,1.7213358344465037,1.0,2787.194963040591,0.47632550973016863,1.2976979090152863,0.9784127385653151,0.28534910504675315,0.7173978155865
0.058,1.720214249167849,1.0,2791.2927709270807,0.479262901849523,1.2971545401723747,0.9786393868960627,0.28530199846504967,0.7184285052772466
0.0585,1.719092663889194,1.0,2795.431871772839,0.482183824999876,1.2966108274800265,0.9788607215986763,0.28525489188334613,0.7194579624413711
0.059000000000000004,1.717971078610539,1.0,2799.609168949483,0.4850883686442097,1.2960667994941464,0.9790769092126291,0.28520778530164265,0.7204861295832046
0.059500000000000004,1.7168494933318843,1.0,2803.8215570328543,0.4879766222455064,1.29552248477064,0.9792881097699412,0.2851606787199391,0.7215129496013613
0.06,1.7157279080532295,1.0,2808.065921613301,0.49084867526674836,1.2949779118654114,0.9794944771010681,0.2851135721382356,0.7225383657892908
0.0605,1.7146063227745747,1.0,2812.3391391223413,0.49370461717091785,1.2944331093343664,0.9796961591241287,0.28506646555653214,0.7235623218357687
0.061,1.7134847374959197,1.0,2816.6380766786806,0.496544537420997,1.2938881057334097,0.9798932981185006,0.2850193589748286,0.724584761825345
0.0615,1.7123631522172649,1.0,2820.959591952029,0.49936852547996824,1.293342929618446,0.9800860309837425,0.2849722523931251,0.7256056302387355
0.062,1.71124156693861,1.0,2825.3005330442425,0.5021766708108136,1.2927976095453808,0.9802744894847361,0.2849251458114216,0.7266248719531592
0.0625,1.7101199816599553,1.0,2829.6577383899034,0.5049690628765154,1.2922521740701187,0.9804588004838778,0.2848780392297181,0.7276424322426309
0.063,1.7089983963813005,1.0,2834.0280366735187,0.507745791140056,1.2917066517485647,0.9806390861610987,0.2848309326480146,0.7286582567781938
0.0635,1.7078768111026457,1.0,2838.408246765893,0.5105069450644176,1.2911610711366241,0.9808154642224362,0.28478382606631114,0.7296722916281049
0.064,1.7067552258239909,1.0,2842.798049973079,0.5132525989895647,1.290615435207669,0.9809880457159051,0.2847367194846076,0.7306845306730136
0.0645,1.7056336405453358,1.0,2847.194467305728,0.5159828488660646,1.2900697706020954,0.981156940428581,0.2846896129029041,0.7316949240524483
0.065,1.704512055266681,1.0,2851.593241594317,0.5186977967491395,1.289524115244881,0.9813222551992455,0.2846425063212006,0.7327034014402705
0.0655,1.7033904699880262,1.0,2855.9935554108283,0.5213975248286873,1.2889784763783427,0.9814840901741695,0.2845953997394971,0.7337099495856239
0.066,1.7022688847093714,1.0,2860.394588815847,0.5240821152946058,1.2884328612447975,0.9816425419797002,0.2845482931577936,0.7347145553384546
0.0665,1.7011472994307166,1.0,2864.79551936223,0.5267516503367928,1.2878872770865624,0.981797703871466,0.2845011865760901,0.7357172056495054
0.067,1.7000257141520616,1.0,2869.195522099597,0.5294062121451462,1.2873417311459545,0.981949665876236,0.2844540799943866,0.7367178875702998
0.0675,1.6989041288734068,1.0,2873.5937695795496,0.5320458829095637,1.2867962306652905,0.9820985149268487,0.28440697341268306,0.7377165882531298
0.068,1.697782543594752,1.0,2877.9894318626602,0.5346707448199431,1.2862507828868879,0.9822443349905926,0.2843598668309796,0.7387132949510324
0.0685,1.6966609583160972,1.0,2882.3816765262854,0.5372808800661826,1.285705395053063,0.9823872071913996,0.2843127602492761,0.7397079950177716
0.069,1.6955393730374424,1.0,2886.769668673338,0.5398763708381796,1.2851600744061333,0.9825272099261911,0.28426565366757256,0.7407006759078077
0.0695,1.6944177877587876,1.0,2891.152570943036,0.5424572993258321,1.2846148281884158,0.982664418975695,0.2842185470858691,0.741691325176271
0.07,1.6932962024801326,1.0,2895.529543521699,0.545023747719038,1.284069663642227,0.9827989076100313,0.28417144050416554,0.7426799304789284
0.07050000000000001,1.6921746172014778,1.0,2899.8997441558536,0.5475757982076951,1.2835245880098844,0.982930746689349,0.28412433392246206,0.743666479572147
0.07100000000000001,1.691053031922823,1.0,2904.262328165423,0.5501135329817012,1.2829796085337046,0.9830600047597747,0.2840772273407586,0.7446509603128548
0.07150000000000001,1.6899314466441682,1.0,2908.616448458652,0.552637034230954,1.282434732456005,0.983186748144926,0.2840301207590551,0.7456333606584977
0.07200000000000001,1.6888098613655134,1.0,2912.9612753734364,0.5551463836638245,1.2818899668446686,0.9833110409970981,0.28398301417735156,0.7466136689805856
