Time [s],Phi [rad],STIM [ ],Fsee [N],Gamma [ ],Lcerel [ ],q [ ],Lmtc [m],fisomrel [ ]
0.0,1.8,1.0,17.967565548464336,1.0017901467482045e-05,1.3793397005796968,0.005000026746898595,0.288653,0.5411396414671747
0.0005,1.79999375,1.0,18.27686582498713,0.005619171017757042,1.3793023742733672,0.012940563391029884,0.2886527375,0.5412299390005946
0.001,1.799975,1.0,21.618476142069984,0.01119686121998669,1.378938292453318,0.0356086689201655,0.28865195,0.5421102376038383
0.0015,1.79994375,1.0,31.069264736197958,0.016743264991087907,1.3780462012811145,0.07060183118677571,0.2886506375,0.5442636151049713
0.002,1.7999,1.0,53.58221130276317,0.022258557822342616,1.3763681431397627,0.1147179858043444,0.2886488,0.5483004490737471
0.0025,1.79984375,1.0,97.11845487431826,0.027742914220943576,1.3739351905232287,0.16457483649281254,0.28864643749999996,0.5541214071695049
0.003,1.7997750000000001,1.0,160.9575833169181,0.03319650771771456,1.3712143655973996,0.21728039549414452,0.28864354999999997,0.5605863991521688
0.0035,1.79969375,1.0,237.6826921972496,0.03861951086669966,1.3685847539267069,0.27061282992777913,0.2886401375,0.566789793280577
0.004,1.7996,1.0,321.4661213901759,0.04401209525594603,1.3661561096108337,0.3229157447682866,0.2886362,0.5724799215390918
0.0045000000000000005,1.7994937500000001,1.0,409.267119955792,0.04937443151268824,1.3639228289746503,0.37303445370878857,0.2886317375,0.5776791280328043
0.005,1.799375,1.0,499.41288396893015,0.05470668929443662,1.361858355525991,0.420247410857732,0.28862675,0.5824570489031423
0.0055,1.79924375,1.0,590.7898174821852,0.06000903733645847,1.359938846753818,0.4641736527132965,0.2886212375,0.5868750848135571
0.006,1.7991000000000001,1.0,682.5175256451356,0.06528164339489743,1.3581464253390247,0.5046799211157155,0.2886152,0.5909793941864745
0.006500000000000001,1.79894375,1.0,773.8807752218706,0.0705246743024092,1.3564672618562448,0.5418007230299805,0.2886086375,0.5948057755890033
0.007,1.798775,1.0,864.2852900841513,0.07573829595175192,1.35489040341412,0.5756767488207396,0.28860155,0.5983826580502651
0.0075,1.79859375,1.0,953.242795627221,0.08092267330552173,1.3534067856478484,0.6065098871589043,0.2885939375,0.601733558220841
0.008,1.7984,1.0,1040.3442790151855,0.08607796999276866,1.3520088550521108,0.6345321533466449,0.2885858,0.6048780802452235
0.0085,1.79819375,1.0,1125.3143669268534,0.09120435012402942,1.3506892395249197,0.6599844108094741,0.2885771375,0.6078350040862037
0.009000000000000001,1.797975,1.0,1207.9000899453445,0.09630197563434141,1.3494420362890103,0.6831041751653304,0.28856795,0.6106194619712693
0.0095,1.79774375,1.0,1287.8920688716896,0.10137100704582316,1.3482621256142964,0.7041174628285817,0.2885582375,0.6132445531333293
0.01,1.7975,1.0,1365.166855420425,0.10641160488059324,1.3471443877706928,0.7232342146444992,0.288548,0.6157231315029046
0.0105,1.79724375,1.0,1439.6592758273373,0.11142392909240435,1.346083949183034,0.7406466488013909,0.2885372375,0.6180672835391425
0.011,1.796975,1.0,1511.3221614559156,0.1164081384480593,1.3450765542871599,0.7565291172902852,0.28852595000000003,0.620287537249046
0.0115,1.79669375,1.0,1580.1208598827577,0.12136439012529354,1.344118484881487,0.7710386006205577,0.2885141375,0.622393075136702
0.012,1.7964,1.0,1646.0568502236329,0.1262928407625367,1.3432061668367603,0.7843155815207945,0.28850180000000003,0.6243926245064345
0.0125,1.79609375,1.0,1709.1738369852844,0.1311936472175925,1.3423360363754488,0.7964853192762955,0.2884889375,0.6262947646643731
0.013000000000000001,1.7957750000000001,1.0,1769.5066769148552,0.13606696435122995,1.3415050713695702,0.8076594857353814,0.28847555,0.6281067800665331
0.0135,1.79544375,1.0,1827.091689007663,0.1409129456165991,1.3407105932936778,0.8179374601274702,0.2884616375,0.6298351135761163
0.014,1.7951000000000001,1.0,1881.9928346799545,0.14573174446685006,1.3399499236223251,0.8274075249420922,0.2884472,0.6314861270062988
0.0145,1.79474375,1.0,1934.2788433070182,0.15052351332202799,1.3392206046612196,0.8361481922587746,0.2884322375,0.6330656293790706
0.015,1.794375,1.0,1984.050712220183,0.15528840520522044,1.3385200682875724,0.8442292135633453,0.28841675,0.634579602571994
0.0155,1.79399375,1.0,2031.3710423098646,0.16002656983991423,1.3378463664333724,0.85171284338407,0.2884007375,0.6360326297441565
0.016,1.7936,1.0,2076.3113887714994,0.1647381565768013,1.3371976241512107,0.8586545412141185,0.2883842,0.637429088860902
0.0165,1.7931937500000001,1.0,2118.957629656924,0.16942331476657363,1.3365719664936775,0.8651037537341036,0.2883671375,0.6387733143194478
0.017,1.792775,1.0,2159.3908222000236,0.17408219251525625,1.3359677015449265,0.8711046798267188,0.28834955,0.6400692076486582
0.0175,1.7923437500000001,1.0,2197.7181933792294,0.17871493887454012,1.335382986771736,0.8766967958473735,0.2883314375,0.6413209572196097
0.018000000000000002,1.7919,1.0,2234.0108940059863,0.18332169930473755,1.3348164506918871,0.881915577914149,0.2883128,0.6425317102872676
0.0185,1.79144375,1.0,2268.343143011824,0.18790261888570856,1.3342667747631014,0.8867928552736377,0.2882936375,0.6437044747751086
0.019,1.790975,1.0,2300.796681908208,0.1924578426973133,1.3337326404430994,0.8913572188901111,0.28827395,0.644842234384174
0.0195,1.79049375,1.0,2331.451672304635,0.19698751471525258,1.3332128124312894,0.8956344123508498,0.2882537375,0.6459477730600458
0.02,1.79,1.0,2360.397057667919,0.20149178000274637,1.332706028961497,0.8996476301866413,0.288233,0.6470239103720394
0.0205,1.78949375,1.0,2387.704269743425,0.2059707806509465,1.3322112529474537,0.9034178583641662,0.2882117375,0.6480729700736063
0.021,1.788975,1.0,2413.43859594827,0.21042465725396609,1.3317275512028934,0.9069640915263333,0.28818995000000003,0.6490970400922568
0.021500000000000002,1.78844375,1.0,2437.6693184357,0.21485355040591814,1.3312539905415495,0.9103035292265333,0.2881676375,0.6500981943568209
0.022,1.7879,1.0,2460.4693778217907,0.21925760070091568,1.3307896377771549,0.9134517703297185,0.2881448,0.6510784934287586
0.0225,1.78734375,1.0,2481.9021747630386,0.2236369463385962,1.3303336825124394,0.9164230072188073,0.28812143749999997,0.652039726395953
0.023,1.786775,1.0,2502.048155145995,0.22799172954529534,1.3298851794418454,0.9192301271637314,0.28809755,0.6529839553081043
0.0235,1.78619375,1.0,2520.962451658696,0.23232208702288915,1.3294434491998963,0.9218849190501655,0.28807313749999996,0.6539126714900362
0.024,1.7856,1.0,2538.6967477159706,0.23662815433196419,1.329007865137724,0.9243981478723566,0.2880482,0.6548272470584096
0.0245,1.78499375,1.0,2555.304615699809,0.24091006703310702,1.32857780060646,0.926779649455869,0.2880227375,0.6557290463922879
0.025,1.784375,1.0,2570.8413574864016,0.2451679606869042,1.3281526289572358,0.9290384234071464,0.28799675,0.6566194263662459
0.025500000000000002,1.78374375,1.0,2585.363853680383,0.24940197085394228,1.3277317235411832,0.9311827156341876,0.2879702375,0.6574997365584359
0.026000000000000002,1.7831000000000001,1.0,2598.919127589881,0.25361222948610285,1.3273145629145746,0.9332201072141568,0.2879432,0.6583710998215593
0.0265,1.78244375,1.0,2611.570171541048,0.25779887492620374,1.3269004883305116,0.9351575437489286,0.2879156375,0.6592349194173248
0.027,1.781775,1.0,2623.3575116283946,0.26196203831877257,1.3264890606637774,0.937001445438707,0.28788755,0.6600921341418504
0.0275,1.7810937500000001,1.0,2634.319094694836,0.2661018496543975,1.3260798729806076,0.9387577295416274,0.2878589375,0.6609436110872157
0.028,1.7804,1.0,2644.4936621382535,0.27021843892366665,1.3256725183472384,0.9404318523772734,0.2878298,0.661790212989055
0.0285,1.77969375,1.0,2653.920680605274,0.27431193611716825,1.3252665898299054,0.9420288512818141,0.2878001375,0.6626327982794136
0.029,1.778975,1.0,2662.640276355696,0.27838247122549054,1.3248616804948448,0.9435533822382671,0.28776995,0.6634722211290351
0.029500000000000002,1.7782437500000001,1.0,2670.6930037748966,0.28243017411591004,1.3244573849660752,0.9450097538431833,0.2877392375,0.6643093282556635
0.03,1.7775,1.0,2678.110568703939,0.2864551674007313,1.3240533840061899,0.9464019664953434,0.287708,0.6651447841649771
0.0305,1.77674375,1.0,2684.9417017667433,0.29045758967364543,1.323649206347051,0.9477337156587924,0.2876762375,0.6659795638741197
0.031,1.775975,1.0,2691.211718338228,0.2944375645781013,1.3232445993911548,0.9490084551332912,0.28764395,0.6668141867488899
0.0315,1.7751937500000001,1.0,2696.94624938426,0.2983952157575477,1.3228393105409977,0.9502293944730578,0.2876111375,0.6676491695453229
0.032,1.7744,1.0,2702.1712129576745,0.30233066685543364,1.322433087199076,0.9513995192772244,0.2875778,0.6684850264007434
0.0325,1.77359375,1.0,2706.9127871091187,0.3062440415152079,1.3220256767678864,0.9525216095597414,0.2875439375,0.6693222688207422
0.033,1.772775,1.0,2711.197384212463,0.3101354633803194,1.321616826649925,0.9535982564011082,0.28750955,0.6701614056620919
0.0335,1.7719437500000002,1.0,2715.0516267048492,0.3140050560942171,1.3212062842476884,0.9546318770609882,0.2874746375,0.6710029431115856
0.034,1.7711000000000001,1.0,2718.502324241065,0.3178529433003498,1.3207937969636732,0.9556247287103481,0.2874392,0.6718473846608088
0.0345,1.7702437500000001,1.0,2721.570197331587,0.3216792435336643,1.3203791691380784,0.9565789258666678,0.2874032375,0.6726951147397786
0.035,1.7693750000000001,1.0,2724.2784989883558,0.32548408037690946,1.3199621832823139,0.9574964454027189,0.28736675,0.6735465601696907
0.035500000000000004,1.76849375,1.0,2726.655571607768,0.32926758198365047,1.3195425767388107,0.958379134400916,0.2873297375,0.6744022374079122
0.036000000000000004,1.7676,1.0,2728.716624061337,0.3330298648711626,1.3191202072901975,0.9592287332970874,0.2872922,0.6752624148567008
0.0365,1.76669375,1.0,2730.476945976233,0.3367710455567211,1.3186949327191029,0.960046874171934,0.2872541375,0.6761273592447912
0.037,1.765775,1.0,2731.9518988709165,0.3404912405576014,1.318266610808156,0.9608350887167689,0.28721555,0.6769973356016894
0.0375,1.76484375,1.0,2733.156907739836,0.3441905663910786,1.3178350993399854,0.9615948155281566,0.2871764375,0.6778726072306811
0.038,1.7639,1.0,2734.1074530860965,0.34786913957442805,1.3174002560972198,0.9623274067947902,0.28713679999999997,0.6787534356805462
0.0385,1.76294375,1.0,2734.819063402833,0.35152707662492505,1.3169619388624878,0.9630341344333603,0.28709663750000003,0.6796400807159839
0.039,1.761975,1.0,2735.3073081025227,0.35516449405984485,1.3165200054184185,0.9637161957243264,0.28705595,0.6805328002867485
0.0395,1.7609937500000001,1.0,2735.587790895884,0.3587815083964627,1.3160743135476407,0.9643747184933184,0.2870147375,0.6814318504954966
0.04,1.76,1.0,2735.676128885239,0.3623782359484535,1.315624721166545,0.965010765853483,0.286973,0.6823374852950914
0.0405,1.7589937500000001,1.0,2735.58488886173,0.3659547898808524,1.315171114090222,0.9656253425160235,0.2869307375,0.6832499006477304
0.041,1.757975,1.0,2735.3228084214174,0.3695112824120092,1.314713413063316,0.9662193997086963,0.28688795,0.684169220784562
0.0415,1.75694375,1.0,2734.89880263061,0.3730478255876606,1.3142515373541517,0.9667938357238983,0.2868446375,0.6850955716535466
0.042,1.7559,1.0,2734.3209097826743,0.3765645314130137,1.3137854143040522,0.9673495002262729,0.28680079999999997,0.6860290617666911
0.0425,1.75484375,1.0,2733.605671503273,0.3800615114150899,1.3133148941117956,0.9678871902960169,0.2867564375,0.6869699525756197
0.043000000000000003,1.7537752712212793,1.0,2732.777385641855,0.3835388763091923,1.3128398790279796,0.9684076643548467,0.2867115613912937,0.6879183995209155
0.043500000000000004,1.7527028751667437,1.0,2732.2271919139744,0.38699673574320387,1.3123605694373028,0.9689116642560368,0.2866665207570032,0.688873962566339
0.044,1.7516304791122084,1.0,2732.127031196484,0.3904351992002655,1.3118771715186337,0.9693998931277411,0.28662148012271277,0.6898361922370432
0.0445,1.7505580830576728,1.0,2732.4397811674753,0.39385437586331834,1.3113900222923354,0.9698730275064945,0.28657643948842226,0.6908043814310552
0.045,1.7494856870031374,1.0,2733.131200733419,0.39725437363866906,1.3108994334331978,0.9703317067800008,0.28653139885413176,0.691777877203178
0.0455,1.7484132909486019,1.0,2734.170579466285,0.40063529993717073,1.3104056851531487,0.9707765351577782,0.28648635821984125,0.6927560925529475
0.046,1.7473408948940663,1.0,2735.5283302662715,0.4039972618706147,1.3099090478917943,0.9712080854887608,0.2864413175855508,0.6937384631211785
0.0465,1.746268498839531,1.0,2737.1768821452033,0.4073403661347501,1.3094097740571622,0.9716269005432072,0.2863962769512603,0.6947244633861476
0.047,1.7451961027849954,1.0,2739.09296205889,0.41066471809655125,1.3089080772026749,0.9720334931973583,0.2863512363169698,0.6957136474456195
0.0475,1.74412370673046,1.0,2741.2552705511584,0.4139704221689704,1.3084041530583028,0.9724283497869927,0.28630619568267934,0.6967056070675731
0.048,1.7430513106759244,1.0,2743.6481554112897,0.4172575797858578,1.3078981461639203,0.9728119290682458,0.28626115504838884,0.6977000369541492
0.0485,1.7419789146213889,1.0,2746.235570649604,0.420526304098292,1.307390385887034,0.9731846821129122,0.28621611441409833,0.6986962712507028
0.049,1.7409065185668535,1.0,2749.0049416218812,0.4237766960371113,1.3068809885973667,0.9735470223489499,0.2861710737798078,0.6996940651706087
0.0495,1.739834122512318,1.0,2751.9436864899776,0.42700885653315424,1.3063700706646415,0.9738993437760124,0.2861260331455173,0.7006931753856587
0.05,1.7387617264577826,1.0,2755.0392121485665,0.43022288651725915,1.3058577484585814,0.9742420220574727,0.2860809925112269,0.7016933600377779
0.0505,1.737689330403247,1.0,2758.278910451596,0.43341888692026453,1.3053441383489093,0.9745754155416461,0.28603595187693637,0.7026943787498794
0.051000000000000004,1.7366169343487114,1.0,2761.6501547394555,0.43659695867300874,1.3048293567053484,0.9748998662173987,0.28599091124264586,0.703695992635853
0.051500000000000004,1.735544538294176,1.0,2765.14029666619,0.4397572027063303,1.3043135198976215,0.9752157006088987,0.2859458706083554,0.7046979643096938
0.052000000000000005,1.7344721422396405,1.0,2768.7366633267866,0.4428997199510675,1.3037967442954514,0.9755232306138848,0.2859008299740649,0.7057000578937631
0.0525,1.7333997461851052,1.0,2772.4279414247053,0.44602460984448145,1.303279133761587,0.9758227533425716,0.2858557893397744,0.7067020632169051
0.053,1.7323273501305696,1.0,2776.2067756865717,0.44913196961745633,1.3027607562547492,0.976114550380678,0.28581074870548395,0.7077038407909833
0.0535,1.731254954076034,1.0,2780.059749075703,0.45222190410563234,1.3022417341819073,0.9763988951961031,0.2857657080711934,0.7087051470622237
0.054,1.7301825580214987,1.0,2783.981398666994,0.4552945087671984,1.301722118050197,0.9766760441193937,0.28572066743690294,0.709705878441655
0.0545,1.729110161966963,1.0,2787.9662482052777,0.45834987906034347,1.3012019583667538,0.9769462425388152,0.28567562680261244,0.7107059320026541
0.055,1.7280377659124277,1.0,2792.008807469194,0.4613881104432565,1.3006813056387134,0.9772097254606577,0.28563058616832193,0.7117052054827762
0.0555,1.7269653698578922,1.0,2796.1035716905253,0.4644092983741265,1.3001602103732115,0.9774667180363521,0.2855855455340315,0.7127035972854254
0.056,1.7258929738033566,1.0,2800.245021030289,0.4674135383111423,1.2996387230773834,0.9777174360586312,0.285540504899741,0.7137010064813621
0.0565,1.7248205777488212,1.0,2804.4276201115194,0.470400925712493,1.2991168942583649,0.977962086428784,0.28549546426545047,0.7146973328100452
0.057,1.7237481816942857,1.0,2808.645817608679,0.47337155603636744,1.2985947744232915,0.978200867596917,0.28545042363116,0.7156924766808153
0.0575,1.72267578563975,1.0,2812.896246635095,0.4763255186879832,1.298072394374149,0.9784339683264935,0.2854053829968695,0.7166863766328502
0.058,1.7216033895852147,1.0,2817.1759202008334,0.47926290476616923,1.297549781425281,0.978661569767241,0.285360342362579,0.717678978232677
0.0585,1.7205309935306792,1.0,2821.475452765377,0.48218382463100845,1.2970270200161211,0.9788838506834497,0.2853153017282885,0.7186701191975216
0.059000000000000004,1.7194585974761436,1.0,2825.792979629884,0.4850883672655131,1.2965041271440012,0.9791009772472229,0.285270261093998,0.7196597659010651
0.059500000000000004,1.7183862014216083,1.0,2830.1266304048827,0.4879766216526954,1.2959811198062539,0.9793131091390466,0.28522522045970755,0.7206478849433546
0.06,1.7173138053670727,1.0,2834.4745289632638,0.49084867677556754,1.2954580150002108,0.9795203998526026,0.28518017982541705,0.7216344431509413
0.0605,1.7162414093125373,1.0,2838.8347934011485,0.49370462161714185,1.2949348297232044,0.979722996982996,0.28513513919112654,0.7226194075769912
0.061,1.7151690132580018,1.0,2843.205536003758,0.49654454516043056,1.294411580972567,0.9799210424994108,0.2850900985568361,0.7236027455013829
0.0615,1.7140966172034662,1.0,2847.584863218489,0.4993685363884458,1.2938882857456302,0.9801146730031562,0.2850450579225456,0.7245844244307871
0.062,1.7130242211489308,1.0,2851.970875634198,0.5021766842841999,1.2933649610397266,0.9803040199719883,0.2850000172882551,0.7255644120987235
0.0625,1.7119518250943953,1.0,2856.361667967091,0.504969077830705,1.2928416238521883,0.9804892099915343,0.28495497665396463,0.7265426764656042
0.063,1.71087942903986,1.0,2860.755329052278,0.5077458060109735,1.2923182911803472,0.9806703649745936,0.2849099360196741,0.7275191857187555
0.0635,1.7098070329853243,1.0,2865.1499418427766,0.5105069578080175,1.2917949800215358,0.9808476023690367,0.2848648953853836,0.728493908272422
0.064,1.7087346369307888,1.0,2869.5435834143163,0.5132526222048491,1.291271707373086,0.9810210353549725,0.2848198547510931,0.7294668127677533
0.0645,1.7076622408762534,1.0,2873.9344857532237,0.5159828865668852,1.2907484888081264,0.9811907728456606,0.2847748141168026,0.7304378707136185
0.065,1.7065898448217178,1.0,2878.324862831399,0.5186978045294877,1.2902253046057555,0.9813569157475186,0.28472977348251216,0.7314071191533689
0.0655,1.7055174487671825,1.0,2882.70923674932,0.5213975119754385,1.289702203138165,0.981519570461635,0.28468473284822166,0.7323744690589711
0.066,1.704445052712647,1.0,2887.087240170656,0.5240820899214722,1.2891791874632221,0.9816788336300422,0.28463969221393115,0.7333399156189753
0.0665,1.7033726566581113,1.0,2891.4585047571727,0.5267516193843232,1.288656260638793,0.981834798524606,0.2845946515796407,0.7343034540625931
0.067,1.702300260603576,1.0,2895.822661174283,0.529406181380726,1.2881334257227448,0.9819875551887043,0.2845496109453502,0.7352650796596796
0.0675,1.7012278645490404,1.0,2900.1793390979856,0.532045856927415,1.2876106857729441,0.9821371905719887,0.2845045703110597,0.7362247877207169
0.068,1.700155468494505,1.0,2904.528167220622,0.5346707270411247,1.2870880438472576,0.9822837886586115,0.28445952967676924,0.7371825735967956
0.0685,1.6990830724399695,1.0,2908.868773257357,0.5372808727385896,1.286565503003552,0.9824274305892802,0.28441448904247874,0.7381384326795957
0.069,1.698010676385434,1.0,2913.200783953396,0.5398763750365441,1.2860430662996944,0.9825681947774755,0.28436944840818823,0.7390923604013667
0.0695,1.6969382803308986,1.0,2917.523825090504,0.5424573149517227,1.2855207367935513,0.9827061570201512,0.2843244077738977,0.7400443522349095
0.07,1.695865884276363,1.0,2921.837521494476,0.5450237735008597,1.2849985175429894,0.982841390603213,0.2842793671396072,0.7409944036935534
0.07050000000000001,1.6947934882218274,1.0,2926.141497042336,0.5475758317006899,1.2844764116058756,0.9829739664020569,0.28423432650531677,0.7419425103311368
0.07100000000000001,1.693721092167292,1.0,2930.4353746697147,0.5501135705679474,1.2839544220400765,0.9831039529774308,0.28418928587102626,0.7428886677419839
0.07150000000000001,1.6926486961127565,1.0,2934.718776379245,0.552637071119367,1.2834325519034588,0.9832314166668643,0.28414424523673576,0.7438328715608837
0.07200000000000001,1.6915763000582211,1.0,2938.9913232479776,0.5551464143716829,1.2829108042538895,0.9833564216719042,0.2840992046024453,0.7447751174630659
