Time [s],Phi [rad],STIM [ ],Fsee [N],Gamma [ ],Lcerel [ ],q [ ],Lmtc [m],fisomrel [ ]
0.0,1.8,1.0,19.301504199276376,0.0011799272753248767,1.3791929318501743,0.005357082949505561,0.288653,0.5414946442438426
0.0005,1.79999375,1.0,19.94815678370991,0.006782518125208899,1.3791207874145326,0.016504621815828655,0.2886527375,0.5416690961421708
0.001,1.799975,1.0,24.163311397031762,0.012353682870301133,1.3786856050414689,0.04196221381965283,0.28865195,0.5427207032346195
0.0015,1.79994375,1.0,35.62253883074168,0.017893597786265286,1.3776715360200866,0.07912867403250322,0.2886506375,0.5451664887762386
0.002,1.7999,1.0,62.04255800526704,0.023402438159944257,1.3758393858945752,0.12470730951103574,0.2886488,0.5495687372780249
0.0025,1.79984375,1.0,110.2107785813559,0.02888037829485913,1.3733242405663657,0.1753730525521103,0.28864643749999996,0.5555772047370737
0.003,1.7997750000000001,1.0,177.29299321059307,0.03432759151710067,1.3706176878202478,0.22837487094955183,0.28864354999999997,0.5619978618455783
0.0035,1.79969375,1.0,255.76464333903192,0.039744250179070496,1.368037989569399,0.28161534033221547,0.2886401375,0.5680741015105706
0.004,1.7996,1.0,340.4846668930783,0.04513052566604119,1.365659618302303,0.33354632082215413,0.2886362,0.5736385317060396
0.0045000000000000005,1.7994937500000001,1.0,428.8167223530235,0.05048658841813111,1.3634692779879938,0.38310977406556423,0.2886317375,0.57873113507298
0.005,1.799375,1.0,519.2431430901134,0.05581260785424444,1.3614410659257044,0.42966304580437453,0.28862675,0.5834195021125339
0.0055,1.79924375,1.0,610.7259873377973,0.06110875262003028,1.3595525737966216,0.472883909089801,0.2886212375,0.5877613095542887
0.006,1.7991000000000001,1.0,702.3918684139543,0.06637519009879254,1.3577877548443216,0.5126803886767326,0.2886152,0.5917982222049096
0.006500000000000001,1.79894375,1.0,793.5825895668198,0.0716120871047143,1.3561330525986741,0.5491132299126751,0.2886086375,0.5955652067817284
0.007,1.798775,1.0,883.7055823280361,0.07681960919304817,1.3545784460387322,0.5823393179171724,0.28860155,0.5990884107294575
0.0075,1.79859375,1.0,972.3040175749823,0.08199792124813894,1.3531150554454412,0.6125688636434222,0.2885939375,0.6023908087301115
0.008,1.7984,1.0,1058.9944722591595,0.08714718710574472,1.351735486384911,0.6400371974589332,0.2885858,0.6054915421478639
0.0085,1.79819375,1.0,1143.4689756154871,0.09226756940237837,1.3504332653027733,0.6649856980732105,0.2885771375,0.6084072913559826
0.009000000000000001,1.797975,1.0,1225.519582713119,0.09735923064794434,1.3492021584562706,0.687649694975629,0.28856795,0.6111538664843167
0.0095,1.79774375,1.0,1304.972542579775,0.10242233192023213,1.3480368497198287,0.7082520166021964,0.2885582375,0.6137447424652339
0.01,1.7975,1.0,1381.6905927878254,0.10745703286756486,1.3469326518395814,0.7269992254411645,0.288548,0.6161917572945019
0.0105,1.79724375,1.0,1455.6008378258305,0.11246349283217695,1.3458849775792303,0.744079895319237,0.2885372375,0.6185063210619113
0.011,1.796975,1.0,1526.6801870792497,0.11744187095782167,1.3448894235628974,0.7596645716347022,0.28852595000000003,0.6206992522782282
0.0115,1.79669375,1.0,1594.9082465610086,0.1223923246059252,1.3439422381273738,0.7739066855447918,0.2885141375,0.6227797730610105
0.012,1.7964,1.0,1660.2750810107946,0.12731500973891663,1.3430401027530834,0.7869435608274991,0.28850180000000003,0.6247560200993432
0.0125,1.79609375,1.0,1722.8111774051886,0.13221008231133224,1.3421796999336353,0.7988975683814524,0.2884889375,0.626636010693008
0.013000000000000001,1.7957750000000001,1.0,1782.5690854684087,0.1370776971918954,1.3413578790114729,0.8098776227431441,0.28847555,0.6284272909336374
0.0135,1.79544375,1.0,1839.6121785175044,0.14191800948835112,1.340571730339813,0.8199806049487219,0.2884616375,0.6301367872874544
0.014,1.7951000000000001,1.0,1893.9862269050661,0.14673117124282378,1.339818845512027,0.8292927603783381,0.2884472,0.6317702558509986
0.0145,1.79474375,1.0,1945.7602642577565,0.15151733449743748,1.3390968161214862,0.837890716231186,0.2884322375,0.633333384235558
0.015,1.794375,1.0,1995.0143133079532,0.15627665051707967,1.3384033428541782,0.8458426310065241,0.28841675,0.634831561049482
0.0155,1.79399375,1.0,2041.8418802398317,0.16100927115066752,1.3377361831738852,0.8532091708588919,0.2884007375,0.6362699954564282
0.016,1.7936,1.0,2086.3282819967126,0.16571534669866742,1.3370933560835014,0.8600444553025712,0.2883842,0.6376532821567658
0.0165,1.7931937500000001,1.0,2128.5387399544366,0.1703950246724213,1.3364732358465194,0.8663968547941903,0.2883671375,0.6389852090528461
0.017,1.792775,1.0,2168.5503280817293,0.175048452583271,1.3358741967264318,0.8723095653647791,0.28834955,0.6402695279763208
0.0175,1.7923437500000001,1.0,2206.45098029069,0.17967577794255843,1.3352946129867314,0.8778212197478856,0.2883314375,0.641509956958157
0.018000000000000002,1.7919,1.0,2242.3284298993053,0.18427714717591817,1.3347329604447005,0.8829664496063334,0.2883128,0.6427099655354802
0.0185,1.79144375,1.0,2276.2767914369,0.18885270743944713,1.3341877384436627,0.8877763321092162,0.2882936375,0.6438729447509889
0.019,1.790975,1.0,2308.3737401923604,0.19340260334379872,1.3336576869689711,0.8922788517717851,0.28827395,0.6450017472146559
0.0195,1.79049375,1.0,2338.687404791296,0.1979269776049679,1.3331417041631701,0.896499232006915,0.2882537375,0.6460988678165142
0.02,1.79,1.0,2367.291516191883,0.20242597293894973,1.3326386881688028,0.900460210590137,0.288233,0.6471667829506951
0.0205,1.78949375,1.0,2394.2649395375342,0.20689973206173923,1.3321475371284133,0.9041823181436371,0.2882117375,0.6482079514653358
0.021,1.788975,1.0,2419.679670884275,0.2113483959670875,1.3316672608046853,0.9076841457004156,0.28818995000000003,0.6492245794334084
0.021500000000000002,1.78844375,1.0,2443.620994719528,0.21577210795628668,1.3311967802133498,0.9109825161450684,0.2881676375,0.6502190458428256
0.022,1.7879,1.0,2466.1538368766574,0.22017100762827563,1.3307352480454775,0.914092737663091,0.2881448,0.6511932260851291
0.0225,1.78734375,1.0,2487.334584434989,0.22454523272331428,1.3302819277749682,0.9170287404015596,0.28812143749999997,0.6521487505907229
0.023,1.786775,1.0,2507.2222683101677,0.22889492098166245,1.3298360828757214,0.9198032003647268,0.28809755,0.6530872399017865
0.0235,1.78619375,1.0,2525.878342983909,0.23322021014358002,1.3293969768216367,0.9224276696738698,0.28807313749999996,0.6540103050407083
0.024,1.7856,1.0,2543.3664304311988,0.23752123793646915,1.328963873536995,0.9249126918142702,0.2880482,0.6549195468990303
0.0245,1.78499375,1.0,2559.7397745227054,0.2417981385966753,1.3285361533027749,0.9272679222375515,0.2880227375,0.655816313689463
0.025,1.784375,1.0,2575.0712424352355,0.24605105230213054,1.3281130285397378,0.9295021723210527,0.28799675,0.6567022975206671
0.025500000000000002,1.78374375,1.0,2589.403555336314,0.2502801114763671,1.3276940092209646,0.9316235642802599,0.2879702375,0.657578559696079
0.026000000000000002,1.7831000000000001,1.0,2602.780670573461,0.25448544854291716,1.3272786053195365,0.9336395518168427,0.2879432,0.6584461559314385
0.0265,1.78244375,1.0,2615.247678399265,0.2586671959253128,1.3268663268085346,0.9355569841533087,0.2879156375,0.6593061364754347
0.027,1.781775,1.0,2626.8507040208997,0.2628254860470863,1.3264566836610396,0.9373821631538233,0.28788755,0.660159546215038
0.0275,1.7810937500000001,1.0,2637.6368149729,0.2669604513317698,1.3260491858501329,0.9391208943519035,0.2878589375,0.6610074247655151
0.028,1.7804,1.0,2647.643849548993,0.2710722201339615,1.3256434364171228,0.9407785446040785,0.2878298,0.661850613260355
0.0285,1.77969375,1.0,2656.924738639319,0.27516092823481597,1.3252389058273129,0.9423600538236692,0.2878001375,0.6626902236487637
0.029,1.778975,1.0,2665.515052600514,0.27922670439580055,1.3248352309623193,0.9438700098451688,0.28776995,0.6635270176200788
0.029500000000000002,1.7782437500000001,1.0,2673.4458070829724,0.28326967523746505,1.3244320955555322,0.9453126645438699,0.2877392375,0.6643616561653254
0.03,1.7775,1.0,2680.7484855018174,0.2872899673803592,1.3240291833403421,0.9466919575367635,0.287708,0.6651947970146395
0.0305,1.77674375,1.0,2687.454996778761,0.29128770744503296,1.3236261780501395,0.948011543071547,0.2876762375,0.6660270946449599
0.031,1.775975,1.0,2693.597635301326,0.295263022052036,1.3232227634183145,0.9492748142829038,0.28764395,0.6668592002813403
0.0315,1.7751937500000001,1.0,2699.209043099706,0.2992160378219181,1.322818623178258,0.9504849251023609,0.2876111375,0.6676917618918812
0.032,1.7744,1.0,2704.32621959094,0.3031468780431862,1.322413404121902,0.9516448045756607,0.2875778,0.6685255001356094
0.0325,1.7735981538825705,1.0,2709.184443099032,0.30705566787489513,1.3220069355024935,0.9527572030811507,0.28754412246306793,0.6693607572968527
0.033,1.772796146597389,1.0,2714.153476510834,0.3109425384619833,1.3215994237661384,0.9538247299813404,0.2875104381570903,0.6701971002336982
0.0335,1.7719941393122072,1.0,2719.229207950531,0.31480760979435274,1.3211909818076073,0.9548498053265451,0.2874767538511127,0.671034289558244
0.034,1.7711921320270256,1.0,2724.3995149646594,0.3186510018619058,1.3207817225216705,0.9558346887465665,0.2874430695451351,0.6718720870409121
0.0345,1.770390124741844,1.0,2729.6522328606916,0.3224728346545446,1.320371758803098,0.9567814919777757,0.28740938523915743,0.6727102556167397
0.035,1.7695881174566623,1.0,2734.97515280255,0.3262732281621714,1.3199612035466608,0.957692190273531,0.2873757009331798,0.6735485593908556
0.035500000000000004,1.7687861101714808,1.0,2740.356020188473,0.33005230237468836,1.319550169647129,0.9585686328090541,0.28734201662720216,0.6743867636431475
0.036000000000000004,1.7679841028862993,1.0,2745.7825333121154,0.3338101772819977,1.319138769999273,0.9594125521797422,0.28730833232122455,0.6752246348321147
0.0365,1.7671820956011175,1.0,2751.2423423052514,0.33754697287400154,1.3187271174978628,0.9602255730812076,0.28727464801524694,0.6760619405979069
0.037,1.766380088315936,1.0,2756.7230483638045,0.34126280914060214,1.3183153250376693,0.9610092202498749,0.2872409637092693,0.6768984497645502
0.0375,1.7655780810307544,1.0,2762.2240069643817,0.3449577934366183,1.3179033988595352,0.9617649126588337,0.2872072794032917,0.6777341485763879
0.038,1.7647760737455727,1.0,2767.7268039069104,0.34863206010314224,1.3174915055806509,0.9624940052291373,0.28717359509731405,0.6785686986101134
0.0385,1.7639740664603911,1.0,2773.2278333961867,0.3522857223454635,1.3170796776188314,0.9631977553705577,0.28713991079133644,0.6794020345699552
0.039,1.7631720591752096,1.0,2778.7238186404043,0.35591889291541967,1.3166679442996247,0.9638773464990761,0.2871062264853588,0.6802340977456944
0.0395,1.762370051890028,1.0,2784.211470013983,0.35953168456484835,1.3162563349485792,0.9645338935469556,0.28707254217938116,0.6810648297349875
0.04,1.7615680446048463,1.0,2789.6874851279435,0.36312421004558715,1.3158448788912431,0.9651684476603413,0.28703885787340355,0.6818941724431632
0.0405,1.7607660373196647,1.0,2795.1485489206752,0.36669658210947365,1.3154336054531646,0.965782000526834,0.28700517356742594,0.6827220680829634
0.041,1.7599640300344832,1.0,2800.591333766638,0.3702489135083454,1.315022543959892,0.9663754883657767,0.2869714892614483,0.6835484591742282
0.0415,1.7591620227493014,1.0,2806.012499605203,0.37378131699404,1.3146117237369732,0.9669497956107821,0.28693780495547067,0.6843732885435282
0.042,1.75836001546412,1.0,2811.408694087289,0.377293905318395,1.3142011741099566,0.9675057583111928,0.286904120649493,0.6851964993237396
0.0425,1.7575580081789384,1.0,2816.7765527424704,0.38078679123324805,1.3137909244043906,0.9680441672765852,0.2868704363435154,0.6860180349535652
0.043000000000000003,1.7567560008937566,1.0,2822.1150378059688,0.38426007666244866,1.313380983040163,0.9685657675855519,0.2868367520375378,0.6868378809591232
0.043500000000000004,1.755953993608575,1.0,2827.4223065264587,0.3877138762339616,1.3129713656000714,0.9690712674771342,0.28680306773156017,0.6876560086556965
0.044,1.7551519863233935,1.0,2832.694459933258,0.3911483143267822,1.3125621059611248,0.9695613409761775,0.28676938342558256,0.6884723530521257
0.0445,1.7543499790382118,1.0,2837.931334664824,0.394563495615215,1.3121532045811335,0.9700366216074098,0.2867356991196049,0.6892869160386768
0.045,1.7535479717530302,1.0,2843.132768022839,0.3979595247735641,1.3117446619179087,0.9704977104589694,0.2867020148136273,0.6900996995079363
0.0455,1.7527459644678487,1.0,2848.298597976047,0.40133650647613395,1.3113364784292607,0.9709451781594347,0.2866683305076496,0.6909107053548038
0.046,1.751943957182667,1.0,2853.4286631639307,0.4046945453972288,1.3109286545730003,0.9713795667159238,0.286634646201672,0.6917199354764791
0.0465,1.7511419498974854,1.0,2858.5228029000928,0.40803374621115296,1.310521190806938,0.9718013912242823,0.2866009618956944,0.6925273917724527
0.047,1.7503399426123039,1.0,2863.5808571761427,0.4113542135922108,1.3101140875888846,0.9722111414613883,0.2865672775897168,0.6933330761444949
0.0475,1.749537935327122,1.0,2868.602666665151,0.41465605221470664,1.3097073453766506,0.9726092833687492,0.2865335932837391,0.6941369904966457
0.048,1.7487359280419406,1.0,2873.588072725819,0.41793936675294474,1.3093009646280465,0.9729962604357614,0.2864999089777615,0.694939136735204
0.0485,1.747933920756759,1.0,2878.5369174053353,0.4212042618812294,1.3088949458008832,0.9733724949902933,0.28646622467178384,0.6957395167687164
0.049,1.7471319134715775,1.0,2883.449043443823,0.42445084227386504,1.3084892893529714,0.9737383894036042,0.28643254036580623,0.6965381325079678
0.0495,1.7463299061863957,1.0,2888.324294277509,0.42767921260515585,1.3080839957421215,0.9740943272160161,0.2863988560598286,0.6973349858659708
0.05,1.7455278989012142,1.0,2893.1625773315845,0.4308894735324499,1.3076790648673793,0.9744406736896221,0.286365171753851,0.6981300798543846
0.0505,1.7447258916160326,1.0,2897.964871027309,0.43408169260351626,1.307274487188092,0.9747777729766232,0.2863314874478734,0.6989234359798953
0.051000000000000004,1.7439238843308509,1.0,2902.731029450349,0.43725602696803934,1.306870263112804,0.9751059642721998,0.28629780314189573,0.6997150561769083
0.051500000000000004,1.7431218770456693,1.0,2907.461572104095,0.4404125718911921,1.306466387195672,0.9754255642041046,0.2862641188359181,0.7005049538240828
0.052000000000000005,1.7423198697604878,1.0,2912.1570213194013,0.4435514226381474,1.306062853990853,0.9757368753000232,0.28623043452994046,0.7012931422416258
0.0525,1.741517862475306,1.0,2916.817902213381,0.4466726744740782,1.3056596580525033,0.9760401867381476,0.28619675022396285,0.7020796346914119
0.053,1.7407158551901245,1.0,2921.4447426479514,0.44977642266415757,1.3052567939347797,0.9763357750515327,0.28616306591798524,0.7028644443771028
0.0535,1.739913847904943,1.0,2926.038073189474,0.4528627624735584,1.304854256191839,0.9766239047894469,0.2861293816120076,0.703647584444262
0.054,1.7391118406197612,1.0,2930.598427069184,0.45593178916745364,1.3044520393778378,0.9769048291386941,0.28609569730602996,0.7044290679804703
0.0545,1.7383098333345797,1.0,2935.1263401442548,0.45898359801101624,1.3040501380469327,0.9771787905076456,0.28606201300005235,0.7052089080154373
0.055,1.7375078260493981,1.0,2939.6223508588255,0.4620182842694192,1.3036485467532808,0.9774460210755173,0.2860283286940747,0.7059871175211118
0.0555,1.7367058187642166,1.0,2944.087000206924,0.4650359432078355,1.3032472600510383,0.9777067433092343,0.2859946443880971,0.706763709411792
0.056,1.7359038114790348,1.0,2948.5208316947455,0.46803667009143807,1.3028462724943621,0.9779611704500462,0.28596096008211946,0.7075386965442301
0.0565,1.7351018041938533,1.0,2952.9243913045775,0.4710205601853998,1.3024455786374092,0.9782095069718998,0.28592727577614185,0.7083120917177383
0.057,1.7342997969086718,1.0,2957.298227458978,0.4739877087548937,1.3020451730343356,0.9784519490134277,0.28589359147016424,0.709083907674293
0.0575,1.73349778962349,1.0,2961.642890985299,0.47693821106509277,1.3016450502392989,0.9786886847852703,0.2858599071641866,0.7098541570986316
0.058,1.7326957823383085,1.0,2965.958935081996,0.47987216238116986,1.301245204806455,0.9789198949543292,0.28582622285820897,0.710622852618358
0.0585,1.731893775053127,1.0,2970.246915283718,0.4827896579682981,1.3008456312899608,0.9791457530064335,0.2857925385522313,0.7113900068040337
0.059000000000000004,1.7310917677679452,1.0,2974.5073894292045,0.48569079309165025,1.3004463242439734,0.9793664255887911,0.2857588542462537,0.7121556321692768
0.059500000000000004,1.7302897604827636,1.0,2978.739809173025,0.4885756017943622,1.3000472878673577,0.979582068358525,0.2857251699402761,0.7129197227150605
0.06,1.729487753197582,1.0,2982.9458941640864,0.4914442306586598,1.2996485066312533,0.9797928390436853,0.28569148563429847,0.713682310183864
0.0605,1.7286857459124003,1.0,2987.1266658971113,0.49429679653086206,1.2992499711206287,0.9799988871746761,0.2856578013283208,0.7144434144907619
0.061,1.7278837386272188,1.0,2991.2825233163153,0.4971333839592131,1.2988516773558447,0.9802003543071599,0.2856241170223432,0.7152030450943816
0.0615,1.7270817313420372,1.0,2995.4138670325533,0.4999540774919568,1.2984536213572617,0.9803973766595193,0.2855904327163655,0.7159612114117866
0.062,1.7262797240568555,1.0,2999.5210993029586,0.5027589616773371,1.2980557991452408,0.9805900853545395,0.2855567484103879,0.7167179228185327
0.0625,1.725477716771674,1.0,3003.604624009446,0.5055481210635981,1.2976582067401425,0.9807786066483871,0.2855230641044103,0.7174731886487327
0.063,1.7246757094864924,1.0,3007.66484663861,0.5083216401989837,1.2972608401623276,0.9809630621476517,0.2854893797984327,0.718227018195112
0.0635,1.7238737022013106,1.0,3011.7021742615134,0.5110796036317379,1.2968636954321566,0.9811435690151504,0.28545569549245503,0.7189794207090681
0.064,1.723071694916129,1.0,3015.7170155141494,0.5138220959101046,1.2964667685699902,0.9813202401651578,0.2854220111864774,0.7197304054007266
0.0645,1.7222696876309476,1.0,3019.7097805776607,0.5165492015823279,1.2960700555961895,0.9814931844486807,0.2853883268804998,0.7204799814389964
0.065,1.721467680345766,1.0,3023.6808811595324,0.5192610051966517,1.2956735525311145,0.9816625068293493,0.28535464257452214,0.7212281579516272
0.0655,1.7206656730605843,1.0,3027.6307304750353,0.52195759130132,1.2952772553951264,0.9818283085504681,0.28532095826854453,0.7219749440252592
0.066,1.7198636657754027,1.0,3031.5597432285335,0.5246390444445768,1.294881160208586,0.9819906872937306,0.2852872739625669,0.7227203487054793
0.0665,1.7190616584902212,1.0,3035.4683355956636,0.527305449174666,1.2944852629918533,0.9821497373300683,0.2852535896565893,0.7234643809968718
0.067,1.7182596512050394,1.0,3039.356925205724,0.5299568900398317,1.2940895597652897,0.9823055496630799,0.28521990535061165,0.7242070498630679
0.0675,1.717457643919858,1.0,3043.2259311244898,0.5325934515883177,1.2936940465492555,0.9824582121654526,0.28518622104463404,0.7249483642267978
0.068,1.7166556366346764,1.0,3047.075773836817,0.5352152183683682,1.2932987193641117,0.9826078097087667,0.28515253673865637,0.7256883329699364
0.0685,1.7158536293494946,1.0,3050.9068752307508,0.537822274928227,1.2929035742302186,0.9827544242870463,0.28511885243267876,0.7264269649335549
0.069,1.715051622064313,1.0,3054.7196585806255,0.5404147058161382,1.2925086071679373,0.9828981351344004,0.28508516812670115,0.7271642689179636
0.0695,1.7142496147791315,1.0,3058.5145485315206,0.5429925955803456,1.292113814197628,0.9830390188370749,0.28505148382072354,0.7279002536827603
0.07,1.7134476074939498,1.0,3062.291971083557,0.5455560287690934,1.291719191339652,0.9831771494402166,0.2850177995147459,0.7286349279468736
0.07050000000000001,1.7126456002087682,1.0,3066.0523535771945,0.5481050899306253,1.2913247346143695,0.9833125985496345,0.28498411520876826,0.7293683003886071
0.07100000000000001,1.7118435929235867,1.0,3069.795477387513,0.5506398207017672,1.290930445590079,0.9834454331452112,0.28495043090279065,0.7301003693519073
