Time [s],Phi [rad],STIM [ ],Fsee [N],Gamma [ ],Lcerel [ ],q [ ],Lmtc [m],fisomrel [ ]
0.0,1.8,1.0,17.967889853043673,3.706001076419477e-05,1.3793396642473141,0.005000362282695876,0.288653,0.5411397293645885
0.0005,1.79999375,1.0,18.2863010703499,0.005646061442215543,1.379301326339984,0.013015809547906699,0.2886527375,0.5412324739691612
0.001,1.799975,1.0,21.648077083607525,0.011223600810424594,1.37893527019364,0.035749725053703,0.28865195,0.5421175414645188
0.0015,1.79994375,1.0,31.141716215558134,0.01676985459357762,1.378040032261055,0.07079483474775293,0.2886506375,0.5442784885461112
0.002,1.7999,1.0,53.74018464139073,0.02228499827816306,1.3763579021693746,0.11494651452268406,0.2886488,0.5483250302125876
0.0025,1.79984375,1.0,97.3852830241026,0.02776920636672976,1.3739223414990334,0.16482342987121476,0.28864643749999996,0.5541520488771693
0.003,1.7997750000000001,1.0,161.30551322764035,0.0332226523853481,1.3712013492564221,0.21753684425573006,0.28864354999999997,0.5606172139993997
0.0035,1.79969375,1.0,238.07622313486303,0.03864550888340276,1.3685726371298828,0.27086789040612214,0.2886401375,0.566818275379859
0.004,1.7996,1.0,321.88504340608836,0.044037947444321976,1.3661450175680034,0.32316270926882446,0.2886362,0.5725058230552502
0.0045000000000000005,1.7994937500000001,1.0,409.701083733792,0.04940013869077707,1.3639126448817527,0.3732688853729822,0.2886317375,0.5777027643340796
0.005,1.799375,1.0,499.85579687248713,0.054732252275875436,1.3618489457435696,0.4204667374866316,0.28862675,0.582478764235546
0.0055,1.79924375,1.0,591.2367766292177,0.060034456929305646,1.3599301159025627,0.4643767134989479,0.2886212375,0.586895126487142
0.006,1.7991000000000001,1.0,682.9651535252343,0.06530692040376207,1.358138289985834,0.5048665306148072,0.2886152,0.590997975912062
0.006500000000000001,1.79894375,1.0,774.3246486759995,0.07054980948605287,1.3564596857289892,0.5419713583642081,0.2886086375,0.5948229988838974
0.007,1.798775,1.0,864.7295337051643,0.07576329024002611,1.3548832283758556,0.5758321934686625,0.28860155,0.5983988973773289
0.0075,1.79859375,1.0,953.6704559819801,0.08094752734347514,1.353400208525782,0.6066513501387335,0.2885939375,0.6017483820597381
0.008,1.7984,1.0,1040.7790673593838,0.0861026850189897,1.352002454294804,0.634660549727171,0.2885858,0.6048924495230692
0.0085,1.79819375,1.0,1125.7328445238547,0.09122892638683698,1.3506833159717753,0.660101095987065,0.2885771375,0.6078482522290818
0.009000000000000001,1.797975,1.0,1208.2779680829724,0.09632641321178803,1.349436873437012,0.6832104337554538,0.28856795,0.6106309677377734
0.0095,1.79774375,1.0,1288.2606599262479,0.10139530756931392,1.3482572485176192,0.7042140882297306,0.2885582375,0.6132553853792642
0.01,1.7975,1.0,1365.5498230444928,0.10643576983347663,1.3471394659462814,0.7233220185409798,0.288548,0.6157340280055184
0.0105,1.79724375,1.0,1440.0354563985811,0.11144795868830532,1.3460792413016471,0.7407266632649647,0.2885372375,0.6180776745538148
0.011,1.796975,1.0,1511.6712584672223,0.11643203281782909,1.3450722901623642,0.7566022571357022,0.28852595000000003,0.6202969214352716
0.0115,1.79669375,1.0,1580.449696421333,0.12138815023098494,1.3441145566262374,0.7711055314770291,0.2885141375,0.6224016961668626
0.012,1.7964,1.0,1646.3866360003824,0.12631646829672366,1.3432023069449406,0.7843768295470145,0.28850180000000003,0.6244010730474197
0.0125,1.79609375,1.0,1709.4888605582858,0.13121714220811917,1.3423324179693834,0.7965415360006991,0.2884889375,0.6263026645638883
0.013000000000000001,1.7957750000000001,1.0,1769.794128651542,0.1360903269389231,1.3415018264153387,0.8077112335890325,0.28847555,0.6281138474329971
0.0135,1.79544375,1.0,1827.3532976003148,0.14093617660497057,1.340707686972099,0.8179851749188808,0.2884616375,0.6298414286929916
0.014,1.7951000000000001,1.0,1882.2547578101362,0.14575484583645568,1.3399470565599743,0.8274514974111191,0.2884472,0.6314923429088319
0.0145,1.79474375,1.0,1934.5499722632599,0.1505464861195593,1.3392176772177227,0.8361887510394128,0.2884322375,0.633071962573383
0.015,1.794375,1.0,1984.3035117153715,0.1553112485787208,1.3385173731970126,0.8442667828221424,0.28841675,0.6345854210580182
0.0155,1.79399375,1.0,2031.5984386472737,0.16004928432183618,1.3378439705588934,0.8517477279841046,0.2884007375,0.6360377919547244
0.016,1.7936,1.0,2076.521456089242,0.16476074313177508,1.3371954349350732,0.8586869626479701,0.2883842,0.6374337967440906
0.0165,1.7931937500000001,1.0,2119.1703537268972,0.16944577551628162,1.336569772011915,0.8651338748001063,0.2883671375,0.6387780247699222
0.017,1.792775,1.0,2159.6122769636095,0.17410452844496466,1.335965438487134,0.8711326883345474,0.28834955,0.6400740565757264
0.0175,1.7923437500000001,1.0,2197.925083956697,0.17873714888743303,1.3353808910584457,0.8767229421734207,0.2883314375,0.6413254397730963
0.018000000000000002,1.7919,1.0,2234.196449023828,0.18334378381329555,1.3348145864235648,0.8819400412318639,0.2883128,0.6425356910651061
0.0185,1.79144375,1.0,2268.50422983441,0.18792457817972066,1.3342651686160432,0.8868157863430663,0.2882936375,0.6437078987566589
0.019,1.790975,1.0,2300.9542550008982,0.19247967989281686,1.3337310804492708,0.8913786954567391,0.28827395,0.6448455546625075
0.0195,1.79049375,1.0,2331.6120861059308,0.1970092314617809,1.3332112347893987,0.8956545393055186,0.2882537375,0.6459511256700389
0.02,1.79,1.0,2360.547316129446,0.20151337521103105,1.332704560282541,0.8996665447932028,0.288233,0.647027026681126
0.0205,1.78949375,1.0,2387.8346804200196,0.20599225346498568,1.332209985574811,0.9034356770348618,0.2882117375,0.6480756552435709
0.021,1.788975,1.0,2413.553622465465,0.21044600854806303,1.3317264393123236,0.9069808903975648,0.28818995000000003,0.6490993924144366
0.021500000000000002,1.78844375,1.0,2437.7719522200887,0.21487478052008158,1.3312530033856302,0.910319380103974,0.2881676375,0.6501002798086724
0.022,1.7879,1.0,2460.574961943735,0.21927871268184926,1.3307886269605922,0.9134667159163316,0.2881448,0.6510806258722136
0.0225,1.78734375,1.0,2482.020839268405,0.22365794312647072,1.330332551387207,0.9164370966133444,0.28812143749999997,0.6520421093559254
0.023,1.786775,1.0,2502.16554050518,0.22801260912846819,1.3298840650231591,0.9192434474147241,0.28809755,0.6529862998845539
0.0235,1.78619375,1.0,2521.067439282376,0.23234284796236393,1.3294424562261324,0.9218975438795793,0.28807313749999996,0.6539147577668776
0.024,1.7856,1.0,2538.787123345167,0.2366487969026802,1.3290070133538112,0.9244101300472215,0.2880482,0.6548290343239959
0.0245,1.78499375,1.0,2555.3828470589374,0.24093059236991207,1.3285770656804974,0.9267910298390947,0.2880227375,0.6557305864438587
0.025,1.784375,1.0,2570.909360813989,0.24518836995511956,1.3281519920487552,0.9290492403580621,0.28799675,0.6566207592934747
0.025500000000000002,1.78374375,1.0,2585.4355576657053,0.24942226746351376,1.32773105386196,0.9311929865706682,0.2879702375,0.6575011362708199
0.026000000000000002,1.7831000000000001,1.0,2599.002767312587,0.2536324168345711,1.3273137838022302,0.9332298569216704,0.2879432,0.6583727261896266
0.0265,1.78244375,1.0,2611.653440622768,0.257818950007768,1.3268997145516848,0.9351668225282876,0.2879156375,0.6592365326085046
0.027,1.781775,1.0,2623.431055559412,0.2619819989225808,1.3264883787924422,0.9370102956789339,0.28788755,0.6600935539332997
0.0275,1.7810937500000001,1.0,2634.3800279466886,0.2661216955184859,1.3260793092066214,0.938766182076666,0.2878589375,0.6609447835055249
0.028,1.7804,1.0,2644.5456270785867,0.27023817173495973,1.325672038476341,0.9404399275637129,0.2878298,0.6617912096768646
0.0285,1.77969375,1.0,2653.9663011272987,0.27433155576888285,1.325266169295248,0.9420365685664867,0.2878001375,0.6626336706377391
0.029,1.778975,1.0,2662.691823274671,0.2784019822477063,1.3248612061089804,0.9435607489288846,0.28776995,0.6634732039713602
0.029500000000000002,1.7782437500000001,1.0,2670.754190688069,0.28244957848029356,1.3244568227135038,0.9450167865286097,0.2877392375,0.6643104916921491
0.03,1.7775,1.0,2678.183913559407,0.2864744708629387,1.3240527109678417,0.946408683350443,0.287708,0.6651461751096698
0.0305,1.77674375,1.0,2685.011929677225,0.2904767857919359,1.3236485627310168,0.9477401506684711,0.2876762375,0.6659808923537853
0.031,1.775975,1.0,2691.2695650559313,0.2944566496635792,1.3232440698620527,0.9490146338222113,0.28764395,0.6668152783769656
0.0315,1.7751937500000001,1.0,2696.9884966701816,0.29841418887416277,1.3228389242199718,0.9502353345901762,0.2876111375,0.6676499649505462
0.032,1.7744,1.0,2702.200389761147,0.302349529513849,1.3224328206559512,0.9514052316920788,0.2875778,0.6684855745020637
0.0325,1.77359375,1.0,2706.928595323327,0.30626278887554514,1.3220255324791517,0.9525271056011491,0.2875439375,0.6693225651515269
0.033,1.772775,1.0,2711.2150127678397,0.3101541053117951,1.3216166658733297,0.9536035343477054,0.28750955,0.6701617354353412
0.0335,1.7719437500000002,1.0,2715.079109517422,0.31402359865320134,1.321206033776135,0.9546369416088156,0.2874746375,0.6710034562047333
0.034,1.7711000000000001,1.0,2718.5405148511586,0.31787138873036647,1.320793449125217,0.9556295905046406,0.2874392,0.6718480962957489
0.0345,1.7702437500000001,1.0,2721.6190042018134,0.321697595373893,1.320378724858225,0.9565835961287816,0.2874032375,0.672696022507072
0.035,1.7693750000000001,1.0,2724.334484228525,0.32550233841438336,1.3199616739128088,0.957500936960852,0.28736675,0.6735475995756166
0.035500000000000004,1.76849375,1.0,2726.706978665928,0.32928573768244007,1.3195421092266177,0.958383465272663,0.2873297375,0.6744031901498861
0.036000000000000004,1.7676,1.0,2728.7566149486515,0.33304791300866565,1.3191198437373013,0.9592329166272394,0.2872922,0.6752631547610983
0.0365,1.76669375,1.0,2730.5036116117417,0.33678898422366255,1.3186946903825092,0.9600509185591192,0.2872541375,0.676127851792081
0.037,1.765775,1.0,2731.9682664671877,0.3405090711580334,1.3182664620998907,0.9608389985149154,0.28721555,0.6769976374439375
0.0375,1.76484375,1.0,2733.1640414552235,0.3442082851423199,1.3178350345406444,0.9615985954455676,0.2871764375,0.6778727385795515
0.038,1.7639,1.0,2734.108925397423,0.34788674795770924,1.3174002427257487,0.9623310601812473,0.28713679999999997,0.6787534627475631
0.0385,1.76294375,1.0,2734.8251347517544,0.3515445869547304,1.316961883729944,0.9630376608710725,0.28709663750000003,0.6796401921631554
0.039,1.761975,1.0,2735.32346482028,0.3551819141623608,1.3165198587161562,0.963719597850578,0.28705595,0.6805330964231651
0.0395,1.7609937500000001,1.0,2735.6147418144737,0.3587988416095776,1.3160740688473123,0.9643780018309832,0.2870147375,0.6814323437573486
0.04,1.76,1.0,2735.709818626319,0.36239548132535815,1.315624415286339,0.9650139386785637,0.286973,0.6823381010049637
0.0405,1.7589937500000001,1.0,2735.6195708162613,0.3659719453386798,1.3151707991961623,0.9656284138171103,0.2869307375,0.6832505335907282
0.041,1.757975,1.0,2735.3548928173545,0.3695283456785199,1.3147131217397094,0.9662223762868535,0.28688795,0.6841698055001493
0.0415,1.75694375,1.0,2734.926694356554,0.3730647943738556,1.3142512840799065,0.9667967224899737,0.2868446375,0.6850960792542407
0.042,1.7559,1.0,2734.3458970922647,0.3765814034536643,1.3137851873796802,0.9673522996499028,0.28680079999999997,0.6860295158836065
0.0425,1.75484375,1.0,2733.623431468718,0.3800782849469233,1.3133147328019572,0.9678899090089987,0.2867564375,0.6869702749019074
0.043000000000000003,1.753775,1.0,2732.770233786301,0.3835555508826099,1.312839821509664,0.9684103087868591,0.28671155,0.6879185142787041
0.043500000000000004,1.75269375,1.0,2731.7972434895673,0.38701331328970134,1.312360354665727,0.9689142169194255,0.28666613750000003,0.688874390411675
0.044,1.7516,1.0,2730.710671002867,0.3904516742968076,1.311876276414414,0.9694023154911281,0.2866202,0.6898379726080357
0.0445,1.75049375,1.0,2729.519208660404,0.3938707500850654,1.3113875083629922,0.9698752514606566,0.2865737375,0.6908093738376513
0.045,1.7493750000000001,1.0,2728.23246898609,0.39727065596212024,1.310893963742497,0.9703336376640003,0.28652675,0.6917887222846906
0.0455,1.74824375,1.0,2726.8557698884624,0.4006514961192771,1.31039559480627,0.9707780570521615,0.2864792375,0.6927760673624421
0.046,1.7471,1.0,2725.3944286358997,0.4040133747478408,1.3098923538076528,0.971209063180429,0.2864312,0.6937714574347977
0.0465,1.7459437500000001,1.0,2723.8537610128383,0.40735639603911633,1.3093841929999872,0.9716271819686253,0.28638263750000004,0.6947749398014882
0.047,1.744775,1.0,2722.2390805263362,0.4106806641844085,1.3088710646366148,0.9720329133397597,0.28633355,0.6957865606831763
0.0475,1.74359375,1.0,2720.5556976643593,0.4139862833750223,1.3083529209708775,0.9724267327465659,0.28628393750000003,0.6968063652064023
0.048,1.7424,1.0,2718.808919202487,0.4172733578022626,1.3078297142561166,0.9728090925945708,0.2862338,0.6978343973883852
0.0485,1.74119375,1.0,2717.0040475636156,0.4205419916574342,1.307301396745674,0.973180423569609,0.2861831375,0.6988707001216771
0.049,1.739975,1.0,2715.146380226087,0.42379228913184225,1.306767920692891,0.9735411358770225,0.28613195,0.6999153151586739
0.0495,1.73874375,1.0,2713.2412091837245,0.42702435441679143,1.3062292383511096,0.9738916203991786,0.2860802375,0.70096828309598
0.05,1.7375,1.0,2711.2938204559364,0.4302382917035867,1.3056853019736716,0.9742322497773822,0.286028,0.7020296433586264
0.0505,1.73624375,1.0,2709.302153728446,0.4334341856605018,1.3051361307791964,0.9745633816361327,0.2859752375,0.7030993038683072
0.051000000000000004,1.734975,1.0,2707.2752636289124,0.43661215619390875,1.3045816425799044,0.9748853545771856,0.28592195,0.7041773692708144
0.051500000000000004,1.73369375,1.0,2705.219986171993,0.43977231332495975,1.304021775329342,0.975198491997992,0.2858681375,0.7052639034617192
0.052000000000000005,1.7324,1.0,2703.138333379019,0.44291475303153977,1.3034565109533531,0.9755031040305715,0.2858138,0.7063588838010761
0.0525,1.73109375,1.0,2701.0323146542,0.4460395712915336,1.3028858313777825,0.9757994870038003,0.28575893750000003,0.7074622868322371
0.053,1.729775,1.0,2698.9039366884563,0.44914686408282634,1.302309718528474,0.9760879241744366,0.28570355000000003,0.7085740882756213
0.0535,1.72844375,1.0,2696.7552033712122,0.4522367273833028,1.3017281543312724,0.9763686864133612,0.2856476375,0.7096942630224613
0.054,1.7271,1.0,2694.5881157090143,0.4553092571708479,1.301141120712022,0.9766420328501304,0.2855912,0.7108227851285311
0.0545,1.7257437500000001,1.0,2692.404671751319,0.4583645494233466,1.3005485995965669,0.9769082114787105,0.2855342375,0.7119596278078524
0.055,1.724375,1.0,2690.206866523885,0.46140270011868384,1.2999505729107517,0.9771674597270327,0.28547675,0.7131047634263771
0.0555,1.72299375,1.0,2687.996691969217,0.46442380523474447,1.2993470225804205,0.9774200049928173,0.2854187375,0.7142581634956545
0.056,1.7216,1.0,2685.776136894016,0.46742796074941345,1.2987379305314177,0.9776660651479264,0.2853602,0.7154197986664728
0.0565,1.72019375,1.0,2683.54718692437,0.47041526264057576,1.2981232786895878,0.9779058490133353,0.28530113749999997,0.7165896387224822
0.057,1.718775,1.0,2681.3118244679536,0.4733858068861162,1.297503048980775,0.9781395568066623,0.28524155,0.7177676525737964
0.0575,1.71734375,1.0,2679.0720286830465,0.4763396894639198,1.296877223330824,0.9783673805640486,0.2851814375,0.7189538082505744
0.058,1.7159,1.0,2676.829775455551,0.4792770063518714,1.2962457836655785,0.978589504538058,0.2851208,0.7201480728965792
0.0585,1.71444375,1.0,2674.587149887441,0.48219782357362573,1.2956087108778154,0.9788061029486184,0.2850596375,0.7213504147103194
0.059000000000000004,1.7129750000000001,1.0,2672.3457419732863,0.48510226920513344,1.2949659903764947,0.9790173486088397,0.28499795,0.7225607924783597
0.059500000000000004,1.71149375,1.0,2670.1062679061984,0.4879904357549793,1.2943176155764753,0.9792234049159722,0.2849357375,0.7237791491115373
0.06,1.71,1.0,2667.8694248853335,0.49086241073013726,1.2936635800561997,0.9794244284602297,0.284873,0.7250054264941836
0.0605,1.7084937500000001,1.0,2665.63590894043,0.4937182816375815,1.2930038773941104,0.97962056974841,0.2848097375,0.7262395657908709
0.061,1.7069750000000001,1.0,2663.4064149339947,0.49655813598428616,1.2923385011686497,0.9798119734851316,0.28474595,0.7274815074440926
0.0615,1.7054437500000001,1.0,2661.1816365650493,0.4993820612772252,1.29166744495826,0.9799987788389813,0.2846816375,0.7287311911719401
0.062,1.7039,1.0,2658.962266373829,0.5021901450233727,1.290990702341384,0.9801811196944921,0.2846168,0.7299885559657782
0.0625,1.70234375,1.0,2656.7489957469697,0.5049824747297028,1.2903082668964638,0.9803591248908075,0.2845514375,0.7312535400879194
0.063,1.7007750000000001,1.0,2654.542514923771,0.5077591379031896,1.2896201322019423,0.9805329184478262,0.28448555,0.7325260810692904
0.0635,1.69919375,1.0,2652.3435130038624,0.5105202220508072,1.2889262918362616,0.9807026197805765,0.28441913750000003,0.7338061157071026
0.064,1.6976,1.0,2650.1526779546502,0.5132658146795295,1.2882267393778644,0.9808683439025109,0.2843522,0.7350935800625149
0.0645,1.69599375,1.0,2647.9706966211957,0.5159960032963308,1.287521468405193,0.9810302016183721,0.2842847375,0.736388409458296
0.065,1.694375,1.0,2645.7982547357196,0.5187108754081851,1.2868104724966898,0.9811882997072386,0.28421675,0.7376905384764846
0.0655,1.69274375,1.0,2643.636036928372,0.5214105185220664,1.2860937452307974,0.9813427410963138,0.2841482375,0.7389999009560446
0.066,1.6911,1.0,2641.484726739564,0.5240950201449489,1.285371280185958,0.9814936250259927,0.2840792,0.7403164299905212
0.0665,1.6894437500000001,1.0,2639.3450066323117,0.5267644677838067,1.2846430709406145,0.9816410472067009,0.2840096375,0.7416400579256898
0.067,1.687775,1.0,2637.2204036114395,0.5294188815807946,1.283909084759081,0.9817850941601934,0.28393955,0.7429707640027454
0.0675,1.68609375,1.0,2635.107963889846,0.5320584322199594,1.2831693488075298,0.9819258623167536,0.2838689375,0.7443084180354578
0.068,1.6844000000000001,1.0,2633.007593673651,0.5346831985059491,1.282423863828179,0.9820634373824473,0.2837978,0.7456529373098284
0.0685,1.68269375,1.0,2630.9192221619114,0.5372932586456147,1.2816726303522206,0.9821979020594998,0.2837261375,0.7470042388726446
0.069,1.680975,1.0,2628.842778716211,0.5398886908458072,1.280915648910846,0.9823293362179913,0.28365395,0.7483622391485916
0.0695,1.67924375,1.0,2626.778192859065,0.5424695733133773,1.280152920035247,0.9824578170107763,0.28358123749999997,0.749726853940448
0.07,1.6775,1.0,2624.725394273226,0.5450359842551762,1.2793844442566153,0.9825834189829682,0.283508,0.7510979984292799
0.07050000000000001,1.67574375,1.0,2622.6843127998054,0.5475880018780547,1.2786102221061428,0.9827062141762924,0.2834342375,0.7524755871746358
0.07100000000000001,1.673975,1.0,2620.654878437627,0.5501257043888638,1.2778302541150208,0.9828262722285688,0.28335995,0.7538595341147416
0.07150000000000001,1.67219375,1.0,2618.637021341714,0.5526491699944543,1.2770445408144413,0.9829436604685912,0.2832851375,0.7552497525666945
0.07200000000000001,1.6704,1.0,2616.6306718224005,0.5551584769016775,1.276253082735596,0.983058444006639,0.2832098,0.756646155226658
0.0725,1.66859375,1.0,2614.635760343893,0.5576537033173841,1.2754558804096765,0.9831706858208548,0.2831339375,0.7580486541700574
0.073,1.6667750000000001,1.0,2612.6522175232626,0.560134927448425,1.2746529343678743,0.9832804468396984,0.28305755,0.7594571608517734
0.0735,1.66494375,1.0,2610.6799741291547,0.5626022275016513,1.2738442451413816,0.9833877860206802,0.2829806375,0.7608715861063358
0.074,1.6631,1.0,2608.718961080628,0.5650556816839138,1.27302981326139,0.983492760425568,0.2829032,0.7622918401481202
0.0745,1.6612437500000001,1.0,2606.7691094461993,0.5674953682020637,1.272209639259091,0.9835954252922419,0.2828252375,0.7637178325715421
0.075,1.659375,1.0,2604.830350442567,0.5699213652629518,1.2713837236656762,0.9836958341033704,0.28274675,0.7651494723512497
0.0755,1.65749375,1.0,2602.9026154334106,0.5723337510734289,1.2705520670123376,0.9837940386520654,0.2826677375,0.7665866678423201
