Time [s],Phi [rad],STIM [ ],Fsee [N],Gamma [ ],Lcerel [ ],q [ ],Lmtc [m],fisomrel [ ]
0.0,1.8,1.0,17.964899347898125,1.1298497540332914e-05,1.3793399992910214,0.005000033989859478,0.288653,0.5411389188070406
0.0005,1.79999375,1.0,18.274877492229045,0.005620444430700102,1.3793025951437055,0.012944124366812058,0.2886527375,0.5412294047106195
0.001,1.799975,1.0,21.6175874218638,0.011198127490089136,1.3789383832237405,0.03561535981250134,0.28865195,0.5421100182390867
0.0015,1.79994375,1.0,31.070418447591432,0.01674452415841781,1.3780461029898232,0.07061099628395573,0.2886506375,0.5442638520861225
0.002,1.7999,1.0,53.587366271784326,0.02225980992673739,1.3763678087194289,0.11472884216860275,0.2886488,0.5483012517848705
0.0025,1.79984375,1.0,97.12880638271581,0.027744159302024,1.3739346917207962,0.16458664464066644,0.28864643749999996,0.5541225967081413
0.003,1.7997750000000001,1.0,160.9719512531013,0.033197745814874204,1.371213827802901,0.21729257291694892,0.28864354999999997,0.5605876723466781
0.0035,1.79969375,1.0,237.69944299036985,0.038620742019111615,1.3685842379663644,0.2706249377810153,0.2886401375,0.5667910061312325
0.004,1.7996,1.0,321.48428598332345,0.04401331950256554,1.3661556285064513,0.32292746550520696,0.2886362,0.5724810450033342
0.0045000000000000005,1.7994937500000001,1.0,409.2861807793199,0.04937564889225608,1.3639223815493333,0.37304557757140994,0.2886317375,0.5776801664778746
0.005,1.799375,1.0,499.43253752560304,0.05470789984549882,1.3618579378933933,0.420257816259578,0.28862675,0.5824580127026184
0.0055,1.79924375,1.0,590.8097952123159,0.060010241097235566,1.3599384564405201,0.46418328523463964,0.2886212375,0.5868759807883157
0.006,1.7991000000000001,1.0,682.5376714362969,0.06528284040350812,1.3581460591447103,0.504688772048092,0.2886152,0.5909802306094186
0.006500000000000001,1.79894375,1.0,773.9032903490515,0.07052586459834502,1.3564668775109268,0.5418087888911038,0.2886086375,0.5948066493546236
0.007,1.798775,1.0,864.3076318498481,0.07573947956694317,1.3548900425252373,0.5756840982040567,0.28860155,0.5983834748610819
0.0075,1.79859375,1.0,953.2638594457165,0.08092385028588726,1.35340646166627,0.6065165799358911,0.2885939375,0.6017342884328037
0.008,1.7984,1.0,1040.3801262484749,0.08607914077917575,1.3520083272747738,0.6345381024259897,0.2885858,0.6048792650804073
0.0085,1.79819375,1.0,1125.3328867215134,0.09120551387786639,1.3506889773538135,0.6599899479752391,0.2885771375,0.6078355904417616
0.009000000000000001,1.797975,1.0,1207.8995403178458,0.09630313231810002,1.349442043799018,0.6831093468432616,0.28856795,0.6106194452345829
0.0095,1.79774375,1.0,1287.9067858913215,0.10137215772797953,1.3482619308693162,0.7041220587417335,0.2885582375,0.6132449856733917
0.01,1.7975,1.0,1365.195837586826,0.10641274954211588,1.34714401527346,0.723238302281791,0.288548,0.6157239561856499
0.0105,1.79724375,1.0,1439.6812851740424,0.11142506719511999,1.3460836737202009,0.7406504130732657,0.2885372375,0.6180678915316631
0.011,1.796975,1.0,1511.3278725412742,0.1164092696315765,1.3450764845238472,0.7565326437197769,0.28852595000000003,0.6202876907801755
0.0115,1.79669375,1.0,1580.1282556789567,0.1213655152317424,1.3441183965273982,0.7710418154310872,0.2885141375,0.6223932690414935
0.012,1.7964,1.0,1646.0735095230666,0.12629396019502848,1.3432059718430522,0.7843184785628827,0.28850180000000003,0.6243930513114351
0.0125,1.79609375,1.0,1709.181130824413,0.13119476011484357,1.3423359525935927,0.7964880195974035,0.2884889375,0.6262949475823898
0.013000000000000001,1.7957750000000001,1.0,1769.494894937758,0.13606807009647787,1.3415052043783078,0.8076620514131511,0.28847555,0.6281064903779663
0.0135,1.79544375,1.0,1827.0830646261652,0.14091404531274576,1.3407106891091574,0.8179398098547002,0.2884616375,0.6298349053787089
0.014,1.7951000000000001,1.0,1881.9993880096565,0.14573283868646603,1.3399498518858497,0.8274096319732487,0.2884472,0.6314862825344032
0.0145,1.79474375,1.0,1934.2997373037767,0.15052460200855328,1.3392203790564963,0.8361500836041911,0.2884322375,0.6330661174514254
0.015,1.794375,1.0,1984.0611535639339,0.155289487069922,1.338519956969208,0.844230998748046,0.28841675,0.6345798429004006
0.0155,1.79399375,1.0,2031.3621123366631,0.16002764451336074,1.3378464605233538,0.8517145625864583,0.2884007375,0.6360324270148022
0.016,1.7936,1.0,2076.308079826032,0.16473922577854366,1.3371976586362653,0.8586561200482697,0.2883842,0.6374290147009589
0.0165,1.7931937500000001,1.0,2118.966327500935,0.16942437880652697,1.3365718767637307,0.865105185232379,0.2883671375,0.6387735069251916
0.017,1.792775,1.0,2159.4122352751615,0.17408325127098356,1.335967482718526,0.8711059748934807,0.28834955,0.640069676517146
0.0175,1.7923437500000001,1.0,2197.73225667481,0.17871599084558637,1.3353828443134264,0.8766980222187095,0.2883314375,0.6413212619267731
0.018000000000000002,1.7919,1.0,2233.9938942964873,0.18332274384969388,1.3348166214915704,0.8819168057736774,0.2883128,0.6425313455770743
0.0185,1.79144375,1.0,2268.3378278310024,0.18790365800279982,1.334266827760103,0.8867939744599128,0.2882936375,0.6437043617959107
0.019,1.790975,1.0,2300.818659567225,0.19245887716075388,1.3337324228582506,0.8913581999385063,0.28827395,0.6448426974909498
0.0195,1.7904961096153638,1.0,2331.589557883352,0.19698854458704515,1.3332125219800268,0.8956353141069185,0.2882538366038453,0.6459483902924431
0.02,1.7900162901351437,1.0,2361.1281462838774,0.20149280354516272,1.3327062403194465,0.8996485933328874,0.288233684185676,0.6470234619021005
0.0205,1.7895364706549237,1.0,2389.540624815109,0.20597179710024302,1.3322127030472428,0.9034190476885657,0.2882135317675068,0.6480698977488664
0.021,1.789056651174704,1.0,2416.869495484881,0.2104256674192288,1.3317312729151356,0.9069657223760336,0.28819337934933753,0.6490891663587495
0.021500000000000002,1.788576831694484,1.0,2443.148507152908,0.21485455550676827,1.3312614208500502,0.9103058827928391,0.2881732269311683,0.6500824969910904
0.022,1.7880970122142639,1.0,2468.4144318890976,0.21925860072634273,1.3308026090242264,0.9134551818047104,0.2881530745129991,0.6510511283889184
0.0225,1.7876171927340438,1.0,2492.7060343149233,0.2236379424414335,1.330354299609904,0.9164278354573203,0.2881329220948298,0.65199629059072
0.023,1.787137373253824,1.0,2516.0505256041106,0.22799271474516336,1.3299160818076456,0.9192367961030316,0.2881127696766606,0.6529189380251622
0.0235,1.786657553773604,1.0,2538.5076611996174,0.23232306414968984,1.3294872522438268,0.921893814955611,0.28809261725849133,0.6538206333189185
0.024,1.786177734293384,1.0,2560.112226816714,0.2366291272928249,1.3290673601050096,0.9244096540803569,0.2880724648403221,0.6547023995966835
0.0245,1.785697914813164,1.0,2580.892815220545,0.2409110379203816,1.3286560251989818,0.9267941569920577,0.2880523124221529,0.6555651055497647
0.025,1.7852180953329442,1.0,2600.8791772739073,0.24516892977817298,1.3282528673335312,0.9290563295920372,0.2880321600039837,0.6564096144365917
0.025500000000000002,1.7847382758527242,1.0,2620.1021514065696,0.24940293661201207,1.327857506316446,0.9312044228871553,0.2880120075858144,0.657236784285592
0.026000000000000002,1.7842584563725041,1.0,2638.593596290484,0.25361319216771194,1.3274695619555137,0.9332460065334909,0.28799185516764514,0.658047468088852
0.0265,1.783778636892284,1.0,2656.3863267185225,0.25779983019108565,1.3270886540585225,0.9351880343189296,0.2879717027494759,0.6588425139865568
0.027,1.7832988174120643,1.0,2673.51405268901,0.2619629844279462,1.3267144024332598,0.9370369025540526,0.2879515503313067,0.659622765442213
0.0275,1.7828189979318443,1.0,2690.0034021461724,0.2661027844782788,1.3263464993997096,0.9387985114102619,0.2879313979131375,0.6603889104896535
0.028,1.7823391784516243,1.0,2705.888233885983,0.27021936520398293,1.3259845775611176,0.9404782948887876,0.2879112454949682,0.6611417576285066
0.0285,1.7818593589714042,1.0,2721.1990268030127,0.27431285934594424,1.3256283068549641,0.942081274364822,0.28789109307679894,0.6618820337205655
0.029,1.7813795394911844,1.0,2735.956429764643,0.27838339384076116,1.3252774521795483,0.9436121022561854,0.2878709406586297,0.662610264998666
0.029500000000000002,1.7808997200109644,1.0,2750.181572247438,0.28243109562503244,1.3249317784331696,0.9450750836581113,0.2878507882404605,0.6633269750135766
0.03,1.7804199005307444,1.0,2763.896036719094,0.28645609163535657,1.3245910505141267,0.9464742067336802,0.2878306358222913,0.6640326847134427
0.0305,1.7799400810505246,1.0,2777.121832244687,0.2904585088083322,1.324255033320719,0.9478131700840718,0.287810483404122,0.6647279125197048
0.031,1.7794602615703046,1.0,2789.8813693194606,0.29443847408055784,1.323923491751246,0.949095407431671,0.2877903309859528,0.6654131743994915
0.0315,1.7789804420900845,1.0,2802.197435926226,0.29839611438863217,1.3235961907040066,0.9503241099090456,0.28777017856778353,0.6660889839344906
0.032,1.7785006226098645,1.0,2814.090724971407,0.30233155460633643,1.3232729170082442,0.9515022482570519,0.2877500261496143,0.666755807171495
0.0325,1.7780208031296447,1.0,2825.577254063762,0.3062449167815803,1.322953502059935,0.9526325933588503,0.2877298737314451,0.6674140162857894
0.033,1.7775409836494247,1.0,2836.6857567912225,0.31013633448378475,1.3226376661550772,0.9537177182732393,0.2877097213132758,0.6680642103890465
0.0335,1.7770611641692047,1.0,2847.429621509747,0.3140059277584951,1.3223252691408391,0.9547600358543249,0.2876895688951066,0.6687066992132833
0.034,1.7765813446889847,1.0,2857.8224363723143,0.3178538166512567,1.322016170864389,0.9557617993135831,0.28766941647693733,0.6693417911410608
0.0345,1.7761015252087649,1.0,2867.877978861138,0.32168012120761486,1.3217102311728948,0.956725114676213,0.2876492640587681,0.669969793235595
0.035,1.7756217057285448,1.0,2877.6102057546605,0.3254849614731148,1.3214073099135244,0.9576519521264082,0.2876291116405989,0.6705910112696164
0.035500000000000004,1.7751418862483248,1.0,2887.0332435303167,0.3292684574933019,1.3211072669334463,0.9585441563523058,0.2876089592224296,0.6712057497529735
0.036000000000000004,1.7746620667681048,1.0,2896.1613792029525,0.33303072931372146,1.3208099620798284,0.9594034559892399,0.2875888068042604,0.6718143119589894
0.0365,1.774182247287885,1.0,2905.0090515985135,0.3367718969799187,1.320515255199839,0.960231472249236,0.28756865438609114,0.6724169999495604
0.037,1.773702427807665,1.0,2913.5908430634836,0.3404920805374391,1.320223006140646,0.9610297268152598,0.2875485019679219,0.6730141145990046
0.0375,1.773222608327445,1.0,2921.91249467454,0.34419138815403993,1.3199331536139112,0.9617996542131978,0.2875283495497527,0.6736057947023517
0.038,1.772742788847225,1.0,2929.9954904200954,0.3478699524499448,1.3196454989065143,0.9625425949549342,0.28750819713158343,0.6741924586377729
0.0385,1.7722629693670051,1.0,2937.8497650624413,0.3515278889631165,1.3193599458873118,0.9632598162652357,0.2874880447134142,0.6747743142948128
0.039,1.771783149886785,1.0,2945.4833677253337,0.3551653104106156,1.3190764157033135,0.9639525122157028,0.28746789229524494,0.6753515336158364
0.0395,1.771303330406565,1.0,2952.9044222111174,0.35878232950950284,1.3187948295015288,0.9646218077808094,0.2874477398770757,0.6759242878925101
0.04,1.7708235109263453,1.0,2960.12112353281,0.3623790589768388,1.3185151084289681,0.9652687635777651,0.2874275874589065,0.6764927477757738
0.0405,1.7703436914461252,1.0,2967.14173458473,0.36595561152968414,1.3182371736326408,0.9658943802327606,0.2874074350407373,0.6770570832854224
0.041,1.7698638719659052,1.0,2973.9745829504673,0.3695120998850995,1.3179609462595567,0.9664996024066915,0.287387282622568,0.6776174638192834
0.0415,1.7693840524856852,1.0,2980.6280578489536,0.3730486367601455,1.3176863474567255,0.9670853225102051,0.28736713020439875,0.6781740581620047
0.042,1.7689042330054654,1.0,2987.1106072182847,0.3765653348718828,1.3174132983711573,0.9676523841350353,0.28734697778622953,0.6787270344934397
0.0425,1.7684244135252454,1.0,2993.4307349374044,0.3800623069373721,1.3171417201498614,0.968201585225994,0.2873268253680603,0.6792765603966422
0.043000000000000003,1.7679445940450254,1.0,2999.596430642239,0.38353966421147795,1.3168715388608672,0.9687336811809468,0.2873066729498911,0.6798227929207461
0.043500000000000004,1.7674647745648053,1.0,3005.6088894201525,0.38699750238668734,1.316602739847242,0.9692493896993559,0.2872865205317218,0.6803657688814402
0.044,1.7669849550845855,1.0,3011.4839057002496,0.3904359566417429,1.3163351822843259,0.9697493870334893,0.2872663681135526,0.6809057794934386
0.0445,1.7665051356043655,1.0,3017.225840628221,0.3938551317881113,1.3160688248372145,0.9702343174545516,0.28724621569538333,0.6814429144324687
0.045,1.7660253161241455,1.0,3022.8390833600242,0.39725513263725915,1.3158036261710038,0.9707047922006029,0.2872260632772141,0.6819772630651942
0.0455,1.7655454966439255,1.0,3028.328049980384,0.4006360640006529,1.3155395449507894,0.9711613914919318,0.2872059108590449,0.6825089144523239
0.046,1.7650656771637057,1.0,3033.697182460141,0.40399803068975915,1.315276539841667,0.9716046664046473,0.2871857584408756,0.6830379573516128
0.0465,1.7645858576834856,1.0,3038.9509476510634,0.40734113751604445,1.3150145695087325,0.9720351406137344,0.2871656060227064,0.6835644802207523
0.047,1.7641060382032656,1.0,3044.093836318408,0.41066548929097535,1.3147535926170817,0.9724533120158297,0.28714545360453714,0.6840885712201537
0.0475,1.7636262187230456,1.0,3049.1303622117052,0.41397119082601846,1.3144935678318104,0.9728596542410833,0.2871253011863679,0.6846103182156202
0.048,1.7631463992428258,1.0,3054.0650611731835,0.41725834693264036,1.3142344538180142,0.9732546180626592,0.2871051487681987,0.685129808780913
0.0485,1.7626665797626058,1.0,3058.9024902840765,0.42052706242230753,1.313976209240789,0.9736386327117018,0.28708499635002943,0.6856471302002052
0.049,1.7621867602823857,1.0,3063.647227049021,0.42377744210648655,1.3137187927652305,0.9740121071049206,0.2870648439318602,0.6861623694704284
0.0495,1.7617069408021657,1.0,3068.3038686180535,0.4270095907966441,1.3134621630564347,0.974375430991358,0.28704469151369094,0.6866756133035112
0.05,1.761227121321946,1.0,3072.8745113472987,0.4302236006668818,1.3132063003650725,0.9747289759966027,0.2870245390955217,0.6871869050115562
0.0505,1.760747301841726,1.0,3077.362343442949,0.43341957376063905,1.3129511756878653,0.9750730972019297,0.2870043866773525,0.6876963062359147
0.051000000000000004,1.7602674823615059,1.0,3081.77490404247,0.4365976345899042,1.312696722918521,0.975408133606961,0.28698423425918324,0.688203952410771
0.051500000000000004,1.759787662881286,1.0,3086.114362140606,0.43975787939195926,1.3124429220731682,0.9757344087133705,0.286964081841014,0.6887098866274879
0.052000000000000005,1.759307843401066,1.0,3090.382896193708,0.4429004044040866,1.312189753167937,0.976052231578668,0.28694392942284475,0.6892141518397406
0.0525,1.758828023920846,1.0,3094.582693836396,0.4460253058635683,1.3119371962189565,0.9763618975866002,0.28692377700467553,0.6897167908643373
0.053,1.758348204440626,1.0,3098.71595160515,0.44913268000768664,1.3116852312423564,0.9766636891700163,0.2869036245865063,0.6902178463820117
0.0535,1.7578683849604062,1.0,3102.7848746721224,0.45222262307372374,1.3114338382542658,0.9769578764895231,0.28688347216833704,0.690717360938188
0.054,1.7573885654801862,1.0,3106.7916765870673,0.4552952312989619,1.3111829972708147,0.9772447180709822,0.2868633197501678,0.691215376943725
0.0545,1.7569087459999662,1.0,3110.7385790283,0.4583506009206831,1.3109326883081323,0.9775244614046799,0.28684316733199855,0.691711936675631
0.055,1.7564289265197461,1.0,3114.6278115627933,0.4613888281761697,1.3106828913823478,0.9777973435087718,0.28682301491382933,0.692207082277756
0.0555,1.7559491070395263,1.0,3118.461611414564,0.4644100093027038,1.3104335865095909,0.9780635914594198,0.2868028624956601,0.6927008557614553
0.056,1.7554692875593063,1.0,3122.2422232422987,0.4674142405375677,1.3101847537059912,0.9783234228898458,0.28678271007749084,0.6931932990062295
0.0565,1.7549894680790863,1.0,3125.971898926051,0.4704016181180435,1.3099363729876778,0.9785770464603675,0.2867625576593216,0.6936844537603413
0.057,1.7545096485988663,1.0,3129.652897362118,0.4733722382814134,1.3096884243707805,0.9788246623013287,0.28674240524115235,0.6941743616414011
0.0575,1.7540298291186465,1.0,3133.287484267477,0.47632619726495956,1.3094408878714285,0.9790664624306935,0.28672225282298314,0.6946630641369325
0.058,1.7535500096384264,1.0,3136.876869290112,0.4792635791328765,1.3091937525162798,0.9793026306092748,0.2867021004048139,0.6951505848370585
0.0585,1.7530701901582064,1.0,3140.420151178828,0.4821844491467018,1.3089470252542996,0.9795333427002147,0.28668194798664465,0.6956369119468085
0.059000000000000004,1.7525903706779864,1.0,3143.9237701744873,0.4850889590454668,1.3087006508501677,0.9797587714329435,0.28666179556847543,0.6961221561373816
0.059500000000000004,1.7521105511977666,1.0,3147.388680960537,0.4879771954686987,1.3084546206330803,0.9799790798677194,0.2866416431503062,0.6966063361291535
0.06,1.7516307317175466,1.0,3150.8158412777816,0.49084924505592487,1.3082089259322338,0.9801944247425637,0.28662149073213694,0.6970894705857743
0.0605,1.7511509122373266,1.0,3154.2062118592626,0.4937051944466725,1.3079635580768243,0.9804049567671939,0.2866013383139677,0.6975715781143574
0.061,1.7506710927571068,1.0,3157.5607563661306,0.4965451302804688,1.3077185083960485,0.9806108209011046,0.2865811858957985,0.6980526772656601
0.0615,1.7501912732768867,1.0,3160.880441325998,0.49936913919684117,1.3074737682191027,0.9808121566167753,0.28656103347762923,0.6985327865342651
0.062,1.7497114537966667,1.0,3164.1662360726414,0.5021773078353167,1.3072293288751828,0.9810090981488983,0.28654088105946,0.6990119243587525
0.0625,1.7492316343164467,1.0,3167.4191126868723,0.5049697228354227,1.3069851816934857,0.9812017747304754,0.28652072864129075,0.6994901091218674
0.063,1.7487518148362269,1.0,3170.6400459402125,0.5077464708366866,1.3067413180032073,0.9813903108165667,0.28650057622312153,0.6999673591506865
0.0635,1.7482719953560069,1.0,3173.8300132389572,0.5105076384786352,1.306497729133544,0.9815748262964215,0.2864804238049523,0.7004436927167752
0.064,1.7477921758757868,1.0,3176.989994570827,0.5132533124007963,1.306254406413692,0.9817554366946806,0.28646027138678304,0.7009191280363429
0.0645,1.7473123563955668,1.0,3180.120972452935,0.5159835792426968,1.306011341172848,0.9819322533622846,0.2864401189686138,0.7013936832703916
0.065,1.746832536915347,1.0,3183.2239318813095,0.5186985256438641,1.3057685247402082,0.9821053836576905,0.28641996655044455,0.7018673765248619
0.0655,1.746352717435127,1.0,3186.299860282551,0.5213982382438254,1.3055259484449686,0.9822749311189497,0.28639981413227533,0.7023402258507729
0.066,1.745872897954907,1.0,3189.3497474664064,0.5240828036821078,1.305283603616326,0.9824409956271759,0.2863796617141061,0.7028122492443558
0.0665,1.745393078474687,1.0,3192.374585580649,0.5267523085982388,1.3050414815834763,0.9826036735618906,0.28635950929593684,0.7032834646471865
0.067,1.7449132589944671,1.0,3195.3753690677004,0.5294068396317457,1.304799573675616,0.982763057948702,0.2863393568777676,0.7037538899463098
0.0675,1.7444334395142471,1.0,3198.3530946218843,0.5320464834221554,1.3045578712219414,0.9829192385997496,0.28631920445959835,0.7042235429743602
0.068,1.743953620034027,1.0,3201.3087611500555,0.5346713266089956,1.304316365551649,0.9830723022473185,0.28629905204142914,0.7046924415096785
0.0685,1.743473800553807,1.0,3204.2413385449736,0.5372814048508596,1.3040750650341322,0.9832223303048625,0.2862788996232599,0.705160570231149
0.069,1.7429939810735873,1.0,3207.1531113203955,0.5398768530053581,1.3038339502310854,0.9833694062648879,0.28625874720509065,0.7056279677518313
0.0695,1.7425141615933673,1.0,3210.045037346416,0.5424577633492609,1.3035930128610755,0.9835136087086539,0.28623859478692143,0.7060946509628023
0.07,1.7420343421131472,1.0,3212.917525451,0.5450242128574003,1.3033522492592422,0.9836550128922661,0.28621844236875216,0.7065606277721894
