Time [s],Phi [rad],STIM [ ],Fsee [N],Gamma [ ],Lcerel [ ],q [ ],Lmtc [m],fisomrel [ ]
0.0,1.8,1.0,17.96630125342977,1.000123588780099e-05,1.3793398422239085,0.0050000266583412655,0.288653,0.5411392987931767
0.0005,1.79999375,1.0,18.275712827613564,0.00561915444565854,1.3793025023505256,0.012940519677009168,0.2886527375,0.5412296291793033
0.001,1.799975,1.0,21.617379621462664,0.011196844740844186,1.3789384044479338,0.03560859039008109,0.28865195,0.5421099669466012
0.0015,1.79994375,1.0,31.06814986496795,0.016743248604380805,1.3780462962651232,0.07060172653021922,0.2886506375,0.5442633860976489
0.002,1.7999,1.0,53.58102310744183,0.022258541527551575,1.3763682202243068,0.1147178626142734,0.2886488,0.5483002640471546
0.0025,1.79984375,1.0,97.11721897947889,0.02774289801755365,1.3739352500783888,0.16457470096986015,0.28864643749999996,0.5541212651428982
0.003,1.7997750000000001,1.0,160.95637826232823,0.033196491605212736,1.371214410703906,0.2172802532909608,0.28864354999999997,0.5605862923652802
0.0035,1.79969375,1.0,237.68156287376934,0.038619494844575886,1.3685847887129456,0.27061268635857244,0.2886401375,0.5667897115096723
0.004,1.7996,1.0,321.4650753153498,0.04401207932369352,1.3661561373174107,0.32291560413957804,0.2886362,0.5724798568392651
0.0045000000000000005,1.7994937500000001,1.0,409.26615090041264,0.04937441566980377,1.3639228517221047,0.37303431902933226,0.2886317375,0.5776790752374075
0.005,1.799375,1.0,499.41198918487504,0.05470667354042735,1.3618583745400983,0.4202472838967882,0.28862675,0.5824570050229527
0.0055,1.79924375,1.0,590.7889815177707,0.06000902167080226,1.3599388630865494,0.46417353452568666,0.2886212375,0.5868750473213082
0.006,1.7991000000000001,1.0,682.5167533253599,0.06528162781710743,1.3581464393777525,0.5046798118803003,0.2886152,0.5909793621206565
0.006500000000000001,1.79894375,1.0,773.8796867355517,0.07052465881262873,1.3564672804374327,0.5418006267352684,0.2886086375,0.5948057333467498
0.007,1.798775,1.0,864.2844563544658,0.07573828054777754,1.3548904168815334,0.575676658691548,0.28860155,0.5983826275690415
0.0075,1.79859375,1.0,953.2417413375343,0.08092265798611774,1.3534068018639214,0.606509807433665,0.2885939375,0.601733521671923
0.008,1.7984,1.0,1040.358462568955,0.08607795516424306,1.3520086462271466,0.6345319488951444,0.2885858,0.6048785490476135
0.0085,1.79819375,1.0,1125.3171161265896,0.09120433521793501,1.3506892006063855,0.6599843153483054,0.2885771375,0.6078350911289997
0.009000000000000001,1.797975,1.0,1207.867668222788,0.09630195974905477,1.349442479296298,0.6831043524987515,0.28856795,0.6106184746915062
0.0095,1.79774375,1.0,1287.8633884744634,0.10137099129239208,1.3482625051347825,0.7041176033980073,0.2885582375,0.6132437101952984
0.01,1.7975,1.0,1365.1695916183537,0.10641159020702709,1.347144352603168,0.7232341415023423,0.288548,0.6157232093613758
0.0105,1.79724375,1.0,1439.6709143098217,0.11142391492183326,1.3460838035187772,0.7406465275682265,0.2885372375,0.6180676050445677
0.011,1.796975,1.0,1511.315169343728,0.11640812386568408,1.345076639698934,0.7565291122823439,0.28852595000000003,0.6202873492796305
0.0115,1.79669375,1.0,1580.1036296389495,0.1213643752821057,1.3441186907238845,0.7710386521792428,0.2885141375,0.6223926233880088
0.012,1.7964,1.0,1646.0505064671765,0.12629282647126375,1.3432062410893975,0.7843155761299007,0.28850180000000003,0.6243924619811428
0.0125,1.79609375,1.0,1709.168702589091,0.13119363310519921,1.3423360953526235,0.7964853094828221,0.2884889375,0.6262946359015289
0.013000000000000001,1.7957750000000001,1.0,1769.4892647894635,0.13606694978559628,1.3415052679381634,0.8076595322252603,0.28847555,0.6281063519466941
0.0135,1.79544375,1.0,1827.065106067436,0.14091293049784795,1.3407108886265582,0.8179375430166864,0.2884616375,0.629834471847261
0.014,1.7951000000000001,1.0,1881.9761377112952,0.1457317298267452,1.3399501063974084,0.8274075644943666,0.2884472,0.6314857307410418
0.0145,1.79474375,1.0,1934.2858012885652,0.1505234999989793,1.3392205295316815,0.8361481412544985,0.2884322375,0.6330657919140485
0.015,1.794375,1.0,1984.0545731704726,0.15528839169834271,1.3385200271247644,0.8442291766591627,0.28841675,0.6345796914395689
0.0155,1.79399375,1.0,2031.361376918093,0.160026555608628,1.3378464682720446,0.851712854640608,0.2884007375,0.6360324103192168
0.016,1.7936,1.0,2076.2940092646277,0.1647381417249036,1.3371978052766673,0.8586545769091025,0.2883842,0.6374286993513991
0.0165,1.7931937500000001,1.0,2118.9470429787943,0.16942330027504018,1.3365720757097346,0.8651037672035078,0.2883671375,0.6387730798866094
0.017,1.792775,1.0,2159.402426891776,0.17408217961389671,1.3359675829530946,0.8711046284165157,0.28834955,0.6400694617495393
0.0175,1.7923437500000001,1.0,2197.730786984508,0.17871492599380145,1.3353828592010675,0.8766967442341229,0.2883314375,0.6413212300832811
0.018000000000000002,1.7919,1.0,2234.0122918009233,0.1833216856670827,1.3348164366479742,0.8819155586607075,0.2883128,0.6425317402753605
0.0185,1.79144375,1.0,2268.3358492666953,0.18790260488606883,1.3342668474881354,0.8867928595125092,0.2882936375,0.6437043197396162
0.019,1.790975,1.0,2300.779238384015,0.19245782788788954,1.3337328131395103,0.8913572478903361,0.28827395,0.644841866817566
0.0195,1.79049375,1.0,2331.4423404093245,0.19698750161050288,1.3332129042105305,0.8956344224654536,0.2882537375,0.6459475780216322
0.02,1.79,1.0,2360.390460795666,0.20149176785716133,1.3327060934427137,0.8996476346218327,0.288233,0.6470237735525772
0.0205,1.78949375,1.0,2387.6915279590676,0.20597076813753742,1.3322113767780432,0.9034178761614431,0.2882117375,0.6480727077144037
0.021,1.788975,1.0,2413.418014022449,0.21042464396130378,1.3317277501585014,0.9069641249800431,0.28818995000000003,0.6490966191797796
0.021500000000000002,1.78844375,1.0,2437.6465510889248,0.21485353683813296,1.3312542095260713,0.9103035659100335,0.2881676375,0.6500977317323267
0.022,1.7879,1.0,2460.442469237161,0.21925758596485628,1.3307898953917345,0.9134518132455639,0.2881448,0.65107794995767
0.0225,1.78734375,1.0,2481.888897371179,0.22363693399818615,1.3303338090759178,0.9164230242736038,0.28812143749999997,0.6520394597621018
0.023,1.786775,1.0,2502.0423395443077,0.22799171832956025,1.329885234653969,0.919230130665197,0.28809755,0.6529838391495404
0.0235,1.78619375,1.0,2520.956218172407,0.23232207539424854,1.3294435081569085,0.9218849230351106,0.28807313749999996,0.6539125476188424
0.024,1.7856,1.0,2538.6860869427137,0.236628141627521,1.3290079656157576,0.9243981588683275,0.2880482,0.6548270362288917
0.0245,1.78499375,1.0,2555.2894517879326,0.24091005346464758,1.3285779430615376,0.926779667276227,0.2880227375,0.6557287478745183
0.025,1.784375,1.0,2570.8248584436337,0.24516794712233972,1.3281527834859477,0.9290384429521767,0.28799675,0.6566191029669157
0.025500000000000002,1.78374375,1.0,2585.3422710588334,0.249401955764646,1.3277319251138509,0.9311827419150265,0.2879702375,0.6574993152460755
0.026000000000000002,1.7831000000000001,1.0,2598.908466498498,0.2536122181292408,1.327314662224603,0.9332201179527636,0.2879432,0.6583708925152871
0.0265,1.78244375,1.0,2611.563360817157,0.2577988652587833,1.3269005516197816,0.9351575493284591,0.2879156375,0.6592347874702886
0.027,1.781775,1.0,2623.3478653654884,0.2619620281959326,1.3264891501009644,0.9370014548051483,0.28788755,0.6600919479156568
0.0275,1.7810937500000001,1.0,2634.303802520843,0.2661018379833479,1.3260800144697287,0.9387577459567538,0.2878589375,0.6609433168476453
0.028,1.7804,1.0,2644.47382577242,0.27021842566368826,1.3256727015276524,0.9404318739530491,0.2878298,0.661789832524492
0.0285,1.77969375,1.0,2653.9013441623424,0.2743119222796129,1.3252667680763128,0.9420288714622832,0.2878001375,0.6626324285242032
0.029,1.778975,1.0,2662.617279890842,0.27838245441755544,1.3248618921325999,0.9435534055638254,0.28776995,0.6634717826531475
0.029500000000000002,1.7782437500000001,1.0,2670.671863528009,0.28243015647725134,1.324457579227383,0.9450097740128187,0.2877392375,0.6643089262815898
0.03,1.7775,1.0,2678.1043620219457,0.28645515793561627,1.324053440961323,0.9464019707814924,0.287708,0.6651446664576735
0.0305,1.77674375,1.0,2684.9420257241322,0.29045758368484975,1.3236492033780671,0.9477337132365506,0.2876762375,0.6659795700023678
0.031,1.775975,1.0,2691.2124688137237,0.2944375586171513,1.3232445925212626,0.949008452304372,0.28764395,0.6668142009112338
0.0315,1.7751937500000001,1.0,2696.9436364438284,0.29839520762472055,1.322839334434557,0.9502293948904317,0.2876111375,0.6676491203502941
0.032,1.7744,1.0,2702.1637735520626,0.30233065559975697,1.3224331551615973,0.9513995241508313,0.2875778,0.6684848866471216
0.0325,1.77359375,1.0,2706.9013953350996,0.30624402743446005,1.3220257807460312,0.9525216178448425,0.2875439375,0.6693220552771335
0.033,1.772775,1.0,2711.185259386963,0.31013544802102944,1.3216169372315054,0.953598264970726,0.28750955,0.6701611788451081
0.0335,1.7719437500000002,1.0,2715.039356669941,0.3140050397347648,1.3212063960741596,0.9546318853727417,0.2874746375,0.671002714033961
0.034,1.7711000000000001,1.0,2718.4879748997596,0.3178529257561521,1.3207939276574963,0.9556247387066757,0.2874392,0.6718471172770315
0.0345,1.7702437500000001,1.0,2721.563174930636,0.32167923262869946,1.3203792330620145,0.956578930086531,0.2874032375,0.672694984128174
0.035,1.7693750000000001,1.0,2724.2821266539513,0.32548407887158814,1.3199621502766303,0.9574964414732754,0.28736675,0.6735466275202648
0.035500000000000004,1.76849375,1.0,2726.662108469491,0.3292675830039995,1.3195425172902593,0.9583791283701488,0.2873297375,0.6744023585580496
0.036000000000000004,1.7676,1.0,2728.720495876951,0.33302986354511466,1.3191201720918175,0.9592287293420698,0.2872922,0.67526248649263
0.0365,1.76669375,1.0,2730.474750650212,0.3367710390141149,1.3186949526702207,0.9600468747146005,0.2872541375,0.6761273186942787
0.037,1.765775,1.0,2731.9424105925495,0.3404912279301817,1.318266697014385,0.960835094531602,0.28721555,0.6769971606235767
0.0375,1.76484375,1.0,2733.141079874837,0.3441905488124962,1.3178352431132263,0.9615948258423201,0.2871764375,0.6778723158008813
0.038,1.7639,1.0,2734.0884199546863,0.3478691201802397,1.3174004289556605,0.9623274193812014,0.28713679999999997,0.678753085774116
0.0385,1.76294375,1.0,2734.8036621183737,0.35152705385252486,1.3169620787183365,0.963034143041921,0.28709663750000003,0.6796397980055838
0.039,1.761975,1.0,2735.299393628962,0.35516447432288895,1.3165200772816368,0.963716198519156,0.28705595,0.6805326552220239
0.0395,1.7609937500000001,1.0,2735.5870923133057,0.35878149429642997,1.3160743198904232,0.9643747163822624,0.2870147375,0.6814318377098418
0.04,1.76,1.0,2735.678301662778,0.36237822623053745,1.3156247014391285,0.9650107622821911,0.286973,0.6823375250046588
0.0405,1.7589937500000001,1.0,2735.58458796835,0.3659547825826007,1.3151711168221858,0.9656253414382848,0.2869307375,0.683249895156429
0.041,1.757975,1.0,2735.3175362855736,0.3695112758100093,1.314713460934028,0.966219402696483,0.28688795,0.6841691247032079
0.0415,1.75694375,1.0,2734.888746644271,0.3730478183701525,1.3142516286690882,0.9667938422741427,0.2868446375,0.685095388644214
0.042,1.7559,1.0,2734.3098305033877,0.3765645227204198,1.3137855149217987,0.967349507218682,0.28680079999999997,0.6860288604121862
0.0425,1.75484375,1.0,2733.592407450743,0.38006150131820055,1.313315014586593,0.9678871986046313,0.2867564375,0.6869697118450351
0.043000000000000003,1.753775,1.0,2732.7148541643483,0.3835388640585781,1.3128403245907685,0.9684076986538364,0.28671155,0.687917510554664
0.043500000000000004,1.75269375,1.0,2731.746935616305,0.38699672340163993,1.312360811755079,0.9689116817564529,0.28666613750000003,0.6888734798460082
0.044,1.7516,1.0,2730.698593149503,0.39043518849306863,1.3118763861733194,0.9693998295249799,0.2866202,0.6898377542967812
0.0445,1.75049375,1.0,2729.5470978103663,0.39385436664821466,1.3113872548626975,0.9698728109306393,0.2865737375,0.6908098772610762
0.045,1.749377658310585,1.0,2728.4017934986305,0.3972543651824285,1.31089362484042,0.9703312603637764,0.28652686164904456,0.6917893942397457
0.0455,1.7482608104737716,1.0,2727.691152657596,0.4006352914110606,1.3103957031236941,0.9707757797632316,0.2864799540398984,0.6927758529411592
0.046,1.7471439626369583,1.0,2727.4297935438985,0.4039972526494613,1.3098936967297272,0.9712069405950172,0.28643304643075224,0.6937688033392343
0.0465,1.746027114800145,1.0,2727.594896501172,0.4073403562091777,1.309387812565469,0.9716252856836889,0.2863861388216061,0.6947677979462827
0.047,1.7449102669633318,1.0,2728.1597814787215,0.41066470603049793,1.3088782935535188,0.9720313330994186,0.28633923121245997,0.6957723206998286
0.0475,1.7437934191265185,1.0,2729.0702374505713,0.41397041161400217,1.3083656336167564,0.972425594151383,0.2862923236033138,0.6967813648091084
0.048,1.7426765712897052,1.0,2730.303195657818,0.41725757576255196,1.3078500439817509,0.9728085344134149,0.28624541599416764,0.6977944847590372
0.0485,1.741559723452892,1.0,2731.83562628124,0.42052630127900886,1.3073317358750713,0.9731805970868078,0.2861985083850215,0.6988112376403552
0.049,1.7404428756160786,1.0,2733.6445252156745,0.42377669096623444,1.306810920523287,0.9735422042869117,0.2861516007758753,0.69983118318767
0.0495,1.7393260277792653,1.0,2735.706901833549,0.42700884762709035,1.306287809152967,0.9738937582445345,0.28610469316672915,0.7008538838146545
0.05,1.738209179942452,1.0,2737.999767737559,0.43022287406443804,1.3057626129906803,0.9742356424284955,0.286057785557583,0.7018789046464013
0.0505,1.7370923321056386,1.0,2740.502720795091,0.43341887176093036,1.305235519729234,0.974568220886072,0.2860108779484368,0.7029058593610472
0.051000000000000004,1.7359754842688253,1.0,2743.1960360058692,0.43659694300415824,1.3047067108112582,0.9748918407018163,0.28596397033929066,0.7039343762327304
0.051500000000000004,1.734858636432012,1.0,2746.061230868944,0.4397571897201587,1.3041763562540445,0.9752068324640732,0.2859170627301445,0.7049641080867749
0.052000000000000005,1.7337417885951987,1.0,2749.085996541218,0.44289971038904946,1.3036445699592674,0.9755135079797418,0.28587015512099834,0.7059948186678942
0.0525,1.7326249407583854,1.0,2752.258010884443,0.44602460349094825,1.303111465828602,0.9758121652224632,0.2858232475118522,0.7070262732246053
0.053,1.731508092921572,1.0,2755.564934993673,0.44913196750597284,1.3025771577637233,0.9761030890689555,0.285776339902706,0.7080582385192185
0.0535,1.7303912450847587,1.0,2758.994410012924,0.45222190091424097,1.302041759666306,0.9763865519900958,0.28572943229355985,0.7090904828369943
0.054,1.7292743972479456,1.0,2762.534054238485,0.45529450219587037,1.3015053854380254,0.9766628146998894,0.2856825246844137,0.7101227759944762
0.0545,1.7281575494111323,1.0,2766.1790311736813,0.45834986181183784,1.300968080623796,0.9769321218516864,0.2856356170752675,0.7111550205536615
0.055,1.727040701574319,1.0,2769.9105853246415,0.461388087341301,1.3004300162942362,0.9771947169041443,0.2855887094661214,0.7121868791755261
0.0555,1.7259238537375057,1.0,2773.719593166616,0.46440927600901594,1.2998912762492287,0.9774508269290202,0.28554180185697525,0.7132181837678851
0.056,1.7248070059006924,1.0,2777.600662373332,0.46741352088370125,1.2993519104681006,0.9777006671887467,0.2854948942478291,0.7142488319486553
0.0565,1.723690158063879,1.0,2781.548387860761,0.47040091503407583,1.2988119689301787,0.9779444440813497,0.2854479866386829,0.7152787220155291
0.057,1.7225733102270657,1.0,2785.5573511218213,0.4733715515288583,1.29827150161479,0.9781823555790419,0.28540107902953676,0.7163077529478898
0.0575,1.7214564623902524,1.0,2789.622119615793,0.4763255234367674,1.297730558501262,0.9784145916417062,0.2853541714203906,0.7173358244085671
0.058,1.720339614553439,1.0,2793.7372462136923,0.47926292382652186,1.297189189568921,0.9786413346068925,0.28530726381124444,0.7183628367454336
0.0585,1.7192227667166258,1.0,2797.8972686984175,0.4821838457668404,1.2966474447970944,0.9788627595578411,0.2852603562020983,0.7193886909928408
0.059000000000000004,1.7181059188798125,1.0,2802.096709320786,0.4850883823264418,1.296105374165109,0.9790790346709347,0.2852134485929521,0.720413288872898
0.059500000000000004,1.7169890710429991,1.0,2806.3300744106864,0.4879766265740447,1.2955630276522918,0.9792903215438831,0.28516654098380595,0.7214365327965899
0.06,1.715872223206186,1.0,2810.5922633756963,0.49084867036813606,1.2950204515713644,0.9794967752091159,0.28511963337465984,0.722458332763483
0.0605,1.7147553753693727,1.0,2814.884457491408,0.49370459007721296,1.2944776358710797,0.9796985404771553,0.2850727257655137,0.723478705267155
0.061,1.7136385275325594,1.0,2819.195495686409,0.49654450134639244,1.293934680922205,0.9798957656194268,0.2850258181563675,0.7244974596656937
0.0615,1.712521679695746,1.0,2823.523649162237,0.49936849053074694,1.2933916024942862,0.9800885865339982,0.28497891054722135,0.7255145650058507
0.062,1.7114048318589328,1.0,2827.8671838192417,0.5021766439853489,1.2928484163568694,0.9802771340271076,0.2849320029380752,0.7265299905525309
0.0625,1.7102879840221195,1.0,2832.224360216375,0.5049690480652708,1.292305138279501,0.9804615340428517,0.28488509532892903,0.7275437057889088
0.063,1.7091711361853061,1.0,2836.5934335359825,0.5077457891255848,1.291761784031727,0.9806419078808543,0.28483818771978286,0.7285556804165303
0.0635,1.7080542883484928,1.0,2840.9726535547866,0.5105069535213634,1.2912183693830936,0.980818372402634,0.2847912801106367,0.7295658843553955
0.064,1.7069374405116795,1.0,2845.3602646196105,0.5132526276076792,1.290674910103147,0.9809910402273322,0.28474437250149054,0.7305742877440289
0.0645,1.7058205926748662,1.0,2849.7545056293484,0.5159828977396045,1.290131421961433,0.9811600199174294,0.2846974648923444,0.7315808609395309
0.065,1.7047037448380529,1.0,2854.1536100219846,0.5186978502722116,1.289587920727498,0.9813254161550272,0.2846505572831982,0.7325855745176157
0.0655,1.7035868970012396,1.0,2858.5558057671274,0.521397571560573,1.289044422170888,0.9814873299092406,0.28460364967405205,0.7335883992726321
0.066,1.7024700491644262,1.0,2862.9593153644532,0.524082147959761,1.2885009420611495,0.981645858595213,0.2845567420649059,0.7345893062175678
0.0665,1.701353201327613,1.0,2867.3623558472686,0.5267516658248482,1.2879574961678282,0.9818010962252252,0.2845098344557597,0.735588266584041
0.067,1.7002363534907996,1.0,2871.7631387915803,0.5294062115109069,1.2874141002604704,0.9819531335523495,0.28446292684661356,0.7365852518222713
0.0675,1.6991195056539865,1.0,2876.1625794177235,0.5320458442191012,1.2868707461200917,0.9821020552796811,0.2844160192374674,0.7375802774888454
0.068,1.6980026578171732,1.0,2880.5579871303344,0.5346706717623015,1.286327457457495,0.9822479479088424,0.28436911162832124,0.7385733007204285
0.0685,1.6968858099803599,1.0,2884.9473026337687,0.5372807918216967,1.2857842523298149,0.9823908940713529,0.28432220401917513,0.739564289286635
0.069,1.6957689621435466,1.0,2889.3301802583605,0.5398762828847998,1.2852411336003469,0.9825309716849606,0.28427529641002897,0.7405532388469039
0.0695,1.6946521143067332,1.0,2893.706273399513,0.5424572234391237,1.2846981041323868,0.9826682560710291,0.2842283888008828,0.7415401451002062
0.07,1.69353526646992,1.0,2898.0752345232113,0.5450236919721817,1.2841551667892304,0.9828028200590291,0.28418148119173664,0.7425250037850277
0.07050000000000001,1.6924184186331066,1.0,2902.4367151715733,0.5475757669714867,1.2836123244341733,0.9829347340861381,0.2841345735825905,0.7435078106793535
0.07100000000000001,1.6913015707962933,1.0,2906.7903659690264,0.5501135269245516,1.2830695799305112,0.9830640662922193,0.2840876659734443,0.7444885616006504
0.07150000000000001,1.69018472295948,1.0,2911.1358366282284,0.5526370503188898,1.2825269361415401,0.9831908826104161,0.28404075836429815,0.7454672524058485
0.07200000000000001,1.6890678751226667,1.0,2915.4727759565685,0.555146415642014,1.2819843959305555,0.9833152468535943,0.283993850755152,0.7464438789913257
