Time [s],Phi [rad],STIM [ ],Fsee [N],Gamma [ ],Lcerel [ ],q [ ],Lmtc [m],fisomrel [ ]
0.0,1.8,1.0,17.967268154155512,1.0069330332499047e-05,1.3793397338975653,0.005000027021134826,0.288653,0.5411395608626416
0.0005,1.79999375,1.0,18.27661325258716,0.005619222158146927,1.379302402329248,0.01294070676950012,0.2886527375,0.5412298711328487
0.001,1.799975,1.0,21.61827810074758,0.011196912073519331,1.378938312680326,0.035608938865617265,0.28865195,0.5421101887212609
0.0015,1.79994375,1.0,31.069149921026195,0.01674331555937257,1.3780462110629772,0.07060220138955853,0.2886506375,0.5442635915208129
0.002,1.7999,1.0,53.58225405463008,0.02225860810697904,1.376368140366238,0.11471842444155461,0.2886488,0.548300455731058
0.0025,1.79984375,1.0,97.11870923684299,0.027742964223523035,1.3739351782660831,0.16457531336470474,0.28864643749999996,0.5541214364002316
0.003,1.7997750000000001,1.0,160.95801116446128,0.03319655743981905,1.3712143495826405,0.21728088692384018,0.28864354999999997,0.5605864370661262
0.0035,1.79969375,1.0,237.6832313868305,0.038619560309902344,1.3685847373182287,0.2706133182324877,0.2886401375,0.5667898323215955
0.004,1.7996,1.0,321.4667322540396,0.044012144421811374,1.3661560934313743,0.32291621722028513,0.2886362,0.5724799593210289
0.0045000000000000005,1.7994937500000001,1.0,409.2677798060001,0.04937448040277223,1.3639228134854453,0.373034901924619,0.2886317375,0.5776791639822634
0.005,1.799375,1.0,499.41357963685505,0.054706737910288544,1.3618583407431013,0.42024782998148075,0.28862675,0.5824570830186531
0.0055,1.79924375,1.0,590.7905354112413,0.060009085679609636,1.3599388327272226,0.4641740406099259,0.2886212375,0.5868751170120041
0.006,1.7991000000000001,1.0,682.5182599838895,0.06528169146688005,1.3581464119906987,0.5046802774448238,0.2886152,0.5909794246753466
0.006500000000000001,1.79894375,1.0,773.88169105339,0.07052472210450113,1.3564672462223994,0.5418010468299573,0.2886086375,0.5948058111308012
0.007,1.798775,1.0,864.2858242266789,0.07573834348581299,1.3548903947860054,0.5756770476661986,0.28860155,0.5983826775785499
0.0075,1.79859375,1.0,953.2427903471987,0.08092272057337459,1.3534067857290606,0.6065101640063278,0.2885939375,0.6017335580377994
0.008,1.7984,1.0,1040.35497987897,0.08607801735364437,1.3520086975027825,0.6345323124107843,0.2885858,0.6048784339362072
0.0085,1.79819375,1.0,1125.3195041364982,0.09120439713345424,1.3506891668010066,0.6599845984218817,0.2885771375,0.6078351667360198
0.009000000000000001,1.797975,1.0,1207.8829062150196,0.09630202185451231,1.3494422710851024,0.6831045132563413,0.28856795,0.6106189387081818
0.0095,1.79774375,1.0,1287.8714309234397,0.10137105286489934,1.3482623987106508,0.7041177974866676,0.2885582375,0.613243946569846
0.01,1.7975,1.0,1365.1640183333802,0.10641165090061876,1.3471444242349522,0.7232344056978272,0.288548,0.6157230507735445
0.0105,1.79724375,1.0,1439.659803237696,0.11142397494754686,1.3460839425820887,0.7406468027119243,0.2885372375,0.618067298108538
0.011,1.796975,1.0,1511.3068929991528,0.11640818342388853,1.3450767407984356,0.7565293481052398,0.28852595000000003,0.6202871267854888
0.0115,1.79669375,1.0,1580.1112818161669,0.12136443508703502,1.344118599306438,0.7710387832484672,0.2885141375,0.6223928240158648
0.012,1.7964,1.0,1646.0667522211452,0.12629288630621543,1.3432060509357764,0.784315651852795,0.28850180000000003,0.6243928781921853
0.0125,1.79609375,1.0,1709.1803934339216,0.13119369236703968,1.3423359610637393,0.7964853984690654,0.2884889375,0.626294929089815
0.013000000000000001,1.7957750000000001,1.0,1769.4957196820487,0.1360670085551176,1.3415051950676151,0.8076596362278524,0.28847555,0.6281065106563462
0.0135,1.79544375,1.0,1827.0722602142214,0.1409129890995517,1.3407108091447413,0.8179376353856165,0.2884616375,0.6298346445533664
0.014,1.7951000000000001,1.0,1881.9855106358716,0.14573178841990353,1.3399500037956267,0.8274076405247038,0.2884472,0.6314859531867137
0.0145,1.79474375,1.0,1934.287199365421,0.150523557926921,1.3392205144358156,0.836148240786204,0.2884322375,0.6330658245723872
0.015,1.794375,1.0,1984.0482889518498,0.15528844891841947,1.3385200941228201,0.8442292961141055,0.28841675,0.6345795467955262
0.0155,1.79399375,1.0,2031.3524071163022,0.16002661215913144,1.337846562781902,0.851712974666513,0.2884007375,0.6360322066851222
0.016,1.7936,1.0,2076.291675222584,0.16473819841212128,1.3371978296016058,0.8586546677553066,0.2883842,0.6374286470407092
0.0165,1.7931937500000001,1.0,2118.9545340233576,0.1694233574956291,1.3365719984293414,0.8651038220681698,0.2883671375,0.638773245769386
0.017,1.792775,1.0,2159.408499621708,0.17408223633143682,1.3359675208941695,0.8711046830034788,0.28834955,0.6400695947201078
0.0175,1.7923437500000001,1.0,2197.731831026388,0.1787149818413265,1.3353828486251513,0.8766968084880652,0.2883314375,0.641321252704333
0.018000000000000002,1.7919,1.0,2234.0126298682567,0.1833217409470802,1.3348164332513477,0.881915620250732,0.2883128,0.6425317475282074
0.0185,1.79144375,1.0,2268.3339956752957,0.18790265908167922,1.3342668659700856,0.886792922018971,0.2882936375,0.6437042803397222
0.019,1.790975,1.0,2300.7931278677197,0.19245788338179992,1.333732675629172,0.8913572685775407,0.28827395,0.6448421594942405
0.0195,1.79049375,1.0,2331.4619013419656,0.19698755716824934,1.333212711828863,0.8956344277998706,0.2882537375,0.6459479868483899
0.02,1.79,1.0,2360.4084693263694,0.20149182261657544,1.3327059174183007,0.8996476417870185,0.288233,0.6470241470498944
0.0205,1.78949375,1.0,2387.7060911064254,0.20597082190232618,1.3322112352466275,0.9034178891049472,0.2882117375,0.6480730075762433
0.021,1.788975,1.0,2413.432703426879,0.2104246972010495,1.3317276081629856,0.9069641360371533,0.28818995000000003,0.6490969195869409
0.021500000000000002,1.78844375,1.0,2437.6576904740305,0.21485358874455282,1.3312541023833353,0.9103035822156943,0.2881676375,0.6500979580810293
0.022,1.7879,1.0,2460.465203165129,0.21925763950557292,1.330789677743952,0.9134518064889998,0.2881448,0.6510784091136873
0.0225,1.78734375,1.0,2481.9166060626394,0.223636988149806,1.3303335449500027,0.9164230080481512,0.28812143749999997,0.6520400162014177
0.023,1.786775,1.0,2502.0669509786885,0.22799177183092795,1.3298850009985228,0.9192301197617119,0.28809755,0.6529843307276932
0.0235,1.78619375,1.0,2520.973692118884,0.23232212770261462,1.329443342886548,0.9218849240303739,0.28807313749999996,0.6539128948588533
0.024,1.7856,1.0,2538.6964852877204,0.2366281929185419,1.329007867611114,0.9243981710201611,0.2880482,0.6548272418685834
0.0245,1.78499375,1.0,2555.296809079807,0.24091010457757164,1.3285778739445184,0.9267796836072618,0.2880227375,0.6557288927107785
0.025,1.784375,1.0,2570.8265632682346,0.24516799632022934,1.3281527675186742,0.9290384665263329,0.28799675,0.6566191363834024
0.025500000000000002,1.78374375,1.0,2585.3556405051813,0.2494020077964515,1.327731800248709,0.9311827474754111,0.2879702375,0.6574995762300391
0.026000000000000002,1.7831000000000001,1.0,2598.925533135573,0.2536122708102068,1.3273145032458353,0.9332201176447559,0.2879432,0.6583712243779721
0.0265,1.78244375,1.0,2611.5788568869934,0.25779891716546394,1.3269004076212658,0.9351575506442089,0.2879156375,0.6592350876819204
0.027,1.781775,1.0,2623.359256464192,0.2619620786661916,1.3264890444862134,0.9370014610284846,0.28788755,0.6600921678267837
0.0275,1.7810937500000001,1.0,2634.311316017859,0.2661018871163584,1.3260799449518905,0.9387577565640733,0.2878589375,0.660943461416365
0.028,1.7804,1.0,2644.480474488107,0.2702184743199331,1.3256726401295102,0.9404318849745171,0.2878298,0.6617899600480692
0.0285,1.77969375,1.0,2653.899711382948,0.27431196724734774,1.3252667831275626,0.9420288914579318,0.2878001375,0.6626323973018085
0.029,1.778975,1.0,2662.6229568515832,0.278382501936768,1.324861839887127,0.9435534163303245,0.28776995,0.6634718908965263
0.029500000000000002,1.7782437500000001,1.0,2670.687982820119,0.2824302077110926,1.324457431104409,0.9450097724791557,0.2877392375,0.6643092327842082
0.03,1.7775,1.0,2678.123713677256,0.286455210239452,1.3240532633825852,0.9464019654559709,0.287708,0.6651450334537528
0.0305,1.77674375,1.0,2684.959489785286,0.29045763519097656,1.3236490433248314,0.947733709802195,0.2876762375,0.6659799003664586
0.031,1.775975,1.0,2691.2250301439753,0.2944376082347969,1.3232444775343237,0.9490084538528889,0.28764395,0.6668144379577873
0.0315,1.7751937500000001,1.0,2696.9503969633324,0.2983952550400435,1.3228392726142382,0.9502294021352605,0.2876111375,0.6676492476336404
0.032,1.7744,1.0,2702.165962144448,0.30233070127584666,1.3224331351677514,0.9513995356211709,0.2875778,0.6684849277611433
0.0325,1.77359375,1.0,2706.902375670004,0.30624407261133696,1.322025771798039,0.9525216300623685,0.2875439375,0.6693220736539455
0.033,1.772775,1.0,2711.1815075846357,0.31013549110361593,1.321616971448974,0.9535982812150519,0.28750955,0.6701611086606818
0.0335,1.7719437500000002,1.0,2715.032465567158,0.3140050827082697,1.3212064588783057,0.9546319043695349,0.2874746375,0.6710025853790157
0.034,1.7711000000000001,1.0,2718.488151585362,0.3178529732939966,1.3207939260482413,0.955624751157638,0.2874392,0.6718471205693735
0.0345,1.7702437500000001,1.0,2721.566569689799,0.32167928206904695,1.3203792021599854,0.9565789394052189,0.2874032375,0.6726950472682756
0.035,1.7693750000000001,1.0,2724.285848427886,0.32548412824167117,1.3199621164147417,0.9574964501210408,0.28736675,0.6735466966179824
0.035500000000000004,1.76849375,1.0,2726.664228087335,0.32926763102011963,1.3195424980137143,0.9583791379200425,0.2873297375,0.6744023978416946
0.036000000000000004,1.7676,1.0,2728.720048585686,0.33302990961264267,1.319120176158107,0.959228740537921,0.2872922,0.6752624782168964
0.0365,1.76669375,1.0,2730.471738007487,0.3367710832274906,1.318694980049124,0.9600468875256305,0.2872541375,0.676127263046838
0.037,1.765775,1.0,2731.9378017874087,0.34049127107291394,1.3182667388879694,0.9608351082029032,0.28721555,0.6769970756301567
0.0375,1.76484375,1.0,2733.136812541109,0.34419059235716293,1.317835281875847,0.9615948389415085,0.2871764375,0.6778722372286381
0.038,1.7639,1.0,2734.086445149089,0.3478691594083315,1.3174004468908318,0.9623274292472912,0.28713679999999997,0.6787530494690697
0.0385,1.76294375,1.0,2734.8039494884715,0.35152709755296063,1.3169620761087848,0.9630341516101099,0.28709663750000003,0.6796398032806408
0.039,1.761975,1.0,2735.3011760087406,0.3551645203625092,1.3165200610976648,0.9637162060462073,0.28705595,0.6805326878913601
0.0395,1.7609937500000001,1.0,2735.589876695393,0.35878154084949737,1.3160742946096224,0.9643747229566425,0.2870147375,0.681431888670375
0.04,1.76,1.0,2735.681830805497,0.3623782720264454,1.3156246693968088,0.9650107679097649,0.286973,0.6823375895030458
0.0405,1.7589937500000001,1.0,2735.588840492609,0.36595482690587333,1.315171078211374,0.9656253460431895,0.2869307375,0.6832499727649236
0.041,1.757975,1.0,2735.322726686046,0.36951131850030144,1.3147134138054688,0.9662194061222158,0.28688795,0.6841692192949864
0.0415,1.75694375,1.0,2734.895325225775,0.3730478598222498,1.314251568931244,0.9667938442848182,0.2868446375,0.6850955083681494
0.042,1.7559,1.0,2734.3184832521197,0.37656456388423853,1.3137854363408503,0.9673495075004175,0.28680079999999997,0.686029017667035
0.0425,1.75484375,1.0,2733.591451185119,0.3800615179191204,1.3133150232721782,0.9678872020263032,0.2867564375,0.6869696944896506
0.043000000000000003,1.753775,1.0,2732.729275208744,0.38353884542590305,1.3128401935862244,0.9684076850365811,0.28671155,0.6879177719289977
0.043500000000000004,1.75269375,1.0,2731.7559007380773,0.38699668947863153,1.312360730299097,0.9689116699713554,0.28666613750000003,0.6888736421142054
0.044,1.7516,1.0,2730.676437174318,0.3904351539797819,1.3118765875189669,0.9693998401931062,0.2866202,0.689837353818636
0.0445,1.75049375,1.0,2729.4959963305323,0.39385434283183013,1.3113877193540053,0.9698728435334584,0.2865737375,0.690808954832625
0.045,1.7493750000000001,1.0,2728.2196914721094,0.39725435993725233,1.3108940799123834,0.970331294485647,0.28652675,0.6917884919497213
0.0455,1.74824375,1.0,2726.852636404214,0.40063530919852447,1.3103956233022722,0.9707757762410764,0.2864792375,0.6927760109527867
0.046,1.7471,1.0,2725.3999446061935,0.40399729451812255,1.3098923036318424,0.9712068425824694,0.2864312,0.6937715565999681
0.0465,1.7459437500000001,1.0,2723.866728412319,0.40734041979852265,1.3093840750092653,0.9716250196449812,0.28638263750000004,0.6947751726105271
0.047,1.744775,1.0,2722.2580982390864,0.4106647889422007,1.308870891542712,0.9720308075556633,0.28633355,0.6957869016505427
0.0475,1.74359375,1.0,2720.5791618601706,0.4139705058516328,1.3083527073403536,0.9724246819607497,0.28628393750000003,0.6968067853184765
0.048,1.7424,1.0,2718.8350237265577,0.41725767442929496,1.3078294765103609,0.9728070954494246,0.2862338,0.6978348641306034
0.0485,1.74119375,1.0,2717.0307843349833,0.42052639857766316,1.307301153160905,0.9731784788819853,0.2861831375,0.6988711775063077
0.049,1.739975,1.0,2715.171539641458,0.42377678219921344,1.306767691400157,0.9735392426296476,0.28613195,0.6999157637532465
0.0495,1.73874375,1.0,2713.2623805229946,0.4270089291964218,1.306229045336288,0.9738897777326255,0.2860802375,0.7009686600523779
0.05,1.7375,1.0,2711.3083922850456,0.4302229434717643,1.305685169077469,0.9742304569825675,0.286028,0.7020299024428548
0.0505,1.73624375,1.0,2709.314654215901,0.433418928927717,1.3051360167318709,0.9745616359349344,0.2859752375,0.7030995258067839
0.051000000000000004,1.734975,1.0,2707.2862391880376,0.4365969894667558,1.3045815424076648,0.974883653856431,0.28592195,0.7041775638538518
0.051500000000000004,1.73369375,1.0,2705.2282133055774,0.43975722899135683,1.3040217002130219,0.9751968346122064,0.2858681375,0.7052640491058146
0.052000000000000005,1.7324,1.0,2703.142586625935,0.4428997330547482,1.3034564721049056,0.9755014873056156,0.2858138,0.7063589589848364
0.0525,1.73109375,1.0,2701.0328744345948,0.4460246174519149,1.3028858262628469,0.9757979096340376,0.28575893750000003,0.7074622967126037
0.053,1.729775,1.0,2698.901544746614,0.4491319821505546,1.3023097403932173,0.9760863850554805,0.28570355000000003,0.7085740461204897
0.0535,1.72844375,1.0,2696.7505220716507,0.45222192218731616,1.3017281971400905,0.9763671844251531,0.2856476375,0.7096941806460162
0.054,1.7271,1.0,2694.581728142165,0.45529453259884844,1.3011411791475398,0.9766405668604544,0.2855912,0.7108226729006037
0.0545,1.7257437500000001,1.0,2692.397081844076,0.45834990842180034,1.3005486690596388,0.9769067803463561,0.2855342375,0.7119594946635195
0.055,1.724375,1.0,2690.1984991545883,0.4613881446928207,1.2999506495204611,0.9771660623046448,0.28547675,0.7131046168758084
0.0555,1.72299375,1.0,2687.9878930868886,0.46440933644855836,1.2993471031740804,0.9774186401294541,0.2854187375,0.7142580096342043
0.056,1.7216,1.0,2685.7671736409734,0.46741357872566225,1.29873801266457,0.9776647316913588,0.2853602,0.715419642185023
0.0565,1.72019375,1.0,2683.538247761669,0.4704009665607812,1.2981233606360034,0.9779045458121054,0.28530113749999997,0.7165894829180339
0.057,1.718775,1.0,2681.303019303108,0.4733715949905641,1.2975031297324546,0.9781382827119275,0.28524155,0.7177674993603134
0.0575,1.71734375,1.0,2679.063388999493,0.47632555905165974,1.2968773025979965,0.9783661344312287,0.2851814375,0.7189536581700817
0.058,1.7159,1.0,2676.8212544434127,0.4792629537807171,1.2962458618767032,0.9785882852283032,0.2851208,0.7201479251305143
0.0585,1.71444375,1.0,2674.5785100701614,0.48218387421438497,1.295608790212648,0.97880491195463,0.2850596375,0.7213502651435415
0.059000000000000004,1.7129750000000001,1.0,2672.3346875069346,0.48508836685543755,1.294966091926345,0.9790161815130646,0.28499795,0.7225606014467442
0.059500000000000004,1.71149375,1.0,2670.0938333901577,0.4879765822305157,1.2943177298518087,0.9792222606654157,0.2849357375,0.7237789346137684
0.06,1.71,1.0,2667.8569600811393,0.4908486165831206,1.2936636946579,0.9794233065914546,0.284873,0.7250052118618355
0.0605,1.7084937500000001,1.0,2665.624580288902,0.4937045559606851,1.293003981593612,0.9796194697736651,0.2848097375,0.7262393710787316
0.061,1.7069750000000001,1.0,2663.3972058638974,0.49654448641064153,1.292338585907938,0.9798108948964086,0.28474595,0.7274813494558265
0.0615,1.7054437500000001,1.0,2661.1753478015116,0.4993684939804227,1.2916675028498714,0.9799977211117427,0.2846816375,0.7287310834863528
0.062,1.7039,1.0,2658.9595162470728,0.5021766647174611,1.2909907276684054,0.980180082291102,0.2846168,0.7299885089636861
0.0625,1.70234375,1.0,2656.7502204994744,0.5049690846691895,1.2903082556125334,0.9803581072636821,0.2845514375,0.7312535609796174
0.063,1.7007750000000001,1.0,2654.547969017154,0.5077458398830405,1.2896200819312484,0.9805319200423338,0.28448555,0.7325261739226305
0.0635,1.69919375,1.0,2652.353269423464,0.5105070164064465,1.2889262018735443,0.9807016400377009,0.28441913750000003,0.7338062814761732
0.064,1.6976,1.0,2650.1666285128704,0.5132527002868402,1.2882266106884142,0.9808673822613005,0.2843522,0.7350938166169303
0.0645,1.69599375,1.0,2647.98855225791,0.5159829775716543,1.2875213036248512,0.9810292575181935,0.2842847375,0.7363887116130936
0.065,1.694375,1.0,2645.8195458160035,0.5186979343083215,1.2868102759318487,0.9811873725898456,0.28421675,0.7376908980226302
0.0655,1.69274375,1.0,2643.6601135373767,0.5213976565442742,1.2860935228584003,0.981341830407751,0.2841482375,0.7390003066915498
0.066,1.6911,1.0,2641.5107589732966,0.524082230326945,1.285371039653499,0.981492730218345,0.2840792,0.740316867752172
0.0665,1.6894437500000001,1.0,2639.3719848848013,0.5267517417037666,1.284642821566138,0.9816401677397015,0.2840096375,0.7416405106213892
0.067,1.687775,1.0,2637.2442932514837,0.5294062767221718,1.283908863845311,0.9817842353104814,0.28393955,0.7429711639989305
0.0675,1.68609375,1.0,2635.128185281803,0.5320459214295928,1.2831691617400112,0.9819250220315658,0.2838689375,0.7443087558656231
0.068,1.6844000000000001,1.0,2633.024161422966,0.5346707618734626,1.2824237104992318,0.9820626139007799,0.2837978,0.7456532134816523
0.0685,1.68269375,1.0,2630.932721371498,0.5372808841012137,1.2816725053719662,0.9821970939410938,0.2837261375,0.7470044633848204
0.069,1.680975,1.0,2628.850302315465,0.5398763717073068,1.2809155792272722,0.9823285439385946,0.28365395,0.7483623639904533
0.0695,1.67924375,1.0,2626.779514478625,0.5424573016117966,1.2801529077895908,0.9824570398052842,0.28358123749999997,0.7497268758196334
0.07,1.6775,1.0,2624.7222815738673,0.5450237545352588,1.2793844731090684,0.9825826554115018,0.283508,0.7510979470203069
0.07050000000000001,1.67574375,1.0,2622.678176623555,0.5475758114624757,1.2786102790061669,0.9827054631601791,0.2834342375,0.7524754860717662
0.07100000000000001,1.673975,1.0,2620.6468881915744,0.5501135532381208,1.277830328236307,0.9828255329795161,0.28335995,0.7538594027809499
0.07150000000000001,1.67219375,1.0,2618.6289030179987,0.5526370604932204,1.2770446161528473,0.9829429321270107,0.2832851375,0.7552496194538314
0.07200000000000001,1.6704,1.0,2616.623310418415,0.5551464130662395,1.276253151075934,0.9830577261808814,0.2832098,0.7566460348233965
0.0725,1.66859375,1.0,2614.628929293113,0.5576416899670169,1.275455943850612,0.9831699786385956,0.2831339375,0.7580485427212007
0.073,1.6667750000000001,1.0,2612.6445803911297,0.5601229702053914,1.274653005321926,0.983279750934678,0.28305755,0.7594570365677107
0.0735,1.66494375,1.0,2610.6326475554656,0.5625903308484034,1.2738446850045428,0.9833871174980854,0.2829806375,0.7608708179042178
0.074,1.6631,1.0,2608.682672782078,0.5650438534473174,1.2730301506588795,0.9834920984118498,0.2829032,0.7622912526504769
0.0745,1.6612437500000001,1.0,2606.772216149285,0.5674836146715238,1.2722096103632248,0.9835947583211192,0.2828252375,0.7637178827356548
0.075,1.6593750260770448,1.0,2604.8692825185594,0.5699096907217935,1.2713833731964084,0.9836951643013112,0.2827467510952359,0.76515007893029
