Time [s],Phi [rad],STIM [ ],Fsee [N],Gamma [ ],Lcerel [ ],q [ ],Lmtc [m],fisomrel [ ]
0.0,1.8,1.0,17.967222652199712,1.290264963309077e-05,1.3793397389952935,0.005000044280294627,0.288653,0.5411395485299191
0.0005,1.79999375,1.0,18.277526576110866,0.00562203958476797,1.3793023008776868,0.012948574709716228,0.2886527375,0.5412301165462141
0.001,1.799975,1.0,21.62130562403678,0.011199713696604508,1.3789380034734688,0.0356237049060429,0.28865195,0.5421109359806803
0.0015,1.79994375,1.0,31.076659875445593,0.016746101467568716,1.3780455712784216,0.07062241400286101,0.2886506375,0.5442651340458284
0.002,1.7999,1.0,53.59871324386858,0.022261378388430498,1.3763670726595094,0.11474236306345698,0.2886488,0.5483030185513762
0.0025,1.79984375,1.0,97.14657580549618,0.02774571896588773,1.3739338355373814,0.16460135735266027,0.28864643749999996,0.5541246385213732
0.003,1.7997750000000001,1.0,160.9943889265167,0.03319929673025686,1.3712129880046549,0.21730775621412776,0.28864354999999997,0.560589660512296
0.0035,1.79969375,1.0,237.72439978922026,0.038622284235084875,1.3685834692771708,0.2706400437103415,0.2886401375,0.5667928130599647
0.004,1.7996,1.0,321.510570424652,0.04401485306792636,1.3661549323651876,0.32294209556689957,0.2886362,0.5724826706143014
0.0045000000000000005,1.7994937500000001,1.0,409.31320113057575,0.049377173855529415,1.3639217473034455,0.37305946782589683,0.2886317375,0.5776816385191554
0.005,1.799375,1.0,499.4599428581389,0.05470941625493133,1.3618573555514382,0.4202708136102415,0.28862675,0.5824593566113523
0.0055,1.79924375,1.0,590.8373318732716,0.06001174900081231,1.3599379184560345,0.46419532001741226,0.2886212375,0.5868772157446973
0.006,1.7991000000000001,1.0,682.5651318177856,0.06528433984893892,1.3581455600002414,0.5046998330798034,0.2886152,0.5909813707018925
0.006500000000000001,1.79894375,1.0,773.9304947596182,0.07052735563310175,1.3564664131244808,0.5418189033334696,0.2886086375,0.5948077050834406
0.007,1.798775,1.0,864.3344241034708,0.07574096223797516,1.3548896097533074,0.5756933164370005,0.28860155,0.5983844543658967
0.0075,1.79859375,1.0,953.2902313986123,0.08092532464032051,1.353406056045578,0.6065249636366432,0.2885939375,0.6017352026476714
0.008,1.7984,1.0,1040.4059315838124,0.08608060686401596,1.3520079473495146,0.6345457201329253,0.2885858,0.6048801179935631
0.0085,1.79819375,1.0,1125.363082057096,0.09120697194657615,1.3506885499052914,0.6599968278912981,0.2885771375,0.6078365464455483
0.009000000000000001,1.797975,1.0,1207.930914931919,0.0963045823443625,1.3494416151048825,0.6831155843898846,0.28856795,0.6106204006150866
0.0095,1.79774375,1.0,1287.9219989806497,0.10137359915925993,1.3482617295611952,0.7041278388220249,0.2885582375,0.6132454327903221
0.01,1.7975,1.0,1365.2020498916795,0.1064141826290537,1.3471439354294819,0.7232436204886754,0.288548,0.6157241329545018
0.0105,1.79724375,1.0,1439.698690488899,0.11142649254165449,1.3460834558816348,0.7406551907133458,0.2885372375,0.6180683723374507
0.011,1.796975,1.0,1511.3558039332818,0.11641068738973895,1.3450761433320313,0.7565369419800042,0.28852595000000003,0.620288441655266
0.0115,1.79669375,1.0,1580.1495949619016,0.1213669246619728,1.3441181415982093,0.7710457763384929,0.2885141375,0.6223938285172028
0.012,1.7964,1.0,1646.0932232960467,0.1262953615266839,1.3432057410986276,0.784322110949471,0.28850180000000003,0.6243935563677993
0.0125,1.79609375,1.0,1709.2038872804703,0.13119615384709163,1.34233569119905,0.7964913352096451,0.2884889375,0.626295518275729
0.013000000000000001,1.7957750000000001,1.0,1769.5194691952493,0.13606945638370047,1.3415049269558483,0.8076650881569492,0.28847555,0.6281070945946451
0.0135,1.79544375,1.0,1827.083713636273,0.14091542250775163,1.3407106818987526,0.8179427030625226,0.2884616375,0.6298349210461958
0.014,1.7951000000000001,1.0,1881.9972967044046,0.14573420826413333,1.3399498747784533,0.8274123111667837,0.2884472,0.6314862329021491
0.0145,1.79474375,1.0,1934.3088648627531,0.15052596488558564,1.3392202805012776,0.8361525170097455,0.2884322375,0.6330663306652887
0.015,1.794375,1.0,1984.0769770743498,0.15529084295708578,1.3385197882704742,0.8442332260312493,0.28841675,0.6345802071087796
0.0155,1.79399375,1.0,2031.3785537997999,0.16002899306361093,1.337846287289292,0.8517166237398226,0.2884007375,0.6360328002705395
0.016,1.7936,1.0,2076.3073002354768,0.16474056579013832,1.3371976667609793,0.8586580876020431,0.2883842,0.6374289972287996
0.0165,1.7931937500000001,1.0,2118.9504343536923,0.16942571019901792,1.3365720407230368,0.8651070607006618,0.2883671375,0.6387731549857476
0.017,1.792775,1.0,2159.402891919038,0.1740845757696612,1.3359675782008478,0.8711077034781458,0.28834955,0.6400694719319427
0.0175,1.7923437500000001,1.0,2197.73342548182,0.1787173087155771,1.3353828324736707,0.8766996057010681,0.2883314375,0.641321287251077
0.018000000000000002,1.7919,1.0,2234.0189341637824,0.18332405513865693,1.3348163699109448,0.881918220064721,0.2883128,0.6425318827795198
0.0185,1.79144375,1.0,2268.3449363357036,0.18790496114079205,1.3342667568821078,0.8867953418636704,0.2882936375,0.6437045128938707
0.019,1.790975,1.0,2300.788936165459,0.19246017100205112,1.3337327171283238,0.8913595707231005,0.28827395,0.6448420711675582
0.0195,1.79049375,1.0,2331.4514782915144,0.19698983155837216,1.3332128143394077,0.8956366015783881,0.2882537375,0.6459477690051384
0.02,1.79,1.0,2360.398484441461,0.20149408468024382,1.3327060150154917,0.8996496828504574,0.288233,0.6470239399633655
0.0205,1.78949375,1.0,2387.6982302953893,0.20597307191134898,1.332211311641579,0.9034198043388424,0.2882117375,0.6480728457186915
0.021,1.788975,1.0,2413.423544010631,0.21042693479537034,1.3317276967026739,0.9069659421689694,0.28818995000000003,0.6490967322714886
0.021500000000000002,1.78844375,1.0,2437.6514211716735,0.21485581487599073,1.3312541626837797,0.9103052796072163,0.2881676375,0.6500978306909057
0.022,1.7879,1.0,2460.446109051767,0.219259851200538,1.3307898605451778,0.9134534323170592,0.2881448,0.6510780234709881
0.0225,1.78734375,1.0,2481.8924957661798,0.2236391866772567,1.3303337747750674,0.9164245535667164,0.28812143749999997,0.6520395320244101
0.023,1.786775,1.0,2502.045382924966,0.22799395838042263,1.3298852057607322,0.9192315775666041,0.28809755,0.6529838999368602
0.0235,1.78619375,1.0,2520.9586209385984,0.23232430280999905,1.3294434854312678,0.9218862935494682,0.28807313749999996,0.6539125953663841
0.024,1.7856,1.0,2538.6881983401645,0.2366303564659493,1.329007945715771,0.9243994577660996,0.2880482,0.6548270779843375
0.0245,1.78499375,1.0,2555.292061672865,0.24091225584823664,1.328577918543338,0.9267808982250019,0.2880227375,0.6557287992529578
0.025,1.784375,1.0,2570.827088303349,0.24517013682913305,1.3281527626012315,0.9290396118487916,0.28799675,0.6566191466746805
0.025500000000000002,1.78374375,1.0,2585.3433107542473,0.24940413357705668,1.3277319154035108,0.9311838545703071,0.2879702375,0.6574993355419199
0.026000000000000002,1.7831000000000001,1.0,2598.9091032029078,0.25361438388842017,1.3273146562935787,0.9332211767737301,0.2879432,0.6583709048960984
0.0265,1.78244375,1.0,2611.5641785175826,0.2578010188736821,1.3269005440212216,0.9351585568752523,0.2879156375,0.6592348033119559
0.027,1.781775,1.0,2623.349242107364,0.2619641696433014,1.3264891373362266,0.9370024137711214,0.28788755,0.6600919744944087
0.0275,1.7810937500000001,1.0,2634.305908066511,0.26610396730773656,1.3260799949883797,0.9387586591508995,0.2878589375,0.6609433573609
0.028,1.7804,1.0,2644.4766196359324,0.2702205429774464,1.3256726757274682,0.9404327442845023,0.2878298,0.6617898861113245
0.0285,1.77969375,1.0,2653.9045739817866,0.27431402776288966,1.3252667383032781,0.9420297019266703,0.2878001375,0.6626324902855446
0.029,1.778975,1.0,2662.628133334224,0.27838455007300034,1.3248617922476382,0.9435541900056821,0.28776995,0.6634719895971057
0.029500000000000002,1.7782437500000001,1.0,2670.689365462304,0.28243224214194196,1.3244574183990907,0.9450105162161072,0.2877392375,0.6643092590746091
0.03,1.7775,1.0,2678.120988282636,0.2864572314886447,1.3240532883918867,0.9464026816121305,0.287708,0.6651449817678721
0.0305,1.77674375,1.0,2684.952901660807,0.2904596438421664,1.3236491037030884,0.9477343999071326,0.2876762375,0.6659797757403939
0.031,1.775975,1.0,2691.2153868122905,0.29443960493156457,1.3232445658097587,0.9490091186819142,0.28764395,0.6668142559772341
0.0315,1.7751937500000001,1.0,2696.9390702888277,0.29839724048589683,1.3228393761889599,0.9502300417760393,0.2876111375,0.6676490343811329
0.032,1.7744,1.0,2702.154889940256,0.30233267623422094,1.3224332363177544,0.951400149533894,0.2875778,0.6684847197629435
0.0325,1.77359375,1.0,2706.8900617796276,0.3062460353493838,1.3220258841930048,0.9525222207467378,0.2875439375,0.6693218428243414
0.033,1.772775,1.0,2711.170168290651,0.310137440983762,1.321617074866597,0.9535988473738146,0.28750955,0.670160896537799
0.0335,1.7719437500000002,1.0,2715.0327057081795,0.3140070249893444,1.3212064566897068,0.9546324376594758,0.2874746375,0.6710025898623837
0.034,1.7711000000000001,1.0,2718.496155358271,0.31785490680023837,1.320793853149825,0.9556252567360592,0.2874392,0.6718472697107416
0.0345,1.7702437500000001,1.0,2721.5791399881814,0.3216812058505511,1.3203790877344421,0.9565794215571843,0.2874032375,0.6726952810664752
0.035,1.7693750000000001,1.0,2724.300409788702,0.3254860415743899,1.3199619839310492,0.9574969123233108,0.28736675,0.6735469669608003
0.035500000000000004,1.76849375,1.0,2726.6788291078356,0.32926953340586196,1.319542365227137,0.9583795828997392,0.2873297375,0.6744026684472162
0.036000000000000004,1.7676,1.0,2728.7333638545856,0.33303180077907457,1.319120055110196,0.9592291703263766,0.2872922,0.6752627245741883
0.0365,1.76669375,1.0,2730.4830695944124,0.336772963128135,1.3186948770677172,0.96004730350783,0.2872541375,0.6761274723558439
0.037,1.765775,1.0,2731.9470803345657,0.3404931398871506,1.318266654587191,0.9608355111628964,0.28721555,0.6769972467406812
0.0375,1.76484375,1.0,2733.1445980008602,0.34419245049022845,1.3178352111561085,0.9615952291041296,0.2871764375,0.6778723805782907
0.038,1.7639,1.0,2734.0908817021873,0.34787100540006394,1.317400406598095,0.9623278085405185,0.28713679999999997,0.678753131031135
0.0385,1.76294375,1.0,2734.807283183152,0.3515289326890977,1.3169620458361677,0.9630345189026451,0.28709663750000003,0.6796398644749717
0.039,1.761975,1.0,2735.3051644966463,0.355166345518971,1.316520024882295,0.9637165605860288,0.28705595,0.6805327609965286
0.0395,1.7609937500000001,1.0,2735.5956972501726,0.3587833566223083,1.3160742417619296,0.9643750644492406,0.2870147375,0.6814319951996852
0.04,1.76,1.0,2735.690079895135,0.36238007873173383,1.3156245945005234,0.965011096489746,0.286973,0.682337740262692
0.0405,1.7589937500000001,1.0,2735.5995335850635,0.365956624579872,1.3151709811235281,0.9656256622479983,0.2869307375,0.6832501679133695
0.041,1.757975,1.0,2735.3352982640326,0.3695131068993471,1.3147132996563964,0.9662197108678177,0.28688795,0.6841694484036456
0.0415,1.75694375,1.0,2734.9086289856064,0.3730496384227834,1.31425144812458,0.9667941388431945,0.2868446375,0.6850957504834325
0.042,1.7559,1.0,2734.3307924627293,0.37656633188280525,1.313785324553531,0.9673497934787395,0.28680079999999997,0.6860292413738369
0.0425,1.75484375,1.0,2733.613063847853,0.380063300012037,1.3133148269687012,0.9678874760883844,0.2867564375,0.6869700867397094
0.043000000000000003,1.753775,1.0,2732.7543345053127,0.3835406333987101,1.3128399659418337,0.9684079505916013,0.28671155,0.6879182261145164
0.043500000000000004,1.75269375,1.0,2731.7770562437045,0.3869984673839126,1.3123605380833332,0.9689119301996206,0.28666613750000003,0.6888740250264367
0.044,1.7516,1.0,2730.6932295223864,0.3904369187367897,1.3118764349159862,0.9694000952061934,0.2866202,0.6898376573472407
0.0445,1.75049375,1.0,2729.5081166099344,0.3938560919629401,1.3113876091852874,0.9698730934312784,0.2865737375,0.6908091736156592
0.045,1.7493750000000001,1.0,2728.226981120586,0.3972560915679622,1.3108940136367322,0.9703315393535217,0.28652675,0.6917886233572812
0.0455,1.74824375,1.0,2726.8550870727804,0.4006370220574545,1.3103956010158155,0.9707760161472184,0.2864792375,0.6927760550702509
0.046,1.7471,1.0,2725.397697996779,0.40399898793701555,1.309892324068032,0.9712070775758121,0.2864312,0.6937715162108222
0.0465,1.7459437500000001,1.0,2723.860076091697,0.4073420937122439,1.309384135538877,0.9716252497533228,0.28638263750000004,0.6947750531787686
0.047,1.744775,1.0,2722.247481432141,0.41066644388873796,1.3088709881738452,0.9720310327840814,0.28633355,0.6957867113026543
0.0475,1.74359375,1.0,2720.5651712247504,0.41397214297209634,1.3083528347184317,0.9724249022902577,0.28628393750000003,0.6968065348249604
0.048,1.7424,1.0,2718.81839911333,0.4172592954679175,1.3078296279181314,0.9728073108358386,0.2862338,0.6978345668870689
0.0485,1.74119375,1.0,2717.0124145346012,0.4205280058818,1.3073013205184396,0.9731786892549763,0.2861831375,0.6988708495141047
0.049,1.739975,1.0,2715.152462122389,0.4237783787193423,1.306767865264851,0.9735394478919549,0.28613195,0.6999154235996374
0.0495,1.73874375,1.0,2713.2437811623213,0.4270105184861429,1.3062292149028603,0.9738899777594117,0.2860802375,0.7009683288902355
0.05,1.7375,1.0,2711.291605095266,0.4302245296878004,1.3056853221779627,0.9742306516208984,0.286028,0.7020296039698825
0.0505,1.73624375,1.0,2709.300930895006,0.4334205153837604,1.3051361419356462,0.974561824977734,0.2859752375,0.7030992821576185
0.051000000000000004,1.734975,1.0,2707.2735966046107,0.4365985574016726,1.3045816577945966,0.9748838365601339,0.28592195,0.7041773397165028
0.051500000000000004,1.73369375,1.0,2705.2179309705484,0.4397587864072925,1.3040217940939958,0.9751970113117221,0.2858681375,0.7052638670786608
0.052000000000000005,1.7324,1.0,2703.1359415702027,0.44290129832856134,1.303456532799749,0.975501659418324,0.2858138,0.7063588415215398
0.0525,1.73109375,1.0,2701.029633368469,0.44602618909342023,1.3028858558777603,0.9757980772599638,0.28575893750000003,0.7074622395063668
0.053,1.729775,1.0,2698.901008621944,0.4491335546298104,1.3023097452939347,0.9760865481420435,0.28570355000000003,0.7085740366719271
0.0535,1.72844375,1.0,2696.7520667911135,0.45222349086567293,1.3017281830141767,0.9763673429817258,0.2856476375,0.7096942078283275
0.054,1.7271,1.0,2694.5848044593936,0.4552960937289491,1.301141151004391,0.9766407209526216,0.2855912,0.7108227269507351
0.0545,1.7257437500000001,1.0,2692.401215258985,0.4583514591475799,1.3005486312304824,0.9769069300906488,0.2855342375,0.711959567173098
0.055,1.724375,1.0,2690.2032898047596,0.4613896830495066,1.2999506056583552,0.977166207863705,0.28547675,0.7131047007818427
0.0555,1.72299375,1.0,2687.993015634769,0.46441086136267035,1.2993470562539142,0.9774187817076019,0.2854187375,0.7142580992095533
0.056,1.7216,1.0,2685.772377157931,0.4674150900150123,1.2987379649830644,0.9776648695305192,0.2853602,0.7154197330286269
0.0565,1.72019375,1.0,2683.543355609609,0.4704024649344736,1.2981233138117099,0.977904680188074,0.28530113749999997,0.7165895719449131
0.057,1.718775,1.0,2681.30792901356,0.47337308204899536,1.2975030847057554,0.9781384139309394,0.28524155,0.717767584791327
0.0575,1.71734375,1.0,2679.068072151253,0.4763270372865188,1.296877259631106,0.978366262826812,0.2851814375,0.7189537395214441
0.058,1.7159,1.0,2676.826034010975,0.47926442648164075,1.296245818006858,0.978588411006812,0.2851208,0.7201480080148203
0.0585,1.71444375,1.0,2674.586463645242,0.4821853412606247,1.2956087171792068,0.9788050336064493,0.2850596375,0.7213504028305604
0.059000000000000004,1.7129750000000001,1.0,2672.347823114802,0.4850898722508899,1.2949659712584891,0.9790163018335425,0.28499795,0.7225608284423986
0.059500000000000004,1.71149375,1.0,2670.1094103891937,0.4879781109353912,1.29431758669656,0.9792223797867009,0.2849357375,0.7237792033198754
0.06,1.71,1.0,2667.870747215798,0.49085014876012095,1.2936635678986783,0.9794234250190293,0.284873,0.7250054492634515
0.0605,1.7084937500000001,1.0,2665.6380639288327,0.4937060767735961,1.293003857572825,0.9796195856067283,0.2848097375,0.7262396028298586
0.061,1.7069750000000001,1.0,2663.4108911616413,0.49654598554486473,1.2923384599797074,0.9798110071450226,0.28474595,0.7274815842369038
0.0615,1.7054437500000001,1.0,2661.1878401550525,0.49936996450089477,1.2916673878507856,0.9799978300137073,0.2846816375,0.728731297398914
0.062,1.7039,1.0,2658.9673709260455,0.5021781030531549,1.2909906553315487,0.9801801893359826,0.2846168,0.7299886432070021
0.0625,1.70234375,1.0,2656.755364677658,0.5049704901752942,1.2903082082180484,0.9803582115596996,0.2845514375,0.7312536487284002
0.063,1.7007750000000001,1.0,2654.5587601813518,0.5077472144912373,1.2896199824686159,0.9805320178567883,0.28448555,0.7325263576367304
0.0635,1.699193783825563,1.0,2652.365611149148,0.510508363418172,1.288926103348343,0.9807017344720432,0.28441913892067366,0.7338064630227762
0.064,1.6976072034119252,1.0,2650.510036228737,0.5132540243732857,1.2882266961223208,0.9808674830295767,0.28435250254330086,0.7350936595740158
0.0645,1.696020622998287,1.0,2649.2312642994452,0.5159842834841895,1.2875219728420386,0.9810293850124377,0.28428586616592805,0.7363874844802998
0.065,1.694434042584649,1.0,2648.4658729924413,0.5186992294145117,1.2868125148930676,0.9811875761726625,0.28421922978855524,0.7376868026170724
0.0655,1.692847462171011,1.0,2648.1782290809483,0.521398946943436,1.2860986490500161,0.9813421746492352,0.2841525934111825,0.7389909534813639
0.066,1.6912608817573729,1.0,2648.3329922329685,0.5240835208247042,1.2853807007093654,0.9814932943926491,0.2840859570338097,0.7402992846384937
0.0665,1.689674301343735,1.0,2648.8949349790114,0.5267530358120579,1.284658995267597,0.9816410454187622,0.28401932065643687,0.7416111492769202
0.067,1.6880877209300968,1.0,2649.828914432515,0.5294075766592391,1.2839338581211923,0.9817855339816842,0.28395268427906406,0.7429259062895874
0.0675,1.6865011405164587,1.0,2651.1066022623704,0.5320472262162431,1.2832055523566586,0.9819268596136902,0.28388604790169125,0.7442430328901783
0.068,1.6849145601028208,1.0,2652.69183747692,0.5346720704335856,1.2824744136774517,0.9820651221686391,0.28381941152431844,0.7455618801580991
0.0685,1.6833279796891827,1.0,2654.556211858313,0.5372821933035783,1.2817407064613946,0.9822004146758118,0.28375277514694563,0.7468819334267676
0.069,1.6817413992755448,1.0,2656.6808581819973,0.5398776760063766,1.2810046072438919,0.9823328227722812,0.2836861387695729,0.7482028402669199
0.0695,1.6801548188619067,1.0,2659.0469185689253,0.5424585997221356,1.2802662925603483,0.9824624292715128,0.2836195023922001,0.749524251449226
0.07,1.6785682384482687,1.0,2661.6355354689363,0.5450250456310104,1.2795259389461682,0.9825893142802867,0.28355286601482727,0.7508458209702267
0.07050000000000001,1.6769816580346306,1.0,2664.427843334552,0.5475770949131563,1.2787837229367565,0.9827135553100605,0.2834862296374545,0.7521672060762813
0.07100000000000001,1.6753950776209925,1.0,2667.4049609859107,0.5501148287487284,1.2780398210675177,0.9828352273830703,0.2834195932600817,0.7534880672855317
0.07150000000000001,1.6738084972073546,1.0,2670.5487620793397,0.5526383278561513,1.2772944027299027,0.9829544027798256,0.2833529568827089,0.7548080810416663
0.07200000000000001,1.6722219167937165,1.0,2673.8508058798775,0.5551476681465624,1.2765475481181607,0.983071147169817,0.2832863205053361,0.756127084278806
0.0725,1.6706353363800786,1.0,2677.2843289430875,0.5576429376250926,1.2757995055217595,0.9831855324279103,0.2832196841279633,0.7574446197511255
0.073,1.6690487559664404,1.0,2680.840886579217,0.560124213157073,1.2750503546776935,0.9832976200218552,0.28315304775059047,0.7587605305856985
0.0735,1.6674621755528025,1.0,2684.512019599035,0.5625915716078344,1.2743001753229575,0.9834074695047872,0.2830864113732177,0.7600746614087844
0.074,1.6658755951391644,1.0,2688.2892524247927,0.5650450898427075,1.273549047194546,0.9835151385892782,0.2830197749958449,0.7613868583512627
