Time [s],Phi [rad],STIM [ ],Fsee [N],Gamma [ ],Lcerel [ ],q [ ],Lmtc [m],fisomrel [ ]
0.0,1.8,1.0,17.96658500314648,1.0013294675861319e-05,1.3793398104338181,0.005000026722409269,0.288653,0.5411393757016421
0.0005,1.79999375,1.0,18.275974400556883,0.005619166436806236,1.3793024732941475,0.012940552581679813,0.2886527375,0.5412296994672914
0.001,1.799975,1.0,21.617634718560545,0.011196856664731109,1.378938378392993,0.035608651361387515,0.28865195,0.5421100299135488
0.0015,1.79994375,1.0,31.068422238783533,0.016743260461384055,1.3780462730594545,0.07060180935661191,0.2886506375,0.5442634420467359
0.002,1.7999,1.0,53.58133821051422,0.022258553318046492,1.376368199781813,0.11471796054053254,0.2886488,0.5483003131154254
0.0025,1.79984375,1.0,97.11757827636835,0.027742909741913173,1.373935232764592,0.16457480784641174,0.28864643749999996,0.5541213064326864
0.003,1.7997750000000001,1.0,160.95675562119723,0.033196503263807894,1.371214396578934,0.2172803640908681,0.28864354999999997,0.5605863258052866
0.0035,1.79969375,1.0,237.68193729347803,0.03861950643777562,1.3685847771797899,0.2706127970436983,0.2886401375,0.5667897386202954
0.004,1.7996,1.0,321.4654388803563,0.0440120908518646,1.3661561276879397,0.32291571167829397,0.2886362,0.5724798793258075
0.0045000000000000005,1.7994937500000001,1.0,409.26650181832144,0.04937442713331079,1.3639228434847097,0.37303442138005155,0.2886317375,0.5776790943558785
0.005,1.799375,1.0,499.41232619224445,0.054706684939631184,1.3618583673787101,0.42024737987005567,0.28862675,0.5824570215497911
0.0055,1.79924375,1.0,590.789306590184,0.060009033006068684,1.359938856735416,0.46417362352660935,0.2886212375,0.5868750619005154
0.006,1.7991000000000001,1.0,682.517064335194,0.0652816390887932,1.3581464337244167,0.5046798938111888,0.2886152,0.5909793750334249
0.006500000000000001,1.79894375,1.0,773.8801305293606,0.07052467002082746,1.3564672728615745,0.5418007001603391,0.2886086375,0.5948057505696166
0.007,1.798775,1.0,864.285077735529,0.0757382916937149,1.354890406844232,0.5756767237226844,0.28860155,0.5983826502867841
0.0075,1.79859375,1.0,953.2426690737161,0.08092266907032908,1.3534067875943725,0.6065098635563587,0.2885939375,0.6017335538336291
0.008,1.7984,1.0,1040.3580435170122,0.08607796617930404,1.3520086523968429,0.6345320115368523,0.2885858,0.6048785351969346
0.0085,1.79819375,1.0,1125.3163913582935,0.09120434617941114,1.3506892108664286,0.6599843748918436,0.2885771375,0.6078350681820204
0.009000000000000001,1.797975,1.0,1207.8765554066015,0.09630197108608991,1.3494423578620847,0.6831043350845873,0.28856795,0.6106187453181976
0.0095,1.79774375,1.0,1287.870909237353,0.1013710026166852,1.3482624056140091,0.7041175959251104,0.2885582375,0.6132439312370643
0.01,1.7975,1.0,1365.1595892637397,0.10641160083630959,1.347144481160579,0.7232342480146957,0.288548,0.6157229247441084
0.0105,1.79724375,1.0,1439.650503611338,0.11142392510228351,1.3460840589742253,0.7406466898827306,0.2885372375,0.6180670412114952
0.011,1.796975,1.0,1511.3055009260786,0.11640813411195061,1.3450767578033003,0.7565292010592137,0.28852595000000003,0.6202870893621252
0.0115,1.79669375,1.0,1580.1144723159368,0.12136438614262804,1.3441185611909012,0.7710386241321788,0.2885141375,0.6223929076655101
0.012,1.7964,1.0,1646.0604783403705,0.12629283723717108,1.3432061243703084,0.7843155534304835,0.28850180000000003,0.6243927174576289
0.0125,1.79609375,1.0,1709.1675755147232,0.13119364340608125,1.3423361082989798,0.7964853402697336,0.2884889375,0.6262946076361902
0.013000000000000001,1.7957750000000001,1.0,1769.4815266720905,0.13606695958814138,1.3415053552954628,0.8076595898583389,0.28847555,0.6281061616853307
0.0135,1.79544375,1.0,1827.0765050010527,0.1409129414111427,1.3407107619856802,0.8179375167895607,0.2884616375,0.62983474702531
0.014,1.7951000000000001,1.0,1881.990615276668,0.14573174094515673,1.3399499479172043,0.8274075271267907,0.2884472,0.6314860743338331
0.0145,1.79474375,1.0,1934.2855136387475,0.15052351026025507,1.3392205326376079,0.8361481609526861,0.2884322375,0.633065785194699
0.015,1.794375,1.0,1984.0434622258706,0.15528840134808927,1.338520145582155,0.8442292336120636,0.28841675,0.6345794356984586
0.0155,1.79399375,1.0,2031.3473108580374,0.16002656481586913,1.3378466164784593,0.8517129180194754,0.2884007375,0.6360320909887018
0.016,1.7936,1.0,2076.297503913774,0.1647381522981545,1.3371977688561298,0.8586545808571259,0.2883842,0.6374287776736226
0.0165,1.7931937500000001,1.0,2118.957918006106,0.16942331144823336,1.3365719635189652,0.8651037482763005,0.2883671375,0.6387733207046822
0.017,1.792775,1.0,2159.4045485991724,0.17408218991939364,1.3359675612707635,0.8711046352772186,0.28834955,0.6400695082071931
0.0175,1.7923437500000001,1.0,2197.7244971941277,0.1787149353649234,1.3353829229153233,0.8766967735496073,0.2883314375,0.6413210938034895
0.018000000000000002,1.7919,1.0,2234.002000817769,0.18332169409434942,1.3348165400435528,0.8819155963927199,0.2883128,0.6425315194938266
0.0185,1.79144375,1.0,2268.3359100229677,0.1879026139228815,1.334266846882342,0.8867928689651406,0.2882936375,0.6437043210310489
0.019,1.790975,1.0,2300.8005374773247,0.19245783913748457,1.3337326022718332,0.8913572056349567,0.28827395,0.6448423156277755
0.0195,1.79049375,1.0,2331.4652077807978,0.19698751271195744,1.3332126793101342,0.8956343778303121,0.2882537375,0.6459480559533216
0.02,1.79,1.0,2360.4050239226103,0.20149177762009896,1.3327059510953534,0.8996476096210734,0.288233,0.6470240755922714
0.0205,1.78949375,1.0,2387.7003824856356,0.2059707768357079,1.3322112907255987,0.9034178637957231,0.2882117375,0.6480728900332644
0.021,1.788975,1.0,2413.423051611573,0.2104246514197662,1.3317277014624647,0.9069641201493189,0.28818995000000003,0.6490967222016261
0.021500000000000002,1.78844375,1.0,2437.6600564287264,0.21485354509168883,1.3312540796267371,0.9103035443051047,0.2881676375,0.6500980061563881
0.022,1.7879,1.0,2460.474215259671,0.2192575971781714,1.3307895914651497,0.9134517581835132,0.2881448,0.6510785911298449
0.0225,1.78734375,1.0,2481.9230399010053,0.22363694567699996,1.3303334836213183,0.9164229667416395,0.28812143749999997,0.6520401454037125
0.023,1.786775,1.0,2502.066767664872,0.22799172858596053,1.329885002738859,0.9192300920591687,0.28809755,0.6529843270662725
0.0235,1.78619375,1.0,2520.9681334027887,0.23232208390283915,1.3294433954613871,0.9218849069498751,0.28807313749999996,0.6539127843969137
0.024,1.7856,1.0,2538.6885999175774,0.23662814897589418,1.3290079419308924,0.9243981588367736,0.2880482,0.6548270859260157
0.0245,1.78499375,1.0,2555.283504513487,0.2409100597959434,1.3285779989324238,0.9267796808015776,0.2880227375,0.6557286307958039
0.025,1.784375,1.0,2570.8266637585684,0.24516795517121417,1.3281527665774886,0.9290384443287749,0.28799675,0.6566191383531259
0.025500000000000002,1.78374375,1.0,2585.360903910655,0.24940196780426133,1.3277317510907503,0.931182718720867,0.2879702375,0.6574996789763728
0.026000000000000002,1.7831000000000001,1.0,2598.930315551419,0.25361223039763964,1.3273144586968726,0.9332200905588498,0.2879432,0.6583713173723638
0.0265,1.78244375,1.0,2611.5801483219702,0.25779887565390397,1.3269003956205185,0.9351575292832136,0.2879156375,0.6592351127013663
0.027,1.781775,1.0,2623.356711064694,0.26196203627560916,1.3264890680863521,0.9370014456761865,0.28788755,0.6600921186865604
0.0275,1.7810937500000001,1.0,2634.307277370493,0.26610184496531003,1.3260799823190368,0.9387577440897166,0.2878589375,0.6609433837079612
0.028,1.7804,1.0,2644.474199118918,0.27021843066115975,1.32567269807995,0.9404318755071747,0.2878298,0.6617898396853499
0.0285,1.77969375,1.0,2653.9056114294854,0.2743119287265787,1.3252667287399096,0.9420288683540546,0.2878001375,0.6626325101238459
0.029,1.778975,1.0,2662.634930023113,0.27838246688040347,1.3248617296973617,0.9435533874944059,0.28776995,0.6634721191901731
0.029500000000000002,1.7782437500000001,1.0,2670.6953315282644,0.2824301723498429,1.3244573635760022,0.9450097502634732,0.2877392375,0.6643093725169322
0.03,1.7775,1.0,2678.1204861641363,0.2864551723621061,1.3240532929995266,0.9464019560626952,0.287708,0.6651449722454177
0.0305,1.77674375,1.0,2684.94451204165,0.290457594144402,1.323649180591631,0.9477337138095715,0.2876762375,0.6659796170356052
0.031,1.775975,1.0,2691.201931987909,0.29443756492393947,1.3232446889760108,0.9490084666930446,0.28764395,0.6668140020688842
0.0315,1.7751937500000001,1.0,2696.922087792442,0.2983952081091742,1.3228395314827268,0.9502294196563912,0.2876111375,0.6676487146429
0.032,1.7744,1.0,2702.1324762211316,0.3023306480390751,1.3224334410786798,0.9513995567743597,0.2875778,0.6684842987058723
0.0325,1.77359375,1.0,2706.8757772581866,0.30624402121802835,1.3220260145752145,0.9525216439613137,0.2875439375,0.6693215750535834
0.033,1.772775,1.0,2711.172144275432,0.31013544799082216,1.3216170568450318,0.9535982789525835,0.28750955,0.6701609335023584
0.0335,1.7719437500000002,1.0,2715.041914696544,0.31400504870224505,1.3212063727608319,0.9546318851664092,0.2874746375,0.6710027617915484
0.034,1.7711000000000001,1.0,2718.505592620635,0.31785294369708544,1.3207937671953152,0.9556247254770739,0.2874392,0.6718474455632588
0.0345,1.7702437500000001,1.0,2721.583832290796,0.32167925332013175,1.3203790450211823,0.9565789147448982,0.2874032375,0.6726953683396533
0.035,1.7693750000000001,1.0,2724.2974224063873,0.3254840979161724,1.3199620111111339,0.9574964312283658,0.28736675,0.6735469114978274
0.035500000000000004,1.76849375,1.0,2726.667271280024,0.32926759782999576,1.31954247033787,0.9583791269898044,0.2873297375,0.674402454242256
0.036000000000000004,1.7676,1.0,2728.714392837789,0.3330298734063904,1.3191202275740914,0.9592287373938402,0.2872922,0.675262373574809
0.0365,1.76669375,1.0,2730.4598934647915,0.3367710449901445,1.3186950876924985,0.9600468897871116,0.2872541375,0.6761270442623427
0.037,1.765775,1.0,2731.924959693821,0.3404912329260467,1.3182668555657917,0.9608351114382278,0.28721555,0.6769968388018606
0.0375,1.76484375,1.0,2733.117521858226,0.3441905467154611,1.3178354571044748,0.9615948463369814,0.2871764375,0.677871882038232
0.038,1.7639,1.0,2734.0663560406865,0.34786911671218573,1.3174006293403482,0.9623274379186797,0.28713679999999997,0.6787526801478027
0.0385,1.76294375,1.0,2734.7850267470412,0.35152705804577644,1.3169622479427792,0.9630341598618124,0.28709663750000003,0.6796394559281256
0.039,1.761975,1.0,2735.284752303715,0.35516448364995673,1.316520210224771,0.9637162126782458,0.28705595,0.6805323868599067
0.0395,1.7609937500000001,1.0,2735.5767824086442,0.3587815064584501,1.316074413499328,0.9643747272346238,0.2870147375,0.6814316490148462
0.04,1.76,1.0,2735.6723937197353,0.36237823940498004,1.3156247550794533,0.9650107695339547,0.286973,0.682337417031362
0.0405,1.7589937500000001,1.0,2735.582885677502,0.36595479542327014,1.315171132278151,0.9656253451200313,0.2869307375,0.683249864089631
0.041,1.757975,1.0,2735.3195765616633,0.3695112874470438,1.3147134424084246,0.966219403138093,0.28688795,0.6841691618859669
0.0415,1.75694375,1.0,2734.8937997810967,0.37304782841002454,1.314251582783278,0.9667938400818801,0.2868446375,0.6850954806065199
0.042,1.7559,1.0,2734.31690039815,0.3765645312459359,1.3137854507157143,0.967349503254301,0.28680079999999997,0.6860289889003063
0.0425,1.75484375,1.0,2733.6002318863702,0.3800615088885014,1.3133149435187377,0.9678871939663242,0.2867564375,0.6869698538515632
0.043000000000000003,1.753775,1.0,2732.7478980112346,0.383538866657763,1.3128400244123208,0.9684076746480621,0.28671155,0.6879181094569468
0.043500000000000004,1.75269375,1.0,2731.774452681949,0.3869967222284868,1.312360561738866,0.9689116615440676,0.28666613750000003,0.6888739779023598
0.044,1.7516,1.0,2730.691111552244,0.39043518756016343,1.3118764541633317,0.9693998347498426,0.2866202,0.6898376190641177
0.0445,1.75049375,1.0,2729.5038962860626,0.39385436866819973,1.3113876475463941,0.9698728417670005,0.2865737375,0.6908090974347023
0.045,1.7493750000000001,1.0,2728.218829554193,0.39725437156800225,1.3108940877487303,0.9703312967650826,0.28652675,0.6917884764122602
0.0455,1.74824375,1.0,2726.8419339309544,0.4006353022749776,1.3103957206310166,0.9707757826183271,0.2864792375,0.6927758182842854
0.046,1.7471,1.0,2725.3792308562993,0.4039972668045325,1.3098924920539297,0.97120685279895,0.2864312,0.6937711842111134
0.0465,1.7459437500000001,1.0,2723.8367396623703,0.40734037117207356,1.3093843478781457,0.9716250331383242,0.28638263750000004,0.69477463420923
0.047,1.744775,1.0,2722.220476665147,0.41066472139300747,1.3088712339643418,0.9720308234664504,0.28633355,0.6957862271343904
0.0475,1.74359375,1.0,2720.5364543218298,0.4139704234827409,1.3083530961731944,0.9724246991392054,0.28628393750000003,0.6968060206645559
0.048,1.7424,1.0,2718.790680451738,0.4172575834566804,1.3078298803653798,0.9728071124620293,0.2862338,0.6978340712826401
0.0485,1.74119375,1.0,2716.9888596568894,0.4205263067696361,1.3073015351152988,0.9731784941377017,0.2861831375,0.6988704289406276
0.049,1.739975,1.0,2715.1350554755954,0.42377669607563895,1.3067680239024326,0.9735392550682933,0.28613195,0.699915113236596
0.0495,1.73874375,1.0,2713.2334253997747,0.42700885353760426,1.306229309314484,0.9738897866847336,0.2860802375,0.7009681445050192
0.05,1.7375,1.0,2711.2880252843856,0.4302228808755718,1.305685354826181,0.9742304621649521,0.286028,0.7020295403214023
0.0505,1.73624375,1.0,2709.30290639895,0.4334188798095815,1.305136123912252,0.9745616374399634,0.2859752375,0.7030993172315266
0.051000000000000004,1.734975,1.0,2707.2799118202292,0.43659695180794766,1.3045816001565527,0.974883653429941,0.28592195,0.7041774516775315
0.051500000000000004,1.73369375,1.0,2705.22604643953,0.43975719752809544,1.30402171999718,0.975196832444983,0.2858681375,0.7052640107460342
0.052000000000000005,1.7324,1.0,2703.14397037094,0.44289971666371686,1.3034564594660163,0.9755014847358229,0.2858138,0.7063589834449937
0.0525,1.731094469218256,1.0,2701.068248367707,0.4460246086666242,1.3028858278465174,0.9757979088075879,0.28575896770716674,0.7074622936534752
0.053,1.7297862095550822,1.0,2699.4292309980715,0.44913197266934235,1.3023099794270134,0.9760863990127984,0.28570402080131346,0.7085735852641541
0.0535,1.7284779498919085,1.0,2698.3226218032373,0.45222190675988266,1.3017292680485177,0.9763672490436671,0.2856490738954601,0.7096921199072249
0.054,1.7271696902287348,1.0,2697.7061441588703,0.4552945086536891,1.3011440772543494,0.9766407416305161,0.28559412698960684,0.7108171069343955
0.0545,1.725861430565561,1.0,2697.539332978023,0.45834987580593417,1.3005547754925926,0.9769071464203009,0.28553918008375356,0.7119477899508841
0.055,1.7245531709023874,1.0,2697.7865835214557,0.4613881047783082,1.2999616879111564,0.9771667189136218,0.2854842331779003,0.713083500591486
0.0555,1.7232449112392136,1.0,2698.4150045211722,0.46440929157476035,1.2993651157158124,0.977419702379444,0.285429286272047,0.714223620830543
0.056,1.72193665157604,1.0,2699.4037491912645,0.46741352821103616,1.298765250666116,0.9776663231544703,0.28537433936619366,0.7153677455178982
0.0565,1.7206283919128662,1.0,2700.7016383322266,0.47040091737788087,1.2981625622420254,0.9779068153131959,0.2853193924603404,0.7165149441239488
0.057,1.7193201322496925,1.0,2702.289249034807,0.4733715515195928,1.2975572299116738,0.9781413857655222,0.2852644455544871,0.7176648435181483
0.0575,1.7180118725865188,1.0,2704.147183973477,0.47632552308047027,1.2969494331431937,0.9783702330327197,0.28520949864863376,0.7188170732013264
0.058,1.716703612923345,1.0,2706.2560612430134,0.4792629245048116,1.296339351404718,0.9785935476596427,0.2851545517427805,0.7199712653349206
0.0585,1.7153953532601713,1.0,2708.5965049090396,0.48218384823691507,1.2957271641643797,0.9788115126035822,0.2850996048369272,0.721127054768157
0.059000000000000004,1.7140870935969976,1.0,2711.1491362734605,0.485088386721079,1.2951130508903117,0.9790243036012479,0.2850446579310739,0.722284079063177
0.059500000000000004,1.712778833933824,1.0,2713.8945658532707,0.4879766324016017,1.2944971910506469,0.9792320895152689,0.2849897110252206,0.7234419785181084
0.06,1.7114705742706502,1.0,2716.813386074002,0.4908486777227814,1.293879764113518,0.9794350326615078,0.2849347641193673,0.7246003961880836
0.0605,1.7101623146074765,1.0,2719.8945169798144,0.4937046106457088,1.2932608734937832,0.9796332846705724,0.284879817213514,0.7257591201456101
0.061,1.7088540549443028,1.0,2723.116564422186,0.49654452730031073,1.2926407163699194,0.9798269970368775,0.2848248703076607,0.7269177650589935
0.0615,1.707545795281129,1.0,2726.469219900001,0.4993685162400467,1.292019388741393,0.9800163095970454,0.2847699234018074,0.728076137114487
0.062,1.7062375356179553,1.0,2729.943289069805,0.5021766652889627,1.2913969763327413,0.9802013563541242,0.2847149764959541,0.7292340630871678
0.0625,1.7049292759547816,1.0,2733.5295618309046,0.5049690622711047,1.2907735648685013,0.9803822663313998,0.28466002959010084,0.7303913710894883
0.063,1.7036210162916077,1.0,2737.218810344957,0.5077457950105189,1.2901492400732095,0.9805591637969512,0.2846050826842475,0.7315478905769739
0.0635,1.702312756628434,1.0,2741.001787218689,0.5105069513312511,1.2895240876714034,0.98073216847649,0.2845501357783942,0.7327034523534488
0.064,1.7010044969652602,1.0,2744.869223849214,0.5132526190573475,1.2888981933876198,0.9809013957551813,0.28449518887254094,0.7338578885757954
0.0645,1.6996962373020865,1.0,2748.8118289325826,0.5159828860128541,1.2882716429463956,0.9810669568690905,0.2844402419666876,0.7350110327582455
0.065,1.6983879776389128,1.0,2752.8274705062136,0.5186978303138815,1.2876444570553407,0.98122895516303,0.2843852950608343,0.7361628390476348
0.0655,1.697079717975739,1.0,2756.901322929721,0.5213975506863606,1.2870167711922746,0.9813874974333247,0.28433034815498104,0.7373130518315099
0.066,1.6957714583125654,1.0,2761.027113894955,0.5240821333751968,1.286388643151425,0.9815426820568026,0.28427540124912776,0.7384615595468293
0.0665,1.6944631986493917,1.0,2765.2011618070605,0.5267516608382921,1.2857601071710953,0.9816946025789615,0.2842204543432745,0.7396082944820284
0.067,1.693154938986218,1.0,2769.4197747925846,0.5294062155335483,1.2851311974895883,0.9818433493104135,0.28416550743742114,0.7407531894711525
0.0675,1.6918466793230442,1.0,2773.6792504026666,0.5320458799188678,1.2845019483452074,0.9819890094625123,0.28411056053156786,0.7418961778947097
0.068,1.6905384196598705,1.0,2777.975875342123,0.5346707364521522,1.283872393976256,0.9821316672763888,0.2840556136257146,0.7430371936804507
0.0685,1.6892301599966968,1.0,2782.305925225109,0.537280867591304,1.283242568621037,0.9822714041457571,0.28400066671986124,0.7441761713040727
0.069,1.687921900333523,1.0,2786.6656643562555,0.5398763557942248,1.2826125065178537,0.9824082987338348,0.28394571981400796,0.7453130457898471
0.0695,1.6866136406703494,1.0,2791.0513455378155,0.5424572835188168,1.2819822419050093,0.9825424270846962,0.2838907729081547,0.7464477527111761
0.07,1.6853053810071756,1.0,2795.4592099032106,0.545023733222982,1.2813518090208071,0.9826738627293613,0.2838358260023014,0.7475802281910691
0.07050000000000001,1.683997121344002,1.0,2799.885486775997,0.5475757873646225,1.2807212421035505,0.9828026767869029,0.28378087909644806,0.7487104089025503
0.07100000000000001,1.6826888616808282,1.0,2804.3273674983275,0.5501135243126295,1.2800905666576772,0.9829289374142941,0.2837259321905948,0.749838247670221
0.07150000000000001,1.6813806020176543,1.0,2808.7853960832613,0.5526370125264839,1.279459778066355,0.983052708608365,0.2836709852847415,0.7509637514129579
0.07200000000000001,1.6800723423544806,1.0,2813.2517928060697,0.5551463578257056,1.2788289462529998,0.9831740578847561,0.28361603837888816,0.7520867944242403
0.0725,1.6787640826913068,1.0,2817.725472731375,0.5576416361707662,1.2781980810265376,0.9832930461601471,0.2835610914730349,0.7532073587791837
0.073,1.6774558230281333,1.0,2822.2053474497025,0.5601229235221374,1.277567192195895,0.9834097324243931,0.2835061445671816,0.7543254267107367
