Time [s],Phi [rad],STIM [ ],Fsee [N],Gamma [ ],Lcerel [ ],q [ ],Lmtc [m],fisomrel [ ]
0.0,1.8,1.0,18.006838556203785,0.00020306531775034486,1.379335303140944,0.005010731716712632,0.288653,0.541150279945689
0.0005,1.79999375,1.0,18.379248293866116,0.005811135590740737,1.379291017494083,0.013485188119757657,0.2886527375,0.5412574108683141
0.001,1.799975,1.0,21.86427584708496,0.011387749023510106,1.3789132586430288,0.03662172725838227,0.28865195,0.5421707347720699
0.0015,1.79994375,1.0,31.62443646492446,0.016933082065030965,1.377999112004337,0.071983938919726,0.2886506375,0.5443771407013163
0.002,1.7999,1.0,54.75314572034759,0.022447310172436875,1.3762925893627356,0.11635188213552435,0.2886488,0.5484817831335704
0.0025,1.79984375,1.0,99.06530214460348,0.02793060781971566,1.373841841864746,0.16635051996789507,0.28864643749999996,0.5543439964004282
0.003,1.7997750000000001,1.0,163.47688709816077,0.03338314850377007,1.3711204316241832,0.21911110021524002,0.28864354999999997,0.5608087539256377
0.0035,1.79969375,1.0,240.5215475564311,0.03880510474541308,1.368497569113065,0.272432855042001,0.2886401375,0.5669947116000061
0.004,1.7996,1.0,324.4818642021038,0.04419664809968843,1.3660764204806588,0.3246774510250064,0.2886362,0.572665989694094
0.0045000000000000005,1.7994937500000001,1.0,412.3869317585627,0.04955794916120568,1.3638497340782798,0.3747063758082701,0.2886317375,0.5778487596019295
0.005,1.799375,1.0,502.593877952366,0.054889177556012934,1.361790866922043,0.42181134923794816,0.28862675,0.5826127825631267
0.0055,1.79924375,1.0,593.9970172980748,0.06019050198006824,1.3598762706265106,0.4656214422166707,0.2886212375,0.5870187176018957
0.006,1.7991000000000001,1.0,685.7259989879933,0.06546209016499804,1.358088172189759,0.5060103285478815,0.2886152,0.5911124392149154
0.006500000000000001,1.79894375,1.0,777.0676154410121,0.07070410889420867,1.3564129162770888,0.5430171104589384,0.2886086375,0.5949293147667758
0.007,1.798775,1.0,867.4324482205288,0.0759167240826796,1.354839612904783,0.5767852245685631,0.28860155,0.5984976055917849
0.0075,1.79859375,1.0,956.3312829833507,0.0811001005251019,1.3533593199259617,0.6075180788251969,0.2885939375,0.6018405325939472
0.008,1.7984,1.0,1043.385930055011,0.08625440248258956,1.3519641052483933,0.6354480516911402,0.2885858,0.6049785351297766
0.0085,1.79819375,1.0,1128.2747968101557,0.09137979278560657,1.3506473582516905,0.6608164961734783,0.2885771375,0.6079286675736947
0.009000000000000001,1.797975,1.0,1210.7534329354924,0.09647643356840188,1.3494030717446934,0.6838605450628791,0.28856795,0.6107062929061627
0.0095,1.79774375,1.0,1290.662915723576,0.10154448653861654,1.3482254795986486,0.704805358118729,0.2885582375,0.6133259418312857
0.01,1.7975,1.0,1367.8612102037712,0.10658411158793342,1.3471097750956988,0.7238604685938551,0.288548,0.6157997577583334
0.0105,1.79724375,1.0,1442.2605115461515,0.11159546807821029,1.3460514074120358,0.7412176366332159,0.2885372375,0.6181391053193535
0.011,1.796975,1.0,1513.8274435139706,0.11657871511768958,1.3450459638549759,0.7570505119521673,0.28852595000000003,0.6203548559546896
0.0115,1.79669375,1.0,1582.5383021951184,0.12153401025763347,1.3440896158422024,0.7715154372778734,0.2885141375,0.6224564294310126
0.012,1.7964,1.0,1648.3867492895672,0.12646150978933163,1.3431789054168768,0.7847524062056828,0.28850180000000003,0.6244522923369717
0.0125,1.79609375,1.0,1711.3996389695394,0.13136136953786845,1.3423104776341446,0.7968862659350263,0.2884889375,0.6263505641003948
0.013000000000000001,1.7957750000000001,1.0,1771.635042609739,0.13623374553070242,1.3414810511489563,0.8080281271476203,0.28847555,0.6281590934509053
0.0135,1.79544375,1.0,1829.1406786487466,0.1410787917789545,1.340687835756483,0.8182769283962263,0.2884616375,0.6298845617588125
0.014,1.7951000000000001,1.0,1883.9631042398034,0.14589666073482865,1.3399283615538382,0.8277206785901055,0.2884472,0.6315328731228413
0.0145,1.79474375,1.0,1936.1728751884366,0.15068750485052868,1.3392001586381357,0.8364375672861014,0.2884322375,0.6331098609051773
0.015,1.794375,1.0,1985.848121824299,0.1554514756944104,1.3385009098660159,0.8444971489553426,0.28841675,0.6346209630735951
0.0155,1.79399375,1.0,2033.0856935311813,0.1601887254411518,1.3378283039722147,0.8519613047502343,0.2884007375,0.6360715466685487
0.016,1.7936,1.0,2077.95797756525,0.16489940331959368,1.3371804671961685,0.8588852802305369,0.2883842,0.6374659838691759
0.0165,1.7931937500000001,1.0,2120.536875736106,0.1695836575287146,1.3365556774663312,0.8653183784661156,0.2883671375,0.6388082779501877
0.017,1.792775,1.0,2160.906731320152,0.1742416362674931,1.335952212711158,0.8713046183849197,0.28834955,0.6401023940512653
0.0175,1.7923437500000001,1.0,2199.1555807962623,0.1788734869339335,1.3353684286877208,0.8768833803532927,0.2883314375,0.6413520951515599
0.018000000000000002,1.7919,1.0,2235.377648225693,0.1834793573766229,1.33480272074843,0.8820899413169336,0.2883128,0.6425610273579361
0.0185,1.79144375,1.0,2269.6539048405125,0.1880593934156626,1.334253707216381,0.8869559986619748,0.2882936375,0.6437323316712561
0.019,1.790975,1.0,2302.0540276222328,0.1926137387624789,1.333720194046338,0.8915100724999993,0.28827395,0.644868724762993
0.0195,1.79049375,1.0,2332.654190672181,0.19714253712849777,1.333200987193066,0.8957778237573095,0.2882537375,0.6459729022116274
0.02,1.79,1.0,2361.536521215073,0.20164593222514543,1.3326948926113296,0.8997823787321985,0.288233,0.6470475396375507
0.0205,1.78949375,1.0,2388.7739065198616,0.20612406578381268,1.3322008588973442,0.9035446445671897,0.2882117375,0.6480949915429427
0.021,1.788975,1.0,2414.458263790227,0.21057708247090312,1.331717695624667,0.9070834956033794,0.28818995000000003,0.6491178903362907
0.021500000000000002,1.78844375,1.0,2438.6527963118783,0.215005122115809,1.3312445320739654,0.9104160897490974,0.2881676375,0.6501181759282516
0.022,1.7879,1.0,2461.4174104231834,0.21940832354567746,1.3307805625011875,0.9135580013239939,0.2881448,0.6510976386205294
0.0225,1.78734375,1.0,2482.8150922554373,0.2237868255876559,1.330324981162281,0.916523377381011,0.28812143749999997,0.6520580574621769
0.023,1.786775,1.0,2502.91164983497,0.22814076706889144,1.3298769823131944,0.9193250882649319,0.28809755,0.6530012007013407
0.0235,1.78619375,1.0,2521.769937168541,0.2324702857304907,1.3294358125276042,0.9219748697360134,0.28807313749999996,0.6539287162763942
0.024,1.7856,1.0,2539.45322084395,0.23677551943536,1.329000735899594,0.9244834334759919,0.2880482,0.654842205923232
0.0245,1.78499375,1.0,2556.028586877557,0.241056606473561,1.3285709998604225,0.9268605647889189,0.2880227375,0.6557432973556194
0.025,1.784375,1.0,2571.5416950682907,0.24531368041785484,1.3281460701087677,0.9291152532671988,0.28799675,0.6566331526536088
0.025500000000000002,1.78374375,1.0,2586.0396465926374,0.24954687484100257,1.3277254123433075,0.9312557356920239,0.2879702375,0.6575129276288554
0.026000000000000002,1.7831000000000001,1.0,2599.570863358344,0.25375632331576525,1.3273084922627205,0.9332895692968951,0.2879432,0.6583837719792878
0.0265,1.78244375,1.0,2612.184973688113,0.25794215941490395,1.3268947755656841,0.9352236970077275,0.2879156375,0.6592468294255772
0.027,1.781775,1.0,2623.9299574633233,0.26210451586904243,1.3264837534161975,0.9370645092028241,0.28788755,0.6601031848063506
0.0275,1.7810937500000001,1.0,2634.848114310989,0.2662435238990668,1.3260749785388795,0.9388179004186833,0.2878589375,0.6609537894479252
0.028,1.7804,1.0,2644.994579470256,0.27035931857635076,1.325667892816119,0.9404892915836586,0.2878298,0.6617998201170563
0.0285,1.77969375,1.0,2654.4030850892004,0.2744520279368959,1.3252621431587785,0.9420837146114224,0.2878001375,0.6626420224099434
0.029,1.778975,1.0,2663.107970498279,0.2785217800167035,1.3248573764777203,0.9436058205453812,0.28776995,0.6634811382270813
0.029500000000000002,1.7782437500000001,1.0,2671.144128939751,0.28256870285177527,1.3244532396838065,0.945059913303042,0.2877392375,0.66431790579937
0.03,1.7775,1.0,2678.546957061128,0.28659292447811247,1.324049379687899,0.946449980027697,0.287708,0.6651530597062753
0.0305,1.77674375,1.0,2685.3523071730856,0.29059457293171675,1.3236454434008598,0.9477797184254338,0.2876762375,0.665987330886036
0.031,1.775975,1.0,2691.5891808791994,0.2945737731979202,1.323241144200017,0.9490525689081392,0.28764395,0.6668213096181883
0.0315,1.7751937500000001,1.0,2697.2901354846285,0.2985306532053267,1.3228361660380124,0.9502717260064687,0.2876111375,0.6676556438070056
0.032,1.7744,1.0,2702.494593550912,0.3024653429017522,1.3224301330534032,0.9514401548089543,0.2875778,0.6684911010815202
0.0325,1.77359375,1.0,2707.2246874142975,0.3063779641300275,1.3220228299903103,0.9525606332573241,0.2875439375,0.6693281153221675
0.033,1.772775,1.0,2711.502763458177,0.3102686387329833,1.3216140415928552,0.9536357505425853,0.28750955,0.6701671181451185
0.0335,1.7719437500000002,1.0,2715.3513617469816,0.31413748855345053,1.3212035526051589,0.9546679221983705,0.2874746375,0.6710085388833704
0.034,1.7711000000000001,1.0,2718.793196686344,0.3179846354342598,1.3207911477713425,0.95565940381629,0.2874392,0.6718528045648746
0.0345,1.7702437500000001,1.0,2721.8511387116296,0.321810201218242,1.3203766118355273,0.9566123035236729,0.2874032375,0.6727003398877163
0.035,1.7693750000000001,1.0,2724.548197002736,0.32561430774822786,1.3199597295418346,0.9575285933483821,0.28736675,0.6735515671923344
0.035500000000000004,1.76849375,1.0,2726.9075032272303,0.3293970768670481,1.3195402856343852,0.9584101195816227,0.2873297375,0.6744069064307894
0.036000000000000004,1.7676,1.0,2728.944351831833,0.3331586231538887,1.319118137076903,0.9592586180137124,0.2872922,0.6752666281523182
0.0365,1.76669375,1.0,2730.687640808125,0.3368990750771933,1.3186930179622776,0.9600757071139917,0.2872541375,0.6761312509633146
0.037,1.765775,1.0,2732.1524978330513,0.3406185495533746,1.3182647882912586,0.960862915851769,0.28721555,0.6770010348658175
0.0375,1.76484375,1.0,2733.352390871471,0.34431716193543593,1.317833323693042,0.9616216814914517,0.2871764375,0.6778762064739605
0.038,1.7639,1.0,2734.3008399140917,0.34799502757638057,1.3173984997968236,0.9623533549966058,0.28713679999999997,0.6787569908377736
0.0385,1.76294375,1.0,2735.0114105032803,0.35165226182921183,1.3169601922317988,0.9630592071563232,0.28709663750000003,0.6796436114170317
0.039,1.761975,1.0,2735.497707600608,0.3552889800469332,1.3165182766271641,0.9637404342125034,0.28705595,0.6805362900541135
0.0395,1.7609937500000001,1.0,2735.7733697987583,0.3589052975825479,1.316072628612115,0.9643981630336579,0.2870147375,0.6814352469458803
0.04,1.76,1.0,2735.852063875201,0.36250132978905936,1.3156231238158471,0.9650334558762467,0.286973,0.6823407006145614
0.0405,1.7589937500000001,1.0,2735.7474796894803,0.3660771920194709,1.3151696378675566,0.9656473147704742,0.2869307375,0.683252867877657
0.041,1.757975,1.0,2735.4605681585745,0.36963298305122355,1.3147121622286122,0.9662406926842568,0.28688795,0.6841717313309683
0.0415,1.75694375,1.0,2735.0225699925522,0.3731688391679792,1.314250413479261,0.966814472782236,0.2868446375,0.6850978240692396
0.042,1.7559,1.0,2734.4411652762456,0.3766848690907438,1.3137843222030983,0.9673695030823297,0.28680079999999997,0.6860312472561934
0.0425,1.75484375,1.0,2733.723458070474,0.38018118082480407,1.3133138242922424,0.9679065859205198,0.2867564375,0.6869720902658478
0.043000000000000003,1.753775,1.0,2732.8765592940545,0.3836578823754467,1.3128388556388126,0.9684264805723303,0.28671155,0.6879204413348156
0.043500000000000004,1.75269375,1.0,2731.907585009615,0.38711508174795833,1.312359352134927,0.9689299059934996,0.28666613750000003,0.6888763875441603
0.044,1.7516,1.0,2730.8236547990227,0.3905528869476258,1.3118752496727049,0.9694175433597823,0.2866202,0.6898400148009822
0.0445,1.75049375,1.0,2729.631890231633,0.39397140597973573,1.3113864841442644,0.9698900384224511,0.2865737375,0.6908114078197506
0.045,1.7493750000000001,1.0,2728.339413422288,0.3973707468495749,1.3108929914417244,0.9703480036945621,0.28652675,0.6917906501033668
0.0455,1.74824375,1.0,2726.9533456810227,0.40075101756243,1.3103947074572038,0.9707920204816776,0.2864792375,0.6927778239239697
0.046,1.7471,1.0,2725.4808062538914,0.40411232612358766,1.3098915680828211,0.9712226407695169,0.2864312,0.6937730103034765
0.0465,1.7459437500000001,1.0,2723.9289111550183,0.4074547805383346,1.3093835092106951,0.9716403889798958,0.28638263750000004,0.694776288993864
0.047,1.744775,1.0,2722.3043448909048,0.41077848793061994,1.3088704706211431,0.9720457637708557,0.28633355,0.6957877307980662
0.0475,1.74359375,1.0,2720.6067110775,0.4140835397277486,1.3083524565187963,0.972439241969876,0.28628393750000003,0.6968072785676781
0.048,1.7424,1.0,2718.853030611281,0.41737006349655514,1.3078293125141494,0.9728212707160714,0.2862338,0.6978351860875835
0.0485,1.74119375,1.0,2717.046581796398,0.4206381595257646,1.3073010092390425,0.973192280944072,0.2861831375,0.6988714595684501
0.049,1.739975,1.0,2715.1906402864106,0.42388792810410214,1.3067675173253146,0.9735526831153425,0.28613195,0.6999161043178024
0.0495,1.73874375,1.0,2713.288478778159,0.4271194695202927,1.3062288074048054,0.9739028683745454,0.2860802375,0.7009691247303271
0.05,1.7375,1.0,2711.3433667237045,0.43033288406306147,1.3056848501093543,0.9742432096304608,0.286028,0.7020305242781302
0.0505,1.73624375,1.0,2709.3585700616895,0.43352827202113337,1.305135616070801,0.9745740625670182,0.2859752375,0.7031003055009335
0.051000000000000004,1.734975,1.0,2707.3373509681824,0.43670573368323357,1.3045810759209848,0.9748957665895438,0.28592195,0.7041784699962221
0.051500000000000004,1.73369375,1.0,2705.2829676261154,0.439865369338087,1.3040212002917455,0.9752086457109151,0.2858681375,0.7052650184093315
0.052000000000000005,1.7324,1.0,2703.1986740140824,0.44300727927441885,1.3034559598149222,0.975513009381929,0.2858138,0.7063599504234832
0.0525,1.73109375,1.0,2701.0877197144473,0.4461315637809541,1.3028853251223547,0.9758091532698608,0.28575893750000003,0.7074632647497625
0.053,1.729775,1.0,2698.9533497401594,0.4492383231464179,1.3023092668458822,0.9760973599888587,0.28570355000000003,0.7085749591170446
0.0535,1.72844375,1.0,2696.7988043809405,0.4523276576595352,1.3017277556173443,0.9763778997855497,0.2856476375,0.7096950302618628
0.054,1.7271,1.0,2694.6176402156225,0.45539966569122325,1.3011408506132296,0.9766510364020284,0.2855912,0.7108233038646063
0.0545,1.7257437500000001,1.0,2692.434320935414,0.45845444321643947,1.3005483282472323,0.9769170049161505,0.2855342375,0.7119601479202612
0.055,1.724375,1.0,2690.244744521195,0.4614920861128931,1.2999502261100082,0.9771760460017183,0.28547675,0.7131054268385043
0.0555,1.72299375,1.0,2688.035955872997,0.46451268989237315,1.299346662942975,0.9774283949364043,0.2854187375,0.714258850079416
0.056,1.7216044069258591,1.0,2686.0122214007274,0.46751635006666864,1.2987377574875503,0.9776742771517573,0.28536038509088607,0.7154201283523903
0.0565,1.7202149032655296,1.0,2684.551842667649,0.47050316191749053,1.2981236228426278,0.9779139083802898,0.28530202593715226,0.7165889843851614
0.057,1.7188253996051999,1.0,2683.6208948850967,0.4734732202310649,1.2975046383103244,0.9781475107231798,0.2852436667834184,0.7177646370658262
0.0575,1.7174358959448703,1.0,2683.1661384486615,0.4764266196233465,1.2968812894529314,0.978375303280886,0.2851853076296845,0.7189461096070306
0.058,1.7160463922845408,1.0,2683.1533750559415,0.47936345268610814,1.2962538886828048,0.9785974864213319,0.2851269484759507,0.7201327596948862
0.0585,1.7146568886242113,1.0,2683.548521761834,0.482283812011123,1.2956227484123002,0.9788142525250559,0.2850685893222169,0.7213239496848147
0.059000000000000004,1.7132673849638815,1.0,2684.3175839944242,0.4851877901901641,1.2949881810537736,0.9790257863757548,0.28501023016848304,0.7225190466791649
0.059500000000000004,1.711877881303552,1.0,2685.4294705164975,0.4880754790851109,1.2943504729960875,0.9792322640438894,0.28495187101474917,0.7237174714508277
0.06,1.7104883776432225,1.0,2686.85300331377,0.4909469710896051,1.293709911825285,0.9794338548835022,0.28489351186101536,0.7249186469884672
0.0605,1.709098873982893,1.0,2688.5642980074504,0.49380235656950977,1.2930667185543778,0.9796307180026796,0.2848351527072815,0.7261221252416107
0.061,1.7077093703225632,1.0,2690.5415537748995,0.4966417252858534,1.2924210952862096,0.9798230053936604,0.2847767935535477,0.7273274969120329
0.0615,1.7063198666622337,1.0,2692.762978885915,0.49946516699966464,1.291773244123624,0.9800108633092722,0.2847184343998138,0.7285343559106381
0.062,1.7049303630019041,1.0,2695.2088071379026,0.5022727704320289,1.2911233486291427,0.9801944314777872,0.28466007524607995,0.7297423338104421
0.0625,1.7035408593415746,1.0,2697.8637289013614,0.505064622348279,1.290471551556869,0.9803738421756315,0.28460171609234614,0.7309511407402589
0.063,1.702151355681245,1.0,2700.6964527964806,0.5078408186012408,1.2898181416516763,0.9805492310055736,0.2845433569386123,0.7321602192907172
0.0635,1.7007618520209153,1.0,2703.695767826113,0.5106014448751739,1.2891632238390878,0.9807207184986099,0.28448499778487846,0.7333693558003369
0.064,1.6993723483605858,1.0,2706.850453346371,0.5133465868543385,1.2885069030446266,0.9808884208196943,0.2844266386311446,0.7345783383150462
0.0645,1.6979828447002563,1.0,2710.149275680614,0.5160763302229944,1.2878492841938154,0.981052449960587,0.2843682794774108,0.7357869565979213
0.065,1.6965933410399268,1.0,2713.5809849772963,0.5187907606654013,1.2871904722121776,0.9812129139228616,0.2843099203236769,0.7369950021382221
0.0655,1.695203837379597,1.0,2717.134312312894,0.5214899638658194,1.2865305720252362,0.9813699168916405,0.2842515611699431,0.7382022681597287
0.066,1.6938143337192675,1.0,2720.7979670377154,0.5241740255085083,1.2858696885585141,0.9815235594005888,0.28419320201620923,0.7394085496283742
0.0665,1.692424830058938,1.0,2724.560634366852,0.5268430312777281,1.2852079267375343,0.9816739384886678,0.28413484286247537,0.740613643259175
0.067,1.6910353263986084,1.0,2728.411112440713,0.5294970667071994,1.2845453902220534,0.9818211477778093,0.28407648370874156,0.7418173498194496
0.0675,1.6896458227382787,1.0,2732.3450139909396,0.5321362114680225,1.2838821205092308,0.9819652743163876,0.2840181245550077,0.7430195843596383
0.068,1.6882563190779492,1.0,2736.3483111719756,0.5347605571430446,1.2832182465299025,0.9821064071368588,0.2839597654012739,0.7442201046955592
0.0685,1.6868668154176196,1.0,2740.416138637316,0.5373701846785048,1.2825538137456092,0.9822446276392882,0.28390140624754,0.7454188212302666
0.069,1.68547731175729,1.0,2744.5436183513834,0.5399651750206423,1.281888867617892,0.9823800144972987,0.2838430470938062,0.746615645131067
0.0695,1.6840878080969603,1.0,2748.7258590489946,0.542545609115696,1.2812234536082914,0.9825126437693305,0.28378468794007233,0.7478104883310752
0.07,1.6826983044366308,1.0,2752.9579557411125,0.5451115679099049,1.2805576171783484,0.98264258900464,0.2837263287863385,0.7490032635306356
0.07050000000000001,1.6813088007763013,1.0,2757.234989265724,0.5476631323495078,1.2798914037896039,0.9827699213443246,0.28366796963260466,0.7501938841986127
0.07100000000000001,1.6799192971159718,1.0,2761.5520258855013,0.5502003833807441,1.2792248589035986,0.982894709617636,0.2836096104788708,0.7513822645735505
0.07150000000000001,1.678529793455642,1.0,2765.9041169304296,0.5527234019498524,1.2785580279818736,0.9830170204338313,0.283551251325137,0.7525683196646995
0.07200000000000001,1.6771402897953125,1.0,2770.2862984864505,0.555232269003072,1.2778909564859693,0.983136918269799,0.2834928921714031,0.7537519652529118
0.0725,1.675750786134983,1.0,2774.6999533210374,0.5577270489662149,1.2772236325204467,0.9832544620120365,0.2834345330176693,0.7549332192990061
0.073,1.6743612824746534,1.0,2779.134071062583,0.5602078436524273,1.2765561558697587,0.9833697158333289,0.28337617386393543,0.7561119025846357
0.0735,1.672971778814324,1.0,2783.58619126835,0.5626747305230652,1.2758885490453227,0.9834827370767851,0.2833178147102016,0.7572879735512328
