Time [s],Phi [rad],STIM [ ],Fsee [N],Gamma [ ],Lcerel [ ],q [ ],Lmtc [m],fisomrel [ ]
0.0,1.8,1.0,18.14370662277915,0.00042708492038377895,1.379320015239974,0.005047189509762544,0.288653,0.5411872641528886
0.0005,1.79999375,1.0,18.585322804472945,0.006033898620572663,1.3792682541792747,0.014138891908304363,0.2886527375,0.5413124724866234
0.001,1.799975,1.0,22.236457680766055,0.011609262528897019,1.3788756196057064,0.037815058570477025,0.28865195,0.5422616864425769
0.0015,1.79994375,1.0,32.364627261033036,0.017153353054761795,1.3779369678270488,0.07360039104533368,0.2886506375,0.5445269398906132
0.002,1.7999,1.0,56.22348972548723,0.02266634561595322,1.3761988514919998,0.11825527840218673,0.2886488,0.5487067096176667
0.0025,1.79984375,1.0,101.43176849600168,0.028148414648028267,1.373729599642437,0.16841426694238626,0.28864643749999996,0.5546115636195911
0.003,1.7997750000000001,1.0,166.49215321814793,0.03359973360743725,1.371008951880814,0.22123557245512052,0.28864354999999997,0.561072568955038
0.0035,1.79969375,1.0,243.8884991900996,0.03902047497849699,1.3683948301198816,0.2745427294692731,0.2886401375,0.5672361260871925
0.004,1.7996,1.0,328.0428626550826,0.044410810276187034,1.3659827986150908,0.32671810861321554,0.2886362,0.5728845380033991
0.0045000000000000005,1.7994937500000001,1.0,416.0606753822198,0.049770910053397184,1.363764014551506,0.37664190739825254,0.2886317375,0.5780476457824355
0.005,1.799375,1.0,506.33173153683003,0.05510094390339135,1.3617118362211214,0.42362111688186915,0.28862675,0.5827951133212522
0.0055,1.79924375,1.0,597.7653889741398,0.060401080501896603,1.359802960864652,0.46729623790637936,0.2886212375,0.5871869558451202
0.006,1.7991000000000001,1.0,689.4893648834313,0.0656714874986683,1.358020017794356,0.5075490438398065,0.2886152,0.5912680703396972
0.006500000000000001,1.79894375,1.0,780.8058958517414,0.07091233168404576,1.3563493087565348,0.5444237220004629,0.2886086375,0.5950738844028693
0.007,1.798775,1.0,871.1270775144607,0.07612377890445551,1.3547801044452605,0.5780668860812357,0.28860155,0.598632262403731
0.0075,1.79859375,1.0,959.9570989305776,0.08130599387516912,1.3533036939182417,0.6086837188300529,0.2885939375,0.6019658796674917
0.008,1.7984,1.0,1046.934614310945,0.08645914099069646,1.3519119781624107,0.6365071477706039,0.2885858,0.6050955345211064
0.0085,1.79819375,1.0,1131.7353736507541,0.09158338290776412,1.350598470979702,0.6617786230207613,0.2885771375,0.608037985161655
0.009000000000000001,1.797975,1.0,1214.1183452517093,0.09667888168356345,1.3493571802880726,0.6847349203497399,0.28856795,0.6108085477715789
0.0095,1.79774375,1.0,1293.922184906763,0.10174579899679967,1.348182424233741,0.7056006621622388,0.2885582375,0.6134215543836582
0.01,1.7975,1.0,1371.0127103492869,0.10678429494398295,1.3470693329900914,0.7245846562768894,0.288548,0.6158892796486387
0.0105,1.79724375,1.0,1445.3020358927697,0.11179452869651976,1.3460133947719854,0.7418779583103272,0.2885372375,0.618222993107035
0.011,1.796975,1.0,1516.7480889523845,0.11677665872869498,1.3450103336182706,0.7576535665812871,0.28852595000000003,0.6204332579611276
0.0115,1.79669375,1.0,1585.3495031675166,0.12173084371566145,1.3440560722617898,0.7720670272593861,0.2885141375,0.6225300355222898
0.012,1.7964,1.0,1651.0918781094272,0.12665723948104926,1.343147277710089,0.785257765237905,0.28850180000000003,0.6245215108423312
0.0125,1.79609375,1.0,1713.9974963556174,0.1315560016404044,1.3422806676154724,0.7973500844283622,0.2884889375,0.6264156395940896
0.013000000000000001,1.7957750000000001,1.0,1774.1143552567414,0.13642728521969402,1.3414530884118747,0.8084546246615554,0.28847555,0.628219988565027
0.0135,1.79544375,1.0,1831.5104073455168,0.1412712454716561,1.3406615317527004,0.8186697715601527,0.2884616375,0.629941711683367
0.014,1.7951000000000001,1.0,1886.2407628781928,0.14608803538827803,1.3399034495527815,0.8280830966197946,0.2884472,0.6315868781317593
0.0145,1.79474375,1.0,1938.3603123733233,0.15087780649031562,1.3391765577530041,0.8367724947435152,0.2884322375,0.6331609141289001
0.015,1.794375,1.0,1987.9448213010846,0.15564071029852483,1.338478572294254,0.8448072067927673,0.28841675,0.6346691839848324
0.0155,1.79399375,1.0,2035.0791193910713,0.16037689754529558,1.3378073144183718,0.852248867328655,0.2884007375,0.6361167676194112
0.016,1.7936,1.0,2079.8572953077137,0.16508651941648902,1.3371606853228049,0.8591523948868549,0.2883842,0.6375085212776039
0.0165,1.7931937500000001,1.0,2122.356356783577,0.1697697246122018,1.3365369180695053,0.8655668589455515,0.2883671375,0.6388485420161962
0.017,1.792775,1.0,2162.648890966204,0.17442666030769774,1.3359344188659055,0.8715361216690639,0.28834955,0.640140517287074
0.0175,1.7923437500000001,1.0,2200.818341723914,0.17905747367824065,1.3353515939194371,0.8770994032446101,0.2883314375,0.6413881009428983
0.018000000000000002,1.7919,1.0,2236.954364478857,0.1836623114697111,1.3347868868115742,0.8822918372260894,0.2883128,0.6425948355198158
0.0185,1.79144375,1.0,2271.1432020223356,0.18824131969176833,1.3342388643526297,0.887144969183392,0.2882936375,0.6437639717993124
0.019,1.790975,1.0,2303.4774897583234,0.1927946449149467,1.333706107373729,0.8916871438200641,0.28827395,0.6448987050429631
0.0195,1.79049375,1.0,2334.0220710405747,0.19732242963175983,1.3331875395349218,0.895943947631721,0.2882537375,0.6460014779931919
0.02,1.79,1.0,2362.847378557737,0.2018248163347215,1.3326820844962577,0.8999384404435354,0.288233,0.647074715099569
0.0205,1.78949375,1.0,2390.0289738486726,0.20630194751634542,1.332188665917787,0.9036914389350079,0.2882117375,0.6481208234558701
0.021,1.788975,1.0,2415.644607902912,0.2107539652411238,1.3317062316592223,0.9072217704121175,0.28818995000000003,0.6491421424695101
0.021500000000000002,1.78844375,1.0,2439.7655217992415,0.21518101021354258,1.331233832884071,0.9105465067414643,0.2881676375,0.6501407779111205
0.022,1.7879,1.0,2462.4744634173394,0.21958322513258083,1.3307704456610994,0.9136811187610004,0.2881448,0.6511189804756305
0.0225,1.78734375,1.0,2483.8269195915786,0.22396074746924316,1.3303153389351456,0.9166397167785567,0.28812143749999997,0.6520783701025505
0.023,1.786775,1.0,2503.8810353145154,0.22831371469453407,1.3298677816510465,0.9194351381181582,0.28809755,0.653020556851459
0.0235,1.78619375,1.0,2522.6973939455766,0.2326422642794581,1.3294270427536399,0.9220790795720736,0.28807313749999996,0.6539471412710189
0.024,1.7856,1.0,2540.3388092707364,0.23694653369501983,1.3289923911877626,0.924582214489408,0.2880482,0.6548597147339228
0.0245,1.78499375,1.0,2556.8608422227367,0.24122665828574905,1.328563183118563,0.9269543107802908,0.2880227375,0.6557596769738447
0.025,1.784375,1.0,2572.3270648223506,0.24548277627147902,1.3281387159735771,0.9292042982982383,0.28799675,0.6566485429821813
0.025500000000000002,1.78374375,1.0,2586.790814133068,0.24971502282744756,1.3277183981930105,0.9313403772208303,0.2879702375,0.6575275876460696
0.026000000000000002,1.7831000000000001,1.0,2600.2947360128387,0.2539235300508875,1.3273017505772269,0.9333700886729249,0.2879432,0.6583978446080445
0.0265,1.78244375,1.0,2612.882608951017,0.2581084300390317,1.3268882939265905,0.9353003609730027,0.2879156375,0.6592603421357239
0.027,1.781775,1.0,2624.5992476430697,0.26226985488911303,1.326477549041465,0.9371375676469345,0.28788755,0.660116103226651
0.0275,1.7810937500000001,1.0,2635.4904116558146,0.26640793669836427,1.3260690367222148,0.938887579243456,0.2878589375,0.6609661456984917
0.028,1.7804,1.0,2645.6011248077893,0.2705228069066396,1.325662292489482,0.9405558115794778,0.2878298,0.6618114516916296
0.0285,1.77969375,1.0,2654.969517710236,0.274614594104447,1.3252569224552562,0.9421472742013262,0.2878001375,0.6626528520246667
0.029,1.778975,1.0,2663.647366314351,0.2786834335137791,1.324852413085735,0.9436665835478475,0.28776995,0.6634914212767058
0.029500000000000002,1.7782437500000001,1.0,2671.664641977753,0.28272945146662887,1.3244484572477322,0.9451180369705021,0.2877392375,0.6643278016248932
0.03,1.7775,1.0,2679.0517810681044,0.2867527742949892,1.324044747808061,0.9465056156196454,0.287708,0.6651626320727364
0.0305,1.77674375,1.0,2685.839643798803,0.29075352833085305,1.3236409776335347,0.9478330117213283,0.2876762375,0.6659965484579398
0.031,1.775975,1.0,2692.0594751551516,0.2947318399062133,1.3232368395909668,0.9491036531791249,0.28764395,0.6668301834542206
0.0315,1.7751937500000001,1.0,2697.742867912405,0.29868783535306304,1.3228320265471705,0.9503207257923038,0.2876111375,0.6676641665671142
0.032,1.7744,1.0,2702.92172774508,0.302621641003395,1.3224262313689592,0.9514871933470672,0.2875778,0.6684991241237577
0.0325,1.77359375,1.0,2707.616300317157,0.3065333754414377,1.32201925589183,0.9526058265355997,0.2875439375,0.6693354554683422
0.033,1.772775,1.0,2711.8681620766333,0.31042317330378977,1.321610709365519,0.9536791899806514,0.28750955,0.6701739528743869
0.0335,1.7719437500000002,1.0,2715.7000863078347,0.3142911567319571,1.3212003746852063,0.9547096929132439,0.2874746375,0.6710150487949078
0.034,1.7711000000000001,1.0,2719.1315423875894,0.3181374455089282,1.320788066382946,0.9556995880366042,0.2874392,0.6718591086297532
0.0345,1.7702437500000001,1.0,2722.1821438691695,0.3219621594176916,1.320373598990793,0.9566509808352636,0.2874032375,0.6727064957579292
0.035,1.7693750000000001,1.0,2724.87163376571,0.32576541824123567,1.3199567870408013,0.9575658409159455,0.28736675,0.6735575715131611
0.035500000000000004,1.76849375,1.0,2727.219870596582,0.329547341762549,1.3195374450650255,0.9584460123491914,0.2873297375,0.6744126951572571
0.036000000000000004,1.7676,1.0,2729.2468151960993,0.3333080497646201,1.31911538759552,0.9592932231101499,0.2872922,0.6752722238512789
0.0365,1.76669375,1.0,2730.9725182853886,0.3370476620304373,1.3186904291643393,0.9601090937063137,0.2872541375,0.6761365126245192
0.037,1.765775,1.0,2732.4171088063235,0.34076629834298927,1.3182623843035377,0.9608951450705684,0.28721555,0.677005914341286
0.0375,1.76484375,1.0,2733.5922683864483,0.3444640729283642,1.3178311448819464,0.9616528121625748,0.2871764375,0.677880622905074
0.038,1.7639,1.0,2734.517873350846,0.3481411081369486,1.3173965288166303,0.9623834383992351,0.28713679999999997,0.6787609805330166
0.0385,1.76294375,1.0,2735.212968202164,0.3517975228395011,1.3169583620290757,0.963088287548399,0.28709663750000003,0.6796473110326703
0.039,1.761975,1.0,2735.68920050154,0.35543343010177375,1.316516537968702,0.9637685544110253,0.28705595,0.6805397997203674
0.0395,1.7609937500000001,1.0,2735.9582491452356,0.35904894298951867,1.3160709500849295,0.9644253645354146,0.2870147375,0.6814386304604911
0.04,1.76,1.0,2736.0318197941706,0.36264417456848785,1.3156214918271776,0.9650597789677233,0.286973,0.6823439856402642
0.0405,1.7589937500000001,1.0,2735.921640555363,0.3662192379044334,1.3151680566448667,0.9656727986280566,0.2869307375,0.6832560461438077
0.041,1.757975,1.0,2735.639457915017,0.36977424606310744,1.3147105379874164,0.9662653683452879,0.28688795,0.6841749913254813
0.0415,1.75694375,1.0,2735.1970329234596,0.37330931211026197,1.3142488293042465,0.9668383805805065,0.2868446375,0.6851009989824954
0.042,1.7559,1.0,2734.606137631491,0.3768245491116491,1.313782824044777,0.9673926788661059,0.28680079999999997,0.6860342453268
0.0425,1.75484375,1.0,2733.876296717289,0.38032006716375655,1.3133124361396702,0.967929062192181,0.2867564375,0.68697486403133
0.043000000000000003,1.753775,1.0,2733.0157953470507,0.38379597712278213,1.3128375908339043,0.9684482877239795,0.28671155,0.6879229647998684
0.043500000000000004,1.75269375,1.0,2732.0373202067763,0.3872523951985145,1.3123581734247418,0.9689510700536368,0.28666613750000003,0.6888787356337975
0.044,1.7516,1.0,2730.94719013713,0.39068942811616103,1.3118741270680292,0.9694380893401534,0.2866202,0.689842247658019
0.0445,1.75049375,1.0,2729.751726117892,0.39410718260092914,1.3113853949196126,0.9699099903904225,0.2865737375,0.6908135708888932
0.045,1.7493750000000001,1.0,2728.457250022331,0.39750576537802634,1.3108919201353386,0.9703673848399175,0.28652675,0.6917927742173541
0.0455,1.74824375,1.0,2727.070083444241,0.40088528317266,1.3103936458710534,0.9708108531783306,0.2864792375,0.692779925391821
0.046,1.7471,1.0,2725.596546596194,0.4042458427100375,1.309890515282604,0.9712409466325882,0.2864312,0.6937750910009
0.0465,1.7459437500000001,1.0,2724.04295727966,0.4075875507153663,1.309382471525836,0.9716581889185548,0.28638263750000004,0.6947783364558842
0.047,1.744775,1.0,2722.4156299262822,0.4109105139138538,1.3088694577565965,0.9720630778717543,0.28633355,0.6957897259730423
0.0475,1.74359375,1.0,2720.7206347889796,0.41421483794911335,1.3083514193150554,0.9724560869832474,0.28628393750000003,0.6968093182601751
0.048,1.7424,1.0,2718.961125044338,0.4175006093044196,1.3078283280644663,0.9728376662569848,0.2862338,0.6978371187533015
0.0485,1.74119375,1.0,2717.1499110455743,0.42076796318760745,1.3073000678741866,0.9732082440729337,0.2861831375,0.6988733044786999
0.049,1.739975,1.0,2715.2900944816092,0.4240169988812876,1.3067666109535987,0.9735682300593461,0.28613195,0.699917877563914
0.0495,1.73874375,1.0,2713.3847742594894,0.42724781566807063,1.306227929512085,0.9739180145788205,0.2860802375,0.7009708392434357
0.05,1.7375,1.0,2711.4370462364454,0.4304605128305673,1.305683995759028,0.9742579698056889,0.286028,0.7020321898494724
0.0505,1.73624375,1.0,2709.450002968912,0.4336551896513882,1.3051347819038102,0.9745884507337893,0.2859752375,0.7031019288026601
0.051000000000000004,1.734975,1.0,2707.4267334796555,0.4368319454131441,1.3045802601558134,0.9749097961197064,0.28592195,0.7041800546027328
0.051500000000000004,1.73369375,1.0,2705.3703230409383,0.43999087939844556,1.3040204027244204,0.9752223293661467,0.2858681375,0.7052665648191365
0.052000000000000005,1.7324,1.0,2703.283852975275,0.44313209088990335,1.3034551818190134,0.9755263593497405,0.2858138,0.7063614560815992
0.0525,1.73109375,1.0,2701.1704004735943,0.44625567917012804,1.302884569648975,0.9758221811972233,0.28575893750000003,0.707464724070648
0.053,1.729775,1.0,2699.033038430013,0.4493617435217304,1.3023085384236874,0.9761100770136332,0.28570355000000003,0.7085763635080801
0.0535,1.72844375,1.0,2696.8748352940192,0.4524503832273211,1.301727060352533,0.9763903165658796,0.2856476375,0.7096963681473816
0.054,1.7271,1.0,2694.698854939783,0.4555216975695107,1.3011401076448943,0.9766631579247766,0.2855912,0.7108247307640991
0.0545,1.7257437500000001,1.0,2692.5081565523906,0.4585757858309101,1.3005476525101536,0.976928848068391,0.2855342375,0.7119614431461607
0.055,1.724375,1.0,2690.3026384971577,0.46161272691161914,1.2999496960530719,0.9771876232160606,0.28547675,0.7131064408088961
0.0555,1.72299375,1.0,2688.0850256994604,0.46463262344867967,1.299346213491944,0.9774397103711596,0.2854187375,0.7142597081251132
0.056,1.7216,1.0,2685.8611934356686,0.4676355987058771,1.298737151137962,0.9776853272396677,0.2853602,0.7154212835777247
0.0565,1.72019375,1.0,2683.632126738838,0.4706217430261732,1.2981225000425578,0.977924682006244,0.28530113749999997,0.7165911191593595
0.057,1.718775,1.0,2681.398809044198,0.4735911467525296,1.2975022512571643,0.9781579742982346,0.28524155,0.7177691661253798
0.0575,1.71734375,1.0,2679.1622221788493,0.476543900227908,1.2968763958332141,0.9783853956044054,0.2851814375,0.7189553749906912
0.058,1.7159,1.0,2676.9233463534274,0.47948009379527,1.2962449248221393,0.9786071296699314,0.2851208,0.7201496955265467
0.0585,1.71444375,1.0,2674.683160155248,0.48239981779757735,1.2956078292753725,0.9788233528691653,0.2850596375,0.7213520767573413
0.059000000000000004,1.7129750000000001,1.0,2672.442640543263,0.48530316257779166,1.2949651002443465,0.9790342345576046,0.28499795,0.7225624669574062
0.059500000000000004,1.71149375,1.0,2670.2027628450537,0.48819021847887467,1.2943167287804935,0.9792399374043663,0.2849357375,0.7237808136477979
0.06,1.71,1.0,2667.964500755104,0.49106107584378794,1.293662705935246,0.9794406177063971,0.284873,0.7250070635930781
0.0605,1.7084937500000001,1.0,2665.72882633538,0.49391582501549336,1.2930030227600366,0.9796364256855559,0.2848097375,0.7262411627980914
0.061,1.7069750000000001,1.0,2663.496710017543,0.4967545563369524,1.2923376703062976,0.9798275057696211,0.28474595,0.7274830565047399
0.0615,1.7054437500000001,1.0,2661.2691206063337,0.49957736015112686,1.2916666396254617,0.9800139968582148,0.2846816375,0.728732689188747
0.062,1.7039,1.0,2659.0470252859213,0.5023843268009783,1.2909899217689615,0.9801960325745585,0.2846168,0.7299900045564212
0.0625,1.70234375,1.0,2656.8313896269015,0.5051755466294685,1.2903075077882291,0.9803737415039153,0.2845514375,0.7312549455414136
0.063,1.7007750000000001,1.0,2654.623177595613,0.5079511099795591,1.2896193887346974,0.9805472474195198,0.28448555,0.7325274543014676
0.0635,1.69919375,1.0,2652.4233515653345,0.5107111071942118,1.2889255556597985,0.9807166694967367,0.28441913750000003,0.733807472215168
0.064,1.6976,1.0,2650.2327726199155,0.5134556284657026,1.2882260005347335,0.98088212255179,0.2843522,0.7350949381879841
0.0645,1.69599375,1.0,2648.0530937270205,0.5161847577067031,1.2875207080099875,0.9810437163792093,0.2842847375,0.7363898037800877
0.065,1.694375,1.0,2645.8843035653867,0.5188985786653659,1.2868096780761722,0.9812015575424803,0.28421675,0.737691991587508
0.0655,1.69274375,1.0,2643.7199225719833,0.5215971771627853,1.2860929704644612,0.9813557518717487,0.2841482375,0.7390013145753218
0.066,1.6911003298819929,1.0,2641.5894929796964,0.5242806388302409,1.285370461153732,0.9815063923868789,0.2840792138550437,0.74031792060238
0.0665,1.6894532016497101,1.0,2639.8763890003856,0.526949048304785,1.2846424278096222,0.9816535882939129,0.28401003446928785,0.7416412254165944
0.067,1.6878060734174274,1.0,2638.7231340995836,0.5296024900127457,1.2839092237197416,0.981797448682111,0.28394085508353195,0.742970512394304
0.0675,1.6861589451851446,1.0,2638.0849203434445,0.5322410481507721,1.2831712597762674,0.9819380816911772,0.28387167569777605,0.7443049669538319
0.068,1.6845118169528621,1.0,2637.9193260560864,0.534864806080358,1.2824289264836937,0.9820755908136332,0.2838024963120202,0.7456438185116976
0.0685,1.6828646887205794,1.0,2638.1882401898683,0.5374738466904646,1.2816825757883568,0.982210074251672,0.28373331692626436,0.7469863727590454
0.069,1.6812175604882966,1.0,2638.865137923509,0.540068250068121,1.2809324535099103,0.982341621798302,0.28366413754050845,0.7483321319033869
0.0695,1.6795704322560139,1.0,2639.8960201519913,0.5426481034568104,1.2801790601886838,0.9824703326635976,0.28359495815475255,0.7496801474227868
0.07,1.6779233040237311,1.0,2641.255317508687,0.545213487485834,1.2794226340063146,0.9825962902892929,0.2835257787689967,0.7510299477199399
0.07050000000000001,1.6762761757914484,1.0,2642.920625783047,0.5477644820241878,1.2786633842577098,0.9827195740449971,0.28345659938324086,0.7523811169452806
0.07100000000000001,1.6746290475591656,1.0,2644.8695679534403,0.550301166940868,1.2779015202377761,0.9828402607563073,0.28338741999748496,0.7537332431426431
0.07150000000000001,1.672981919326883,1.0,2647.0797815703854,0.5528236221048705,1.27713725124142,0.9829584248088203,0.28331824061172906,0.7550859182855549
0.07200000000000001,1.6713347910946001,1.0,2649.5289071107436,0.5553319273851914,1.2763707865635487,0.9830741382472783,0.2832490612259732,0.7564387383107315
0.0725,1.6696876628623176,1.0,2652.1945773033704,0.557826162650827,1.2756023354990689,0.983187470870102,0.28317988184021736,0.7577913031487841
0.073,1.6680405346300349,1.0,2655.0555914682695,0.5603064072298657,1.2748320964305466,0.9832984897995087,0.28311070245446146,0.759143235878797
0.0735,1.6663934063977521,1.0,2658.0974962396017,0.5627727384075941,1.2740602053754373,0.9834072572073643,0.28304152306870556,0.7604942724157306
0.074,1.6647462781654694,1.0,2661.2975060187387,0.5652252381049432,1.2732868749177502,0.9835138370114785,0.2829723436829497,0.7618440178497767
