Time [s],Phi [rad],STIM [ ],Fsee [N],Gamma [ ],Lcerel [ ],q [ ],Lmtc [m],fisomrel [ ]
0.0,1.8,1.0,17.97150137111492,6.871581098893221e-05,1.3793392596650778,0.005001239461366254,0.288653,0.5411407081529042
0.0005,1.79999375,1.0,18.300364934126854,0.005677539678443736,1.3792997648269374,0.01310432441550051,0.2886527375,0.5412362512826212
0.001,1.799975,1.0,21.68565383918352,0.011254902478637578,1.3789314365772298,0.03591519381998859,0.28865195,0.5421268060380002
0.0015,1.79994375,1.0,31.229645596500156,0.01680098068419349,1.3780325549768848,0.07102100491824574,0.2886506375,0.5442965158726039
0.002,1.7999,1.0,53.928550004988104,0.02231594977599564,1.37634571062326,0.11521416241651021,0.2886488,0.5483542923962803
0.0025,1.79984375,1.0,97.70099575549084,0.02779998425115191,1.373907161167684,0.16511448131984868,0.28864643749999996,0.5541882488122563
0.003,1.7997750000000001,1.0,161.715719263795,0.033253257630169564,1.3711860211334759,0.2178370314509358,0.28864354999999997,0.5606535003670243
0.0035,1.79969375,1.0,238.53937358188372,0.03867594245698096,1.3685583895733233,0.27116640965586464,0.2886401375,0.5668517649079032
0.004,1.7996,1.0,322.37757707014316,0.04406821030960525,1.3661319856943848,0.32345172258290567,0.2886362,0.5725362533529554
0.0045000000000000005,1.7994937500000001,1.0,410.2109580000104,0.0494302318053682,1.3639006862399456,0.3735432107874423,0.2886317375,0.5777305183485224
0.005,1.799375,1.0,500.37595082882984,0.05476217659230642,1.3618379002791974,0.4207233728582964,0.28862675,0.5825042535763445
0.0055,1.79924375,1.0,591.761360409756,0.06006421339337824,1.35991987294874,0.4646143083868961,0.2886212375,0.5869186385732232
0.006,1.7991000000000001,1.0,683.4902134024467,0.0653365099574426,1.3581287507520774,0.5050848724186204,0.2886152,0.5910197636631264
0.006500000000000001,1.79894375,1.0,774.8488028404887,0.07057923311149125,1.3564507421489107,0.5421709675669572,0.2886086375,0.5948433304256722
0.007,1.798775,1.0,865.2284167061493,0.07579254844839242,1.3548751730462976,0.5760142869428078,0.28860155,0.5984171286841848
0.0075,1.79859375,1.0,954.1755830305492,0.08097662152812278,1.3533924419185632,0.6068168263399705,0.2885939375,0.6017658864631216
0.008,1.7984,1.0,1041.2956963513084,0.0861316164580712,1.3519948504543962,0.6348107118597415,0.2885858,0.604909519303531
0.0085,1.79819375,1.0,1126.2369197749408,0.09125769554623547,1.350676182244927,0.6602375071567436,0.2885771375,0.6078642066521773
0.009000000000000001,1.797975,1.0,1208.7649673702583,0.0963550211006134,1.3494302208812858,0.6833344252186764,0.28856795,0.6106457931596168
0.0095,1.79774375,1.0,1288.7282699648335,0.10142375487691643,1.348251062232573,0.7043268915748395,0.2885582375,0.6132691251718259
0.01,1.7975,1.0,1365.9868097053181,0.10646405721151256,1.3471338507228345,0.7234248294475534,0.288548,0.6157464594462272
0.0105,1.79724375,1.0,1440.4490029240903,0.11147608728701894,1.3460740664966944,0.7408204514302803,0.2885372375,0.6180890959771734
0.011,1.796975,1.0,1512.0603562311471,0.11646000317908163,1.345067538019467,0.7566879495038082,0.28852595000000003,0.6203073794808154
0.0115,1.79669375,1.0,1580.844712655387,0.12141596455502698,1.3441098383338579,0.7711837933533142,0.2885141375,0.6224120508987443
0.012,1.7964,1.0,1646.7745885251422,0.1263441268838875,1.3431977667503947,0.7844484864696551,0.28850180000000003,0.6244110105151202
0.0125,1.79609375,1.0,1709.8595244754947,0.1312446454979877,1.342328160897224,0.7966073066221419,0.2884889375,0.6263119587267996
0.013000000000000001,1.7957750000000001,1.0,1770.1456636998616,0.1361176757296522,1.341497858402491,0.8077717172653595,0.28847555,0.6281224894978068
0.0135,1.79544375,1.0,1827.6924813018004,0.14096337208445606,1.3407039191452088,0.8180408680552846,0.2884616375,0.6298496156858897
0.014,1.7951000000000001,1.0,1882.5766590288392,0.14578188869051245,1.3399435332388292,0.8275028897813396,0.2884472,0.6314999815341232
0.0145,1.79474375,1.0,1934.853945831385,0.15057337717545027,1.3392143953870927,0.8362362610616514,0.2884322375,0.6330790623793658
0.015,1.794375,1.0,1984.592659194348,0.15533798876081303,1.3385142908117644,0.8443107692601425,0.28841675,0.6345920756256639
0.0155,1.79399375,1.0,2031.8762832863358,0.16007587427929168,1.33784104333719,0.8517885090178199,0.2884007375,0.6360440989695121
0.016,1.7936,1.0,2076.794755275741,0.1647871843887568,1.3371925869138814,0.8587248131303618,0.2883842,0.637439921333943
0.0165,1.7931937500000001,1.0,2119.42948975695,0.16947206850484275,1.336567098888757,0.8651690909124783,0.2883671375,0.6387837625816507
0.017,1.792775,1.0,2159.853300544707,0.17413067380849045,1.335962975586434,0.8711655171580569,0.28834955,0.6400793336578737
0.0175,1.7923437500000001,1.0,2198.149954115334,0.17876314748064087,1.33537861333153,0.8767535879076181,0.2883314375,0.6413303116065693
0.018000000000000002,1.7919,1.0,2234.407765750995,0.18336963604973627,1.3348124634220382,0.8819686848949667,0.2883128,0.6425402242897524
0.0185,1.79144375,1.0,2268.7140463482515,0.18795028588867022,1.334263076685762,0.8868425674544422,0.2882936375,0.6437123583053841
0.019,1.790975,1.0,2301.1607299947896,0.19250524370963062,1.3337290364011993,0.8914037739439168,0.28827395,0.644849905174512
0.0195,1.79049375,1.0,2331.812588169642,0.19703465194329914,1.3332092629627128,0.8956780609787419,0.2882537375,0.6459553159306305
0.02,1.79,1.0,2360.7400231721326,0.2015386530203574,1.3327026767646644,0.8996886393231037,0.288233,0.6470310231939645
0.0205,1.78949375,1.0,2388.0186044191355,0.20601738937148711,1.332208198201417,0.9034564597733816,0.2882117375,0.6480794421166075
0.021,1.788975,1.0,2413.728630584783,0.21047100342736993,1.3317247476673322,0.9070004639789032,0.28818995000000003,0.6491029712533316
0.021500000000000002,1.78844375,1.0,2437.9373773336993,0.21489963510009838,1.3312514123316506,0.9103378385553377,0.2881676375,0.6501036410340779
0.022,1.7879,1.0,2460.7325544642385,0.2193034279254453,1.3307871182785331,0.9134841399653094,0.2881448,0.6510838086128308
0.0225,1.78734375,1.0,2482.1710894603066,0.22368251979418763,1.3303311192219653,0.9164535619884446,0.28812143749999997,0.6520451265100884
0.023,1.786775,1.0,2502.3087844441143,0.22803704797377133,1.3298827051468811,0.9192590233749156,0.28809755,0.6529891608577038
0.0235,1.78619375,1.0,2521.203854776021,0.23236714973164238,1.3294411660382146,0.9219122938791353,0.28807313749999996,0.6539174684929259
0.024,1.7856,1.0,2538.9167263730537,0.23667296233524676,1.3290057918808997,0.9244241123238189,0.2880482,0.6548315972857848
0.0245,1.78499375,1.0,2555.5062875186004,0.24095462236460205,1.3285759060712339,0.9268042966877275,0.2880227375,0.6557330164204965
0.025,1.784375,1.0,2571.0252751189873,0.24521226500940768,1.3281509064330044,0.9290618427375886,0.28799675,0.6566230312729515
0.025500000000000002,1.78374375,1.0,2585.544852558193,0.24944602842221691,1.3277300331204018,0.9312049678122387,0.2879702375,0.6575032697413914
0.026000000000000002,1.7831000000000001,1.0,2599.106233543799,0.25365604451131246,1.3273128200213307,0.9332412569855545,0.2879432,0.6583747380410843
0.0265,1.78244375,1.0,2611.751750316022,0.257842445184977,1.3268988010236942,0.9351776783252513,0.2879156375,0.6592384371469108
0.027,1.781775,1.0,2623.524759890599,0.2620053623514932,1.3264875100153968,0.9370206413568318,0.28788755,0.6600953628952366
0.0275,1.7810937500000001,1.0,2634.4695551188306,0.26614492791914374,1.3260784808843422,0.9387760492764147,0.2878589375,0.6609465060719377
0.028,1.7804,1.0,2644.6312805644843,0.2702612737962113,1.3256712475184342,0.9404493456482674,0.2878298,0.6617928524865648
0.0285,1.77969375,1.0,2654.0482154386204,0.27435452832254775,1.3252654142097848,0.9420455649504155,0.2878001375,0.6626352369864066
0.029,1.778975,1.0,2662.769845130195,0.2784248258608958,1.324860488083231,0.9435693492442399,0.28776995,0.6634746915890462
0.029500000000000002,1.7782437500000001,1.0,2670.828643484996,0.2824722939168292,1.3244561385681066,0.945025013985888,0.2877392375,0.6643119073516378
0.03,1.7775,1.0,2678.25505977077,0.2864970588721181,1.3240520581138353,0.9464165595372237,0.287708,0.6651475243373326
0.0305,1.77674375,1.0,2685.079970185748,0.29049924710853275,1.3236479391698404,0.9477476956884533,0.2876762375,0.6659821794359545
0.031,1.775975,1.0,2691.334638578972,0.29447898500784325,1.3232434741855454,0.9490218664206629,0.28764395,0.6668165063662583
0.0315,1.7751937500000001,1.0,2697.050679267522,0.29843639895181967,1.322838355610374,0.9502422722672764,0.2876111375,0.6676511356721611
0.032,1.7744,1.0,2702.259716649777,0.3023716150429971,1.3224322786827774,0.951411890788811,0.2875778,0.6684866889777801
0.0325,1.77359375,1.0,2706.9852015683214,0.30628475075797285,1.3220250158117586,0.9525335012890809,0.2875439375,0.6693236262482036
0.033,1.772775,1.0,2711.269131507185,0.3101759440888263,1.3216161723008892,0.9536096805696145,0.28750955,0.6701627478141732
0.0335,1.7719437500000002,1.0,2715.130957749988,0.31404531489873305,1.3212055612476246,0.9546428514073856,0.2874746375,0.6710044241823933
0.034,1.7711000000000001,1.0,2718.590293241286,0.3178929830508686,1.3207929957494196,0.9556352760925201,0.2874392,0.6718490238460233
0.0345,1.7702437500000001,1.0,2721.666896905807,0.3217190684084087,1.320378288903729,0.9565890689523987,0.2874032375,0.672696913262496
0.035,1.7693750000000001,1.0,2724.3806587412105,0.3255236908345288,1.3199612538080077,0.9575062077586081,0.28736675,0.6735484568291062
0.035500000000000004,1.76849375,1.0,2726.7515856862083,0.3293069701924045,1.319541703559711,0.9583885441280628,0.2873297375,0.6744040168563705
0.036000000000000004,1.7676,1.0,2728.7997882626355,0.3330690263452115,1.3191194512562936,0.9592378130174499,0.2872922,0.6752639535391648
0.0365,1.76669375,1.0,2730.5454679923564,0.3368099791561252,1.3186943099952102,0.960055641399399,0.2872541375,0.6761286249256278
0.037,1.765775,1.0,2732.00890558835,0.3405299484883214,1.3182660928739163,0.9608435561993103,0.28721555,0.6769983868838384
0.0375,1.76484375,1.0,2733.2014921327336,0.3442290442598797,1.3178346943575556,0.9616029974004122,0.2871764375,0.6778734281334158
0.038,1.7639,1.0,2734.1448767218985,0.34790739187903713,1.3173999162184165,0.9623353128466444,0.28713679999999997,0.6787541236751984
0.0385,1.76294375,1.0,2734.8601143823043,0.3515651158339767,1.316961566089038,0.963041770706361,0.28709663750000003,0.6796408342550525
0.039,1.761975,1.0,2735.357901288071,0.3552023282357904,1.3165195460360402,0.9637235710392545,0.28705595,0.6805337276056731
0.0395,1.7609937500000001,1.0,2735.6489643693717,0.35881914119557035,1.3160737581260442,0.964381844299013,0.2870147375,0.6814329701022924
0.04,1.76,1.0,2735.7440571296665,0.3624156668244086,1.3156241044256702,0.9650176561113032,0.286973,0.6823387267394567
0.0405,1.7589937500000001,1.0,2735.653955676004,0.3659920172333972,1.3151704870015388,0.9656320116749583,0.2869307375,0.6832511611071839
0.041,1.757975,1.0,2735.3894549613487,0.36954830453362814,1.3147128079202708,0.9662258598197497,0.28688795,0.6841704353665139
0.0415,1.75694375,1.0,2734.9613652402763,0.3730846408361935,1.3142509692484865,0.9668000967508392,0.2868446375,0.6850967102244476
0.042,1.7559,1.0,2734.3805087368496,0.37660113825218544,1.3137848730528066,0.9673555695071122,0.28680079999999997,0.686030144908272
0.0425,1.75484375,1.0,2733.657716525513,0.38009790889269585,1.3133144213998516,0.9678930791579703,0.2867564375,0.6869708971392738
0.043000000000000003,1.753775,1.0,2732.8038256237637,0.3835750648688169,1.312839516356242,0.9684133837608323,0.28671155,0.6879191231058437
0.043500000000000004,1.75269375,1.0,2731.8296762990585,0.38703271829164054,1.3123600599885985,0.9689172010994958,0.28666613750000003,0.6888749774359667
0.044,1.7516,1.0,2730.738591864615,0.39047096882525273,1.3118760226812458,0.9694052147295251,0.2866202,0.6898384772848439
0.0445,1.75049375,1.0,2729.544474437432,0.39388993820908746,1.311387278707966,0.9698780684729649,0.2865737375,0.6908098299070395
0.045,1.7493750000000001,1.0,2728.2561487815797,0.3972897375689941,1.310893748452577,0.9703363749519163,0.28652675,0.6917891491489345
0.0455,1.74824375,1.0,2726.878719149022,0.40067047121641314,1.3103953861054876,0.9707807171502864,0.2864792375,0.6927764804988052
0.046,1.7471,1.0,2725.4172892704637,0.4040322434627851,1.3098921458571062,0.9712116486543503,0.2864312,0.693771868418616
0.0465,1.7459437500000001,1.0,2723.876961552577,0.4073751586195505,1.309383981897841,0.9716296954131887,0.28638263750000004,0.6947753563298356
0.047,1.744775,1.0,2722.262836321951,0.41069932099814976,1.3088708484181009,0.9720353573775148,0.28633355,0.6957869865991153
0.0475,1.74359375,1.0,2720.5800111159606,0.4140048349100235,1.3083526996082941,0.9724291100263758,0.28628393750000003,0.6968068005238428
0.048,1.7424,1.0,2718.833580019249,0.41729180466661214,1.3078294896588292,0.9728114057903727,0.2862338,0.6978348383175536
0.0485,1.74119375,1.0,2717.0286330478457,0.42056033457935615,1.3073011727601147,0.9731826753793135,0.2861831375,0.6988711390952109
0.049,1.739975,1.0,2715.170255578769,0.4238105289596962,1.3067677031025589,0.9735433290215438,0.28613195,0.6999157408583556
0.0495,1.73874375,1.0,2713.263527827039,0.4270424921190725,1.3062290348765702,0.9738937576215853,0.2860802375,0.7009686804801161
0.05,1.7375,1.0,2711.3135243685597,0.43025632836892586,1.3056851222725572,0.9742343338421584,0.286028,0.7020299936900886
0.0505,1.73624375,1.0,2709.322472249544,0.4334521208264379,1.3051359454047202,0.9745654124193163,0.2859752375,0.703099664610866
0.051000000000000004,1.734975,1.0,2707.298895863431,0.43662999735882646,1.3045814268923877,0.9748873331473356,0.28592195,0.7041777882404245
0.051500000000000004,1.73369375,1.0,2705.245591591592,0.4397900581770818,1.3040215415441745,0.975200420659806,0.2858681375,0.7052643567509687
0.052000000000000005,1.7324,1.0,2703.164749381644,0.4429323997132529,1.3034562696744887,0.975504984944015,0.2858138,0.7063593507501403
0.0525,1.73109375,1.0,2701.058556332156,0.44605711839938855,1.3028855915977389,0.9758013221897502,0.28575893750000003,0.7074627500079329
0.053,1.729775,1.0,2698.9291965839607,0.44916431066753787,1.3023094876283332,0.9760897155200431,0.28570355000000003,0.7085745334499192
0.0535,1.72844375,1.0,2696.7788512201882,0.4522540729497496,1.3017279380806799,0.9763704356771404,0.2856476375,0.7096946791504509
0.054,1.7271,1.0,2694.609698174929,0.4553265016780728,1.3011409232691875,0.9766437416668038,0.2855912,0.7108231643258334
0.0545,1.7257437500000001,1.0,2692.423912150284,0.4583816932845563,1.300548423508264,0.9769098813637976,0.2855342375,0.7119599653274782
0.055,1.724375,1.0,2690.2236645422468,0.46141974420124904,1.299950419112318,0.977169092081216,0.28547675,0.7131050576350282
0.0555,1.72299375,1.0,2688.0111233750354,0.46444075086019987,1.2993468903957572,0.9774216011060851,0.2854187375,0.7142584158494596
0.056,1.7216,1.0,2685.788453243928,0.4674448096934578,1.2987378176729907,0.9776676262035057,0.2853602,0.7154200136861575
0.0565,1.72019375,1.0,2683.5578152670755,0.4704320171330717,1.2981231812584264,0.9779073760914272,0.28530113749999997,0.7165898239679702
0.057,1.718775,1.0,2681.3213670456475,0.4734024696110905,1.2975029614664726,0.9781410508879858,0.28524155,0.7177678186182351
0.0575,1.71734375,1.0,2679.0801566317296,0.4763562557070078,1.296877148758821,0.9783688424153317,0.2851814375,0.7189539494414312
0.058,1.7159,1.0,2676.8317581542537,0.4792934389212963,1.2962457654671602,0.9785909343490191,0.2851208,0.7201481072792613
0.0585,1.71444375,1.0,2674.585592835975,0.48221416864689187,1.295608725175379,0.9788075043442173,0.2850596375,0.7213503877556993
0.059000000000000004,1.7129750000000001,1.0,2672.3422014668,0.48511853224438767,1.2949660229006925,0.9790187221224039,0.28499795,0.7225607312951152
0.059500000000000004,1.71149375,1.0,2670.102123927887,0.48800661707437687,1.2943176536603165,0.9792247507082527,0.2849357375,0.7237790776271875
0.06,1.71,1.0,2667.865899193395,0.49087851049745257,1.2936636124714667,0.9794257467441578,0.284873,0.7250053657851028
0.0605,1.7084937500000001,1.0,2665.634065333522,0.49373429987420797,1.2930038943513582,0.9796218607876296,0.2848097375,0.7262395341037569
0.061,1.7069750000000001,1.0,2663.407159517513,0.49657407256523617,1.2923384943172067,0.9798132375926096,0.28474595,0.7274815202179481
0.0615,1.7054437500000001,1.0,2661.1857180174143,0.4993979159311304,1.2916674073862278,0.9800000163756994,0.2846816375,0.7287312610605748
0.062,1.7039,1.0,2658.9702762127636,0.5022059173324838,1.2909906285756367,0.9801823310682123,0.2846168,0.7299886928608286
0.0625,1.70234375,1.0,2656.7613685949577,0.5049981641298894,1.2903081529026492,0.9803603105549085,0.2845514375,0.7312537511423853
0.063,1.7007750000000001,1.0,2654.559528772982,0.5077747436839404,1.2896199753844808,0.9805340789002107,0.28448555,0.7325263707215968
0.0635,1.69919375,1.0,2652.365289479655,0.51053574335523,1.2889260910383469,0.9807037555626424,0.28441913750000003,0.7338064857056789
0.064,1.6976,1.0,2650.179182577357,0.5132812505043514,1.288226494881463,0.9808694555981858,0.2843522,0.7350940294908992
0.0645,1.69599375,1.0,2648.001739066122,0.5160113524918976,1.2875211819310446,0.9810312898532089,0.2842847375,0.7363889347607626
0.065,1.694375,1.0,2645.8334890905626,0.5187261366784618,1.2868101472043072,0.9811893651475683,0.28421675,0.7376911334841953
0.0655,1.69274375,1.0,2643.6749619482866,0.5214256904246372,1.2860933857184664,0.9813437844484533,0.2841482375,0.739000556913727
0.066,1.6911,1.0,2641.526686098604,0.5241101010910169,1.2853708924907377,0.9814946470355064,0.2840792,0.7403171355836731
0.0665,1.6894437500000001,1.0,2639.389189172139,0.5267794560381941,1.2846426625383363,0.9816420486577132,0.2840096375,0.7416407993083126
0.067,1.687775,1.0,2637.262997979832,0.5294338426267619,1.2839086908784783,0.9817860816825289,0.28393955,0.742971477180066
0.0675,1.68609375,1.0,2635.1471940664205,0.5320733115185865,1.2831689858909432,0.9819268334423952,0.2838689375,0.744309073435889
0.068,1.6844000000000001,1.0,2633.0430903958336,0.5346979756424102,1.2824235353185451,0.9820643913671658,0.2837978,0.7456535290120361
0.0685,1.68269375,1.0,2630.951497730706,0.5373079367350846,1.2816723315346066,0.9821988393283229,0.2837261375,0.7470047756628146
0.069,1.680975,1.0,2628.8723105613403,0.5399032728364603,1.2809153753874787,0.9823302571824728,0.28365395,0.7483627291802039
0.0695,1.67924375,1.0,2626.805423599873,0.5424840619863882,1.280152667725512,0.9824587220698616,0.28358123749999997,0.7497273047394097
0.07,1.6775,1.0,2624.750731778103,0.5450503822247189,1.2793842093970573,0.9825843085238155,0.283508,0.7510984168991748
0.07050000000000001,1.67574375,1.0,2622.7081302455604,0.5476023115913031,1.2786100012504655,0.9827070885750466,0.2834342375,0.7524759796020906
0.07100000000000001,1.673975,1.0,2620.6775143673426,0.5501399281259913,1.2778300441340875,0.9828271318510965,0.28335995,0.7538599061749075
0.07150000000000001,1.67219375,1.0,2618.658779722439,0.5526633098686344,1.277044338896274,0.9829445056711758,0.2832851375,0.7552501093288473
0.07200000000000001,1.6704,1.0,2616.651822101658,0.5551725348590829,1.2762528863853757,0.9830592751366407,0.2832098,0.7566465011599129
0.0725,1.66859375,1.0,2614.6565375057344,0.5576676811371876,1.2754556874497436,0.9831715032173372,0.2831339375,0.7580489931492003
0.073,1.6667750000000001,1.0,2612.6728221432827,0.560148826742799,1.2746527429377283,0.983281250834021,0.28305755,0.7594574961632083
0.0735,1.66494375,1.0,2610.700572429129,0.562616049715768,1.273844053697681,0.9833885769370643,0.2829806375,0.7608719204541506
0.074,1.6631,1.0,2608.7396849820766,0.5650694280959452,1.273029620577952,0.9834935385816324,0.2829032,0.7622921756602663
0.0745,1.6612437500000001,1.0,2606.7900566234885,0.5675090399231811,1.2722094444268925,0.9835961909995133,0.2828252375,0.7637181708061305
0.075,1.659375,1.0,2604.851584375153,0.5699349632373266,1.271383526092853,0.9836965876677692,0.28274675,0.7651498143029649
0.0755,1.65749375,1.0,2602.9241654575117,0.5723472760782322,1.2705518664241846,0.9837947803743684,0.2826677375,0.7665870139489482
