Time [s],Phi [rad],STIM [ ],Fsee [N],Gamma [ ],Lcerel [ ],q [ ],Lmtc [m],fisomrel [ ]
0.0,1.8,1.0,17.992052947067993,0.00016169214871527426,1.3793369581373016,0.005006816475869527,0.288653,0.5411462761197037
0.0005,1.79999375,1.0,18.351233368854604,0.005769994492460382,1.3792941219004111,0.013367005546138351,0.2886527375,0.5412499014406762
0.001,1.799975,1.0,21.805574544556034,0.011346838694257353,1.3789192243148678,0.03640341688144318,0.28865195,0.5421563183820757
0.0015,1.79994375,1.0,31.498737142139298,0.016892401210366455,1.3780097373022653,0.07168688236966994,0.2886506375,0.5443515258439808
0.002,1.7999,1.0,54.49447046622212,0.022406857505230346,1.3763092101495853,0.11600121630658564,0.2886488,0.5484418952697554
0.0025,1.79984375,1.0,98.64057038903648,0.027890382059962304,1.3738621283857246,0.16596974994306612,0.28864643749999996,0.554295628057704
0.003,1.7997750000000001,1.0,162.930694543775,0.03334314837873167,1.3711407349967788,0.2187187458541378,0.28864354999999997,0.5607606977871519
0.0035,1.79969375,1.0,239.90797064470988,0.03876532898946817,1.3685163690603737,0.2720429411849143,0.2886401375,0.5669505284903013
0.004,1.7996,1.0,323.83116269986067,0.04415709545429445,1.366093583427836,0.3243001394559124,0.2886362,0.5726259189188969
0.0045000000000000005,1.7994937500000001,1.0,411.71451114438645,0.049518618374820564,1.363865464961019,0.3743483691339642,0.2886317375,0.5778122557675431
0.005,1.799375,1.0,501.9088747181355,0.05485006738396433,1.3618053820028373,0.421476515199527,0.28862675,0.5825792906689445
0.0055,1.79924375,1.0,593.3067451113395,0.060151611185534325,1.3598897243298442,0.46531150921218306,0.2886212375,0.5869878390363161
0.006,1.7991000000000001,1.0,685.0355300361907,0.06542341751681134,1.3581006968395324,0.5057255479294821,0.2886152,0.5910838358515349
0.006500000000000001,1.79894375,1.0,776.3827488490957,0.07066565317556564,1.3564245859767112,0.5427567416258973,0.2886086375,0.5949027886203124
0.007,1.798775,1.0,866.7563388647549,0.07587848405911335,1.3548505165357105,0.5765479609146384,0.28860155,0.5984729302115416
0.0075,1.79859375,1.0,955.6658624540424,0.08106207497806166,1.3533695400215586,0.6073023029973031,0.2885939375,0.6018175005897707
0.008,1.7984,1.0,1042.7364529876795,0.08621659026584691,1.3519736550931283,0.6352519799982493,0.2885858,0.6049570985981619
0.0085,1.79819375,1.0,1127.6413345324852,0.0913421926664749,1.3506563152329034,0.6606383775456806,0.2885771375,0.6079086370767943
0.009000000000000001,1.797975,1.0,1210.1367719219577,0.09643904436174769,1.3494114888221784,0.6836986794426065,0.28856795,0.6106875366041731
0.0095,1.79774375,1.0,1290.0624482161381,0.10150730702429811,1.3482334177796194,0.7046581560184259,0.2885582375,0.6133083123135367
0.01,1.7975,1.0,1367.2801704425206,0.1065471406213542,1.3471172364616504,0.7237264360764928,0.288548,0.6157832402781465
0.0105,1.79724375,1.0,1441.7004565121674,0.11155870450876512,1.3460584112871563,0.7410954241999119,0.2885372375,0.6181236478871472
0.011,1.796975,1.0,1513.2870661910254,0.11654215779763887,1.3450525599221252,0.756938917575803,0.28852595000000003,0.6203403408520032
0.0115,1.79669375,1.0,1582.014226446056,0.12149765793787928,1.3440958724695213,0.7714133917304759,0.2885141375,0.622442699456119
0.012,1.7964,1.0,1647.8805419062242,0.12642536135245688,1.3431848267520128,0.7846589267895792,0.28850180000000003,0.6244393325484406
0.0125,1.79609375,1.0,1710.9106748123945,0.1313254238104454,1.3423160909529552,0.7968004872382738,0.2884889375,0.626338309549388
0.013000000000000001,1.7957750000000001,1.0,1771.1683030161178,0.13619800163225645,1.341486317423516,0.807949253502384,0.28847555,0.6281476244021862
0.0135,1.79544375,1.0,1828.6934208439923,0.14104324834256518,1.3406928022320408,0.8182042854950469,0.2884616375,0.6298737707502537
0.014,1.7951000000000001,1.0,1883.5340264248323,0.14586131656484508,1.3399330562984464,0.8276536606275124,0.2884472,0.631522695266573
0.0145,1.79474375,1.0,1935.7622438846108,0.15065235892256953,1.3392045905426497,0.8363756293674012,0.2884322375,0.6331002734527849
0.015,1.794375,1.0,1985.4522216017804,0.15541652702705602,1.3385051289848293,0.8444398207350959,0.28841675,0.6346118547543498
0.0155,1.79399375,1.0,2032.7074309325458,0.1601539729469571,1.3378322880071647,0.8519081434455164,0.2884007375,0.6360629629459316
0.016,1.7936,1.0,2077.595414598551,0.16486484559243267,1.3371842444083777,0.8588359069073803,0.2883842,0.6374578613608145
0.0165,1.7931937500000001,1.0,2120.189596385082,0.1695492934382433,1.3365592589354176,0.8652724501881952,0.2883671375,0.6388005906404417
0.017,1.792775,1.0,2160.5759184434146,0.1742074649591495,1.3359555923352338,0.8712618240502279,0.28834955,0.6400951529932469
0.0175,1.7923437500000001,1.0,2198.8348499398994,0.17883950740149204,1.3353716766874175,0.8768434629702585,0.2883314375,0.641345148201117
0.018000000000000002,1.7919,1.0,2235.072484678319,0.18344556897781739,1.3348057859525702,0.8820526378114313,0.2883128,0.6425544824383985
0.0185,1.79144375,1.0,2269.3600755851903,0.18802579432237781,1.3342566361980277,0.8869210973320327,0.2882936375,0.6437260878749342
0.019,1.790975,1.0,2301.77079238007,0.19258032766309394,1.3337229974799207,0.8914773744585553,0.28827395,0.6448627581409976
0.0195,1.79049375,1.0,2332.3844123505523,0.19710931322788613,1.3332036398543792,0.8957471416061853,0.2882537375,0.6459672652671977
0.02,1.79,1.0,2361.2789636915436,0.20161289415314895,1.3326974095702495,0.8997535524604938,0.288233,0.6470421991876456
0.0205,1.78949375,1.0,2388.5407716138307,0.20609121466199384,1.3322031241557704,0.9035175017509087,0.2882117375,0.6480901922868171
0.021,1.788975,1.0,2414.2400738773745,0.21054441614485173,1.3317198043596725,0.9070579242865551,0.28818995000000003,0.6491134291950912
0.021500000000000002,1.78844375,1.0,2438.4399037933385,0.21497263833078892,1.3312465793776618,0.9103919884237236,0.2881676375,0.6501138509266531
0.022,1.7879,1.0,2461.2068067857476,0.21937602094887174,1.3307825784054441,0.9135352650287907,0.2881448,0.6510933859166015
0.0225,1.78734375,1.0,2482.6105449056186,0.22375470372816653,1.330326930638725,0.9165018982190574,0.28812143749999997,0.6520539505573946
0.023,1.786775,1.0,2502.713971145556,0.2281088241489275,1.3298788587461274,0.9193047726357074,0.28809755,0.6529972530368384
0.0235,1.78619375,1.0,2521.590335279804,0.23243852339156132,1.329437510979609,0.9219556158348708,0.28807313749999996,0.6539251478302295
0.024,1.7856,1.0,2539.2948057429244,0.23674393788583806,1.3290022287648866,0.9244651616218241,0.2880482,0.6548390735578355
0.0245,1.78499375,1.0,2555.8775083523624,0.2410252022801947,1.3285724189626407,0.9268432284952071,0.2880227375,0.6557403236512722
0.025,1.784375,1.0,2571.3902417808254,0.24528245122306824,1.328147488433553,0.9290988004294353,0.28799675,0.6566301844220386
0.025500000000000002,1.78374375,1.0,2585.8863352518715,0.24951581936289563,1.3277268440383045,0.9312401092015745,0.2879702375,0.6575099352573113
0.026000000000000002,1.7831000000000001,1.0,2599.4205140353065,0.2537254413481139,1.3273098926375766,0.9332747075927147,0.2879432,0.6583808487932975
0.0265,1.78244375,1.0,2612.037486545999,0.25791144855562265,1.3268961459604942,0.9352095497767646,0.2879156375,0.6592439724367833
0.027,1.781775,1.0,2623.7938097576293,0.2620739777570771,1.3264850156134196,0.9370510196037715,0.28788755,0.6601005566961262
0.0275,1.7810937500000001,1.0,2634.7341169046663,0.2662131611399556,1.326076033191056,0.9388050132092194,0.2878589375,0.6609515962320963
0.028,1.7804,1.0,2644.8939448366255,0.270329127581964,1.325668822053315,0.9404769799281653,0.2878298,0.6617978901224688
0.0285,1.77969375,1.0,2654.3095226255105,0.2744220059608081,1.3252630055601082,0.9420719507436165,0.2878001375,0.6626402334630261
0.029,1.778975,1.0,2663.01771120602,0.2784919251541938,1.3248582070713473,0.9435945758488182,0.28776995,0.6634794174055793
0.029500000000000002,1.7782437500000001,1.0,2671.055946160991,0.28253901403982695,1.324454049946944,0.9450491583860643,0.2877392375,0.6643162291869452
0.03,1.7775,1.0,2678.462183651909,0.2865634014954133,1.3240501575468095,0.9464396847928609,0.287708,0.6651514521488773
0.0305,1.77674375,1.0,2685.268076376049,0.2905652140064361,1.3236462153008903,0.9477698594326005,0.2876762375,0.6659857376320464
0.031,1.775975,1.0,2691.506722465131,0.2945445794722642,1.3232418989816006,0.949043120552061,0.28764395,0.6668197536440329
0.0315,1.7751937500000001,1.0,2697.220010218967,0.29850162788809825,1.3228368072489005,0.9502626544486671,0.2876111375,0.6676543236139549
0.032,1.7744,1.0,2702.431388348924,0.3024364819920102,1.3224307104315258,0.9514314441172076,0.2875778,0.6684899138093799
0.0325,1.77359375,1.0,2707.164550630914,0.306349264522072,1.3220233788582123,0.9525522671867428,0.2875439375,0.6693269881018503
0.033,1.772775,1.0,2711.443412861662,0.3102400982163557,1.3216145828576962,0.9536277125504121,0.28750955,0.6701660079504785
0.0335,1.7719437500000002,1.0,2715.29209098544,0.31410910581293316,1.3212040927587132,0.9546601954587308,0.2874746375,0.6710074323821811
0.034,1.7711000000000001,1.0,2718.734880389539,0.3179564100498765,1.3207916788899996,0.9556519712346703,0.2874392,0.6718517179685439
0.0345,1.7702437500000001,1.0,2721.7962363698907,0.32178213366525765,1.320377111580291,0.9566051477509523,0.2874032375,0.6726993187993298
0.035,1.7693750000000001,1.0,2724.494536638018,0.3255863967941982,1.3199602177397147,0.9575217022367857,0.28736675,0.6735505709947525
0.035500000000000004,1.76849375,1.0,2726.851974180675,0.32936932149556636,1.3195407906148786,0.9584034827124636,0.2873297375,0.6744058773380686
0.036000000000000004,1.7676,1.0,2728.8969536821173,0.3331310307002263,1.319118567953903,0.9592522152468186,0.2872922,0.6752657512342162
0.0365,1.76669375,1.0,2730.6444534987254,0.33687164111855994,1.3186934104347767,0.9600695296360471,0.2872541375,0.6761304532699328
0.037,1.765775,1.0,2732.1095221892347,0.34059126946094925,1.3182651787354887,0.9608569554521983,0.28721555,0.6770002423611845
0.0375,1.76484375,1.0,2733.307270358307,0.34429003243777606,1.317833733534028,0.9616159293240637,0.2871764375,0.6778753757264684
0.038,1.7639,1.0,2734.2528629296744,0.3479680467594222,1.3173989355083833,0.9623478016116029,0.28713679999999997,0.6787561088588813
0.0385,1.76294375,1.0,2734.9615118502434,0.3516254291362697,1.3169606453365437,0.9630538425305246,0.28709663750000003,0.6796426954969446
0.039,1.761975,1.0,2735.4484692239603,0.3552622962787004,1.316518723696498,0.9637352477778101,0.28705595,0.6805353875941965
0.0395,1.7609937500000001,1.0,2735.7269717701715,0.3588787644328785,1.3160730498706261,0.9643931453103481,0.2870147375,0.6814343977853339
0.04,1.76,1.0,2735.8120796585818,0.3624749477586442,1.3156234868364314,0.9650285965457115,0.286973,0.6823399698890722
0.0405,1.7589937500000001,1.0,2735.715743933053,0.36605095945093896,1.3151699260048602,0.9656426050703752,0.2869307375,0.6832522887184024
0.041,1.757975,1.0,2735.445294723122,0.3696069122621097,1.314712300907225,0.9662361217726428,0.28688795,0.6841714529900519
0.0415,1.7569463582193257,1.0,2735.1386479600224,0.373142918610108,1.3142505373568603,0.9668100440660636,0.2868447470452117,0.6850975758001421
0.042,1.755916933210542,1.0,2735.2336718924244,0.37665909073989057,1.3137847729066225,0.9673652378550908,0.28680151119484276,0.686030345318684
0.0425,1.7548875082017583,1.0,2735.7284403658136,0.38015554101768567,1.3133153789505465,0.9679025412284677,0.28675827534447385,0.6869689837789396
0.043000000000000003,1.7538580831929746,1.0,2736.5936364980435,0.3836323789400058,1.312842622606202,0.968422738054741,0.28671503949410493,0.6879129256405404
0.043500000000000004,1.7528286581841908,1.0,2737.8000041392083,0.3870897140033635,1.3123667709911582,0.9689265703871978,0.286671803643736,0.6888616083563691
0.044,1.751799233175407,1.0,2739.3183287495535,0.3905276557042713,1.3118880912229847,0.9694147411190566,0.2866285677933671,0.6898144724275612
0.0445,1.7507698081666234,1.0,2741.1208852517766,0.3939463129847435,1.3114068371276442,0.9698879153299796,0.2865853319429982,0.6907709878512657
0.045,1.7497403831578398,1.0,2743.181451666107,0.3973457947687659,1.3109232489961014,0.9703467227127037,0.28654209609262926,0.6917306544442231
0.0455,1.7487109581490559,1.0,2745.476998382054,0.4007262090197553,1.3104375381776314,0.9707917584662076,0.28649886024226034,0.6926930321754198
0.046,1.7476815331402722,1.0,2747.9894802526796,0.40408766168271,1.3099498708043569,0.9712235840679715,0.28645562439189143,0.6936577729220743
0.0465,1.7466521081314885,1.0,2750.700845553746,0.407430258702628,1.3094604130084007,0.9716427329433502,0.2864123885415225,0.6946245305506062
0.047,1.7456226831227046,1.0,2753.5930290831056,0.41075410602450774,1.3089693309218855,0.9720497121381578,0.2863691526911536,0.6955929609364873
0.0475,1.744593258113921,1.0,2756.6538111132722,0.41405930533417484,1.3084767376273008,0.9724449995368083,0.2863259168407847,0.6965628263482699
0.048,1.7435638331051373,1.0,2759.8621542819005,0.4173459656328431,1.307982825807327,0.97282905643643,0.28628268099041576,0.6975337340807836
0.0485,1.7425344080963536,1.0,2763.199106525423,0.4206141952305645,1.307487768973539,0.9732023205579252,0.28623944514004684,0.6985053314147818
0.049,1.7415049830875697,1.0,2766.655848545998,0.42386409503706934,1.3069916488233166,0.9735652016125637,0.2861962092896779,0.6994774475533847
0.0495,1.740475558078786,1.0,2770.2235463469788,0.42709576596208804,1.3064945470540408,0.9739180900810791,0.286152973439309,0.7004499127109005
0.05,1.7394461330700024,1.0,2773.893349380984,0.4303093089153508,1.3059965453630915,0.9742613582926571,0.2861097375889401,0.7014225581181552
0.0505,1.7384167080612187,1.0,2777.6563888457727,0.433504824806588,1.3054977254478495,0.9745953614340521,0.2860665017385712,0.7023952160273929
0.051000000000000004,1.7373872830524348,1.0,2781.5037761282847,0.43668241454553,1.3049981690056947,0.9749204384939448,0.28602326588820226,0.7033677197167529
0.051500000000000004,1.7363578580436512,1.0,2785.426601396278,0.439842179041907,1.304497957734008,0.9752369131472377,0.28598003003783334,0.7043399034943187
0.052000000000000005,1.7353284330348675,1.0,2789.415932338568,0.44298421920544945,1.3039971733301692,0.9755450945835967,0.2859367941874644,0.7053116027017445
0.0525,1.7342990080260838,1.0,2793.4628130525334,0.44610863594588757,1.3034958974915591,0.9758452782842189,0.2858935583370955,0.7062826537174522
0.053,1.7332695830173,1.0,2797.5668176353433,0.4492155168213528,1.3029941351096006,0.9761377405835716,0.2858503224867266,0.707253042376228
0.0535,1.7322401580085163,1.0,2801.712840956589,0.45230497838965916,1.3024920227732961,0.9764227568954518,0.2858070866363577,0.7082225005054837
0.054,1.7312107329997326,1.0,2805.896825490323,0.45537711662895236,1.3019895976349662,0.9767005825922354,0.28576385078598876,0.7091909531896403
0.0545,1.7301813079909487,1.0,2810.1155826081012,0.45843202595102034,1.3014868889586548,0.9769714615213443,0.28572061493561984,0.710158341154438
0.055,1.729151882982165,1.0,2814.3659144428957,0.461469800767651,1.3009839260084048,0.9772356272227835,0.2856773790852509,0.7111246054992573
0.0555,1.7281224579733814,1.0,2818.6446137143876,0.4644905354906321,1.3004807380482597,0.9774933034515362,0.285634143234882,0.7120896876976184
0.056,1.7270930329645977,1.0,2822.948463573748,0.46749432453175155,1.2999773543422628,0.9777447046693153,0.2855909073845131,0.7130535295976292
0.0565,1.7260636079558138,1.0,2827.274237466905,0.4704812623027973,1.2994738041544573,0.9779900365077089,0.2855476715341442,0.7140160734223779
0.057,1.7250341829470301,1.0,2831.6186990171977,0.4734514432155572,1.298970116748887,0.978229496204603,0.28550443568377526,0.7149772617702708
0.0575,1.7240047579382465,1.0,2835.978601926721,0.47640496168181906,1.2984663213895946,0.9784632730156292,0.28546119983340634,0.7159370376153165
0.058,1.7229753329294628,1.0,2840.3506898969194,0.47934191211337085,1.297962447340624,0.9786915486022539,0.2854179639830374,0.7168953443073531
0.0585,1.721945907920679,1.0,2844.7316965680056,0.4822623889220003,1.2974585238660181,0.978914497398016,0.2853747281326685,0.7178521255722243
0.059000000000000004,1.7209164829118953,1.0,2849.11961807266,0.4851664796586109,1.2969545689078386,0.979132285757198,0.2853314922822996,0.7188073469539533
0.059500000000000004,1.7198870579031116,1.0,2853.5145012906587,0.48805426639221,1.2964505821220325,0.9793450720922423,0.2852882564319307,0.7197610087994518
0.06,1.718857632894328,1.0,2857.9098665236424,0.49092586876333677,1.2959466211416868,0.9795530148669298,0.28524502058156176,0.720713002024295
0.0605,1.717828207885544,1.0,2862.3049129163724,0.49378137365196273,1.2954426930158813,0.9797562610792963,0.28520178473119284,0.72166331359542
0.061,1.7167987828767604,1.0,2866.698837180245,0.4966208679380594,1.2949388047936958,0.9799549521297557,0.2851585488808239,0.7226119305703642
0.0615,1.7157693578679767,1.0,2871.0908335987097,0.49944443850159825,1.2944349635242098,0.9801492240773445,0.285115313030455,0.7235588400972488
0.062,1.7147399328591928,1.0,2875.4800940342916,0.5022521722225508,1.2939311762565031,0.9803392078823598,0.2850720771800861,0.7245040294147593
0.0625,1.7137105078504091,1.0,2879.865807936277,0.5050441559808886,1.2934274500396556,0.9805250296362119,0.2850288413297172,0.7254474858521218
0.063,1.7126810828416255,1.0,2884.247162349943,0.507820476656583,1.292923791922747,0.9807068107792533,0.28498560547934826,0.7263891968290792
0.0635,1.7116516578328418,1.0,2888.6233419263767,0.5105812211296057,1.2924202089548564,0.9808846683073,0.28494236962897934,0.7273291498558614
0.064,1.710622232824058,1.0,2892.993528933942,0.5133264762799281,1.2919167081850644,0.981058714967514,0.2848991337786104,0.7282673325331503
0.0645,1.7095928078152742,1.0,2897.3569032702694,0.5160563289875217,1.29141329666245,0.9812290594442611,0.2848558979282415,0.72920373255205
0.065,1.7085633828064906,1.0,2901.712642476028,0.5187708661323581,1.2909099814360934,0.9813958065355382,0.2848126620778726,0.7301383376940428
0.0655,1.7075339577977067,1.0,2906.059921749015,0.5214701745944087,1.2904067695550738,0.9815590573205011,0.2847694262275037,0.7310711358309511
0.066,1.706504532788923,1.0,2910.397913960166,0.5241543412536449,1.2899036680684712,0.981718909318614,0.28472619037713476,0.7320021149248905
0.0665,1.7054751077801393,1.0,2914.725789669815,0.5268234529900385,1.2894006840253656,0.9818754566408878,0.28468295452676584,0.7329312630282223
0.067,1.7044456827713557,1.0,2919.0427566271305,0.5294775956954998,1.288897824127814,0.9820287900515152,0.2846397186763969,0.7338585689228785
0.0675,1.7034162577625718,1.0,2923.350232783867,0.5321168106647287,1.2883950756465312,0.9821789933496436,0.284596482826028,0.7347840572156619
0.068,1.702386832753788,1.0,2927.6457937509363,0.5347412423012788,1.2878924596133314,0.9823261557730774,0.2845532469756591,0.735707690362839
0.0685,1.7013574077450044,1.0,2931.929380355836,0.5373509689973486,1.2873899762557768,0.9824703582848155,0.2845100111252902,0.7366294692209951
0.069,1.7003279827362208,1.0,2936.2009334673076,0.5399460691451359,1.2868876258014288,0.9826116791299963,0.28446677527492126,0.7375493946492965
0.0695,1.6992985577274369,1.0,2940.460393995625,0.542526621136839,1.28638540847785,0.9827501939459782,0.28442353942455234,0.7384674675094864
0.07,1.6982691327186532,1.0,2944.7077028936815,0.545092703364656,1.2858833245126025,0.9828859758672388,0.2843803035741834,0.7393836886658867
0.07050000000000001,1.6972397077098695,1.0,2948.9428011574864,0.5476443942207851,1.285381374133248,0.9830190956253702,0.2843370677238145,0.7402980589853926
0.07100000000000001,1.6962102827010859,1.0,2953.165629826773,0.5501817720974246,1.2848795575673486,0.9831496216444302,0.2842938318734456,0.7412105793374736
0.07150000000000001,1.695180857692302,1.0,2957.3761299858097,0.5527049153867725,1.2843778750424666,0.9832776201318981,0.2842505960230767,0.7421212505941686
0.07200000000000001,1.6941514326835183,1.0,2961.574242763869,0.555213902481027,1.283876326786164,0.9834031551654613,0.28420736017270776,0.7430300736300863
