Time [s],Phi [rad],STIM [ ],Fsee [N],Gamma [ ],Lcerel [ ],q [ ],Lmtc [m],fisomrel [ ]
0.0,1.8,1.0,17.96612315173814,2.8343390742106378e-05,1.3793398621777793,0.005000212353469824,0.288653,0.5411392505195901
0.0005,1.79999375,1.0,18.2817436687009,0.00563739371553615,1.3793018324778294,0.012991520829443708,0.2886527375,0.5412312496140326
0.001,1.799975,1.0,21.637102921959258,0.011214981702838262,1.378936390415694,0.03570423699928037,0.28865195,0.5421148342433826
0.0015,1.79994375,1.0,31.116922103124153,0.016761283832366747,1.3780421425947917,0.0707326180414299,0.2886506375,0.5442734005814387
0.002,1.7999,1.0,53.687773385623196,0.022276475592152734,1.3763612981741626,0.11487285983547482,0.2886488,0.5483168789434281
0.0025,1.79984375,1.0,97.2978121255053,0.027760731486244045,1.3739265516905694,0.16474331495030625,0.28864643749999996,0.5541420087397957
0.003,1.7997750000000001,1.0,161.19202736227734,0.03321422504224202,1.3712055933109268,0.21745420041872923,0.28864354999999997,0.5606071667560037
0.0035,1.79969375,1.0,237.94818985525248,0.038637128811033185,1.3685765781680148,0.27078569532298424,0.2886401375,0.5668090115623639
0.004,1.7996,1.0,321.74896326350563,0.04402961437753525,1.3661486198494635,0.32308312403745615,0.2886362,0.5724974112957051
0.0045000000000000005,1.7994937500000001,1.0,409.5602725852897,0.049391852365891546,1.3639159487915606,0.37319333942504196,0.2886317375,0.5776950963492928
0.005,1.799375,1.0,499.71219905752895,0.054724012430610106,1.3618519960539828,0.420396059448064,0.28862675,0.5824717249736877
0.0055,1.79924375,1.0,591.0919778368972,0.06002626330323067,1.3599329440248902,0.46431127697554536,0.2886212375,0.5868886345841049
0.006,1.7991000000000001,1.0,682.8202219093623,0.06529877273749701,1.3581409237342157,0.5048063953547397,0.2886152,0.5909919602895495
0.006500000000000001,1.79894375,1.0,774.1705180081709,0.07054170739851075,1.3564623162181073,0.5419164838230441,0.2886086375,0.5948170188661418
0.007,1.798775,1.0,864.5935181650032,0.07575523375563041,1.3548854249852744,0.5757820228080013,0.28860155,0.5983939258068278
0.0075,1.79859375,1.0,953.5483806141831,0.08093951611998719,1.3534020858105391,0.6066056096256309,0.2885939375,0.6017441509718124
0.008,1.7984,1.0,1040.6482364527562,0.0860947186159622,1.352004380187577,0.6346190876701037,0.2885858,0.6048881260483412
0.0085,1.79819375,1.0,1125.6042556448074,0.09122100466298104,1.3506851360310097,0.6600634384036691,0.2885771375,0.6078441816546947
0.009000000000000001,1.797975,1.0,1208.1623016689016,0.0963185362519074,1.3494384536717892,0.6831761415196391,0.28856795,0.6106274460952451
0.0095,1.79774375,1.0,1288.1390746517038,0.10138747455744646,1.3482588572238092,0.7041829664355296,0.2885582375,0.6132518123889237
0.01,1.7975,1.0,1365.4258510837985,0.10642798055810557,1.3471410591339272,0.7232937236248039,0.288548,0.6157305008398446
0.0105,1.79724375,1.0,1439.9150621029762,0.11144021307537329,1.3460807479634327,0.74070086996328,0.2885372375,0.6180743491360682
0.011,1.796975,1.0,1511.5563113363328,0.11642433067515183,1.3450736941558472,0.7565786985635978,0.28852595000000003,0.6202938316378726
0.0115,1.79669375,1.0,1580.3439538568823,0.12138049138380527,1.344115819773957,0.7710839584940493,0.2885141375,0.6223989240475047
0.012,1.7964,1.0,1646.28907670668,0.126308852525529,1.343203448762042,0.7843570453250945,0.28850180000000003,0.6243985738451546
0.0125,1.79609375,1.0,1709.39565467438,0.13120956914841408,1.3423334885108396,0.7965233778236289,0.2884889375,0.6263003273086699
0.013000000000000001,1.7957750000000001,1.0,1769.7037706087592,0.13608279630055145,1.3415028464110876,0.8076945449522838,0.28847555,0.6281116259347101
0.0135,1.79544375,1.0,1827.2646766880007,0.14092868806398842,1.340708671476359,0.8179698144298375,0.2884616375,0.6298392894796381
0.014,1.7951000000000001,1.0,1882.1689254419557,0.14574739929324995,1.3399479960760652,0.8274373306968189,0.2884472,0.6314903060072308
0.0145,1.79474375,1.0,1934.4700560092915,0.1505390815083215,1.339218540071104,0.8361756508061131,0.2884322375,0.6330700958929489
0.015,1.794375,1.0,1984.2303918595378,0.15530388563252645,1.3385181527087426,0.844254644180486,0.28841675,0.6345837381589936
0.0155,1.79399375,1.0,2031.5307959524396,0.16004196258918832,1.337844683236248,0.8517364649873013,0.2884007375,0.6360362564062476
0.016,1.7936,1.0,2076.4543949606636,0.16475346235249158,1.3371961338004592,0.8586765106012499,0.2883842,0.6374322938457361
0.0165,1.7931937500000001,1.0,2119.101968119382,0.16943853536432155,1.3365704774723413,0.8651241658474561,0.2883671375,0.6387765105039549
0.017,1.792775,1.0,2159.548179843916,0.17409732906830783,1.335966093487015,0.8711236396566324,0.28834955,0.6400726531475583
0.0175,1.7923437500000001,1.0,2197.8675393244007,0.17872999011558793,1.33538147395112,0.8767144893212585,0.2883314375,0.6413241930177749
0.018000000000000002,1.7919,1.0,2234.1442387733887,0.18333666515729935,1.3348151109712962,0.8819321357760014,0.2883128,0.6425345709989752
0.0185,1.79144375,1.0,2268.462305020413,0.18791749981360434,1.334265586629952,0.8868083692497816,0.2882936375,0.6437070076369071
0.019,1.790975,1.0,2300.914816286427,0.192472640695583,1.333731470892591,0.8913717446536917,0.28827395,0.6448447236475374
0.0195,1.79049375,1.0,2331.576816024103,0.19700223155703728,1.3332115816598766,0.895648012840645,0.2882537375,0.6459503885450363
0.02,1.79,1.0,2360.516776738432,0.20150641460044855,1.3327048587814854,0.8996604073588207,0.288233,0.6470263933137497
0.0205,1.78949375,1.0,2387.8082833592125,0.20598533202829825,1.3322102421070925,0.9034298991884293,0.2882117375,0.6480751117319739
0.021,1.788975,1.0,2413.529603533321,0.21043912604306778,1.3317266714863738,0.9069754478762134,0.28818995000000003,0.649098901226312
0.021500000000000002,1.78844375,1.0,2437.724436421006,0.21486793653212308,1.3312534604011974,0.910314300430774,0.2881676375,0.6500993143247205
0.022,1.7879,1.0,2460.5372028563256,0.2192719071058794,1.3307889884472175,0.9134619059305811,0.2881448,0.6510798632718962
0.0225,1.787343861474562,1.0,2482.006982659953,0.2236511757815721,1.330332733812126,0.9164325192788048,0.2881214421819316,0.6520417250389257
0.023,1.7867830308648849,1.0,2502.52015070635,0.22800587980593612,1.329884325469403,0.919239135495557,0.28809788729632513,0.6529857519438679
0.0235,1.7862222002552077,1.0,2522.327107076883,0.23233615642570649,1.3294433923925275,0.9218935916919423,0.2880743324107187,0.6539127908447167
0.024,1.7856613696455306,1.0,2541.4579087232287,0.2366421428876182,1.3290095635549792,0.9244066861805077,0.28805077752511227,0.65482368332067
0.0245,1.7851005390358534,1.0,2559.943356399492,0.2409239763168013,1.3285824697885402,0.9267882841722698,0.28802722263950586,0.6557192619504562
0.025,1.7845397084261763,1.0,2577.80561198859,0.24518179247467883,1.3281618309770513,0.929047425667597,0.2880036677538994,0.6566001680159095
0.025500000000000002,1.783978877816499,1.0,2595.063237755717,0.2494157261620569,1.3277474070960045,0.9311923984006193,0.28798011286829295,0.6574669551717025
0.026000000000000002,1.7834180472068217,1.0,2611.7368036651724,0.25362591056186856,1.327338945102261,0.9332308019311099,0.2879565579826865,0.6583202009545248
0.0265,1.7828572165971446,1.0,2627.8474711867584,0.2578124788570469,1.3269361919526816,0.9351696168386229,0.2879330030970801,0.6591604795646662
0.027,1.7822963859874674,1.0,2643.4047927677207,0.261975552743745,1.3265390069912917,0.9370152757618234,0.28790944821147363,0.6599881279118023
0.0275,1.7817355553777903,1.0,2658.4469837455194,0.26611528005857177,1.3261469891530087,0.9387736743592731,0.28788589332586717,0.6608040225332501
0.028,1.7811747247681131,1.0,2672.997007500248,0.27023179490215504,1.3257598837162357,0.9404502645867495,0.28786233844026077,0.6616087313813286
0.0285,1.780613894158436,1.0,2687.070049663434,0.2743252238402694,1.3253775115042707,0.9420500872985712,0.2878387835546543,0.6624026626507913
0.029,1.7800530635487588,1.0,2700.681653850123,0.27839569343868936,1.3249996933404116,0.9435778014296351,0.28781522866904785,0.6631862223489746
0.029500000000000002,1.7794922329390817,1.0,2713.84770321132,0.28244333026318935,1.3246262500479564,0.9450377178702769,0.2877916737834414,0.6639598143488574
0.03,1.7789314023294045,1.0,2726.584402698366,0.2864682608795439,1.324257002450203,0.9464338299327774,0.287768118897835,0.6647238404400799
0.0305,1.7783705717197273,1.0,2738.908262039046,0.29047061185352757,1.3238917713704494,0.947769840789532,0.28774456401222853,0.6654787003779099
0.031,1.7778097411100502,1.0,2750.8360794260593,0.2944505097509148,1.3235303776319933,0.9490491882168236,0.28772100912662213,0.6662247919301651
0.0315,1.777248910500373,1.0,2762.384925916104,0.2984080811374802,1.323172642058133,0.950275066938019,0.28769745424101567,0.6669625109220851
0.032,1.7766880798906959,1.0,2773.572130542112,0.30234345257899814,1.322818385472166,0.9514504488250966,0.2876738993554092,0.6676922512791583
0.0325,1.7761272492810187,1.0,2784.4152661364305,0.3062567506412432,1.3224674286973905,0.9525781011869049,0.28765034446980275,0.6684144050678997
0.033,1.7755664186713414,1.0,2794.9252489445544,0.31014809343143074,1.3221196544195584,0.9536606081695912,0.28762678958419635,0.6691292354484193
0.0335,1.7750055880616642,1.0,2805.119767253125,0.31401761017959523,1.3217748861051277,0.954700376968562,0.2876032346985899,0.6698371258674493
0.034,1.774444757451987,1.0,2815.0166562434474,0.3178654298078558,1.3214329477474396,0.9556996553716077,0.28757967981298344,0.6705384569591575
0.0345,1.7738839268423099,1.0,2824.6257715381485,0.321691670604578,1.3210937363720607,0.9566605495127389,0.28755612492737703,0.6712334581078749
0.035,1.7733230962326327,1.0,2833.95709796894,0.3254964508581271,1.3207571490045587,0.957585029632238,0.2875325700417706,0.6719223576609291
0.035500000000000004,1.7727622656229556,1.0,2843.020743468534,0.32927988885686876,1.3204230826705003,0.9584749404276189,0.2875090151561641,0.6726053829462172
0.036000000000000004,1.7722014350132784,1.0,2851.826933196921,0.3330421028891683,1.320091434395453,0.9593320105023531,0.28748546027055766,0.6732827602890987
0.0365,1.7716406044036013,1.0,2860.386003903657,0.3367832112433912,1.319762101204984,0.9601578610003448,0.28746190538495126,0.6739547150286147
0.037,1.7710797737939241,1.0,2868.708398524044,0.34050333220790296,1.3194349801246605,0.9609540135047147,0.2874383504993448,0.6746214715330285
0.0375,1.770518943184247,1.0,2876.804661011881,0.344202584071069,1.3191099681800496,0.9617218972710856,0.2874147956137384,0.6752832532146932
0.038,1.7699581125745698,1.0,2884.6854314058814,0.3478810851212548,1.3187869623967183,0.9624628558582242,0.28739124072813194,0.6759402825442389
0.0385,1.7693972819648927,1.0,2892.3614411323642,0.35153895364682575,1.3184658598002341,0.9631781532123199,0.2873676858425255,0.6765927810640868
0.039,1.7688364513552155,1.0,2899.8375298749384,0.35517629588715804,1.3181466101397221,0.9638689817672591,0.287344130956919,0.6772408624253943
0.0395,1.7682756207455381,1.0,2907.1266549087186,0.35879323809016855,1.3178290921318887,0.9645364623494046,0.2873205760713126,0.6778847837838629
0.04,1.767714790135861,1.0,2914.239521467931,0.3623899012257034,1.317513205095954,0.9651816524375129,0.28729702118570616,0.6785247595334652
0.0405,1.7671539595261838,1.0,2921.1818419421447,0.3659663954579766,1.3171988928732006,0.9658055516014474,0.2872734663000997,0.6791609131378056
0.041,1.7665931289165067,1.0,2927.959376013618,0.36952283095120214,1.3168860993049105,0.9664091035110122,0.2872499114144933,0.679793367561602
0.0415,1.7660322983068295,1.0,2934.577928731664,0.37305931786959406,1.3165747682323656,0.9669931996461274,0.28722635652888684,0.6804222452762245
0.042,1.7654714676971524,1.0,2941.0433486566644,0.37657596637736634,1.3162648434968485,0.9675586827237472,0.2872028016432804,0.6810476682650317
0.0425,1.7649106370874752,1.0,2947.3615260740467,0.38007288663873295,1.3159562689396411,0.9681063498658387,0.2871792467576739,0.6816697580285114
0.043000000000000003,1.764349806477798,1.0,2953.538391278248,0.38355018881790803,1.3156489884020257,0.9686369555304414,0.2871556918720675,0.682288635589215
0.043500000000000004,1.763788975868121,1.0,2959.579912926405,0.38700798307910544,1.315342945725284,0.9691512142257503,0.28713213698646106,0.6829044214964941
0.044,1.7632281452584437,1.0,2965.4920964621683,0.39044637958653927,1.3150380847506988,0.9696498030253069,0.28710858210085466,0.6835172358310315
0.0445,1.7626673146487666,1.0,2971.280982609309,0.39386548850442354,1.3147343493195518,0.9701333639007176,0.2870850272152482,0.6841271982091784
0.045,1.7621064840390894,1.0,2976.95264593555,0.3972654199969723,1.3144316832731253,0.9706025058868124,0.28706147232964174,0.6847344277870824
0.0455,1.7615456534294123,1.0,2982.509652987218,0.4006462708888145,1.314130061239232,0.9710578075276649,0.2870379174440353,0.6853389815874886
0.046,1.7609848228197351,1.0,2987.9577658970447,0.40400815426122033,1.3138294302422004,0.9714998185366386,0.2870143625584289,0.6859409716640812
0.0465,1.7604239922100577,1.0,2993.305328050916,0.4073511929999342,1.313529715153362,0.9719290609584009,0.2869908076728224,0.6865405539408536
0.047,1.7598631616003806,1.0,2998.5553324223574,0.410675488721366,1.3132308875635603,0.9723460316306841,0.28696725278721597,0.6871377904213782
0.0475,1.7593023309907034,1.0,3003.7107888134387,0.41398114304192535,1.3129329190636398,0.9727512031928388,0.28694369790160956,0.6877327428772623
0.048,1.7587415003810263,1.0,3008.77472330478,0.417268257578022,1.312635781244444,0.9731450254904928,0.2869201430160031,0.6883254728497326
0.0485,1.7581806697713491,1.0,3013.7501777238585,0.42053693394606567,1.3123394456968167,0.973527926886066,0.28689658813039665,0.6889160416511648
0.049,1.757619839161672,1.0,3018.6402091301493,0.4237872737624661,1.3120438840116022,0.9739003154822689,0.2868730332447902,0.6895045103665617
0.0495,1.7570590085519948,1.0,3023.4478893191213,0.42701937864363304,1.3117490677796442,0.974262580265105,0.2868494783591838,0.6900909398549835
0.05,1.7564981779423177,1.0,3028.176304343332,0.43023335020597614,1.3114549685917867,0.9746150921723641,0.2868259234735773,0.6906753907509222
0.0505,1.7559373473326405,1.0,3032.8285540525267,0.4334292900659052,1.3111615580388734,0.9749582050930907,0.2868023685879709,0.6912579234656278
0.051000000000000004,1.7553765167229634,1.0,3037.4077516501766,0.4366072998398299,1.3108688077117483,0.9752922568030695,0.28677881370236447,0.6918385981883803
0.051500000000000004,1.7548156861132862,1.0,3041.917023269227,0.4397674811441599,1.3105766892012554,0.9756175698409556,0.286755258816758,0.6924174748877131
0.052000000000000005,1.754254855503609,1.0,3046.3595075648022,0.4429099355953051,1.3102851740982386,0.9759344523293086,0.28673170393115155,0.6929946133125822
0.0525,1.753694024893932,1.0,3050.7383553256072,0.4460347648096751,1.3099942339935418,0.9762431987444504,0.28670814904554515,0.6935700729934862
0.053,1.7531331942842545,1.0,3055.05520173222,0.449142058457499,1.3097038536006744,0.9765440902261335,0.2866845941599387,0.6941438873242731
0.0535,1.7525723636745774,1.0,3059.3107754770667,0.45223190406241653,1.3094140254773863,0.97683739598079,0.28666103927433223,0.6947160741003806
0.054,1.7520115330649002,1.0,3063.5116480667625,0.45530443622867156,1.309124692089436,0.9771233752675236,0.2866374843887258,0.6952867498106232
0.0545,1.751450702455223,1.0,3067.6592453907283,0.45835974744097446,1.3088358401939573,0.9774022747376461,0.28661392950311937,0.6958559432770807
0.055,1.750889871845546,1.0,3071.7549990872913,0.4613979301840358,1.3085474565480848,0.9776743306204617,0.2865903746175129,0.6964236832197312
0.0555,1.7503290412358687,1.0,3075.8003464039466,0.46441907694256584,1.3082595279089524,0.9779397692501749,0.28656681973190645,0.6969899982568553
0.056,1.7497682106261916,1.0,3079.7967300619202,0.4674232802012752,1.3079720410336946,0.9781988075619452,0.28654326484630005,0.697554916905422
0.0565,1.7492073800165144,1.0,3083.74559812427,0.4704106324448742,1.3076849826794457,0.9784516535591433,0.2865197099606936,0.6981184675814707
0.057,1.7486465494068373,1.0,3087.6484038686835,0.47338122615807326,1.3073983396033395,0.9786985067536934,0.2864961550750872,0.6986806786004782
0.0575,1.7480857187971601,1.0,3091.5066056629726,0.4763351538255829,1.3071120985625104,0.9789395585812638,0.28647260018948073,0.6992415781777133
0.058,1.747524888187483,1.0,3095.321666845433,0.4792725079321135,1.3068262463140927,0.9791749927929336,0.2864490453038743,0.6998011944285834
0.0585,1.7469640575778058,1.0,3099.0950556087128,0.48219338096237546,1.3065407696152207,0.9794049858248396,0.2864254904182678,0.7003595553689674
0.059000000000000004,1.7464032269681287,1.0,3102.828244887637,0.4850978654010793,1.3062556552230284,0.9796297071472148,0.2864019355326614,0.7009166889155407
0.059500000000000004,1.7458423963584513,1.0,3106.522712250673,0.4879860537329354,1.30597088989465,0.9798493195941163,0.28637838064705495,0.7014726228860839
0.06,1.7452815657487741,1.0,3110.179939795637,0.4908580384426542,1.30568646038722,0.9800639796750515,0.2863548257614485,0.7020273849997849
0.0605,1.744720735139097,1.0,3113.8014140493233,0.49371391201494613,1.3054023534578725,0.9802738378696381,0.2863312708758421,0.7025810028775279
0.061,1.7441599045294198,1.0,3117.3886258704624,0.4965537669345217,1.3051185558637417,0.980479038906333,0.28630771599023563,0.7031335040421707
0.0615,1.7435990739197427,1.0,3120.943070357229,0.49937769568609125,1.3048350543619616,0.9806797220262216,0.2862841611046292,0.7036849159188137
0.062,1.7430382433100655,1.0,3124.4643266704284,0.5021857564962771,1.304551852022172,0.9808760195019157,0.2862606062190227,0.7042352341513556
0.0625,1.7424774127003884,1.0,3127.953767489097,0.5049780487935167,1.304268936683405,0.9810680609917152,0.2862370513334163,0.7047844839590245
0.063,1.7419165820907112,1.0,3131.414580634047,0.5077547034602032,1.303986280812808,0.9812559728522948,0.28621349644780986,0.7053327202729485
0.0635,1.741355751481034,1.0,3134.8473807343184,0.5105158030392972,1.3037038787673012,0.9814398743638473,0.28618994156220345,0.7058799554263279
0.064,1.740794920871357,1.0,3138.2527843110515,0.5132614300737589,1.3034217249038051,0.9816198804739604,0.286166386676597,0.7064262017104579
0.0645,1.7402340902616797,1.0,3141.631409746787,0.5159916671065489,1.3031398135792405,0.981796101986705,0.28614283179099054,0.7069714713748194
0.065,1.7396732596520026,1.0,3144.983877254381,0.5187065966806277,1.3028581391505274,0.9819686457421414,0.2861192769053841,0.7075157766271677
0.0655,1.7391124290423254,1.0,3148.3108088470813,0.5214063013389557,1.3025766959745864,0.9821376147867977,0.2860957220197777,0.7080591296336185
0.066,1.738551598432648,1.0,3151.6128283091034,0.5240908636244934,1.3022954784083383,0.9823031085356361,0.2860721671341712,0.7086015425187306
0.0665,1.737990767822971,1.0,3154.8905611673285,0.5267603660802014,1.3020144808087033,0.9824652229259876,0.28604861224856476,0.7091430273655912
0.067,1.7374299372132938,1.0,3158.144634663362,0.52941489124904,1.301733697532602,0.9826240505639089,0.28602505736295836,0.7096835962158938
0.0675,1.7368691066036166,1.0,3161.375677726009,0.5320545216739697,1.3014531229369548,0.9827796808633849,0.2860015024773519,0.7102232610700167
0.068,1.7363082759939394,1.0,3164.584320945344,0.5346793398979511,1.3011727513786824,0.9829322001787749,0.28597794759174544,0.7107620338870995
0.0685,1.7357474453842623,1.0,3167.771196546743,0.5372894284639447,1.3008925772147049,0.9830816919308739,0.285954392706139,0.7112999265851176
0.069,1.7351866147745851,1.0,3170.9369383655844,0.5398848699149107,1.3006125948019431,0.9832282367269385,0.2859308378205326,0.7118369510409527
0.0695,1.734625784164908,1.0,3174.0821818232594,0.5424657467938099,1.3003327984973174,0.9833719124750081,0.2859072829349261,0.7123731190904647
0.07,1.7340649535552308,1.0,3177.2075639034283,0.5450321416436025,1.3000531826577482,0.9835127944928262,0.2858837280493197,0.7129084425285588
