Time [s],Phi [rad],STIM [ ],Fsee [N],Gamma [ ],Lcerel [ ],q [ ],Lmtc [m],fisomrel [ ]
0.0,1.8,1.0,17.9696355173966,4.515461112007672e-05,1.3793394686832583,0.005000536986528152,0.288653,0.5411402024843855
0.0005,1.79999375,1.0,18.290635063197705,0.005654110638266867,1.3793008450720738,0.013038396828804609,0.2886527375,0.5412336381620237
0.001,1.799975,1.0,21.658370402128412,0.011231604856850694,1.3789342197288228,0.03579199332443511,0.28865195,0.5421200800972841
0.0015,1.79994375,1.0,31.164858200657953,0.016777813743634754,1.3780380633048528,0.0708526305568265,0.2886506375,0.5442832356272835
0.002,1.7999,1.0,53.78899450818904,0.022292912783675196,1.3763547410067078,0.11501492451399858,0.2886488,0.5483326177352483
0.0025,1.79984375,1.0,97.4666467770709,0.02777707647812863,1.3739184269566262,0.16489783292475785,0.28864643749999996,0.5541613838720734
0.003,1.7997750000000001,1.0,161.4110111857198,0.03323047835164376,1.3711974052661617,0.217613591190552,0.28864354999999997,0.5606265507770054
0.0035,1.79969375,1.0,238.19520914626077,0.038653290952210755,1.3685689755288697,0.27094421724628553,0.2886401375,0.5668268822627534
0.004,1.7996,1.0,322.01148746403084,0.04404568586187452,1.3661416710531227,0.3232366101825982,0.2886362,0.5725136374949837
0.0045000000000000005,1.7994937500000001,1.0,409.831910646895,0.049407833701939206,1.3639095757449284,0.3733390338302993,0.2886317375,0.577709887376104
0.005,1.799375,1.0,499.9892022497565,0.054739904124208566,1.3618461123338925,0.4205323647075011,0.28862675,0.5824853028981123
0.0055,1.79924375,1.0,591.3712876395001,0.060042065856668186,1.3599274890252295,0.4644374730636863,0.2886212375,0.5869011563902847
0.006,1.7991000000000001,1.0,683.0997712210716,0.06531448665101706,1.3581358439159597,0.5049223674688984,0.2886152,0.5910035628271793
0.006500000000000001,1.79894375,1.0,774.461010058435,0.07055733332446351,1.3564573587197237,0.5420223836998512,0.2886086375,0.594828288949484
0.007,1.798775,1.0,864.8627113086983,0.07577077181206562,1.354881077765626,0.5758787079796465,0.28860155,0.5984037648083793
0.0075,1.79859375,1.0,953.8032910199753,0.08095496690462098,1.3533981659144554,0.6066936366676752,0.2885939375,0.6017529857407495
0.008,1.7984,1.0,1040.9112550065977,0.08611008296787542,1.352000508553101,0.6346989537001072,0.2885858,0.6048968175330302
0.0085,1.79819375,1.0,1125.860790621446,0.09123628279643053,1.3506815051136998,0.6601359913928548,0.2885771375,0.6078523022040503
0.009000000000000001,1.797975,1.0,1208.404708691542,0.09633372854322378,1.349435141993411,0.6832421287326899,0.28856795,0.6106348263394283
0.0095,1.79774375,1.0,1288.382776198254,0.10140258195969801,1.3482556328621624,0.7042429209408579,0.2885582375,0.613258973787547
0.01,1.7975,1.0,1365.6547126443718,0.10644300300961862,1.3471381180462227,0.723348358190686,0.288548,0.6157370121152
0.0105,1.79724375,1.0,1440.1294603285576,0.11145515105623653,1.3460780649431108,0.740750722132354,0.2885372375,0.618080270935051
0.011,1.796975,1.0,1511.771508170675,0.11643918508588806,1.3450710657305744,0.7566241689488159,0.28852595000000003,0.6202996160572882
0.0115,1.79669375,1.0,1580.5598238104194,0.12139526287993456,1.3441132411445185,0.7711254980635937,0.2885141375,0.622404583128235
0.012,1.7964,1.0,1646.4855363565216,0.1263235406955573,1.3432011494668066,0.7843951571765044,0.28850180000000003,0.6244036065199703
0.0125,1.79609375,1.0,1709.5738641784956,0.13122417432358877,1.3423314416626964,0.796558402595867,0.2884889375,0.6263047960750636
0.013000000000000001,1.7957750000000001,1.0,1769.8822630673249,0.13609731980324716,1.3415008315458168,0.8077267093209173,0.28847555,0.6281160142012617
0.0135,1.79544375,1.0,1827.4603380679764,0.1409431313541952,1.3407064978738066,0.8179993321746056,0.2884616375,0.6298440124571615
0.014,1.7951000000000001,1.0,1882.3533287663033,0.1457617613438113,1.3399459776344687,0.8274645754789369,0.2884472,0.6314946820476574
0.0145,1.79474375,1.0,1934.6304967213819,0.1505533621394738,1.3392168078156057,0.8362008903788962,0.2884322375,0.6330738434164236
0.015,1.794375,1.0,1984.3741442144283,0.15531808541615313,1.3385166202159822,0.8442780428815825,0.28841675,0.6345870466758562
0.0155,1.79399375,1.0,2031.6748365618294,0.1600560831290679,1.3378431656515979,0.851758138235116,0.2884007375,0.6360395262197289
0.016,1.7936,1.0,2076.609030476509,0.16476750509675472,1.3371945223114734,0.8586965852909026,0.2883842,0.6374357593212285
0.0165,1.7931937500000001,1.0,2119.2470241888905,0.16945249932911155,1.336568981099131,0.8651428490086968,0.2883671375,0.6387797224550154
0.017,1.792775,1.0,2159.6715377157143,0.17411121383603634,1.3359648329180935,0.8711410909569615,0.28834955,0.6400753540890227
0.0175,1.7923437500000001,1.0,2197.974179074883,0.1787437963556,1.3353803937603228,0.8767308029783812,0.2883314375,0.6413265034476111
0.018000000000000002,1.7919,1.0,2234.2403158789407,0.1833503934326184,1.3348141457052811,0.8819473933302807,0.2883128,0.642536632128963
0.0185,1.79144375,1.0,2268.56763609694,0.18793115283216724,1.3342645364273833,0.8868226108382027,0.2882936375,0.64370924645085
0.019,1.790975,1.0,2301.021489434622,0.19248621788641884,1.3337304148360114,0.8913850738834063,0.28827395,0.6448469713436982
0.0195,1.79049375,1.0,2331.6735984520396,0.19701573192754557,1.3332106298405477,0.8956605302723155,0.2882537375,0.6459524112285252
0.02,1.79,1.0,2360.6015339121523,0.2015198382877197,1.332704030350374,0.8996721831955475,0.288233,0.6470281511116625
0.0205,1.78949375,1.0,2387.8858444257753,0.20599867988983642,1.3322094883561006,0.9034409819111768,0.2882117375,0.6480767086931691
0.021,1.788975,1.0,2413.600847521719,0.2104523983445135,1.3317259828244328,0.906985889526485,0.28818995000000003,0.6491003581606
0.021500000000000002,1.78844375,1.0,2437.8299676683932,0.21488113702275957,1.3312524453885728,0.9103240689573739,0.2881676375,0.6501014586227379
0.022,1.7879,1.0,2460.631129556281,0.21928503427938845,1.330788089245082,0.9134711415623977,0.2881448,0.6510817602474095
0.0225,1.78734375,1.0,2482.065299818684,0.22366422846921405,1.3303321275905222,0.9164412964198466,0.28812143749999997,0.652043002173211
0.023,1.786775,1.0,2502.1962352523155,0.22801885794705024,1.3298837736214553,0.9192474414722263,0.28809755,0.6529869129504734
0.0235,1.78619375,1.0,2521.090244764032,0.23234906106771086,1.3294422405344424,0.9219013369369087,0.28807313749999996,0.6539152109427506
0.024,1.7856,1.0,2538.8052428123056,0.23665497366185578,1.3290068425809396,0.9244137303154688,0.2880482,0.65482939264962
0.0245,1.78499375,1.0,2555.4081850878615,0.24093673554605605,1.3285768276508017,0.9267944322238328,0.2880227375,0.6557310852389522
0.025,1.784375,1.0,2570.9509311289667,0.2451944819105435,1.3281516027118656,0.9290524447844962,0.28799675,0.656621574099598
0.025500000000000002,1.78374375,1.0,2585.478958700295,0.24942834574056533,1.3277306485225986,0.9311960274556653,0.2879702375,0.6575019834788168
0.026000000000000002,1.7831000000000001,1.0,2599.0390486919987,0.2536384600213687,1.327313445841467,0.9332327579547032,0.2879432,0.6583734316689573
0.0265,1.78244375,1.0,2611.6791739526807,0.2578249577382008,1.326899475426938,0.9351695977343589,0.2879156375,0.6592370311402829
0.027,1.781775,1.0,2623.448394100776,0.26198797187630873,1.3264882180374784,0.9370129503719923,0.28788755,0.660093888656607
0.0275,1.7810937500000001,1.0,2634.3918032618467,0.266127633918119,1.326079200258381,0.9387687200104319,0.2878589375,0.6609450100728784
0.028,1.7804,1.0,2644.550326808909,0.2702440749696549,1.3256719950768543,0.9404423577960503,0.2878298,0.6617912998171601
0.0285,1.77969375,1.0,2653.978149330217,0.27433742984013676,1.325266060077888,0.9420388812080369,0.2878001375,0.6626338971983665
0.029,1.778975,1.0,2662.706694989423,0.27840782564061844,1.3248610692455673,0.9435629556477114,0.28776995,0.6634734875275086
0.029500000000000002,1.7782437500000001,1.0,2670.7679189565947,0.28245538948215393,1.3244566965639768,0.9450188981271828,0.2877392375,0.6643107527257381
0.03,1.7775,1.0,2678.194260957045,0.28648024847579706,1.324052616017201,0.9464107077449145,0.287708,0.6651463713405883
0.0305,1.77674375,1.0,2685.018601176682,0.2904825297326018,1.323648501589325,0.9477420931334657,0.2876762375,0.6659810185554361
0.031,1.775975,1.0,2691.274218524024,0.29446236036362206,1.3232440272644332,0.9490164972131289,0.28764395,0.6668153661921886
0.0315,1.7751937500000001,1.0,2696.9947512485837,0.2984198674799117,1.3228388670266107,0.9502371195451084,0.2876111375,0.6676500827071887
0.032,1.7744,1.0,2702.2073861834124,0.3023551738572805,1.3224327567407244,0.9514069427808316,0.2875778,0.668485705932962
0.0325,1.77359375,1.0,2706.9469036235414,0.3062684094812105,1.322025365371526,0.95252873837498,0.2875439375,0.6693229083460945
0.033,1.772775,1.0,2711.2371083581115,0.31015969724191295,1.3216164643570574,0.9536050994477228,0.28750955,0.6701621487706175
0.0335,1.7719437500000002,1.0,2715.0995799694924,0.31402915834791123,1.3212058472143238,0.9546384472081311,0.2874746375,0.6710038383779608
0.034,1.7711000000000001,1.0,2718.556068896694,0.3178769140077286,1.3207933074603304,0.955631042485436,0.2874392,0.6718483861245597
0.0345,1.7702437500000001,1.0,2721.6284789210017,0.3217030854298883,1.320378638612082,0.956584998245244,0.2874032375,0.6726961987278987
0.035,1.7693750000000001,1.0,2724.338850596246,0.3255077938229136,1.3199616341865839,0.957502290989107,0.28736675,0.6735476806398301
0.035500000000000004,1.76849375,1.0,2726.7093456252455,0.3292911603953279,1.3195420877008406,0.9583847711487501,0.2873297375,0.6744032340171822
0.036000000000000004,1.7676,1.0,2728.7571033418844,0.3330533011729997,1.3191198392973866,0.9592341761896988,0.2872922,0.6752631637972262
0.0365,1.76669375,1.0,2730.502228692826,0.3367943364854959,1.3186947029504108,0.9600521337639125,0.2872541375,0.6761278262479254
0.037,1.765775,1.0,2731.9721981084836,0.3405143956321492,1.3182664263789174,0.9608401667903308,0.28721555,0.6769977099489577
0.0375,1.76484375,1.0,2733.179727124885,0.3442135928844454,1.3178348920596392,0.9615997155885297,0.2871764375,0.6778730273897879
0.038,1.7639,1.0,2734.1375818977535,0.34789204251387046,1.3173999824693088,0.9623321339709815,0.28713679999999997,0.6787539895678651
0.0385,1.76294375,1.0,2734.8585731351354,0.35154985879191014,1.316961580084659,0.9630386953854956,0.28709663750000003,0.6796408059637637
0.039,1.761975,1.0,2735.355550335346,0.35518715599005035,1.3165195673824226,0.9637205985571868,0.28705595,0.6805336845154466
0.0395,1.7609937500000001,1.0,2735.641396332581,0.3588040483797769,1.316073826839332,0.9643789726757174,0.2870147375,0.6814328315916455
0.04,1.76,1.0,2735.7290221471153,0.3624006502325758,1.3156242409321197,0.9650148821689377,0.286973,0.6823384519643598
0.0405,1.7589937500000001,1.0,2735.631362143071,0.36597707581993283,1.315170692137519,0.9656293310999522,0.2869307375,0.6832507487804758
0.041,1.757975,1.0,2735.3613694914984,0.36953343941333383,1.314713062932262,0.9662232672209801,0.28688795,0.6841699235325065
0.0415,1.75694375,1.0,2734.9320119401405,0.3730698552842648,1.3142512357930818,0.966797585714108,0.2868446375,0.6850961760284469
0.042,1.7559,1.0,2734.3521712275897,0.3765864305889786,1.3137851304007508,0.967353134579749,0.28680079999999997,0.6860296299087494
0.0425,1.75484375,1.0,2733.632754232184,0.3800832813951094,1.3133146481255684,0.967890715758957,0.2867564375,0.6869704441006099
0.043000000000000003,1.753775,1.0,2732.7856595138596,0.3835605246702505,1.3128396813797476,0.9684110875169961,0.28671155,0.6879187938591136
0.043500000000000004,1.75269375,1.0,2731.8177791445196,0.38701826731947986,1.3123601680832346,0.9689149698906608,0.28666613750000003,0.6888747621014459
0.044,1.7516,1.0,2730.736008693396,0.3904566162478753,1.311876046155976,0.9694030450763144,0.2866202,0.6898384305934807
0.0445,1.75049375,1.0,2729.547245758326,0.39387567836051485,1.311387253517918,0.969875959789329,0.2865737375,0.6908098799316575
0.045,1.7493750000000001,1.0,2728.2583885813897,0.3972755605624763,1.310893728089007,0.9703343274539973,0.28652675,0.6917891895246129
0.0455,1.74824375,1.0,2726.876334750428,0.40065636975883756,1.310395407789189,0.970778730237642,0.2864792375,0.6927764375745633
0.046,1.7471,1.0,2725.407979986102,0.4040182128546765,1.3098922305384109,0.9712097209414078,0.2864312,0.6937717010584452
0.0465,1.7459437500000001,1.0,2723.860217014236,0.40736119675507104,1.3093841342566188,0.9716278247591221,0.28638263750000004,0.6947750557088088
0.047,1.744775,1.0,2722.2399345234794,0.410685428365099,1.308871056863759,0.972033540914598,0.28633355,0.6957865759944661
0.0475,1.74359375,1.0,2720.554016208906,0.4139910145898384,1.308352936279778,0.9724273441868575,0.28628393750000003,0.6968063351008904
0.048,1.7424,1.0,2718.8005045154578,0.41727804218186937,1.307829790892736,0.972809689465655,0.2862338,0.6978342469353775
0.0485,1.74119375,1.0,2716.9909641194968,0.4205466350163306,1.3073015159425414,0.9731810058748732,0.2861831375,0.6988704665159948
0.049,1.739975,1.0,2715.134209188633,0.4237969066914802,1.3067680316151842,0.9735417025303875,0.28613195,0.6999150981471471
0.0495,1.73874375,1.0,2713.2330870712767,0.4270289558892863,1.3062293123989674,0.9738921711630972,0.2860802375,0.7009681384810447
0.05,1.7375,1.0,2711.290442362572,0.4302428812917173,1.305685332782194,0.9742327852426381,0.286028,0.7020295832966814
0.0505,1.73624375,1.0,2709.3091166793906,0.4334387815807413,1.3051360672531667,0.9745639009897386,0.2859752375,0.7030994274912977
0.051000000000000004,1.734975,1.0,2707.2919484501413,0.4366167554383266,1.3045814903001882,0.9748858583237178,0.28592195,0.7041776650717997
0.051500000000000004,1.73369375,1.0,2705.2417727185184,0.43977690154644156,1.3040215764115617,0.9751989817498242,0.2858681375,0.7052642891461383
0.052000000000000005,1.7324,1.0,2703.161420962076,0.44291931858705424,1.30345630007559,0.975503581190725,0.2858138,0.7063592919146474
0.0525,1.73109375,1.0,2701.053720925234,0.44604410524213306,1.302885635780576,0.9757999527661215,0.28575893750000003,0.7074626646613401
0.053,1.729775,1.0,2698.9214964663142,0.4491513601936462,1.3023095580148223,0.9760883795241502,0.28570355000000003,0.708574397745162
0.0535,1.72844375,1.0,2696.7675674194084,0.45224118212356196,1.301728041266632,0.9763691321279355,0.2856476375,0.709694480591204
0.054,1.7271,1.0,2694.594749470638,0.45531366971384857,1.301141060024308,0.9766424695004086,0.2855912,0.7108229016818752
0.0545,1.7257437500000001,1.0,2692.4058540486503,0.45836892164647425,1.3005485887761532,0.9769086394302569,0.2855342375,0.7119596485480317
0.055,1.724375,1.0,2690.2036882295106,0.4614070366034073,1.29995060201047,0.977167879141661,0.28547675,0.7131047077600656
0.0555,1.72299375,1.0,2687.9910546564515,0.4644281132666159,1.299347074215562,0.9774204158302604,0.2854187375,0.7142580649189504
0.056,1.7216,1.0,2685.767502965362,0.4674322255836136,1.298738009646863,0.9776664666105161,0.2853602,0.7154196479344093
0.0565,1.72019375,1.0,2683.5381126452708,0.47041949527230076,1.2981233618746335,0.9779062410619872,0.28530113749999997,0.7165894805630304
0.057,1.718775,1.0,2681.304899124366,0.473390020766588,1.2975031124927068,0.9781399395818104,0.28524155,0.7177675320699997
0.0575,1.71734375,1.0,2679.0688289178847,0.47634389222175744,1.2968772526879417,0.9783677541864039,0.2851814375,0.7189537526672831
0.058,1.7159,1.0,2676.8308669476914,0.47928119979309125,1.2962457736471968,0.9785898691235728,0.2851208,0.7201480918245339
0.0585,1.71444375,1.0,2674.5919765361864,0.4822020336358716,1.2956086665573308,0.9788064612466558,0.2850596375,0.7213504982659338
0.059000000000000004,1.7129750000000001,1.0,2672.353119401811,0.48510648390538075,1.2949659226052026,0.9790177003677811,0.28499795,0.7225609199670333
0.059500000000000004,1.71149375,1.0,2670.115255657018,0.4879946407569008,1.2943175329776706,0.9792237495915548,0.2849357375,0.7237793041515873
0.06,1.71,1.0,2667.8793438070234,0.49086659434571395,1.2936634888615937,0.9794247656304047,0.284873,0.7250055972883822
0.0605,1.7084937500000001,1.0,2665.6463407513543,0.4937224348271024,1.2930037814438307,0.9796208991027309,0.2848097375,0.726239745088061
0.061,1.7069750000000001,1.0,2663.417201786011,0.49656225235634827,1.2923384019112398,0.9798122948149154,0.28474595,0.7274816924999439
0.0615,1.7054437500000001,1.0,2661.1928806079386,0.4993861370887338,1.2916673414506803,0.9799990920281872,0.2846816375,0.7287313837088403
0.062,1.7039,1.0,2658.9743293216106,0.5021941791795411,1.2909905912490105,0.9801814247112652,0.2846168,0.72998876213186
0.0625,1.70234375,1.0,2656.762498446324,0.5049864687840524,1.2903081424930891,0.9803594217796322,0.2845514375,0.7312537704152178
0.063,1.7007750000000001,1.0,2654.558336926034,0.5077630960575499,1.289619986369775,0.9805332073222491,0.28448555,0.7325263504310311
0.0635,1.69919375,1.0,2652.362792140709,0.5105241511553157,1.288926114065927,0.9807029008164528,0.28441913750000003,0.7338064432741167
0.064,1.6976,1.0,2650.1745055082324,0.5132696909396449,1.288226538025794,0.980868615985076,0.2843522,0.7350939501838825
0.0645,1.69599375,1.0,2647.995193277022,0.5159998257360702,1.2875212423384972,0.9810304648481529,0.2842847375,0.7363888239927525
0.065,1.694375,1.0,2645.82685991836,0.5187146669172967,1.2868102084063189,0.9811885552642803,0.28421675,0.7376910215367473
0.0655,1.69274375,1.0,2643.669551343299,0.5214142956375271,1.2860934356907732,0.9813429899506404,0.2841482375,0.7390004657354893
0.066,1.6911,1.0,2641.523313426062,0.5240987930509634,1.2853709236533741,0.9814938679550158,0.2840792,0.7403170788686866
0.0665,1.6894437500000001,1.0,2639.388192004904,0.5267682403118084,1.2846426717556356,0.9816412848114681,0.2840096375,0.7416407825759359
0.067,1.687775,1.0,2637.2642328831416,0.5294227185742644,1.2839086794590713,0.9817853326883396,0.28393955,0.7429714978565253
0.0675,1.68609375,1.0,2635.151481830482,0.5320623089925336,1.2831689462251956,0.9819261005290022,0.2838689375,0.7443091450692356
0.068,1.6844000000000001,1.0,2633.049984584196,0.5346870927208187,1.282423471515522,0.9820636741857621,0.2837978,0.7456536439321464
0.0685,1.68269375,1.0,2630.9597868500687,0.5372971509133219,1.2816722547915647,0.9821981365472915,0.2837261375,0.7470049135224359
0.069,1.680975,1.0,2628.8809343036196,0.5398925647242457,1.2809152955148377,0.9823295676599488,0.28365395,0.7483628722761843
0.0695,1.67924375,1.0,2626.813472591357,0.5424734153077925,1.2801525931468547,0.9824580448433178,0.28358123749999997,0.7497274379881789
0.07,1.6775,1.0,2624.7574473318814,0.5450397838181646,1.2793841471491298,0.9825836428002752,0.283508,0.7510985278117135
0.07050000000000001,1.67574375,1.0,2622.7129041170238,0.5475917514095647,1.278609956983177,0.9827064337218864,0.2834342375,0.7524760582583936
0.07100000000000001,1.673975,1.0,2620.6798885130906,0.5501293992361949,1.27783002211051,0.9828264873874015,0.28335995,0.7538599451979384
0.07150000000000001,1.67219375,1.0,2618.6584460619506,0.5526528084522577,1.277044341992643,0.9829438712596136,0.2832851375,0.7552501038579831
0.07200000000000001,1.6704,1.0,2616.648622282358,0.5551620602119555,1.2762529160910898,0.9830586505758199,0.2832098,0.7566464488238817
0.0725,1.66859375,1.0,2614.6504626710816,0.5576572356694907,1.2754557438673644,0.983170888434623,0.2831339375,0.7580488940385107
0.073,1.6667750000000001,1.0,2612.664012704115,0.5601384159790658,1.2746528247829807,0.9832806458787796,0.28305755,0.7594573528020705
0.0735,1.66494375,1.0,2610.6893178378837,0.5626056822948831,1.2738441582994526,0.983387981974309,0.2829806375,0.7608717377718888
0.074,1.6631,1.0,2608.726699354799,0.5650591039858927,1.2730297413135894,0.9834929530979585,0.2829032,0.7622919654280436
0.0745,1.6612437500000001,1.0,2606.7771781995234,0.5674987245668496,1.2722095642105595,0.9835956120769166,0.2828252375,0.7637179628580908
0.075,1.659375,1.0,2604.839144080475,0.5699246843414137,1.2713836418444717,0.9836960165709902,0.28274675,0.7651496139643862
0.0755,1.65749375,1.0,2602.912388834127,0.5723370552664964,1.2705519760411814,0.9837942180326962,0.2826677375,0.7665868248093495
