Time [s],Phi [rad],STIM [ ],Fsee [N],Gamma [ ],Lcerel [ ],q [ ],Lmtc [m],fisomrel [ ]
0.0,1.8,1.0,17.96697243406281,1.143976160821361e-05,1.3793397670281402,0.005000034841679939,0.288653,0.5411394807112128
0.0005,1.79999375,1.0,18.276806515730993,0.005620584902387575,1.3793023808614544,0.012944512447126206,0.2886527375,0.5412299230638782
0.001,1.799975,1.0,21.61950879427793,0.011198267173842102,1.3789381869845845,0.03561608236556123,0.28865195,0.542110492489911
0.0015,1.79994375,1.0,31.072550201253065,0.0167446630586547,1.3780459213783023,0.07061198069059794,0.2886506375,0.5442642899529033
0.002,1.7999,1.0,53.58997816560791,0.02225994804785435,1.3763676392831525,0.11473000679383735,0.2886488,0.5483016584835039
0.0025,1.79984375,1.0,97.13195514381482,0.027744296648390402,1.3739345399984522,0.16458791415136206,0.28864643749999996,0.5541229585336287
0.003,1.7997750000000001,1.0,160.97539157106633,0.03319788239083625,1.3712136990347268,0.21729388657089338,0.28864354999999997,0.5605879771969238
0.0035,1.79969375,1.0,237.70295162825462,0.038620877828991,1.3685841298950978,0.2706262478936079,0.2886401375,0.5667912601705155
0.004,1.7996,1.0,321.48776533276447,0.04401345455065913,1.3661555363545337,0.3229287367323478,0.2886362,0.5724812601942721
0.0045000000000000005,1.7994937500000001,1.0,409.2895973675956,0.04937578318283573,1.363922301350957,0.3730467862678258,0.2886317375,0.577680352612957
0.005,1.799375,1.0,499.43587008498474,0.05470803338280052,1.3618578670782506,0.4202589486734572,0.28862675,0.5824581761274843
0.0055,1.79924375,1.0,590.813048743886,0.060010373885520434,1.359938392875533,0.46418433473093745,0.2886212375,0.586876126703375
0.006,1.7991000000000001,1.0,682.5408237029368,0.06528297244696442,1.3581460018457807,0.5046897375466642,0.2886152,0.5909803614855933
0.006500000000000001,1.79894375,1.0,773.8870563779259,0.07052599565852707,1.3564671546329738,0.5418098809527644,0.2886086375,0.5948060193490801
0.007,1.798775,1.0,864.3152507970877,0.0757396102043034,1.3548899194566508,0.5756848569782572,0.28860155,0.5983837534057778
0.0075,1.79859375,1.0,953.2795964773716,0.08092398029373407,1.3534062196180796,0.6065171922091601,0.2885939375,0.6017348339772248
0.008,1.7984,1.0,1040.3813335186464,0.08607926989217432,1.352008309500343,0.6345387826947546,0.2885858,0.6048793049831337
0.0085,1.79819375,1.0,1125.3406663473545,0.09120564255299471,1.3506888672240183,0.6599905131136806,0.2885771375,0.6078358367510679
0.009000000000000001,1.797975,1.0,1207.9054739862322,0.09630326031997222,1.3494419627225709,0.683109873241108,0.28856795,0.6106196259202723
0.0095,1.79774375,1.0,1287.8944313820832,0.10137228440660885,1.3482620943519787,0.7041226645518233,0.2885582375,0.6132446225687929
0.01,1.7975,1.0,1365.1814900701643,0.10641287539407379,1.3471441996763736,0.7232388687237341,0.288548,0.6157235479306444
0.0105,1.79724375,1.0,1439.6771531635359,0.11142519274703708,1.3460837254351292,0.7406508692814059,0.2885372375,0.6180677773882082
0.011,1.796975,1.0,1511.3275608665176,0.11640939474033368,1.3450764883310824,0.7565330392537458,0.28852595000000003,0.6202876824014297
0.0115,1.79669375,1.0,1580.1080733560473,0.12136563876710892,1.3441186376365781,0.7710422835604209,0.2885141375,0.6223927398952342
0.012,1.7964,1.0,1646.0604963057674,0.12629408327539193,1.3432061241600268,0.7843188735836364,0.28850180000000003,0.6243927179178963
0.0125,1.79609375,1.0,1709.1857530012933,0.1311948831665676,1.3423358995003072,0.7964882996629471,0.2884889375,0.6262950634990931
0.013000000000000001,1.7957750000000001,1.0,1769.508512046824,0.1360681928872961,1.3415050506524937,0.8076622681114087,0.28847555,0.6281068251876203
0.0135,1.79544375,1.0,1827.0852696516647,0.14091416688423758,1.3407106646116602,0.817940055988868,0.2884616375,0.6298349586093137
0.014,1.7951000000000001,1.0,1881.9844850880538,0.14573295874671144,1.3399500150218897,0.8274099268750268,0.2884472,0.6314859288476307
0.0145,1.79474375,1.0,1934.2871704185832,0.15052472175807832,1.3392205147483716,0.8361503490462584,0.2884322375,0.6330658238962048
0.015,1.794375,1.0,1984.0551051130415,0.15528960666554503,1.33852002145356,0.8442312224671548,0.28841675,0.634579703683295
0.0155,1.79399375,1.0,2031.3633856238637,0.16002776391161364,1.3378464471074478,0.8517147457133318,0.2884007375,0.6360324559211559
0.016,1.7936,1.0,2076.2971509432605,0.16473934335290885,1.337197772534717,0.858656328600887,0.2883842,0.6374287697628356
0.0165,1.7931937500000001,1.0,2118.9500383643262,0.16942449513470212,1.3365720448082103,0.8651053960225646,0.2883671375,0.6387731462169006
0.017,1.792775,1.0,2159.4049142388744,0.17408336772665647,1.3359675575341885,0.8711061463955027,0.28834955,0.6400695162133665
0.0175,1.7923437500000001,1.0,2197.7325777187416,0.1787161074040398,1.3353828410613222,0.8766981616463051,0.2883314375,0.6413212688827674
0.018000000000000002,1.7919,1.0,2234.0133776463026,0.1833228604421199,1.3348164257382813,0.8819168842347171,0.2883128,0.6425317635709247
0.0185,1.79144375,1.0,2268.3364083344013,0.18790377311616466,1.3342668419137362,0.8867941006210067,0.2882936375,0.6437043316231419
0.019,1.790975,1.0,2300.7795348852865,0.1924589895511941,1.3337328102040484,0.8913584108447883,0.28827395,0.6448418730653973
0.0195,1.79049375,1.0,2331.4430041343394,0.1969886568381689,1.3332128976827855,0.8956355122363925,0.2882537375,0.6459475918936273
0.02,1.79,1.0,2360.3907115216343,0.2014929166009522,1.3327060909919877,0.8996486588252975,0.288233,0.6470237787526506
0.0205,1.78949375,1.0,2387.6909905198795,0.20597191039419604,1.3322113820011345,0.9034188407870962,0.2882117375,0.6480726966482662
0.021,1.788975,1.0,2413.4167290537475,0.21042577977255258,1.331727762579706,0.9069650345827032,0.28818995000000003,0.6490965929013466
0.021500000000000002,1.78844375,1.0,2437.644984182164,0.21485466629067396,1.331254224597181,0.9103044237785576,0.2881676375,0.650097699893241
0.022,1.7879,1.0,2460.4400542191597,0.219258708978737,1.330789918512449,0.9134526243109461,0.2881448,0.6510779011815286
0.0225,1.78734375,1.0,2481.886951282156,0.2236380507924333,1.3303338276265622,0.9164237896005653,0.28812143749999997,0.6520394206810738
0.023,1.786775,1.0,2502.0409369828885,0.22799282891921233,1.3298852479696077,0.9192308534196815,0.28809755,0.6529838111353011
0.0235,1.78619375,1.0,2520.955286709853,0.23232317979098746,1.329443516966792,0.921885606368953,0.28807313749999996,0.6539125291089001
0.024,1.7856,1.0,2538.6854049755216,0.23662923983967202,1.3290079720433212,0.9243988059167151,0.2880482,0.6548270227421593
0.0245,1.78499375,1.0,2555.288646745238,0.24091114549717935,1.3285779506244013,0.9267802811555259,0.2880227375,0.6557287320263664
0.025,1.784375,1.0,2570.8240852277777,0.24516903317375188,1.3281527907278374,0.9290390257587667,0.28799675,0.6566190878110081
0.025500000000000002,1.78374375,1.0,2585.342180612388,0.2494030355509178,1.3277319259585847,0.9311832945411437,0.2879702375,0.6574993134804743
0.026000000000000002,1.7831000000000001,1.0,2598.908693594654,0.25361329177994707,1.3273146601091586,0.9332206429897455,0.2879432,0.6583708969312054
0.0265,1.78244375,1.0,2611.5636263374304,0.2577999328760482,1.3269005491524088,0.9351580490127321,0.2879156375,0.6592347926143289
0.027,1.781775,1.0,2623.347977510773,0.2619630898544299,1.3264891490611868,0.9370019310537726,0.28788755,0.660091950080683
0.0275,1.7810937500000001,1.0,2634.3036578433607,0.26610289373030066,1.3260800158083428,0.9387582003991185,0.2878589375,0.6609433140638741
0.028,1.7804,1.0,2644.4734100448586,0.27021947551886905,1.3256727053667274,0.9404323079591612,0.2878298,0.661789824550755
0.0285,1.77969375,1.0,2653.9007331002394,0.2743129662353436,1.3252667737091912,0.9420292861680388,0.2878001375,0.6626324168393297
0.029,1.778975,1.0,2662.6146085562,0.2783834921456459,1.3248619167171016,0.9435538044077473,0.28776995,0.6634717317184022
0.029500000000000002,1.7782437500000001,1.0,2670.6658710503966,0.28243118772496995,1.3244576342934142,0.9450101594454692,0.2877392375,0.6643088123364831
0.03,1.7775,1.0,2678.0971530194543,0.2864561833210655,1.3240535071142552,0.9464023412483,0.287708,0.6651445297415541
0.0305,1.77674375,1.0,2684.935089419684,0.29045860364799037,1.323649266947502,0.9477340679664312,0.2876762375,0.6659794387893643
0.031,1.775975,1.0,2691.2066746868422,0.2944385734198025,1.3232446455610314,0.9490087912437032,0.28764395,0.6668140915692704
0.0315,1.7751937500000001,1.0,2696.9392306329546,0.2983962173505597,1.3228393747227205,0.9502297186430165,0.2876111375,0.667649037400009
0.032,1.7744,1.0,2702.1603759388704,0.3023316601543198,1.3224331862004468,0.9513998339233003,0.2875778,0.6684848228208802
0.0325,1.77359375,1.0,2706.8979972419907,0.3062450265451407,1.322025811762087,0.952521915397,0.2875439375,0.6693219915783446
0.033,1.772775,1.0,2711.1802218186813,0.3101364412370801,1.3216169831755187,0.9535985525703901,0.28750955,0.6701610846080298
0.0335,1.7719437500000002,1.0,2715.035391862643,0.31400602894419605,1.3212064322086186,0.9546321612456944,0.2874746375,0.6710026400121496
0.034,1.7711000000000001,1.0,2718.4884104890184,0.31785390798182905,1.3207939236901434,0.9556249992513081,0.2874392,0.6718471253937579
0.0345,1.7702437500000001,1.0,2721.564465004456,0.32168020801155706,1.3203792213186465,0.956579179629631,0.2874032375,0.672695008122633
0.035,1.7693750000000001,1.0,2724.2819385159405,0.32548504819743573,1.3199621519883709,0.9574966830462704,0.28736675,0.67354662402733
0.035500000000000004,1.76849375,1.0,2726.6589331996893,0.3292685468572078,1.3195425461672863,0.9583793639748088,0.2873297375,0.6744022997095909
0.036000000000000004,1.7676,1.0,2728.713650419734,0.3330308223086158,1.3191202343233626,0.9592289600314929,0.2872922,0.6752623598386549
0.0365,1.76669375,1.0,2730.464379362285,0.3367719928694024,1.3186950469245697,0.96004710066699,0.2872541375,0.6761271271229155
0.037,1.765775,1.0,2731.9294863062446,0.34049217685731026,1.3182668144388776,0.9608353151175064,0.28721555,0.6769969222797483
0.0375,1.76484375,1.0,2733.127404531775,0.3441914925900819,1.3178353673342562,0.9615950396859401,0.2871764375,0.6778720640035026
0.038,1.7639,1.0,2734.0766248657405,0.3478700583854601,1.3174005360786756,0.962327624416307,0.28713679999999997,0.6787528689316625
0.0385,1.76294375,1.0,2734.7749544069616,0.35152796775022804,1.3169623394081207,0.963034351985347,0.28709663750000003,0.679639271036133
0.039,1.761975,1.0,2735.258938697879,0.3551653667137152,1.3165204446130037,0.9637164075794223,0.28705595,0.6805319137180692
0.0395,1.7609937500000001,1.0,2735.546296868369,0.35878237662464646,1.3160746902941935,0.9643749184266812,0.2870147375,0.6814310910568547
0.04,1.76,1.0,2735.6457464520627,0.3623791073900797,1.3156249970202332,0.9650109522974032,0.286973,0.6823369300254394
0.0405,1.7589937500000001,1.0,2735.5660255971607,0.3659556689170727,1.3151712853596649,0.9656255164118763,0.2869307375,0.6832495563926553
0.041,1.757975,1.0,2735.315890131192,0.3695121711126833,1.3147134758810315,0.966219561506533,0.28688795,0.6841690947030594
0.0415,1.75694375,1.0,2734.9041107660196,0.3730487238839693,1.314251489152876,0.9667939855861909,0.2868446375,0.6850956682563771
0.042,1.7559,1.0,2734.3394704430925,0.3765654371379886,1.313785245743741,0.9673496373896364,0.28680079999999997,0.6860293990865438
0.0425,1.75484375,1.0,2733.630761817972,0.38006242078179897,1.313314666222169,0.9678873195931665,0.2867564375,0.6869704079403405
0.043000000000000003,1.753775,1.0,2732.786784884831,0.3835397847224583,1.3128396711567032,0.9684077917743804,0.28671155,0.6879188142556307
0.043500000000000004,1.75269375,1.0,2731.8163447415086,0.3869976388670243,1.3123601811158858,0.9689117731563994,0.28666613750000003,0.6888747361391934
0.044,1.7516,1.0,2730.728249493265,0.3904360931225549,1.31187611666826,0.969399945150833,0.2866202,0.6898382903441515
0.0445,1.75049375,1.0,2729.5313082979696,0.39385525739610794,1.311387398382368,0.9698729537160973,0.2865737375,0.6908095922470039
0.045,1.7493750000000001,1.0,2728.234329549535,0.39725524159474124,1.310893946826753,0.9703314115461941,0.28652675,0.6917887558242475
0.0455,1.74824375,1.0,2726.846119202486,0.4006361556255126,1.3103956825699576,0.9707759001036752,0.2864792375,0.6927758936286037
0.046,1.7471,1.0,2725.375479235794,0.4039981093954798,1.3098925261805245,0.9712069715092938,0.2864312,0.693771116764837
0.0465,1.7459437500000001,1.0,2723.810665037254,0.40734120802847074,1.3093845851334627,0.9716251633875781,0.28638263750000004,0.6947741660771531
0.047,1.744775,1.0,2722.2078496484937,0.4106655557208016,1.3088713488926431,0.9720309418127303,0.28633355,0.6957860007437473
0.0475,1.7435941267374795,1.0,2720.558392066497,0.41397125657082345,1.3083530665790661,0.9724248045078895,0.2862839533229741,0.6968060788625192
0.048,1.742409695684691,1.0,2719.2574415436457,0.4172584145950991,1.3078300082144332,0.9728072264391628,0.28623420721875703,0.6978338202892284
0.0485,1.7412252646319026,1.0,2718.4515087129794,0.4205271338101913,1.3073024438204452,0.9731786596855376,0.2861844611145399,0.6988686480292796
0.049,1.740040833579114,1.0,2718.111736881085,0.42377751788708,1.3067706342379477,0.973539534086579,0.2861347150103228,0.6999100062794876
0.0495,1.7388564025263256,1.0,2718.1992055939213,0.42700967008662805,1.3062349331765768,0.9738902654417757,0.2860849689061057,0.7009571610406171
0.05,1.7376719714735371,1.0,2718.6741574269513,0.43022369335922805,1.3056957029215905,0.9742312506335158,0.28603522280188853,0.7020093661201361
0.0505,1.7364875404207485,1.0,2719.508725798454,0.4334196884175956,1.3051531981586255,0.974562860774884,0.28598547669767144,0.7030660894565135
0.051000000000000004,1.73530310936796,1.0,2720.6751021208456,0.4365977559744462,1.3046076735733183,0.9748854499813696,0.28593573059345434,0.704126802296718
0.051500000000000004,1.7341186783151716,1.0,2722.145518029611,0.43975799674249555,1.3040593838513057,0.9751993563068235,0.2858859844892372,0.7051909792473352
0.052000000000000005,1.732934247262383,1.0,2723.8955365112456,0.4429005101366342,1.3035085535837323,0.9755049005567089,0.2858362383850201,0.706258156573695
0.0525,1.7317498162095946,1.0,2725.897774815136,0.4460253974218488,1.3029554342810457,0.9758023911679854,0.285786492280803,0.7073278215547929
0.053,1.7305653851568061,1.0,2728.130260074617,0.4491327579499397,1.3024002282394789,0.9760921197123569,0.28573674617658584,0.7083995598236961
0.0535,1.7293809541040175,1.0,2730.576641048984,0.45222268876108307,1.3018430866169068,0.9763743616491973,0.28568700007236875,0.7094730582320743
0.054,1.728196523051229,1.0,2733.22056295455,0.4552952868954554,1.3012841605712038,0.9766493805443479,0.28563725396815165,0.7105480057044169
0.0545,1.7270120919984406,1.0,2736.0456612311987,0.4583506493932331,1.3007236012602437,0.9769174286881855,0.2855875078639345,0.711624093255963
0.055,1.7258276609456522,1.0,2739.0355558154333,0.4613888732945925,1.300161559841901,0.977178747676623,0.2855377617597174,0.7127010140091738
0.0555,1.7246432298928636,1.0,2742.177589159976,0.4644100526932246,1.2995981535281405,0.977433566670474,0.28548801565550025,0.7137785280692883
0.056,1.7234587988400751,1.0,2745.457793748808,0.4674142837636187,1.2990335112538798,0.9776821061791607,0.28543826955128315,0.7148563748315553
0.0565,1.7222743677872867,1.0,2748.855668633221,0.4704016688182428,1.2984678209217528,0.9779245815954275,0.28538852344706606,0.7159341832723868
0.057,1.721089936734498,1.0,2752.363597937354,0.4733722998910943,1.2979011534116445,0.9781611918577672,0.2853387773428489,0.717011807385242
0.0575,1.7199055056817096,1.0,2755.973952488696,0.4763262690161706,1.2973335796034395,0.9783921278530835,0.2852890312386318,0.7180891021690214
0.058,1.7187210746289212,1.0,2759.6790883376334,0.479263668227469,1.2967651703770224,0.9786175728090526,0.28523928513441466,0.7191659236323241
0.0585,1.7175366435761326,1.0,2763.4713453892828,0.48218458955898696,1.2961959966122785,0.9788377026643671,0.28518953903019756,0.7202421287973825
0.059000000000000004,1.7163522125233441,1.0,2767.343046146015,0.48508912504472185,1.2956261291890923,0.9790526864182726,0.28513979292598046,0.7213175757036803
0.059500000000000004,1.7151677814705557,1.0,2771.286494561731,0.48797736671867104,1.2950556389873487,0.97926268646071,0.2850900468217633,0.722392123411248
0.06,1.7139833504177673,1.0,2775.2939750079317,0.49084940661483184,1.2944845968869323,0.9794678588842838,0.2850403007175462,0.7234656320036383
0.0605,1.7127989193649786,1.0,2779.357751349872,0.4937053367672018,1.2939130737677278,0.9796683537791858,0.2849905546133291,0.724537962590581
0.061,1.7116144883121902,1.0,2783.473413169742,0.49654524287226803,1.2933411103827424,0.9798643134096511,0.28494080850911196,0.7256090336716192
0.0615,1.7104300572594018,1.0,2787.6352946837087,0.4993692166757397,1.2927687586680492,0.9800558757281919,0.28489106240489487,0.7266787434565356
0.062,1.7092456262066131,1.0,2791.8337078971085,0.5021773582183562,1.292196106564488,0.9802431760276448,0.28484131630067777,0.7277469238155432
0.0625,1.7080611951538247,1.0,2796.0659177814064,0.5049697533652994,1.2916231793120574,0.9804263402393713,0.2847915701964606,0.7288135245150753
0.063,1.7068767641010363,1.0,2800.329181332786,0.5077464879817513,1.291050002150756,0.9806054896524272,0.2847418240922435,0.7298784956889187
0.0635,1.7056923330482476,1.0,2804.6207474250386,0.5105076479328938,1.2904766003205823,0.9807807411199624,0.2846920779880264,0.7309417878386374
0.064,1.7045079019954592,1.0,2808.937856676707,0.513253319083909,1.289902999061535,0.9809522072549796,0.2846423318838093,0.732003351833953
0.0645,1.7033234709426708,1.0,2813.277741332885,0.5159835872999788,1.2893292236136125,0.9811199966160732,0.2845925857795922,0.7330631389130875
0.065,1.7021390398898821,1.0,2817.6376251600814,0.5186985384462852,1.2887552992168132,0.9812842138837348,0.2845428396753751,0.7341211006830635
0.0655,1.7009546088370937,1.0,2822.014723356034,0.5213982583880099,1.2881812511111357,0.9814449600277645,0.28449309357115793,0.7351771891199634
0.066,1.6997701777843053,1.0,2826.4062424736912,0.5240828329903352,1.287607104536579,0.9816023324663006,0.28444334746694083,0.7362313565691498
0.0665,1.6985857467315166,1.0,2830.8093803586044,0.5267523481184428,1.287032884733141,0.981756425216943,0.2843936013627237,0.7372835557454447
0.067,1.6974013156787282,1.0,2835.2213261011934,0.5294068896375148,1.2864586169408205,0.9819073290404171,0.2843438552585066,0.7383337397332661
0.0675,1.6962168846259398,1.0,2839.6396982280676,0.5320465406867817,1.2858843224943262,0.9820551312110902,0.2842941091542895,0.7393818691070158
0.068,1.6950324535731514,1.0,2844.0662603738233,0.534671363408951,1.285309985751267,0.9821999129100654,0.28424436305007234,0.7404279720363895
0.0685,1.6938480225203627,1.0,2848.4940682473043,0.5372814775905338,1.284735668598813,0.9823417599366444,0.28419461694585524,0.7414719356747034
0.069,1.6926635914675743,1.0,2852.9224138141526,0.5398769619205426,1.2841613772863159,0.9824807499719317,0.2841448708416381,0.7425137489118114
0.0695,1.6914791604147859,1.0,2857.3505868611805,0.5424578950879898,1.2835871180631278,0.9826169581092463,0.284095124737421,0.7435534007291125
0.07,1.6902947293619972,1.0,2861.7778749997433,0.545024355781888,1.2830128971786012,0.9827504569583179,0.2840453786332039,0.744590880199536
0.07050000000000001,1.6891102983092088,1.0,2866.203563671022,0.5475764226912498,1.2824387208820884,0.9828813167446072,0.28399563252898674,0.7456261764875312
0.07100000000000001,1.6879258672564204,1.0,2870.6269361520062,0.5501141745050876,1.2818645954229413,0.9830096054040156,0.28394588642476964,0.7466592788490485
0.07150000000000001,1.6867414362036317,1.0,2875.0472735614308,0.552637689912414,1.2812905270505126,0.9831353886732205,0.28389614032055255,0.7476901766315205
0.07200000000000001,1.6855570051508433,1.0,2879.463854867688,0.5551470476022415,1.2807165220141543,0.9832587301758718,0.2838463942163354,0.7487188592738419
0.0725,1.6843725740980549,1.0,2883.8759568973433,0.5576423262635826,1.2801425865632186,0.9833796915048632,0.2837966481121183,0.7497453163063443
