Time [s],Phi [rad],STIM [ ],Fsee [N],Gamma [ ],Lcerel [ ],q [ ],Lmtc [m],fisomrel [ ]
0.0,1.8,1.0,19.925436808787882,0.001429543732014797,1.3791260263880847,0.005523177944385589,0.288653,0.541656428938716
0.0005,1.79999375,1.0,20.631820133100543,0.00703073443092231,1.3790487091723986,0.01734574858536324,0.2886527375,0.5418433548301607
0.001,1.799975,1.0,25.037803454153753,0.012600506878955336,1.3786018737239303,0.043382773788465105,0.28865195,0.5429228992752844
0.0015,1.79994375,1.0,36.9705537376664,0.018139037307251745,1.3775652764282353,0.0809932360377266,0.2886506375,0.5454223916953771
0.002,1.7999,1.0,64.27166658786167,0.023646500959396795,1.3757061797133325,0.1268645831254406,0.2886488,0.5498879672360111
0.0025,1.79984375,1.0,113.39550253576299,0.029123072094863152,1.3731812052819208,0.1776877244963202,0.28864643749999996,0.5559176914041228
0.003,1.7997750000000001,1.0,181.09736470487726,0.034568923996721665,1.3704827252769516,0.23074147851357665,0.28864354999999997,0.5623168057122538
0.0035,1.79969375,1.0,259.88387658426865,0.039984228974792355,1.3679161620682112,0.2839540700341263,0.2886401375,0.5683600053858348
0.004,1.7996,1.0,344.76581446875457,0.045369158372120855,1.3655497834883072,0.33580007734077105,0.2886362,0.5738946294376649
0.0045000000000000005,1.7994937500000001,1.0,433.181042233832,0.050723882581948,1.3633694465625532,0.3852417386442152,0.2886317375,0.5789625169158922
0.005,1.799375,1.0,523.6323496681475,0.0560485709356322,1.3613497864518658,0.4316528168081218,0.28862675,0.5836298846657877
0.0055,1.79924375,1.0,615.128954184974,0.061343392201420606,1.3594681180995938,0.4747226896361207,0.2886212375,0.5879549492026037
0.006,1.7991000000000001,1.0,706.7718421817389,0.06660851355868876,1.3577093949783363,0.5143681226766725,0.2886152,0.591977004924211
0.006500000000000001,1.79894375,1.0,797.903574898612,0.07184410174889742,1.3560603107834495,0.5506552491154074,0.2886086375,0.5957304052448769
0.007,1.798775,1.0,887.9590121824234,0.07705032245985267,1.3545105802015702,0.5837438746550527,0.28860155,0.5992418639194708
0.0075,1.79859375,1.0,976.4639292146877,0.08222734032748387,1.353051769588482,0.6138460767495957,0.2885939375,0.6025333162960503
0.008,1.7984,1.0,1063.053097726269,0.08737531938143349,1.3516763160546916,0.6411976579224166,0.2885858,0.6056242625197725
0.0085,1.79819375,1.0,1147.4177296932355,0.09249442218415795,1.3503778587897906,0.6660399962132322,0.2885771375,0.6085311099167143
0.009000000000000001,1.797975,1.0,1229.3396429473014,0.09758481071284941,1.3491503787691386,0.6886080783866175,0.28856795,0.6112691741242573
0.0095,1.79774375,1.0,1308.6703222854635,0.1026466466819223,1.347988273871138,0.7091238949661125,0.2885582375,0.6138525550005929
0.01,1.7975,1.0,1385.2664707861068,0.10768008952421959,1.3468869973018562,0.7277933090548296,0.288548,0.6162927649964987
0.0105,1.79724375,1.0,1459.0505572073519,0.11268529852736939,1.345842064180561,0.744804139297006,0.2885372375,0.618600977816737
0.011,1.796975,1.0,1529.9918208523684,0.11766243212228712,1.3448491963149163,0.7603261949461891,0.28852595000000003,0.6207877289571312
0.0115,1.79669375,1.0,1598.0895622285836,0.12261164861032452,1.3439044278482128,0.7745120565262585,0.2885141375,0.6228627056964074
0.012,1.7964,1.0,1663.3315922848558,0.12753310365425735,1.3430044967182235,0.7874983848984161,0.28850180000000003,0.6248339133644075
0.0125,1.79609375,1.0,1725.7450654382887,0.1324269528876748,1.342146147247507,0.7994069491527696,0.2884889375,0.6267092280729825
0.013000000000000001,1.7957750000000001,1.0,1785.372701994517,0.13729335102336643,1.3413263571293472,0.8103461480641174,0.28847555,0.6284959117627849
0.0135,1.79544375,1.0,1842.296686946669,0.14213245358372933,1.3405420184237586,0.8204122748928242,0.2884616375,0.6302013191577565
0.014,1.7951000000000001,1.0,1896.565815365342,0.14694441281881465,1.3397907069697688,0.8296911230751106,0.2884472,0.6318312355133442
0.0145,1.79474375,1.0,1948.237148294189,0.15172938023434018,1.339070159184665,0.8382589755750265,0.2884322375,0.6333910304543557
0.015,1.794375,1.0,1997.3881758588066,0.15648750733602368,1.3383781114857336,0.8461836491262679,0.28841675,0.6348860129698611
0.0155,1.79399375,1.0,2044.10230770487,0.16121894477914847,1.3377124340959339,0.8535255308036793,0.2884007375,0.6363211475031872
0.016,1.7936,1.0,2088.4766721438173,0.16592384356561068,1.3370710256349336,0.8603384224012189,0.2883842,0.6377012872366515
0.0165,1.7931937500000001,1.0,2130.586603403686,0.17060235193199705,1.3364521620310692,0.8666704218736482,0.2883671375,0.6390304294152397
0.017,1.792775,1.0,2170.5058414642044,0.17525461708565487,1.3358542594631853,0.8725645253058021,0.28834955,0.640312233419756
0.0175,1.7923437500000001,1.0,2208.3187691956714,0.17988078623393153,1.3352757341101262,0.8780591887916999,0.2883314375,0.6415503256279207
0.018000000000000002,1.7919,1.0,2244.111068038831,0.18448100565185466,1.3347150867362019,0.8831888833185387,0.2883128,0.6427481208902324
0.0185,1.79144375,1.0,2277.976504610867,0.18905542241190476,1.334170823543713,0.8879845392257202,0.2882936375,0.6439089945539431
0.019,1.790975,1.0,2309.993444758258,0.1936041811858004,1.3336416805581366,0.8924740083792662,0.28827395,0.6450358067421631
0.0195,1.79049375,1.0,2340.2303407165414,0.1981274246912956,1.3331265553863385,0.8966823973813768,0.2882537375,0.6461310526034207
0.02,1.79,1.0,2368.761226568641,0.2026252956461445,1.3326243456351858,0.9006323403581655,0.288233,0.6471972088353458
0.0205,1.78949375,1.0,2395.665251120152,0.20709793676810123,1.3321339489115445,0.904344275826286,0.2882117375,0.6482367346314528
0.021,1.788975,1.0,2421.012926600332,0.2115454888201527,1.3316543912925942,0.9078367163328409,0.28818995000000003,0.6492518008174069
0.021500000000000002,1.78844375,1.0,2444.891975885342,0.21596809547059856,1.331184571971939,0.9111264071165588,0.2881676375,0.6502448319125111
0.022,1.7879,1.0,2467.3646744280627,0.2203658958490547,1.3307236706763788,0.9142285965073262,0.2881448,0.6512176455814482
0.0225,1.78734375,1.0,2488.4877535962814,0.22473902772531568,1.3302709487703992,0.9171571555642865,0.28812143749999997,0.6521718762700904
0.023,1.786775,1.0,2508.320582500183,0.22908762886917589,1.3298256676184872,0.9199247073830923,0.28809755,0.6531091485332245
0.0235,1.78619375,1.0,2526.9249476405757,0.23341183705042987,1.329387088585129,0.9225427566365763,0.28807313749999996,0.6540310774024627
0.024,1.7856,1.0,2544.3632004714254,0.2377117896901328,1.3289544885139832,0.9250218067392642,0.2880482,0.6549392362452287
0.0245,1.78499375,1.0,2560.6882995610654,0.2419876218246129,1.328527251088525,0.9273714759798173,0.2880227375,0.6558349658552844
0.025,1.784375,1.0,2575.974269047853,0.24623947281139236,1.3281045785684473,0.9296005390444202,0.28799675,0.6567199793444566
0.025500000000000002,1.78374375,1.0,2590.263595736528,0.25046747509795975,1.3276859837541415,0.9317170876437247,0.2879702375,0.6575953317955374
0.026000000000000002,1.7831000000000001,1.0,2603.599993638295,0.25467176113180356,1.3272709794459985,0.9337285479089683,0.2879432,0.6584620727438038
0.0265,1.78244375,1.0,2616.028301575613,0.25885246336041245,1.32685907844441,0.9356417441080738,0.2879156375,0.6593212462961446
0.027,1.781775,1.0,2627.5943860510256,0.26300971423127495,1.3264497935497677,0.9374629554859636,0.28788755,0.6601738912350577
0.0275,1.7810937500000001,1.0,2638.3450493775526,0.26714364619187964,1.3260426375624628,0.9391979670449093,0.2878589375,0.6610210411075017
0.028,1.7804,1.0,2648.319322237276,0.2712543879408819,1.3256372028349008,0.9408521251149615,0.2878298,0.6618635590875691
0.0285,1.77969375,1.0,2657.5695212023224,0.2753420747434227,1.3252329658513196,0.9424303530063106,0.2878001375,0.6627025443990893
0.029,1.778975,1.0,2666.1294103965834,0.2794068346804361,1.3248295803806038,0.9439372248664781,0.28776995,0.6635387235642884
0.029500000000000002,1.7782437500000001,1.0,2674.0303778726025,0.283448794603916,1.3244267269059582,0.9453769776646965,0.2877392375,0.6643727642509147
0.03,1.7775,1.0,2681.304280219554,0.287468081365856,1.3240240859105872,0.9467535373998786,0.287708,0.6652053308348483
0.0305,1.77674375,1.0,2687.983399934869,0.29146482181825006,1.3236213378776958,0.9480705458633429,0.2876762375,0.6660370844076859
0.031,1.775975,1.0,2694.1004050598335,0.2954391428130918,1.323218163290488,0.94933138478252,0.28764395,0.666868682777817
0.0315,1.7751937500000001,1.0,2699.688311077913,0.29939117120237513,1.3228142426321687,0.9505391976303347,0.2876111375,0.667700780464985
0.032,1.7744,1.0,2704.768629316085,0.30332102560559776,1.3224093642765258,0.9516969199694707,0.2875778,0.6685338068456841
0.0325,1.77359375,1.0,2709.385673313973,0.3072288423556841,1.3220031107345613,0.9528072666089765,0.2875439375,0.6693686118535263
0.033,1.772775,1.0,2713.5621649439036,0.31111474360690405,1.3215952639560258,0.9538727877478154,0.28750955,0.6702056320186675
0.0335,1.7719437500000002,1.0,2717.3184055163883,0.3149788496919068,1.321185629644423,0.954895865231342,0.2874746375,0.6710452529015163
0.034,1.7711000000000001,1.0,2720.6748577160647,0.3188212809433417,1.3207740135032577,0.9558787236196558,0.2874392,0.6718878579751653
0.0345,1.7702437500000001,1.0,2723.652129402677,0.32264215769385807,1.3203602212360341,0.9568234424255962,0.2874032375,0.6727338286020385
0.035,1.7693750000000001,1.0,2726.2709582481184,0.32644160027610514,1.3199440585462565,0.9577319672641005,0.28736675,0.6735835440081301
0.035500000000000004,1.76849375,1.0,2728.5521972111815,0.33021972902273217,1.3195253311374293,0.9586061200211382,0.2873297375,0.6744373812548347
0.036000000000000004,1.7676,1.0,2730.516800848696,0.3339766642663884,1.3191038447130565,0.9594476081386119,0.2872922,0.6752957152083722
0.0365,1.76669375,1.0,2732.1858124641176,0.33771252633972315,1.318679404976643,0.960258033101206,0.2872541375,0.6761589185068009
0.037,1.765775,1.0,2733.5721500481354,0.34142743023779687,1.3182518921295736,0.9610389044262478,0.28721555,0.6770272103187062
0.0375,1.76484375,1.0,2734.695999396857,0.34512149819115084,1.3178211209081587,0.9617916353068879,0.2871764375,0.6779009410225816
0.038,1.7639,1.0,2735.5779614518283,0.3487948503622953,1.3173869027941818,0.9625175535514853,0.28713679999999997,0.6787804653530504
0.0385,1.76294375,1.0,2736.2299087241845,0.3524476002807971,1.3169491289406245,0.9632179145425768,0.28709663750000003,0.6796659746931739
0.039,1.761975,1.0,2736.663749511301,0.35607986147622317,1.3165076905004685,0.9638939002067322,0.28705595,0.6805576589734046
0.0395,1.7609937500000001,1.0,2736.8914229865486,0.3596917474781404,1.3160624786266948,0.964546624099942,0.2870147375,0.6814557066465246
0.04,1.76,1.0,2736.924894550181,0.3632833718161157,1.3156133844722853,0.965177136088626,0.286973,0.6823603046618286
0.0405,1.7589937500000001,1.0,2736.776151444258,0.36685484801971596,1.315160299190221,0.9657864266623711,0.2869307375,0.6832716384385538
0.041,1.757975,1.0,2736.4571986289307,0.3704062896185081,1.3147031139334837,0.9663754309109405,0.28688795,0.6841898918385484
0.0415,1.75694375,1.0,2735.9800549226543,0.373937810142059,1.3142417198550544,0.9669450321949196,0.2868446375,0.6851152471381935
0.042,1.7559,1.0,2735.355956501141,0.3774495213258465,1.3137760153073859,0.9674960658404309,0.28680079999999997,0.6860478705925357
0.0425,1.75484375,1.0,2734.5943432437557,0.3809415316902033,1.313305915022252,0.9680293227895769,0.2867564375,0.6869878941711399
0.043000000000000003,1.753775,1.0,2733.7076427510683,0.3844139603835486,1.3128313066463144,0.9685455511262205,0.28671155,0.6879355024934937
0.043500000000000004,1.75269375,1.0,2732.702539726363,0.3878669145169834,1.3123521300070096,0.9690454615593582,0.28666613750000003,0.6888907744900644
0.044,1.7516,1.0,2731.585722009719,0.39130050120160886,1.3118683249317733,0.9695297275403625,0.2866202,0.6898537879599804
0.0445,1.75049375,1.0,2730.363879181903,0.39471482754852616,1.3113798312480422,0.9699989875805035,0.2865737375,0.6908246195533825
0.045,1.7493750000000001,1.0,2729.043701247782,0.3981100006688363,1.3108865887832521,0.9704538474023512,0.28652675,0.6918033447535494
0.0455,1.74824375,1.0,2727.631877400211,0.40148612767364034,1.3103885373648398,0.9708948819384671,0.2864792375,0.6927900378587865
0.046,1.7471,1.0,2726.1350948647546,0.40484331567403936,1.309885616820241,0.9713226371896029,0.2864312,0.6937847719640904
0.0465,1.7459437500000001,1.0,2724.560037823703,0.40818167178113457,1.3093777669768922,0.9717376319535369,0.28638263750000004,0.6947876189425759
0.047,1.744775,1.0,2722.9133864210853,0.41150130310602695,1.3088649276622295,0.9721403594346999,0.28633355,0.6957986494266765
0.0475,1.74359375,1.0,2721.2005675436017,0.4148023145518545,1.3083470500675933,0.972531289270223,0.28628393750000003,0.696817910442006
0.048,1.7424,1.0,2719.4269857917634,0.4180848112517171,1.3078240855493684,0.9729108684238693,0.2862338,0.6978454475628034
0.0485,1.74119375,1.0,2717.5976090049276,0.42134889610677356,1.3072959893991862,0.973279522446665,0.2861831375,0.6988812975101251
0.049,1.739975,1.0,2715.7172402607002,0.4245946716321953,1.3067627183668424,0.9736376567593308,0.28613195,0.6999254930490604
0.0495,1.73874375,1.0,2713.7906776308973,0.4278222403431537,1.3062242292021327,0.9739856577354479,0.2860802375,0.7009780658468103
0.05,1.7375,1.0,2711.8227137511253,0.4310317047548202,1.305680478654853,0.9743238937651867,0.286028,0.7020390464583544
0.0505,1.73624375,1.0,2709.817278916088,0.43422316692484664,1.3051314312884281,0.9746527167144003,0.2859752375,0.7031084491067452
0.051000000000000004,1.734975,1.0,2707.77737210791,0.4373967277019294,1.3045770601208784,0.9749724627886044,0.28592195,0.7041862705616162
0.051500000000000004,1.73369375,1.0,2705.706381096617,0.44055248719437473,1.304017334586761,0.975283452662117,0.2858681375,0.7052725136184996
0.052000000000000005,1.7324,1.0,2703.6021591722406,0.4436905453036009,1.3034522746260222,0.9755859958225053,0.2858138,0.7063670823478738
0.0525,1.73109375,1.0,2701.4786857412573,0.4468110015662591,1.3028817528765066,0.9758803786787048,0.28575893750000003,0.7074701650971134
0.053,1.7297752118168404,1.0,2699.341924515459,0.4499139544559432,1.3023058107037917,0.9761668854285703,0.2857035588963073,0.7085816224959287
0.0535,1.7284525129950192,1.0,2697.5774923815784,0.45299950213122253,1.3017245928490024,0.9764457941954565,0.2856480055457908,0.7097011162949736
0.054,1.7271298141731979,1.0,2696.3556246393773,0.4560677424761693,1.3011384180969146,0.9767173816421578,0.2855924521952743,0.7108279755933926
0.0545,1.7258071153513765,1.0,2695.6328792864183,0.4591187723998512,1.3005476804206846,0.9769819170040068,0.2855368988447578,0.7119613896484249
0.055,1.7244844165295552,1.0,2695.3714776873603,0.46215268785907404,1.2999527235447392,0.9772396549960541,0.2854813454942413,0.7131006493561647
0.0555,1.7231617177077339,1.0,2695.539768644102,0.46516958317188056,1.2993538363585502,0.9774908362334112,0.2854257921437248,0.7142451551575841
0.056,1.7218390188859125,1.0,2696.083764756096,0.46816955944019406,1.298751512984499,0.97773570393207,0.28537023879320833,0.7153939205659205
0.0565,1.7205163200640912,1.0,2696.979587575629,0.47115270965879574,1.298145972812697,0.97797447464558,0.28531468544269184,0.7165464888251614
0.057,1.7191936212422698,1.0,2698.203414779368,0.47411912682246676,1.2975374352332536,0.9782073560825895,0.28525913209217535,0.717702406361025
0.0575,1.7178709224204485,1.0,2699.7314650545613,0.4770689039259884,1.29692611963628,0.9784345475454573,0.2852035787416588,0.7188612228244309
0.058,1.7165482235986271,1.0,2701.539984052928,0.4800021339641418,1.2963122454118867,0.9786562403438014,0.28514802539114237,0.7200224911319063
0.0585,1.7152255247768058,1.0,2703.6052314109534,0.48291890993170833,1.2956960319501838,0.9788726181845933,0.2850924720406258,0.7211857675029205
0.059000000000000004,1.7139028259549847,1.0,2705.903468838255,0.48581932482346907,1.2950776986412822,0.9790838575403055,0.2850369186901094,0.7223506114941475
0.059500000000000004,1.7125801271331633,1.0,2708.415142079867,0.4887034695159096,1.2944574266161795,0.9792901257331588,0.28498136533959284,0.7235166578781164
0.06,1.711257428311342,1.0,2711.1208887932157,0.491571436403238,1.2938353951625838,0.9794915836375454,0.28492581198907635,0.7246835476710721
0.0605,1.7099347294895206,1.0,2713.9988958923263,0.49442331957095537,1.2932118057513793,0.9796883872819837,0.28487025863855986,0.7258508831888247
0.061,1.7086120306676993,1.0,2717.0378673625264,0.497259207353268,1.2925867637715895,0.9798806812049433,0.28481470528804337,0.7270184491889926
0.0615,1.707289331845878,1.0,2720.2264960423863,0.5000791880843825,1.291960374612239,0.9800686044945651,0.2847591519375269,0.7281860320672229
0.062,1.7059666330240566,1.0,2723.5534603528577,0.5028833500985052,1.2913327436623514,0.9802522910381836,0.2847035985870104,0.7293534198666028
0.0625,1.7046439342022353,1.0,2727.007421272472,0.5056717817298426,1.2907039763109502,0.9804318697586458,0.2846480452364939,0.7305204022863601
0.063,1.703321235380414,1.0,2730.5770195587256,0.5084445713126012,1.29007417794706,0.9806074648382195,0.28459249188597735,0.7316867706898516
0.0635,1.7019985365585928,1.0,2734.2508732163146,0.5112018071809875,1.289443453959704,0.9807791959308256,0.2845369385354609,0.7328523181118518
0.064,1.7006758377367714,1.0,2738.0175752103073,0.513943577669208,1.2888119097379065,0.9809471783632887,0.28448138518494437,0.7340168392651255
0.0645,1.69935313891495,1.0,2741.875150297348,0.5166699611711175,1.28817956488731,0.9811115183202129,0.28442583183442793,0.7351802882058696
0.065,1.6980304400931288,1.0,2745.804464123075,0.5193810581797287,1.2875465945035145,0.9812723274883672,0.2843702784839114,0.7363423341499726
0.0655,1.6967077412713074,1.0,2749.8001823487243,0.5220769525989364,1.2869130482365476,0.9814297062744632,0.2843147251333949,0.7375028786722337
0.066,1.695385042449486,1.0,2753.857689745254,0.5247577274737287,1.2862789691058896,0.9815837511831783,0.2842591717828784,0.738661836248945
0.0665,1.6940623436276647,1.0,2757.97235906446,0.5274234658490937,1.2856444001310199,0.9817345553630944,0.2842036184323619,0.7398191220465237
0.067,1.6927396448058434,1.0,2762.1395505508826,0.5300742507700194,1.2850093843314185,0.9818822087483463,0.2841480650818454,0.7409746519229138
0.0675,1.691416945984022,1.0,2766.3546114952046,0.5327101652814934,1.284373964726565,0.9820267981933395,0.28409251173132893,0.7421283424288723
0.068,1.6900942471622007,1.0,2770.612875828548,0.5353312924285041,1.2837381843359394,0.9821684076009295,0.28403695838081244,0.743280110809134
0.0685,1.6887715483403793,1.0,2774.909663757874,0.5379377152560392,1.2831020861790214,0.9823071180444161,0.2839814050302959,0.7444298750034628
0.069,1.6874488495185582,1.0,2779.240281442641,0.5405295168090869,1.2824657132752908,0.9824430078836968,0.28392585167977946,0.7455775536475804
0.0695,1.6861261506967369,1.0,2783.600020711473,0.5431067801326349,1.2818291086442273,0.9825761528758945,0.2838702983292629,0.7467230660739808
0.07,1.6848034518749155,1.0,2787.984158821614,0.5456695882716714,1.2811923153053106,0.9827066262807578,0.2838147449787465,0.7478663323126236
0.07050000000000001,1.6834807530530942,1.0,2792.394258034883,0.548218005978771,1.2805553196639403,0.982834495246004,0.28375919162822993,0.7490073743885979
0.07100000000000001,1.6821580542312728,1.0,2796.820803283098,0.5507521378964755,1.2799182076402316,0.982959831686057,0.28370363827771344,0.7501460364524242
0.07150000000000001,1.6808353554094515,1.0,2801.2615411715055,0.5532720634572693,1.2792809997288177,0.9830827007219127,0.28364808492719695,0.7512822805818626
0.07200000000000001,1.6795126565876302,1.0,2805.715007802525,0.5557778594806202,1.278643709281921,0.9832031649131845,0.28359253157668046,0.7524160818801413
0.0725,1.6781899577658088,1.0,2810.1797345993436,0.5582696027859957,1.2780063496517644,0.9833212848301348,0.28353697822616397,0.7535474156674137
0.073,1.6768672589439877,1.0,2814.654248283594,0.5607473701928637,1.27736893419057,0.9834371191304807,0.2834814248756475,0.7546762574808266
