Time [s],Phi [rad],STIM [ ],Fsee [N],Gamma [ ],Lcerel [ ],q [ ],Lmtc [m],fisomrel [ ]
0.0,1.8,1.0,17.96836462258646,2.2945180564064864e-05,1.3793396110586817,0.005000139399933842,0.288653,0.5411398580416074
0.0005,1.79999375,1.0,18.281952591877786,0.005632025785045519,1.3793018092737712,0.012976489973054707,0.2886527375,0.5412313057450373
0.001,1.799975,1.0,21.633160004100226,0.011209643882194155,1.3789367929707996,0.035676059323857805,0.28865195,0.5421138613935119
0.0015,1.79994375,1.0,31.10440835008954,0.016755975952672857,1.3780432080134821,0.07069406086164173,0.2886506375,0.5442708318714129
0.002,1.7999,1.0,53.658221931282434,0.02227119748547248,1.3763632137013284,0.11482720610270043,0.2886488,0.548312281162016
0.0025,1.79984375,1.0,97.24649538051858,0.027755482985565138,1.3739290225737735,0.16469365681300102,0.28864643749999996,0.5541361163170357
0.003,1.7997750000000001,1.0,161.12437592064865,0.03320900598150295,1.3712081239967369,0.21740297829506308,0.28864354999999997,0.5606011756340028
0.0035,1.79969375,1.0,237.87124784889562,0.03863193902510232,1.3685789470574685,0.2707347549595323,0.2886401375,0.5668034431951781
0.004,1.7996,1.0,321.6667732415761,0.04402445370220223,1.3661507959333534,0.32303380395075415,0.2886362,0.572492329838558
0.0045000000000000005,1.7994937500000001,1.0,409.47492310965674,0.049386720637855694,1.3639179516578246,0.3731465246613574,0.2886317375,0.5776904478991494
0.005,1.799375,1.0,499.6249191774957,0.054718909487439626,1.3618538502707656,0.42035226300840994,0.28862675,0.5824674459318315
0.0055,1.79924375,1.0,591.0037770227926,0.06002118898365181,1.359934666879547,0.46427072991681706,0.2886212375,0.5868846797777729
0.006,1.7991000000000001,1.0,682.7317738676325,0.0652937268808823,1.3581425311805306,0.5047691344647367,0.2886152,0.5909882887742431
0.006500000000000001,1.79894375,1.0,774.0957979576732,0.0705366900075122,1.3564635915308527,0.5418822720327585,0.2886086375,0.5948141196202978
0.007,1.798775,1.0,864.5005792118577,0.07575024426463459,1.3548869260203413,0.5757510364181285,0.28860155,0.5983905285071198
0.0075,1.79859375,1.0,953.4552704612435,0.080934554588995,1.3534035177466908,0.6065774440381387,0.2885939375,0.6017409236105371
0.008,1.7984,1.0,1040.568494972838,0.08608978505017145,1.352005554079226,0.6345933961277924,0.2885858,0.6048854907441874
0.0085,1.79819375,1.0,1125.525635838009,0.09121609872908747,1.3506862488744515,0.6600401060089265,0.2885771375,0.6078416927626474
0.009000000000000001,1.797975,1.0,1208.0869475648556,0.0963136578499239,1.3494394832004002,0.6831549295271473,0.28856795,0.6106251517239708
0.0095,1.79774375,1.0,1288.0635207930804,0.1013826234366611,1.3482598569222584,0.7041636918137927,0.2885582375,0.6132495920168627
0.01,1.7975,1.0,1365.3530689138795,0.10642315672605131,1.3471419945053655,0.7232761722379014,0.288548,0.6157284300090458
0.0105,1.79724375,1.0,1439.8454980627764,0.11143541638784855,1.3460816185440294,0.7406848638297825,0.2885372375,0.6180724276337529
0.011,1.796975,1.0,1511.4896757105594,0.11641956094219694,1.3450745080847668,0.7565640812108403,0.28852595000000003,0.620292040401965
0.0115,1.79669375,1.0,1580.2736229478949,0.12137574825393763,1.3441166599351757,0.771070623490489,0.2885141375,0.622397080213835
0.012,1.7964,1.0,1646.2158328243504,0.1263041359217856,1.3432043060180086,0.7843448573567884,0.28850180000000003,0.6243966974830903
0.0125,1.79609375,1.0,1709.3235236607582,0.13120487908039488,1.342334317011191,0.7965122010105703,0.2884889375,0.626298518483678
0.013000000000000001,1.7957750000000001,1.0,1769.6340163077164,0.13607813258715962,1.3415036338418205,0.8076842717232695,0.28847555,0.62810991094653
0.0135,1.79544375,1.0,1827.201832571016,0.1409240505975088,1.3407093696364363,0.817960335493742,0.2884616375,0.6298377724551729
0.014,1.7951000000000001,1.0,1882.1083802861317,0.14574278770471416,1.3399486588126912,0.8274285866642942,0.2884472,0.6314888691691725
0.0145,1.79474375,1.0,1934.4121591817927,0.15053449574024394,1.339219165192536,0.8361675693686923,0.2884322375,0.6330687435142823
0.015,1.794375,1.0,1984.1753393131874,0.1552993255989232,1.3385187396190723,0.8442471615408944,0.28841675,0.6345824710673302
0.0155,1.79399375,1.0,2031.4786228567402,0.16003742817557703,1.3378452329354011,0.851729524847941,0.2884007375,0.6360350720115578
0.016,1.7936,1.0,2076.403647551565,0.1647489533500602,1.3371966626628784,0.8586700675426165,0.2883842,0.6374311565338553
0.0165,1.7931937500000001,1.0,2119.0536589255817,0.1694340516952076,1.3365709758329591,0.8651181715620933,0.2883671375,0.638775440774393
0.017,1.792775,1.0,2159.502220797714,0.1740928705675112,1.3359665631423359,0.8711180542489527,0.28834955,0.6400716468441545
0.0175,1.7923437500000001,1.0,2197.8237912048958,0.17872555662390446,1.3353819170984855,0.8767092772202427,0.2883314375,0.6413232451637263
0.018000000000000002,1.7919,1.0,2234.1025108845597,0.1833322565213208,1.3348155302088849,0.8819272652233582,0.2883128,0.6425336758002018
0.0185,1.79144375,1.0,2268.4227637796994,0.1879131159238397,1.3342659808818378,0.8868038108215136,0.2882936375,0.6437061671718841
0.019,1.790975,1.0,2300.8771020310396,0.19246828137020494,1.3337318442668942,0.8913674731404442,0.28827395,0.6448439289611527
0.0195,1.79049375,1.0,2331.5409563944913,0.19699789667275458,1.3332119343310667,0.8956440046358165,0.2882537375,0.6459496390923116
0.02,1.79,1.0,2360.4827464199284,0.20150210403032023,1.3327051914038233,0.8996566412820981,0.288233,0.6470256875412798
0.0205,1.78949375,1.0,2387.776003187462,0.20598104564173347,1.332210555814631,0.9034263562130559,0.2882117375,0.6480744470833351
0.021,1.788975,1.0,2413.4989397735962,0.21043486370582593,1.3317269678929575,0.9069721108895564,0.28818995000000003,0.6490982741471452
0.021500000000000002,1.78844375,1.0,2437.7185426996684,0.2148636980960159,1.331253517088388,0.910311105887044,0.2881676375,0.650099194568154
0.022,1.7879,1.0,2460.523755827681,0.21926769244993785,1.3307891171830166,0.9134589071822244,0.2881448,0.6510795916877568
0.0225,1.78734375,1.0,2481.9721302332123,0.22364698477075573,1.3303330156846846,0.9164297183426263,0.28812143749999997,0.6520411312138453
0.023,1.786775,1.0,2502.1192831217945,0.22800171230581062,1.3298845041726954,0.9192364683313122,0.28809755,0.6529853759781088
0.0235,1.78619375,1.0,2521.023243639069,0.23233201230244369,1.3294428742263518,0.9218909360564008,0.28807313749999996,0.6539138795327812
0.024,1.7856,1.0,2538.7442505527083,0.23663802200799597,1.3290074174249575,0.9244038685572372,0.2880482,0.6548281864775503
0.0245,1.78499375,1.0,2555.336336696428,0.24091987815121524,1.328577502609719,0.926785099122645,0.2880227375,0.6557296708506379
0.025,1.784375,1.0,2570.841078922897,0.24517771552232864,1.328152631566235,0.9290436470529734,0.28799675,0.6566194209061058
0.025500000000000002,1.78374375,1.0,2585.383854232522,0.24941167266541528,1.327731536745134,0.9311876479262141,0.2879702375,0.6575001269855643
0.026000000000000002,1.7831000000000001,1.0,2598.9832237225896,0.2536218814648817,1.3273139658515944,0.9332247321637938,0.2879432,0.6583723461686903
0.0265,1.78244375,1.0,2611.6586019077376,0.25780847380513433,1.3268996665907955,0.9351619084877966,0.2879156375,0.6592366325982996
0.027,1.7817785447781604,1.0,2623.6028733687504,0.2619715815705798,1.326488386667916,0.9370056228919185,0.2878876988806827,0.6600935375350171
0.0275,1.7811129585687895,1.0,2635.256670449879,0.2661113366456246,1.3260798737881347,0.9387618113049712,0.28785974425988914,0.6609436094078894
0.028,1.7804473723594187,1.0,2646.6638547245425,0.27022787091467526,1.3256738756566304,0.9404359466892652,0.2878317896390956,0.6617873938609363
0.0285,1.7797817861500478,1.0,2657.8387231275337,0.27432131509829416,1.325270244337932,0.9420330957868199,0.287803835018302,0.662625217309764
0.029,1.779116199940677,1.0,2668.7680014484777,0.2783917990767767,1.3248690869426614,0.943557976491741,0.28777588039750845,0.6634568761130151
0.029500000000000002,1.778450613731306,1.0,2679.4544046872006,0.28243945083259137,1.3244703633808435,0.9450149321931877,0.2877479257767148,0.6642824722178042
0.03,1.7777850275219353,1.0,2689.901756251354,0.28646439805071683,1.3240740240978417,0.9464079843172762,0.2877199711559213,0.6651021266104322
0.0305,1.7771194413125644,1.0,2700.113877915632,0.29046676588529047,1.3236800202889176,0.9477408608043817,0.2876920165351277,0.665915958117876
0.031,1.7764538551031936,1.0,2710.0945827405008,0.29444666650502893,1.3232883039332735,0.9490170178319314,0.28766406191433413,0.6667240833544241
0.0315,1.7757882688938227,1.0,2719.850024597353,0.29840425689069366,1.322898806370091,0.9502396786785634,0.28763610729354055,0.6675266608570487
0.032,1.775122682684452,1.0,2729.3853532041894,0.30233965762860154,1.322511468862122,0.9514118308453319,0.287608152672747,0.6683238279732031
0.0325,1.774457096475081,1.0,2738.705795073681,0.30625298930506956,1.322126232672118,0.9525362559731562,0.2875801980519534,0.6691157213790451
0.033,1.7737915102657102,1.0,2747.8166507382557,0.3101443725064146,1.3217430390628302,0.9536155465326995,0.2875522434311598,0.6699024770874176
0.0335,1.7731259240563393,1.0,2756.723292051618,0.31401392781895354,1.321361829297011,0.9546521209711206,0.28752428881036624,0.6706842304556082
0.034,1.7724603378469685,1.0,2765.431159567349,0.3178617758290035,1.3209825446374117,0.9556482374747514,0.28749633418957266,0.6714611161928954
0.0345,1.7717947516375976,1.0,2773.945759993376,0.32168803712288124,1.3206051263467837,0.9566060064888123,0.2874683795687791,0.6722332683678662
0.035,1.7711291654282268,1.0,2782.2726637231362,0.32549283228690373,1.3202295156878792,0.9575274021194932,0.2874404249479855,0.6730008204155178
0.035500000000000004,1.7704635792188559,1.0,2790.417502443391,0.329276281907388,1.3198556539234496,0.9584142725298673,0.28741247032719197,0.6737639051441404
0.036000000000000004,1.7697979930094851,1.0,2798.3859668182095,0.3330385065706509,1.3194834823162465,0.9592683494288976,0.2873845157063984,0.6745226547419791
0.0365,1.7691324068001142,1.0,2806.183804249939,0.33677962686300933,1.3191129421290215,0.960091256742039,0.2873565610856048,0.6752772007836727
0.037,1.7684668205907434,1.0,2813.816816716138,0.34049976337078036,1.3187439746245264,0.960884518542438,0.28732860646481123,0.6760276742364772
0.0375,1.7678012343813725,1.0,2821.287271113625,0.34419901922111373,1.318376553140311,0.9616495657211492,0.28730065184401765,0.6767741403395876
0.038,1.7671356481720017,1.0,2828.595347765346,0.34787748442300664,1.3180106699296126,0.9623877425332565,0.28727269722322407,0.6775166256725733
0.0385,1.7664700619626308,1.0,2835.7607510025427,0.35153534540566145,1.3176461433170654,0.9631003167925708,0.2872447426024305,0.6782555090427116
0.039,1.76580447575326,1.0,2842.786938557703,0.35517271135945605,1.317282937367114,0.963788479755854,0.2872167879816369,0.6789908726265818
0.0395,1.765138889543889,1.0,2849.6773999342004,0.3587896914747683,1.3169210161442026,0.9644533537353874,0.28718883336084333,0.6797227982338203
0.04,1.7644733033345184,1.0,2856.4356553684083,0.362386394941976,1.3165603437127755,0.9650959968286883,0.28716087874004975,0.6804513673101067
0.0405,1.7638077171251474,1.0,2863.065254820347,0.36596293095145704,1.316200884137277,0.9657174072754736,0.28713292411925617,0.6811766609400649
0.041,1.7631421309157767,1.0,2869.5697769931,0.36951940869358924,1.3158426014821516,0.9663185274748769,0.28710496949846265,0.6818987598500854
0.0415,1.7624765447064057,1.0,2875.952828380556,0.3730559373587505,1.3154854598118435,0.9669002476926879,0.287077014877669,0.682617744411064
0.042,1.761810958497035,1.0,2882.2180423446916,0.37657262613731857,1.3151294231907973,0.9674634094855116,0.2870490602568755,0.6833336946410568
0.0425,1.761145372287664,1.0,2888.369078219734,0.3800695842196714,1.3147744556834569,0.968008808866156,0.28702110563608185,0.6840466902078555
0.043000000000000003,1.7604797860782933,1.0,2894.40962044725,0.3835469207961868,1.314420521354267,0.9685371992322532,0.28699315101528833,0.6847568104314762
0.043500000000000004,1.7598141998689223,1.0,2900.343377737499,0.3870047450572425,1.3140675842676717,0.9690492940780452,0.28696519639449475,0.6854641342865719
0.044,1.7591486136595516,1.0,2906.1740822614843,0.39044316619321656,1.3137156084881154,0.9695457695074139,0.28693724177370117,0.6861687404047561
0.0445,1.7584830274501806,1.0,2911.9054888702103,0.3938622933944867,1.3133645580800426,0.9700272665645612,0.2869092871529076,0.6868707070768483
0.045,1.7578174412408099,1.0,2917.5413743431513,0.3972622358514308,1.3130143971078976,0.9704943933972446,0.286881332532114,0.6875701122550364
0.0455,1.757151855031439,1.0,2923.085536665484,0.40064310275442666,1.3126650896361245,0.9709477272661328,0.28685337791132043,0.6882670335549561
0.046,1.7564862688220682,1.0,2928.541794333476,0.4040050032938522,1.312316599729168,0.9713878164126123,0.28682542329052685,0.6889615482576872
0.0465,1.7558206826126972,1.0,2933.9139856891225,0.40734804666008523,1.311968891451472,0.9718151817963004,0.28679746866973327,0.6896537333116699
0.047,1.7551550964033265,1.0,2939.20596828266,0.41067234204350356,1.311621928867481,0.9722303187125069,0.2867695140489397,0.6903436653345363
0.0475,1.7544895101939555,1.0,2944.421618264394,0.41397799863448514,1.3112756760416395,0.9726336982990117,0.2867415594281461,0.6910314206148607
0.048,1.7538239239845848,1.0,2949.558745177954,0.4172650868672402,1.3109301502421833,0.9730257678026908,0.28671360480735253,0.6917169696121599
0.0485,1.7531583377752138,1.0,2954.6252381993313,0.42053375450131064,1.3105852806469387,0.9734069566509759,0.286685650186559,0.6924004574153774
0.049,1.752492751565843,1.0,2959.622977854903,0.42378410071520467,1.3102410491534555,0.9737776715223083,0.2866576955657654,0.6930819241714388
0.0495,1.751827165356472,1.0,2964.55377657803,0.42701622411780427,1.3098974383383681,0.974138300036246,0.28662974094497184,0.6937614085182313
0.05,1.7511615791471014,1.0,2969.419456061043,0.43023022331799154,1.309554430778311,0.9744892118414755,0.28660178632417826,0.6944389489334053
0.0505,1.7504959929377304,1.0,2974.221847019012,0.43342619692464857,1.309212009049918,0.9748307596103531,0.2865738317033847,0.6951145837350556
0.051000000000000004,1.7498304067283597,1.0,2978.9627889599,0.43660424354665744,1.3088701557298232,0.9751632799698254,0.2865458770825911,0.6957883510823812
0.051500000000000004,1.7491648205189887,1.0,2983.644129961793,0.4397644617929002,1.3085288533946615,0.9754870943733283,0.2865179224617975,0.6964602889763248
0.052000000000000005,1.748499234309618,1.0,2988.2677264565486,0.44290695027225896,1.3081880846210667,0.9758025099178936,0.28648996784100395,0.6971304352601984
0.0525,1.747833648100247,1.0,2992.8354430205563,0.44603180759361577,1.307847831985673,0.9761098201103622,0.28646201322021037,0.6977988276202833
0.053,1.7471680618908763,1.0,2997.3491521716087,0.44913913236585273,1.3075080780651147,0.9764093055862807,0.2864340585994168,0.6984655035864137
0.0535,1.7465024756815053,1.0,3001.8107341731907,0.4522290231978519,1.307168805436026,0.9767012347847965,0.2864061039786232,0.6991305005325409
0.054,1.7458368894721346,1.0,3006.2220768451557,0.4553015786984954,1.3068299966750412,0.9769858645825918,0.2863781493578297,0.6997938556772775
0.0545,1.7451713032627636,1.0,3010.585075380754,0.4583568974766653,1.3064916343587945,0.9772634408896737,0.28635019473703605,0.700455606084423
0.055,1.7445057170533929,1.0,3014.9016321717345,0.46139507814124364,1.30615370106392,0.9775341992096174,0.2863222401162425,0.7011157886634692
0.0555,1.743840130844022,1.0,3019.173656638042,0.4644162193011125,1.3058161793670522,0.9777983651666643,0.2862942854954489,0.7017744401700861
0.056,1.7431745446346512,1.0,3023.401697493469,0.467420400563756,1.3054790636559153,0.9780561539413379,0.28626633087465536,0.7024315741961265
0.0565,1.7425089584252802,1.0,3027.586338444674,0.47040770770739,1.305142348041462,0.9783077724289139,0.2862383762538618,0.7030872048206102
0.057,1.7418433722159095,1.0,3031.73198104878,0.4733782805809474,1.304805993732523,0.9785534220251967,0.2862104216330682,0.7037414100278354
0.0575,1.7411777860065385,1.0,3035.839496747231,0.47633220801626724,1.3044699924774639,0.9787932931283935,0.2861824670122746,0.7043942081657306
0.058,1.7405121997971678,1.0,3039.909760415057,0.47926957884518867,1.3041343360246502,0.9790275685064842,0.28615451239148104,0.7050456175090725
0.0585,1.7398466135877968,1.0,3043.94365029732,0.4821904818995506,1.3037990161224475,0.9792564236636973,0.28612655777068746,0.7056956562596711
0.059000000000000004,1.739181027378426,1.0,3047.9420479466758,0.4850950060111922,1.303464024519221,0.979480027186585,0.2860986031498939,0.7063443425465485
0.059500000000000004,1.738515441169055,1.0,3051.905838162494,0.48798324001195253,1.3031293529633363,0.9796985410709789,0.2860706485291003,0.7069916944261132
0.06,1.7378498549596844,1.0,3055.835908931687,0.4908552727336705,1.3027949932031588,0.9799121210310306,0.2860426939083067,0.7076377298823311
0.0605,1.7371842687503134,1.0,3059.733151370837,0.4937111930081854,1.302460936987054,0.9801209167914433,0.28601473928751314,0.7082824668268923
0.061,1.7365186825409427,1.0,3063.5984596698468,0.49655108966733613,1.3021271760633872,0.980325072363936,0.28598678466671956,0.7089259230993719
0.0615,1.7358530963315717,1.0,3067.432731037363,0.4993750515429618,1.3017937021805244,0.9805247263089056,0.28595883004592604,0.7095681164673883
0.062,1.735187510122201,1.0,3071.236865647126,0.5021831674669014,1.3014605070868304,0.9807200119831817,0.28593087542513246,0.7102090646267574
0.0625,1.73452192391283,1.0,3075.011766586698,0.5049755262709941,1.301127582530671,0.9809110577747173,0.2859029208043389,0.710848785201639
0.063,1.7338563377034593,1.0,3078.758339806899,0.5077522167870789,1.3007949202604114,0.9810979873249942,0.2858749661835453,0.7114872957446834
0.0635,1.7331907514940883,1.0,3082.477494073068,0.5105133278469949,1.3004625120244175,0.9812809197398753,0.2858470115627517,0.7121246137371707
0.064,1.7325251652847176,1.0,3086.170140917899,0.513258948282581,1.3001303495710546,0.9814599697895813,0.28581905694195814,0.7127607565891474
0.0645,1.7318595790753466,1.0,3089.837194595862,0.5159891669256764,1.2997984246486878,0.9816352480984346,0.28579110232116456,0.7133957416395571
0.065,1.7311939928659759,1.0,3093.479572038748,0.5187040726081201,1.299466729005683,0.9818068613249576,0.285763147700371,0.7140295861563675
0.0655,1.730528406656605,1.0,3097.0981928130327,0.5214037541617513,1.2991352543904053,0.9819749123328887,0.2857351930795774,0.7146623073366949
0.066,1.7298628204472342,1.0,3100.6930781123024,0.5240882754640617,1.2988040002348533,0.982139499051619,0.2857072384587838,0.7152939076646996
0.0665,1.7291972342378632,1.0,3104.2648980139634,0.526757728465276,1.298472960444467,0.982300717600199,0.28567928383799024,0.7159244001387617
0.067,1.7285316480284925,1.0,3107.815201398292,0.5294122270668091,1.2981421214553364,0.9824586618264732,0.2856513292171967,0.7165538119072432
0.0675,1.7278660618191215,1.0,3111.3443994695517,0.5320518507150699,1.2978114794226414,0.982613420546367,0.2856233745964031,0.7171821515436787
0.068,1.7272004756097508,1.0,3114.8529047185434,0.5346766788564674,1.2974810305015616,0.9827650795431653,0.28559541997560955,0.7178094275884215
0.0685,1.7265348894003798,1.0,3118.341130905177,0.5372867909374104,1.297150770847277,0.9829137216922099,0.2855674653548159,0.7184356485486898
0.069,1.725869303191009,1.0,3121.809493043222,0.5398822664043079,1.2968206966149671,0.9830594270796367,0.2855395107340224,0.719060822898615
0.0695,1.725203716981638,1.0,3125.2584073833236,0.5424631847035689,1.296490803959812,0.9832022731154814,0.2855115561132288,0.7196849590792869
0.07,1.7245381307722674,1.0,3128.6882913980576,0.5450296252816023,1.296161089036991,0.9833423346414559,0.28548360149243523,0.7203080654987994
0.07050000000000001,1.7238725445628964,1.0,3132.099563766306,0.5475816675848169,1.295831548001684,0.9834796840336774,0.28545564687164166,0.7209301505322938
