Time [s],Phi [rad],STIM [ ],Fsee [N],Gamma [ ],Lcerel [ ],q [ ],Lmtc [m],fisomrel [ ]
0.0,1.8,1.0,17.967333253145163,1.0000856799389838e-05,1.3793397266043301,0.0050000266563205165,0.288653,0.5411395785068625
0.0005,1.79999375,1.0,18.27664927021867,0.005619154068696136,1.3793023983283779,0.012940516540608512,0.2886527375,0.541229880811035
0.001,1.799975,1.0,21.61825954489481,0.011196844365996547,1.3789383145755383,0.03560858162970793,0.28865195,0.5421101841411047
0.0015,1.79994375,1.0,31.069022653803316,0.016743248231635397,1.378046221905734,0.07060171221571374,0.2886506375,0.5442635653788286
0.002,1.7999,1.0,53.58191158529625,0.02225854115689732,1.376368162583947,0.11471784503830841,0.2886488,0.5483004024017335
0.0025,1.79984375,1.0,97.11809009834113,0.02774289764897828,1.3739352081009726,0.1645746830688311,0.28864643749999996,0.5541213652502626
0.003,1.7997750000000001,1.0,160.95718221362435,0.03319649123870488,1.3712143806111143,0.217280236768085,0.28864354999999997,0.560586363608121
0.0035,1.79969375,1.0,237.68228138182027,0.03861949448012414,1.3685847665809314,0.27061267165897607,0.2886401375,0.5667897635346949
0.004,1.7996,1.0,321.4657127106089,0.04401207896128621,1.3661561204352088,0.32291559121928876,0.2886362,0.5724798962622348
0.0045000000000000005,1.7994937500000001,1.0,409.26671762788936,0.04937441530942869,1.3639228384188293,0.373034307729105,0.2886317375,0.5776791061134651
0.005,1.799375,1.0,499.4124906535193,0.05470667318206609,1.361858363883918,0.4202472741042775,0.28862675,0.5824570296149684
0.0055,1.79924375,1.0,590.7894328455747,0.06000902131446316,1.3599388542686897,0.46417352598194933,0.2886212375,0.586875067562956
0.006,1.7991000000000001,1.0,682.5171523456696,0.06528162746277187,1.3581464321246193,0.5046798045358815,0.2886152,0.5909793786875175
0.006500000000000001,1.79894375,1.0,773.8804148625146,0.0705246584596502,1.356467268007818,0.5418006163342841,0.2886086375,0.5948057616040894
0.007,1.798775,1.0,864.2849367539884,0.07573828019786041,1.3548904091215368,0.5756766515684574,0.28860155,0.5983826451324881
0.0075,1.79859375,1.0,953.2424505260578,0.08092265764000105,1.3534067909558625,0.606509798690741,0.2885939375,0.6017335462572683
0.008,1.7984,1.0,1040.3443104713585,0.08607795443167542,1.3520088545889788,0.6345320697960093,0.2885858,0.6048780812849337
0.0085,1.79819375,1.0,1125.314510544546,0.0912043346542326,1.3506892374918216,0.659984334000394,0.2885771375,0.607835008633306
0.009000000000000001,1.797975,1.0,1207.8996119828257,0.09630196022775693,1.3494420428198008,0.6831041099963543,0.28856795,0.610619447416851
0.0095,1.79774375,1.0,1287.890939906296,0.10137099170550426,1.3482621405535318,0.704117408222391,0.2885582375,0.6132445199523983
0.01,1.7975,1.0,1365.165851512276,0.10641158964073044,1.3471444006736295,0.7232341643466923,0.288548,0.6157231029366919
0.0105,1.79724375,1.0,1439.6593725651508,0.11142391395340677,1.3460839479722861,0.7406465962972159,0.2885372375,0.6180672862114667
0.011,1.796975,1.0,1511.3222864252598,0.11640812339434714,1.3450765527606052,0.75652906918525,0.28852595000000003,0.6202875406086009
0.0115,1.79669375,1.0,1580.1203962274994,0.12136437514409835,1.3441184904205645,0.7710385598167485,0.2885141375,0.6223930629804587
0.012,1.7964,1.0,1646.0552560487868,0.1262928257966218,1.343206185496304,0.7843155498566639,0.28850180000000003,0.6243925836641473
0.0125,1.79609375,1.0,1709.1727019509572,0.1311936323667063,1.342336049413219,0.796485288273922,0.2884889375,0.6262947361994581
0.013000000000000001,1.7957750000000001,1.0,1769.5062001355327,0.13606694964698954,1.341505076752004,0.8076594545116412,0.28847555,0.628106768343775
0.0135,1.79544375,1.0,1827.0916923149707,0.1409129310364003,1.3407105932569339,0.8179374294526264,0.2884616375,0.6298351136559572
0.014,1.7951000000000001,1.0,1881.9927387633088,0.14573172993386746,1.3399499246722841,0.8274074969933221,0.2884472,0.6314861247299374
0.0145,1.79474375,1.0,1934.2803196088962,0.1505234988353275,1.3392205887206832,0.8361481603162081,0.2884322375,0.633065663864774
0.015,1.794375,1.0,1984.0512150489392,0.15528839070855416,1.338520062926754,0.8442291872884662,0.28841675,0.6345796141456204
0.0155,1.79399375,1.0,2031.3722783937187,0.16002655548649314,1.3378463534094853,0.8517128165383075,0.2884007375,0.6360326578058455
0.016,1.7936,1.0,2076.313945331483,0.16473814239129153,1.3371975975073602,0.858654511957587,0.2883842,0.6374291461583683
0.0165,1.7931937500000001,1.0,2118.9609190776127,0.1694233006450964,1.3365719325588619,0.8651037240134662,0.2883671375,0.6387733871606918
0.017,1.792775,1.0,2159.3976761814415,0.17408217842972057,1.3359676315019924,0.8711046411611728,0.28834955,0.6400693577262164
0.0175,1.7923437500000001,1.0,2197.7246890510487,0.1787149247271235,1.3353829209718515,0.8766967601904261,0.2883314375,0.6413210979604235
0.018000000000000002,1.7919,1.0,2234.017053679935,0.1833216853132765,1.3348163888044984,0.8819155452110795,0.2883128,0.6425318424359534
0.0185,1.79144375,1.0,2268.3484699116284,0.18790260510594248,1.3342667216493136,0.8867928266458086,0.2882936375,0.6437045880032536
0.019,1.790975,1.0,2300.80014518122,0.19245782902288436,1.3337326061556782,0.8913571964883861,0.28827395,0.6448423073614125
0.0195,1.79049375,1.0,2331.454040300595,0.19698750116289765,1.3332127891420655,0.8956343938393393,0.2882537375,0.6459478225515478
0.02,1.79,1.0,2360.3962087193063,0.20149176603106725,1.3327060372595514,0.8996476196876609,0.288233,0.6470238927648151
0.0205,1.78949375,1.0,2387.7053829854353,0.20597076681565726,1.3322112421284658,0.9034178442177153,0.2882117375,0.6480729929957332
0.021,1.788975,1.0,2413.444086913425,0.2104246438123742,1.3317274981245095,0.9069640690378626,0.28818995000000003,0.6490971523853748
0.021500000000000002,1.78844375,1.0,2437.6787710318577,0.2148535373169245,1.3312538996233838,0.9103034998294626,0.2881676375,0.6500983864295318
0.022,1.7879,1.0,2460.479486429829,0.2192575876250146,1.3307895410007895,0.9134517408454902,0.2881448,0.6510786975908387
0.0225,1.78734375,1.0,2481.9142096830915,0.22363693398677223,1.3303335677928112,0.9164229757086324,0.28812143749999997,0.6520399680780364
0.023,1.786775,1.0,2502.0519216464386,0.22799171596301887,1.3298851436835009,0.9192301113783007,0.28809755,0.6529840305386352
0.0235,1.78619375,1.0,2520.9625841030747,0.2323220731796763,1.3294434479472232,0.921884910268503,0.28807313749999996,0.6539126741219554
0.024,1.7856,1.0,2538.6963952268547,0.2366281408311378,1.3290078684599387,0.9243981405429803,0.2880482,0.6548272400875246
0.0245,1.78499375,1.0,2555.3054149955583,0.24091005411179672,1.3285777930976084,0.9267796408676845,0.2880227375,0.6557290621272489
0.025,1.784375,1.0,2570.8434097223744,0.24516794821604637,1.3281526097361926,0.9290384133947309,0.28799675,0.6566194665922387
0.025500000000000002,1.78374375,1.0,2585.3657048948967,0.24940195833828008,1.3277317062516523,0.9311827063139656,0.2879702375,0.6574997726957293
0.026000000000000002,1.7831000000000001,1.0,2598.922172707422,0.25361221799980777,1.3273145345487818,0.9332200969387588,0.2879432,0.6583711590341657
0.0265,1.78244375,1.0,2611.5646601453705,0.25779886190179374,1.32690053954565,0.9351575458276749,0.2879156375,0.6592348126427392
0.027,1.781775,1.0,2623.3481079628305,0.26196202479010144,1.3264891478516745,0.9370014529269987,0.28788755,0.6600919525991309
0.0275,1.7810937500000001,1.0,2634.3094240374726,0.26610183632610285,1.32607996245723,0.9387577373634268,0.2878589375,0.6609434250124092
0.028,1.7804,1.0,2644.4862979086324,0.27021842617116987,1.3256725863526913,0.9404318571546701,0.2878298,0.6617900717421838
0.0285,1.77969375,1.0,2653.9171334137427,0.2743119239866745,1.3252666225284326,0.9420288511808739,0.2878001375,0.6626327304494455
0.029,1.778975,1.0,2662.6409848192966,0.27838245943398876,1.324861673974829,0.9435533768296026,0.28776995,0.663472234637347
0.029500000000000002,1.7782437500000001,1.0,2670.6974964464475,0.2824301621744846,1.3244573436822547,0.9450097438074493,0.2877392375,0.6643094136819365
0.03,1.7775,1.0,2678.1180818724474,0.2864551592345189,1.324053315062273,0.9464019543864711,0.287708,0.665144926649079
0.0305,1.77674375,1.0,2684.946885293548,0.29045758112444126,1.3236491588414205,0.9477337065435187,0.2876762375,0.6659796619299775
0.031,1.775975,1.0,2691.216816052538,0.29443755468061866,1.3232445527264276,0.9490084459311517,0.28764395,0.6668142829486345
0.0315,1.7751937500000001,1.0,2696.9520792355756,0.29839520402919173,1.3228392572310228,0.9502293841120955,0.2876111375,0.6676492793065099
0.032,1.7744,1.0,2702.177160124649,0.30233065329630104,1.3224330328689338,0.951399508510424,0.2875778,0.6684851381216234
0.0325,1.77359375,1.0,2706.9167985191593,0.3062440266080873,1.3220256401538892,0.9525216007997135,0.2875439375,0.6693223440161922
0.033,1.772775,1.0,2711.1959643294426,0.31013544809069116,1.3216168395996168,0.9535982535711297,0.28750955,0.6701613791006197
0.0335,1.7719461312547684,1.0,2715.1578332572412,0.31400504187025313,1.321206391719845,0.9546318854607312,0.28747473751270025,0.6710027229538184
0.034,1.7711163469121745,1.0,2719.2792172966624,0.31785292601839127,1.3207941040117732,0.9556247585554891,0.28743988657031133,0.6718467564773075
0.0345,1.7702865625695805,1.0,2723.5554265761057,0.3216792309595792,1.3203804358879616,0.956579061828808,0.2874050356279224,0.6726925264676011
0.035,1.7694567782269865,1.0,2727.968982349145,0.32548407660969847,1.3199655495176184,0.9574968069923177,0.28737018468553344,0.6735396910774507
0.035500000000000004,1.7686269938843926,1.0,2732.506722094867,0.32926758109590804,1.319549567432316,0.9583798723004627,0.28733533374314446,0.6743879909241699
0.036000000000000004,1.7677972095417986,1.0,2737.1554470909587,0.3330298625453665,1.3191326121636278,0.959230017279364,0.28730048280075554,0.6752371679005725
0.0365,1.7669674251992047,1.0,2741.9019196033705,0.3367710390852327,1.318714806243126,0.9600488915879767,0.2872656318583666,0.676086965183057
0.037,1.7661376408566107,1.0,2746.7328604088398,0.3404912288426654,1.3182962722023837,0.9608380431227833,0.28723078091597765,0.6769371272387312
0.0375,1.7653078565140168,1.0,2751.634946650884,0.34419054994482345,1.3178771325729732,0.961598925438269,0.28719592997358867,0.6777873998315829
0.038,1.7644780721714228,1.0,2756.59481002739,0.3478691205188655,1.3174575098864678,0.962332904547837,0.28716107903119975,0.6786375300276888
0.0385,1.7636482878288289,1.0,2761.601958796222,0.3515270555908177,1.317037500255971,0.9630412620444906,0.28712622808881083,0.6794873196155775
0.039,1.762818503486235,1.0,2766.6475242159595,0.3551644716348044,1.316617184803788,0.9637252030875733,0.28709137714642186,0.6803366016802423
0.0395,1.761988719143641,1.0,2771.718862762484,0.3587814899403321,1.316196678412228,0.9643858668128812,0.28705652620403294,0.6811851420952615
0.04,1.761158934801047,1.0,2776.8113909989165,0.36237822223649346,1.3157760229103344,0.9650243185345222,0.28702167526164396,0.6820328550858801
0.0405,1.760329150458453,1.0,2781.9205086355,0.3659547802523812,1.3153552601271499,0.9656415631563618,0.28698682431925504,0.682879655325694
0.041,1.759499366115859,1.0,2787.04159841025,0.36951127571708814,1.3149344318917173,0.9662385492357135,0.28695197337686607,0.6837254579369938
0.0415,1.7586695817732652,1.0,2792.17002600915,0.3730478203597069,1.3145135800330796,0.9668161727329426,0.28691712243447715,0.6845701784909938
0.042,1.7578397974306712,1.0,2797.3011400246864,0.3765645259093303,1.3140927463802796,0.9673752804742674,0.28688227149208817,0.6854137330079507
0.0425,1.7570100130880772,1.0,2802.4302719535303,0.38006150409505113,1.31367197276236,0.967916673352419,0.28684742054969925,0.6862560379571725
0.043000000000000003,1.7561802287454833,1.0,2807.5527362324897,0.383538866645962,1.313251301008364,0.9684411092874804,0.2868125696073103,0.6870970102569113
0.043500000000000004,1.7553504444028893,1.0,2812.6649122709296,0.38699672165471377,1.3128307632592384,0.9689493046299903,0.28677771866492135,0.6879365866028135
0.044,1.7545206600602954,1.0,2817.766543116642,0.390435169741163,1.3124103614485327,0.9694419346305301,0.28674286772253244,0.6887747642206541
0.0445,1.7536908757177014,1.0,2822.8490857790166,0.39385434226294674,1.3119901715649869,0.9699196498279177,0.28670801678014346,0.6896113930065372
0.045,1.7528610913751075,1.0,2827.911660922935,0.39725434349149014,1.3115702008890098,0.9703830580047298,0.2866731658377545,0.690446460197647
0.0455,1.7520313070325135,1.0,2832.9533866056727,0.4006352776982182,1.3111504567010108,0.9708327360765295,0.28663831489536556,0.6912799531082665
0.046,1.7512015226899196,1.0,2837.9733783126067,0.40399724915455615,1.3107309462813987,0.9712692319585997,0.28660346395297664,0.6921118591296763
0.0465,1.7503717383473256,1.0,2842.97074899456,0.407340362131929,1.3103116769105827,0.9716930663025033,0.28656861301058767,0.6929421657300452
0.047,1.7495419540047317,1.0,2847.944609106327,0.4106647209017619,1.3098926558689716,0.9721047341127035,0.2865337620681987,0.6937708604543211
0.0475,1.7487121696621377,1.0,2852.894066645834,0.41397042973548004,1.309473890436975,0.9725047062525942,0.2864989111258098,0.6945979309241175
0.048,1.7478823853195438,1.0,2857.8182271950145,0.4172575929045084,1.3090553878950013,0.9728934308484692,0.28646406018342085,0.6954233648375966
0.0485,1.7470526009769498,1.0,2862.7161939614525,0.42052631468027224,1.30863715552346,0.9732713345992463,0.2864292092410319,0.6962471499693483
0.049,1.7462228166343559,1.0,2867.5870678217443,0.4237766993341966,1.3082192006027598,0.9736388239990775,0.28639435829864296,0.6970692741702671
0.0495,1.745393032291762,1.0,2872.4299473651554,0.42700885113770654,1.3078015304133102,0.9739962864793991,0.286359507356254,0.6978897253674239
0.05,1.744563247949168,1.0,2877.2439289398703,0.4302228743622273,1.3073841522355198,0.9743440914764082,0.28632465641386506,0.6987084915639374
0.0505,1.743733463606574,1.0,2882.0291313823163,0.43341885554387904,1.3069670642856257,0.9746825888211638,0.2862898054714761,0.6995255785837518
0.051000000000000004,1.74290367926398,1.0,2886.785501556591,0.43659690241611576,1.3065502663107451,0.9750121149274638,0.28625495452908717,0.7003409892372807
0.051500000000000004,1.742073894921386,1.0,2891.5119375951967,0.4397571392088487,1.3061337673254347,0.9753329933996923,0.2862201035866982,0.7011547082370427
0.052000000000000005,1.7412441105787921,1.0,2896.2087093357304,0.44289966135857795,1.3057175642158176,0.9756455294463112,0.2861852526443093,0.7019667440368221
0.0525,1.7404143262361982,1.0,2900.8760883469386,0.44602456430180365,1.3053016538680169,0.9759500147816148,0.2861504017019203,0.7027771050556557
0.053,1.7395845418936042,1.0,2905.5143479088433,0.44913194347502594,1.3048860331681558,0.9762467283391303,0.2861155507595314,0.7035857996778898
0.0535,1.7387547575510103,1.0,2910.123762992329,0.45222189431474497,1.3044706990023571,0.9765359369413791,0.28608069981714246,0.7043928362532399
0.054,1.7379249732084163,1.0,2914.704610239254,0.4552945122574608,1.3040556482567442,0.976817895929024,0.2860458488747535,0.7051982230968463
0.0545,1.7370951888658224,1.0,2919.257167943013,0.4583498927396736,1.3036408778174404,0.9770928497521837,0.2860109979323645,0.706001968489331
0.055,1.7362654045232284,1.0,2923.7817160290447,0.4613881311978834,1.3032263845705685,0.9773610325264939,0.2859761469899756,0.706804080676855
0.0555,1.7354356201806345,1.0,2928.2785360353128,0.4644093230685904,1.3028121654022515,0.9776226685562938,0.28594129604758667,0.7076045678711718
0.056,1.7346058358380405,1.0,2932.747911093313,0.46741356378829463,1.3023982171986128,0.977877972827136,0.2859064451051977,0.7084034382496831
0.0565,1.7337760514954466,1.0,2937.1901259098026,0.47040094879349625,1.3019845368457752,0.978127151469662,0.2858715941628088,0.7092006999554932
0.057,1.7329462671528526,1.0,2941.6054667473804,0.4733715735206955,1.3015711212298622,0.978370402196725,0.2858367432204198,0.709996361097461
0.0575,1.7321164828102587,1.0,2945.994221406854,0.4763255334063923,1.3011579672369964,0.9786079147155091,0.2858018922780309,0.7107904297502559
0.058,1.7312866984676647,1.0,2950.356679208356,0.4792629238870868,1.3007450717533013,0.9788398711162659,0.2857670413356419,0.7115829139544056
0.0585,1.7304569141250707,1.0,2954.693130974203,0.4821838403992792,1.3003324316649,0.979066446239174,0.285732190393253,0.7123738217163524
0.059000000000000004,1.7296271297824768,1.0,2959.0036202768206,0.48508835000200856,1.2999200460293605,0.9792878057753222,0.285697339450864,0.7131631568550583
0.059500000000000004,1.7287973454398828,1.0,2963.288589546976,0.48797653061315355,1.299507910431247,0.9795041096894622,0.2856624885084751,0.7139509298122071
0.06,1.7279675610972889,1.0,2967.549146478012,0.49084853997221783,1.2990960146721746,0.9797155178958544,0.2856276375660861,0.7147371620128262
0.0605,1.727137776754695,1.0,2971.785637550709,0.4937044631184776,1.2986843552175484,0.9799221786041491,0.2855927866236972,0.715521862079966
0.061,1.726307992412101,1.0,2975.9984107779906,0.4965443850912089,1.298272928532774,0.980124234381006,0.2855579356813083,0.7163050385984778
0.0615,1.725478208069507,1.0,2980.187815686781,0.4993683909296877,1.297861731083257,0.980321822408071,0.2855230847389193,0.7170867001150686
0.062,1.724648423726913,1.0,2984.354203300284,0.5021765656731902,1.2974507593344022,0.9805150747262672,0.2854882337965303,0.7178668551383531
0.0625,1.7238186393843191,1.0,2988.49792611957,0.5049689943609925,1.2970400097516155,0.9807041184672307,0.2854533828541414,0.7186455121389037
0.063,1.7229888550417254,1.0,2992.619338106267,0.5077457620323705,1.2966294788003019,0.9808890760726517,0.2854185319117525,0.7194226795493025
0.0635,1.7221590706991314,1.0,2996.7187946652234,0.5105069537266006,1.2962191629458668,0.9810700655022428,0.2853836809693635,0.7201983657641902
0.064,1.7213292863565375,1.0,3000.796652627852,0.5132526544829585,1.2958090586537159,0.9812472004310027,0.2853488300269746,0.7209725791403141
0.0645,1.7204995020139435,1.0,3004.853270234831,0.5159829493407205,1.295399162389254,0.9814205904363997,0.2853139790845856,0.7217453279965789
0.065,1.7196697176713496,1.0,3008.8890071201786,0.5186979233391626,1.294989470617887,0.9815903411760615,0.2852791281421967,0.7225166206140905
0.0655,1.7188399333287556,1.0,3012.9042242947758,0.5213976615175611,1.29457997980502,0.9817565545565178,0.2852442771998077,0.7232864652362055
0.066,1.7180101489861617,1.0,3016.89928413069,0.5240822489151916,1.2941706864160583,0.9819193288935066,0.2852094262574188,0.7240548700685749
0.0665,1.7171803646435677,1.0,3020.874550345253,0.5267517705713307,1.2937615869164072,0.9820787590643235,0.2851745753150298,0.7248218432791905
0.067,1.7163505803009738,1.0,3024.83038798621,0.5294063115252542,1.2933526777714723,0.9822349366526635,0.2851397243726409,0.7255873929984271
0.0675,1.7155207959583798,1.0,3028.7671634161484,0.5320459568162381,1.2929439554466589,0.9823879500863748,0.2851048734302519,0.7263515273190879
0.068,1.7146910116157859,1.0,3032.6852442981294,0.5346707914835588,1.2925354164073724,0.9825378847685191,0.285070022487863,0.7271142542964454
0.0685,1.713861227273192,1.0,3036.5849995809826,0.537280900566492,1.2921270571190178,0.9826848232021078,0.2850351715454741,0.7278755819482849
0.069,1.713031442930598,1.0,3040.4667994848355,0.539876369104314,1.291718874047001,0.982828845108861,0.2850003206030851,0.7286355182549427
0.0695,1.712201658588004,1.0,3044.331015487928,0.542457282136301,1.291310863656727,0.9829700275423153,0.28496546966069614,0.729394071159349
0.07,1.71137187424541,1.0,3048.1780203121816,0.5450237247017288,1.2909030224136013,0.9831084449955861,0.2849306187183072,0.7301512485670656
0.07050000000000001,1.710542089902816,1.0,3052.007692641016,0.5475757437630833,1.2904953510403436,0.9832441674113043,0.2848957677759183,0.7309070504590163
0.07100000000000001,1.7097123055602221,1.0,3055.8204743657247,0.5501134322352058,1.2900878454212115,0.9833772649860842,0.2848609168335293,0.7316614857744876
