Time [s],Phi [rad],STIM [ ],Fsee [N],Gamma [ ],Lcerel [ ],q [ ],Lmtc [m],fisomrel [ ]
0.0,1.8,1.0,18.69856826082372,0.0008717363146854346,1.3792586212059537,0.005195438216812218,0.288653,0.5413357724520376
0.0005,1.79999375,1.0,19.26606066579831,0.00647605587217496,1.379193942176901,0.015504903968832712,0.2886527375,0.541492200944965
0.001,1.799975,1.0,23.248383712915615,0.012048939628108789,1.3787748464922935,0.040239298671835594,0.28865195,0.542505151992154
0.0015,1.79994375,1.0,34.1452256211668,0.01759056391278481,1.3777903238362095,0.07684797879172676,0.2886506375,0.5448803291317984
0.002,1.7999,1.0,59.496863543038906,0.023101104066643965,1.3759944723575828,0.12205596533885217,0.2886488,0.5491969284328538
0.0025,1.79984375,1.0,106.46467205342564,0.028580734448024562,1.3734951609557737,0.17252016351877378,0.28864643749999996,0.5551701681843773
0.003,1.7997750000000001,1.0,172.74617613512106,0.03402962843529256,1.3707809030557832,0.2254524706053558,0.28864354999999997,0.5616119959475063
0.0035,1.79969375,1.0,250.80332997763477,0.039447958434499594,1.3681860317172085,0.27872338960765275,0.2886401375,0.5677265498990265
0.004,1.7996,1.0,335.30599759903185,0.04483589588421143,1.3657934064521817,0.3307566071583957,0.2886362,0.5733264789416741
0.0045000000000000005,1.7994937500000001,1.0,423.5207234956742,0.0501936112749805,1.3635911058352552,0.3804688709364237,0.2886317375,0.5784486854511998
0.005,1.799375,1.0,513.8937717123472,0.05552127409140417,1.3615528365408671,0.42719711383957787,0.28862675,0.5831618188432814
0.0055,1.79924375,1.0,605.3657855500435,0.06081905299517322,1.3596558027192256,0.4706040544165441,0.2886212375,0.5875245649565992
0.006,1.7991000000000001,1.0,697.0598661272152,0.06608711546114746,1.3578834774536341,0.5105871843640067,0.2886152,0.5915797722120351
0.006500000000000001,1.79894375,1.0,788.3059055652719,0.07132562834346282,1.3562221522763747,0.5472005412313041,0.2886086375,0.5953628132257249
0.007,1.798775,1.0,878.5105225749234,0.07653475721846376,1.3546615580537742,0.5805969235323475,0.28860155,0.5989004440014967
0.0075,1.79859375,1.0,967.2147457838736,0.08171466710832215,1.3531926643229037,0.6109844118084489,0.2885939375,0.602216013611252
0.008,1.7984,1.0,1054.025196685693,0.08686552175180444,1.3518080876164476,0.6385975797752839,0.2885858,0.6053286654580929
0.0085,1.79819375,1.0,1138.631557049062,0.09198748400341403,1.3505012715642255,0.6636778113806032,0.2885771375,0.6082552890046591
0.009000000000000001,1.797975,1.0,1220.8263590494166,0.0970807164401065,1.349265884196928,0.6864609311920905,0.28856795,0.6110119328320729
0.0095,1.79774375,1.0,1300.4219460540967,0.10214537974696425,1.3480967231482903,0.7071706574631259,0.2885582375,0.6136118346091279
0.01,1.7975,1.0,1377.2906800972655,0.10718163408532622,1.3469889082731674,0.7260144083334601,0.288548,0.6160672753041946
0.0105,1.79724375,1.0,1451.3672900030365,0.112189639125698,1.3459377111070228,0.7431816896237591,0.2885372375,0.6183899873534249
0.011,1.796975,1.0,1522.6070917554455,0.11716955350442318,1.3449389603546267,0.7588441439429241,0.28852595000000003,0.6205902858082567
0.0115,1.79669375,1.0,1590.9794485236023,0.12212153421457718,1.3439889843939505,0.7731561596575045,0.2885141375,0.6226772277283752
0.012,1.7964,1.0,1656.4923113138168,0.12704573777068948,1.3430842145592348,0.7862558000608205,0.28850180000000003,0.6246595080365848
0.0125,1.79609375,1.0,1719.1914244159104,0.13194232098732056,1.3422211357380298,0.7982661390042267,0.2884889375,0.6265455811676435
0.013000000000000001,1.7957750000000001,1.0,1779.115545576295,0.13681143880047333,1.3413967422665203,0.8092968646193918,0.28847555,0.6283426797506605
0.0135,1.79544375,1.0,1836.3006865830257,0.141653244316053,1.3406084115383428,0.8194455964482191,0.2884616375,0.6300571109353538
0.014,1.7951000000000001,1.0,1890.809786264208,0.14646789063996488,1.3398535209471338,0.8287990519385421,0.2884472,0.6316951029969262
0.0145,1.79474375,1.0,1942.7211157459174,0.15125553021506563,1.3391295475017895,0.8374343134293545,0.2884322375,0.63326259569908
0.015,1.794375,1.0,1992.1223176665928,0.15601631567708785,1.3384341016606343,0.8454199529973115,0.28841675,0.6347651748506361
0.0155,1.79399375,1.0,2039.0870284576692,0.16075039750373826,1.3377651446787013,0.8528170947197318,0.2884007375,0.636207611735255
0.016,1.7936,1.0,2083.6841329808058,0.165457924474617,1.3371208552576095,0.8596802458660981,0.2883842,0.6375941611938072
0.0165,1.7931937500000001,1.0,2125.996414571407,0.17013904536932412,1.3364994120989773,0.8660580134436575,0.2883671375,0.638929035896182
0.017,1.792775,1.0,2166.1143666123708,0.174793908457473,1.3358990449332626,0.8719938177511429,0.28834955,0.6402162997861034
0.0175,1.7923437500000001,1.0,2204.1287228122396,0.17942266164818144,1.3353180966002185,0.8775265218532431,0.2883314375,0.6414597388150719
0.018000000000000002,1.7919,1.0,2240.130763301769,0.18402545255441674,1.3347550052376416,0.8826909602572681,0.2883128,0.6426629032791664
0.0185,1.79144375,1.0,2274.1878562567595,0.18860242535645408,1.3342085353855833,0.8875184644315688,0.2882936375,0.6438286188629572
0.019,1.790975,1.0,2306.374522975541,0.19315372423456872,1.333677451584095,0.8920371845397086,0.28827395,0.6449596884704845
0.0195,1.79049375,1.0,2336.7718448710075,0.19767949336903587,1.3331605183732287,0.8962724539053691,0.2882537375,0.6460588934862295
0.02,1.79,1.0,2365.4592851047955,0.20217987586767353,1.332656574687162,0.9002471249180941,0.288233,0.6471288371090711
0.0205,1.78949375,1.0,2392.5219281757177,0.20665501557346044,1.3321644563569115,0.9039818302068222,0.2882117375,0.6481721107561143
0.021,1.788975,1.0,2418.035899422851,0.21110505474507757,1.331683132512245,0.9074952567108979,0.28818995000000003,0.6491910063994406
0.021500000000000002,1.78844375,1.0,2442.0607861008148,0.2155301326512248,1.33121177093243,0.9108043701967796,0.2881676375,0.6501873813641693
0.022,1.7879,1.0,2464.6595630261945,0.21993038856060199,1.330749539396734,0.9139245606139931,0.2881448,0.651163080959338
0.0225,1.78734375,1.0,2485.8983122731265,0.2243059617419091,1.3302956056844246,0.9168698102524272,0.28812143749999997,0.6521199389845634
0.023,1.786775,1.0,2505.845958225609,0.228656991463846,1.3298491375747692,0.9196528419949324,0.28809755,0.6530597781925415
0.0235,1.78619375,1.0,2524.5591077020786,0.23298361374907978,1.329409443769373,0.9222852747686624,0.28807313749999996,0.6539841146541845
0.024,1.7856,1.0,2542.1186397952742,0.237285969971796,1.3289756246204194,0.9247776769712075,0.2880482,0.6548948928750157
0.0245,1.78499375,1.0,2558.570519872962,0.2415641942053836,1.3285471294059001,0.927139765946092,0.2880227375,0.6557933155584909
0.025,1.784375,1.0,2573.962191302582,0.24581842050127048,1.3281234083900886,0.9293804346527367,0.28799675,0.6566805767425739
0.025500000000000002,1.78374375,1.0,2588.342549071067,0.2500487829108844,1.3277039118372571,0.9315078327019422,0.2879702375,0.6575578640515282
0.026000000000000002,1.7831000000000001,1.0,2601.761816138784,0.25425541548565317,1.3272880900116792,0.9335294385806153,0.2879432,0.6584263588536574
0.0265,1.78244375,1.0,2614.2714264940932,0.2584384522770047,1.3268753931776271,0.935452123977756,0.2879156375,0.6592872363997822
0.027,1.781775,1.0,2625.9149643443843,0.2625980231851933,1.3264653545456875,0.9372822221552563,0.28788755,0.6601414932441281
0.0275,1.7810937500000001,1.0,2636.7505923325175,0.26673426571026615,1.3260573810435,0.9390255513792801,0.2878589375,0.6609903835046362
0.028,1.7804,1.0,2646.813470191756,0.27084730873442375,1.325651100641237,0.9406875070453894,0.2878298,0.6618346959539252
0.0285,1.77969375,1.0,2656.1384515178165,0.27493728072645457,1.3252461503712214,0.9422730722018932,0.2878001375,0.662675196647643
0.029,1.778975,1.0,2664.7610018808964,0.2790043101551468,1.3248421672657766,0.9437868533752767,0.28776995,0.6635126478509987
0.029500000000000002,1.7782437500000001,1.0,2672.7171441522773,0.2830485254892889,1.3244387883572257,0.9452331138765935,0.2877392375,0.6643478080653549
0.03,1.7775,1.0,2680.043406751892,0.2870700551976689,1.3240356506778916,0.9466158037639221,0.287708,0.6651814320464139
0.0305,1.77674375,1.0,2686.776182303195,0.2910690273367826,1.323632396688473,0.9479385874009564,0.2876762375,0.6660142596099323
0.031,1.775975,1.0,2692.941560400502,0.2950455622003851,1.3232287668681764,0.9492048771429771,0.28764395,0.6668468248369838
0.0315,1.7751937500000001,1.0,2698.588475797659,0.29899979875532634,1.3228242957888379,0.9504178248538918,0.2876111375,0.6676800830626305
0.032,1.7744,1.0,2703.739150348764,0.3029318589071041,1.3224187654296562,0.9515803880058961,0.2875778,0.6685144760804093
0.0325,1.77359375,1.0,2708.4160413264462,0.3068418645612162,1.3220119577698308,0.9526953207933971,0.2875439375,0.6693504434095685
0.033,1.772775,1.0,2712.6418197813173,0.3107299376231604,1.3216036547885601,0.9537651905676476,0.28750955,0.6701884222788286
0.0335,1.7719437500000002,1.0,2716.4393499552266,0.3145961999984345,1.3211936384650431,0.9547923927552857,0.2874746375,0.671028847607102
0.034,1.7711000000000001,1.0,2719.8316697484956,0.31844077359253636,1.3207816907784786,0.9557791644167309,0.2874392,0.6718721519811879
0.0345,1.7702437500000001,1.0,2722.8419722411018,0.3222637803109636,1.3203675937080657,0.9567275965828207,0.2874032375,0.672718765630433
0.035,1.7693750000000001,1.0,2725.4935882675754,0.32606534205921417,1.319951129233003,0.9576396454926217,0.28736675,0.6735691163983615
0.035500000000000004,1.76849375,1.0,2727.8099700461376,0.3298455807427858,1.3195320793324896,0.9585171428417827,0.2873297375,0.6744236297112742
0.036000000000000004,1.7676,1.0,2729.799412402101,0.33360460904425715,1.3191103647169944,0.9593618173132407,0.2872922,0.6752824462059529
0.0365,1.76669375,1.0,2731.496389727966,0.33734255715416517,1.3186856688830964,0.9601752700571795,0.2872541375,0.6761461876547624
0.037,1.765775,1.0,2732.919847796228,0.3410595437942351,1.3182578172461044,0.9609590155642945,0.28721555,0.6770151841892387
0.0375,1.76484375,1.0,2734.08268062614,0.3447556836954964,1.3178266907576415,0.9617144810263873,0.2871764375,0.6778896512820363
0.038,1.7639,1.0,2734.997832041219,0.34843109158897867,1.3173921703693303,0.9624430080594258,0.28713679999999997,0.6787698028961926
0.0385,1.76294375,1.0,2735.678289570011,0.3520858822057113,1.3169541370327944,0.9631458587701149,0.28709663750000003,0.6796558514598106
0.039,1.761975,1.0,2736.1370786608013,0.35572017027672387,1.3165124716996564,0.9638242213289252,0.28705595,0.6805480078398414
0.0395,1.7609937500000001,1.0,2736.3872572112205,0.35933407053304584,1.3160670553215394,0.9644792150946294,0.2870147375,0.6814464813149583
0.04,1.76,1.0,2736.4419104112844,0.36292769770570676,1.3156177688500665,0.9651118953308491,0.286973,0.6823514795475318
0.0405,1.7589937500000001,1.0,2736.3141459012145,0.36650116652573617,1.315164493236861,0.9657232575510819,0.2869307375,0.6832632085546959
0.041,1.757975,1.0,2736.0170892432952,0.3700545917241635,1.3147071094335452,0.9663142415250895,0.28688795,0.684181872678516
0.0415,1.75694375,1.0,2735.5555059278586,0.37358808045937225,1.314245574421887,0.9668857401502103,0.2868446375,0.685107522181946
0.042,1.7559,1.0,2734.9467244997236,0.37710175226716275,1.3137797312267843,0.9674385899344825,0.28680079999999997,0.6860404345384152
0.0425,1.75484375,1.0,2734.203695213547,0.38059572065103053,1.3133094626829138,0.9679735843433483,0.2867564375,0.686980805463469
0.043000000000000003,1.753775,1.0,2733.333496871829,0.3840700933848113,1.3128347049890075,0.9684914777289894,0.28671155,0.6879287224312522
0.043500000000000004,1.75269375,1.0,2732.3432130301453,0.3875249782423409,1.3123553943437976,0.9689929844368862,0.28666613750000003,0.6888842717612587
0.044,1.7516,1.0,2731.239930406393,0.39096048299745495,1.3118714669460163,0.9694787813226927,0.2866202,0.6898475385999359
0.0445,1.75049375,1.0,2730.0307373814626,0.3943767154239893,1.3113828589943954,0.9699495100867055,0.2865737375,0.6908186069020295
0.045,1.7493750000000001,1.0,2728.7227225892816,0.3977737832957796,1.310889506687667,0.9704057794408072,0.28652675,0.6917975594116681
0.0455,1.74824375,1.0,2727.322973597368,0.40115179438666176,1.3103913462245633,0.9708481671214347,0.2864792375,0.6927844776431864
0.046,1.7471,1.0,2725.8385756779335,0.40451085647047136,1.3098883138038164,0.9712772217608951,0.2864312,0.6937794418616945
0.0465,1.7459437500000001,1.0,2724.276610668972,0.4078510773210442,1.3093803456241582,0.9716934646282673,0.28638263750000004,0.6947825310633815
0.047,1.744775,1.0,2722.6404554930486,0.4111725565349827,1.3088674115621852,0.9720973926109484,0.28633355,0.6957937566163128
0.0475,1.74359375,1.0,2720.9385051193995,0.4144754057761796,1.3083494358031993,0.9724894766180113,0.28628393750000003,0.6968132188770686
0.048,1.7424,1.0,2719.178821605098,0.4177597361111274,1.3078263454934442,0.972870164870082,0.2862338,0.6978410109060929
0.0485,1.74119375,1.0,2717.364886874761,0.4210256483282428,1.307298109428098,0.9732398857036878,0.2861831375,0.6988771426719284
0.049,1.739975,1.0,2715.5001800106606,0.4242732432159424,1.3067646964023376,0.9735990471267046,0.28613195,0.6999216232180536
0.0495,1.73874375,1.0,2713.588176918141,0.4275026215626428,1.3062260752113408,0.9739480379653757,0.2860802375,0.7009744606526092
0.05,1.7375,1.0,2711.63235001261,0.4307138841567607,1.3056822146502856,0.9742872289365614,0.286028,0.7020356621380637
0.0505,1.73624375,1.0,2709.636167927833,0.43390713178671275,1.3051330835143489,0.9746169736507304,0.2859752375,0.7031052338808208
0.051000000000000004,1.734975,1.0,2707.6030952461088,0.4370824652409155,1.3045786505987087,0.9749376095507418,0.28592195,0.7041831811207581
0.051500000000000004,1.73369375,1.0,2705.5365922498354,0.4402399853077856,1.3040188846985425,0.9752494587910618,0.2858681375,0.7052695081207089
0.052000000000000005,1.7324,1.0,2703.4401146946066,0.44337979277573963,1.303453754609028,0.9755528290616882,0.2858138,0.7063642181558797
0.0525,1.73109375,1.0,2701.31711360435,0.4465019884331943,1.3028832291253423,0.975848014360706,0.28575893750000003,0.7074673135032061
0.053,1.729775,1.0,2699.17136849339,0.44960667301895046,1.3023072739951496,0.9761352955239037,0.28570355000000003,0.7085788013061912
0.0535,1.72844375,1.0,2697.010099455144,0.4526939442423951,1.3017258234534128,0.9764149388584149,0.2856476375,0.7096987482823979
0.054,1.7271,1.0,2694.8299207655477,0.4557638987324634,1.3011389086524494,0.9766872049441043,0.2855912,0.7108270334681497
0.0545,1.7257437500000001,1.0,2692.6340956868517,0.4588166330287439,1.3005464999476406,0.976952339496683,0.2855342375,0.7119636523253281
0.055,1.724375,1.0,2690.4258823729574,0.46185224367082534,1.299948567694368,0.9772105777747857,0.28547675,0.7131085992924016
0.0555,1.72299375,1.0,2688.196461084755,0.464870826819649,1.299345192823952,0.9774621516084661,0.2854187375,0.714261656674716
0.056,1.7216,1.0,2685.9740971569436,0.4678724785490896,1.2987361165931948,0.9777072632561429,0.2853602,0.71542325460082
0.0565,1.720197337405287,1.0,2683.914788437256,0.4708572933941653,1.2981215290775334,0.9779461324174755,0.28530128817102207,0.7165929652438565
0.057,1.7187943076287362,1.0,2682.4021701859665,0.4738253655221094,1.297501770079367,0.9781789783211737,0.2852423609204069,0.7177700790804958
0.0575,1.7173912778521854,1.0,2681.417328611229,0.4767767889617317,1.2968771746419947,0.9784060110067255,0.28518343366979176,0.718953900435544
0.058,1.7159882480756345,1.0,2680.917776442784,0.4797116574433661,1.2962481297760893,0.9786274349571881,0.28512450641917664,0.7201436403194177
0.0585,1.7145852182990837,1.0,2680.862681356129,0.48263006391011587,1.295615008738693,0.9788434456782008,0.2850655791685615,0.7213385414809389
0.059000000000000004,1.713182188522533,1.0,2681.2184776141185,0.48553210021515714,1.2949781192378205,0.9790542272561209,0.2850066519179464,0.7225379756725707
0.059500000000000004,1.711779158745982,1.0,2681.9516903859367,0.4884178582116656,1.294337768981486,0.9792599565804121,0.28494772466733126,0.7237413193590607
0.06,1.7103761289694313,1.0,2683.0397285540816,0.49128742629749644,1.2936941665032426,0.9794607980359324,0.28488879741671613,0.7249481395470841
0.0605,1.7089730991928804,1.0,2684.436264809873,0.4941409011450785,1.2930477383967216,0.9796569220638697,0.28482987016610095,0.7261575989176232
0.061,1.7075700694163294,1.0,2686.117849169696,0.4969783724132384,1.292398701731873,0.9798484809314725,0.2847709429154858,0.7273692577344234
0.0615,1.7061670396397786,1.0,2688.0655977264,0.4997999282962947,1.2917472319228518,0.9800356188513115,0.2847120156648707,0.7285827572237045
0.062,1.7047640098632277,1.0,2690.2606401528965,0.5026056569885661,1.291093504383812,0.9802184746406086,0.2846530884142556,0.7297977414080088
0.0625,1.703360980086677,1.0,2692.684110580165,0.5053956466843712,1.2904376945289087,0.9803971819683326,0.28459416116364045,0.7310138571324374
0.063,1.701957950310126,1.0,2695.3171391578026,0.5081699855780286,1.2897799777722956,0.980571869589246,0.28453523391302527,0.7322307540889281
0.0635,1.7005549205335753,1.0,2698.1408442964344,0.510928761863857,1.2891205295281276,0.9807426615656867,0.28447630666241014,0.7334480848385685
0.064,1.6991518907570244,1.0,2701.136325592543,0.5136720637361751,1.288459525210559,0.9809096774778,0.284417379411795,0.7346655048319479
0.0645,1.6977488609804734,1.0,2704.2919771819484,0.5163999751161581,1.2877970733905915,0.9810730289619688,0.2843584521611799,0.7358827951141917
0.065,1.6963458312039226,1.0,2707.5874862865244,0.519112587489139,1.2871333619818108,0.9812328281682159,0.28429952491056476,0.737099593230301
0.0655,1.6949428014273717,1.0,2711.0100815927103,0.521809987192982,1.2864685097645763,0.9813891795218961,0.2842405976599496,0.7383156661774963
0.066,1.693539771650821,1.0,2714.5511693900817,0.5244922577887101,1.285802597226836,0.9815421817254953,0.2841816704093345,0.7395308527372286
0.0665,1.69213674187427,1.0,2718.202140792132,0.5271594828373469,1.2851357048565395,0.9816919300508007,0.2841227431587193,0.7407449930356007
0.067,1.6907337120977193,1.0,2721.954369916982,0.5298117458999156,1.2844679131416343,0.9818385164845161,0.2840638159081042,0.7419579285486084
0.0675,1.6893306823211685,1.0,2725.7992122098985,0.5324491305374397,1.2837993025700698,0.9819820298667364,0.2840048886574891,0.7431695021069578
0.068,1.6879276525446176,1.0,2729.7280029106496,0.5350717203109424,1.283129953629794,0.9821225560226714,0.28394596140687395,0.7443795579004806
0.0685,1.6865246227680668,1.0,2733.7320556636505,0.5376795987814471,1.2824599468087556,0.982260177887992,0.2838870341562588,0.7455879414821267
0.069,1.6851215929915158,1.0,2737.802661272294,0.5402728495099771,1.2817893625949035,0.9823949756281541,0.28382810690564364,0.7467944997715497
0.0695,1.683718563214965,1.0,2741.9379819537635,0.5428515463382876,1.2811182189422783,0.9825270232254036,0.2837691796550285,0.747999193171943
0.07,1.6823155334384141,1.0,2746.124771542735,0.5454157831521973,1.2804466371534706,0.98265639825378,0.2837102524044134,0.7492017975424413
0.07050000000000001,1.6809125036618633,1.0,2750.3570866321734,0.5479656422949434,1.2797746720481402,0.9827831719909251,0.28365132515379826,0.7504022094399094
0.07100000000000001,1.6795094738853125,1.0,2754.631624543059,0.5505012020141197,1.2791023543935638,0.9829074120544428,0.28359239790318314,0.7516003691708212
0.07150000000000001,1.6781064441087616,1.0,2758.9450729157375,0.55302254055732,1.2784297149570187,0.9830291838816202,0.28353347065256795,0.7527962175668154
0.07200000000000001,1.6767034143322108,1.0,2763.29410948028,0.5555297361721385,1.2777567845057822,0.9831485508150988,0.2834745434019529,0.7539896959853586
0.0725,1.67530038455566,1.0,2767.6754018468814,0.5580228671061689,1.2770835938071314,0.9832655741846441,0.2834156161513377,0.7551807463103464
0.073,1.673897354779109,1.0,2772.085607318592,0.5605020116070053,1.2764101736283435,0.9833803133852114,0.2833566889007226,0.7563693109526435
0.0735,1.6724943250025581,1.0,2776.521372723691,0.5629672479222415,1.2757365547366957,0.983492825951508,0.28329776165010745,0.7575553328505651
