Time [s],Phi [rad],STIM [ ],Fsee [N],Gamma [ ],Lcerel [ ],q [ ],Lmtc [m],fisomrel [ ]
0.0,1.8,1.0,17.982873953402255,0.0001266080222039302,1.3793379859109764,0.005004187405641809,0.288653,0.5411437896843235
0.0005,1.79999375,1.0,18.33065237073415,0.005735107160148031,1.3792964040441735,0.013267410005631274,0.2886527375,0.5412443809922165
0.001,1.799975,1.0,21.75891949813073,0.011312147052291189,1.378923971484238,0.03621879711066351,0.28865195,0.5421448464113914
0.0015,1.79994375,1.0,31.395564984279716,0.016857904161070667,1.3780184742428971,0.07143533500579356,0.2886506375,0.5443304627904085
0.002,1.7999,1.0,54.27897546158477,0.022372553957131013,1.3763230865988674,0.11570405628152905,0.2886488,0.5484085921323385
0.0025,1.79984375,1.0,98.28414393282763,0.02785627092762292,1.3738791861604394,0.1656469411026038,0.28864643749999996,0.5542549558546159
0.003,1.7997750000000001,1.0,162.47070206281268,0.03330922858288053,1.3711578605066663,0.21838602599203216,0.28864354999999997,0.560720161301384
0.0035,1.79969375,1.0,239.39031304043215,0.03873159945687023,1.3685322487533143,0.27171222729286265,0.2886401375,0.5669132067245706
0.004,1.7996,1.0,323.28163953658657,0.04412355511771467,1.3661080911230292,0.3239800690598945,0.2886362,0.572592045963813
0.0045000000000000005,1.7994937500000001,1.0,411.14627936807,0.049485266172956524,1.3638787684248712,0.37404464330330756,0.2886317375,0.5777813835765273
0.005,1.799375,1.0,501.32968616459135,0.054816902261253284,1.3618176626217884,0.4211924279145671,0.28862675,0.5825509534914086
0.0055,1.79924375,1.0,592.7229071048292,0.0601186320935267,1.3599011096953835,0.46504853489219516,0.2886212375,0.5869617067603048
0.006,1.7991000000000001,1.0,684.4518872371002,0.06539062341133366,1.3581112886571558,0.505483900198954,0.2886152,0.5910596458428292
0.006500000000000001,1.79894375,1.0,775.8030525443734,0.07063304301580513,1.3564344676629976,0.5425358101148521,0.2886086375,0.5948803260899093
0.007,1.798775,1.0,866.1875362233606,0.07584605682491254,1.35485969292306,0.5763465958496344,0.28860155,0.5984521630693607
0.0075,1.79859375,1.0,955.1110512978468,0.0810298297079504,1.3533780640045228,0.6071191255774078,0.2885939375,0.6017982904349981
0.008,1.7984,1.0,1042.1882277712145,0.08618452569889713,1.3519817184559546,0.6350855871292551,0.2885858,0.6049389983188556
0.0085,1.79819375,1.0,1127.1082583259845,0.09131030809345403,1.3506638547324399,0.6604872075312567,0.2885771375,0.6078917760975329
0.009000000000000001,1.797975,1.0,1209.6189631367351,0.09640733870021619,1.3494185582787177,0.6835612955880419,0.28856795,0.6106717829413979
0.0095,1.79774375,1.0,1289.545741926815,0.10147577868308623,1.348240250116192,0.7045333057929658,0.2885582375,0.6132931383897066
0.01,1.7975,1.0,1366.7865892422267,0.10651578950196415,1.3471235759824345,0.723612714941637,0.288548,0.6157692059858644
0.0105,1.79724375,1.0,1441.2314581932012,0.11152752971936031,1.3460642774818192,0.7409916922857835,0.2885372375,0.6181107010554414
0.011,1.796975,1.0,1512.8246558133756,0.11651115759901347,1.3450582052279028,0.756844256214392,0.28852595000000003,0.6203279177452122
0.0115,1.79669375,1.0,1581.5584833897815,0.12146683107165437,1.3441013141561355,0.7713268695610144,0.2885141375,0.6224307576403716
0.012,1.7964,1.0,1647.4510032660537,0.12639470764162727,1.3431898519717502,0.7845796138404084,0.28850180000000003,0.6244283338763016
0.0125,1.79609375,1.0,1710.5172118669657,0.13129494289190885,1.3423206084982944,0.7967276071772362,0.2884889375,0.6263284470579001
0.013000000000000001,1.7957750000000001,1.0,1770.7845146353602,0.13616769132207243,1.3414906482702342,0.807882279245952,0.28847555,0.6281381924233902
0.0135,1.79544375,1.0,1828.3088035327644,0.1410131071590371,1.340697073615797,0.8181426743851659,0.2884616375,0.6298644898904088
0.014,1.7951000000000001,1.0,1883.1639299067026,0.1458313442877619,1.3399371061301648,0.8275968249329699,0.2884472,0.6315139154204371
0.0145,1.79474375,1.0,1935.4206556604652,0.15062255560904392,1.339208277629957,0.8363230549832285,0.2884322375,0.6330922971534376
0.015,1.794375,1.0,1985.1392338598164,0.1553868917085078,1.3385084648009513,0.8443911014340336,0.28841675,0.6346046532465023
0.0155,1.79399375,1.0,2032.3982869073366,0.16012450317177826,1.337835544328925,0.8518630013021312,0.2884007375,0.6360559470279943
0.016,1.7936,1.0,2077.2835867542553,0.16483553977161255,1.3371874933213506,0.8587940319817561,0.2883842,0.6374508748331129
0.0165,1.7931937500000001,1.0,2119.891762150686,0.16952015192143777,1.3365623307139238,0.8652334947160762,0.2883671375,0.6387939972717199
0.017,1.792775,1.0,2160.3069701980235,0.17417848812514128,1.3359583401334905,0.8712254841052496,0.28834955,0.6400892656082587
0.0175,1.7923437500000001,1.0,2198.5981747219585,0.17881069447486536,1.3353740736184874,0.876809499242528,0.2883314375,0.6413400215068286
0.018000000000000002,1.7919,1.0,2234.843789776948,0.1834169170627522,1.334808083207352,0.882020909339353,0.2883128,0.6425495772290144
0.0185,1.79144375,1.0,2269.1308884476925,0.18799730198094403,1.3342589209385207,0.8868914360017024,0.2882936375,0.6437212173884431
0.019,1.790975,1.0,2301.5418523045328,0.19255199387561117,1.3337252636315315,0.8914496058278144,0.28827395,0.644857934993829
0.0195,1.79049375,1.0,2332.170667645734,0.19708113897371357,1.3332057416603806,0.8957210762250463,0.2882537375,0.6459627988665679
0.02,1.79,1.0,2361.089251018436,0.20158487999130423,1.332699263608953,0.8997290337829331,0.288233,0.6470382652871824
0.0205,1.78949375,1.0,2388.3634058281423,0.2060633581990282,1.3322048476068413,0.903494431745104,0.2882117375,0.648086540900878
0.021,1.788975,1.0,2414.0634146700895,0.21051671486753062,1.331721511783639,0.9070362136307616,0.28818995000000003,0.6491098170279882
0.021500000000000002,1.78844375,1.0,2438.2636645387347,0.21494509126745653,1.3312482742689387,0.9103715335680519,0.2881676375,0.6501102703885523
0.022,1.7879,1.0,2461.033755209791,0.21934862701909602,1.3307842349248091,0.9135159657938983,0.2881448,0.65108989134314
0.0225,1.78734375,1.0,2482.4495447254,0.2237274637751091,1.3303284651372795,0.9164836532111311,0.28812143749999997,0.6520507178572994
0.023,1.786775,1.0,2502.5738407321965,0.22808174022354671,1.3298801889562595,0.919287490534187,0.28809755,0.6529944545095108
0.0235,1.78619375,1.0,2521.4602385339163,0.23241159255813745,1.3294387413111217,0.9219392455356931,0.28807313749999996,0.6539225628933159
0.024,1.7856,1.0,2539.164461599463,0.2367171569726098,1.3290034571312392,0.9244496552086531,0.2880482,0.6548364961597348
0.0245,1.78499375,1.0,2555.7441825335786,0.24099856966069236,1.3285736713459848,0.9268285302525301,0.2880227375,0.6557376992927958
0.025,1.784375,1.0,2571.258853855057,0.2452559668161136,1.3281487188847314,0.9290848477019485,0.28799675,0.6566276093568544
0.025500000000000002,1.78374375,1.0,2585.7572781284102,0.2494894813072631,1.3277280492686618,0.9312268507827283,0.2879702375,0.657507416207135
0.026000000000000002,1.7831000000000001,1.0,2599.303874083762,0.2536992518440078,1.3273109790664763,0.9332620836616052,0.2879432,0.658378580939237
0.0265,1.78244375,1.0,2611.942800509946,0.2578854108363902,1.3268970257677652,0.9351975066554548,0.2879156375,0.6592421382148885
0.027,1.781775,1.0,2623.713346039867,0.26204808891787557,1.3264857615913017,0.937039529998728,0.28788755,0.660099003437971
0.0275,1.7810937500000001,1.0,2634.655692000921,0.266187416721929,1.3260767587558584,0.9387940575206252,0.2878589375,0.660950087370133
0.028,1.7804,1.0,2644.810835396718,0.2703035248820158,1.3256695894802082,0.9404665333465428,0.2878298,0.6617962961983186
0.0285,1.77969375,1.0,2654.2205159460764,0.2743965440316012,1.3252638259831244,0.9420619837272425,0.2878001375,0.6626385315906242
0.029,1.778975,1.0,2662.9271471795664,0.2784666048041504,1.3248590404833793,0.9435850545570413,0.28776995,0.6634776907404916
0.029500000000000002,1.7782437500000001,1.0,2670.964582562557,0.2825138324661353,1.3244548894509944,0.9450400546520342,0.2877392375,0.6643144920642314
0.03,1.7775,1.0,2678.38082920277,0.28653836260295634,1.3240509040458006,0.9464309625554347,0.287708,0.6651499093976382
0.0305,1.77674375,1.0,2685.2041537893238,0.29054032066978064,1.3236468011023903,0.9477614888816992,0.2876762375,0.6659845284955033
0.031,1.775975,1.0,2691.461746275399,0.29451983129168113,1.3232423106752031,0.9490350797905158,0.28764395,0.6668189049405467
0.0315,1.7751937500000001,1.0,2697.181124146317,0.298477019093731,1.3228371628186784,0.9502549378226278,0.2876111375,0.6676535915280171
0.032,1.7744,1.0,2702.3901017592407,0.3024120087010032,1.3224310875872556,0.9514240421325826,0.2875778,0.6684891382566949
0.0325,1.77359375,1.0,2707.11676129945,0.3063249247385709,1.3220238150353743,0.9525451668066931,0.2875439375,0.6693260923152522
0.033,1.772775,1.0,2711.3894253513167,0.31021589183150716,1.3216150752174742,0.9536208974679712,0.28750955,0.6701649980639617
0.0335,1.7719437500000002,1.0,2715.2339988376843,0.31408503214048555,1.321204622176901,0.9546536484158672,0.2874746375,0.6710063478705177
0.034,1.7711000000000001,1.0,2718.6718649188656,0.3179324643047084,1.320792252813026,0.9556456779827003,0.2874392,0.6718505437982896
0.0345,1.7702437500000001,1.0,2721.7386524054796,0.3217583232655587,1.3203776357397545,0.9565990869626678,0.2874032375,0.6726982478246338
0.035,1.7693750000000001,1.0,2724.4509388912497,0.32556272667419295,1.3199606143922087,0.9575158549981626,0.28736675,0.673549761600001
0.035500000000000004,1.76849375,1.0,2726.825408408979,0.3293457921817674,1.3195410322055108,0.9583978354604679,0.2873297375,0.6744053850033058
0.036000000000000004,1.7676,1.0,2728.8788404521338,0.33310763743943855,1.319118732614783,0.9592467649520963,0.2872922,0.6752654161171384
0.0365,1.76669375,1.0,2730.6280995403017,0.3368483800983627,1.3186935590551474,0.9600642719904526,0.2872541375,0.6761301512014135
0.037,1.765775,1.0,2732.090125327378,0.34056813780969636,1.3182653549617265,0.9608518849517451,0.28721555,0.6769998846654537
0.0375,1.76484375,1.0,2733.2819232542747,0.3442670282245958,1.3178339637696423,0.9616110393457127,0.2871764375,0.677874909038513
0.038,1.7639,1.0,2734.2205557441384,0.3479451689942175,1.317399228914017,0.9623430844843179,0.28713679999999997,0.6787555149387354
0.0385,1.76294375,1.0,2734.923133941857,0.3516026777697179,1.316960993829973,0.9630492896009962,0.28709663750000003,0.6796419910405481
0.039,1.761975,1.0,2735.4068099960023,0.35523967220225316,1.316519101952632,0.9637308494712251,0.28705595,0.6805346240404951
0.0395,1.7609937500000001,1.0,2735.6791692392176,0.3588562587911036,1.316073483884678,0.9643888953969091,0.2870147375,0.6814335229113593
0.04,1.76,1.0,2735.7629732793316,0.36245256610465854,1.3156239326816455,0.9650244856089708,0.286973,0.6823390724444265
0.0405,1.7589937500000001,1.0,2735.6683555775735,0.3660287059389331,1.3151703562593506,0.9656386253701883,0.2869307375,0.6832514239010012
0.041,1.757975,1.0,2735.4044175666545,0.3695847887274485,1.31471267206252,0.9662322641614467,0.28688795,0.6841707080461377
0.0415,1.75694375,1.0,2734.9802752237306,0.3731209249037258,1.3142507975358808,0.9668062988111885,0.2868446375,0.6850970543624453
0.042,1.7559,1.0,2734.4050563319615,0.37663722490128615,1.3137846501241597,0.9673615769551484,0.28680079999999997,0.6860305910282485
0.0425,1.75484375,1.0,2733.687897893342,0.38013379915365064,1.3133141472720835,0.967898900234532,0.2867564375,0.6869714448953035
0.043000000000000003,1.753775,1.0,2732.8379436919145,0.38361075809434053,1.3128392064243795,0.968419027254871,0.28671155,0.6879197414660858
0.043500000000000004,1.75269375,1.0,2731.864342009506,0.3870682121568768,1.3123597450257742,0.9689226763257096,0.28666613750000003,0.6888756048706419
0.044,1.7516,1.0,2730.7762434908295,0.3905062717747806,1.3118756805209948,0.9694105279993923,0.2866202,0.6898391578430051
0.0445,1.75049375,1.0,2729.582799161431,0.39392504738157313,1.311386930354768,0.9698832274255363,0.2865737375,0.6908105216971774
0.045,1.7493750000000001,1.0,2728.286456636593,0.3973246335797661,1.3108934729036008,0.9703413889208937,0.28652675,0.6917896954908738
0.0455,1.74824375,1.0,2726.9009454102434,0.40070515484117647,1.3103951839805048,0.9707855920219092,0.2864792375,0.6927768806176933
0.046,1.7471,1.0,2725.4350764200676,0.4040667243866743,1.3098919840578487,0.9712163887373141,0.2864312,0.693772188190976
0.0465,1.7459437500000001,1.0,2723.8932884120118,0.40740944481930497,1.30938383333998,0.9716343049731349,0.28638263750000004,0.6947756494510824
0.047,1.744775,1.0,2722.280018514425,0.41073341874211383,1.308870692031246,0.9720398406494577,0.28633355,0.6957872946560559
0.0475,1.74359375,1.0,2720.5997016434794,0.4140387487581462,1.3083525203359938,0.972433471225848,0.28628393750000003,0.6968071530690068
0.048,1.7424,1.0,2718.856769942261,0.41732553747044754,1.3078292784585703,0.9728156491234279,0.2862338,0.6978352529453953
0.0485,1.74119375,1.0,2717.055652256909,0.42059388748206306,1.307300926603323,0.9731868050515119,0.2861831375,0.6988716215202138
0.049,1.739975,1.0,2715.2007736460655,0.42384390139603817,1.306767424974599,0.9735473492460262,0.28613195,0.6999162849950693
0.0495,1.73874375,1.0,2713.2965549265164,0.4270756818154182,1.3062287337767455,0.9738976726263351,0.2860802375,0.700969268525163
0.05,1.7375,1.0,2711.3474122537864,0.4302893313432486,1.30568481321411,0.9742381478765422,0.286028,0.7020305962061695
0.0505,1.73624375,1.0,2709.3577567375123,0.4334849525825745,1.3051356234910394,0.9745691304568331,0.2859752375,0.7031002910610161
0.051000000000000004,1.734975,1.0,2707.331994092234,0.4366626481364415,1.3045811248118808,0.9748909595499771,0.28592195,0.7041783750265609
0.051500000000000004,1.73369375,1.0,2705.274524323122,0.4398225206078948,1.3040212773809816,0.9752039589476744,0.2858681375,0.7052648689401666
0.052000000000000005,1.7324,1.0,2703.1893601723214,0.4429646720113431,1.3034560448851558,0.9755084380404443,0.2858138,0.706359785786538
0.0525,1.73109375,1.0,2701.0791951277583,0.44608919981016704,1.302885403014149,0.9758046927101834,0.28575893750000003,0.7074631142887644
0.053,1.729775,1.0,2698.946380853391,0.44919620172783736,1.3023093305479276,0.9760930060035207,0.28570355000000003,0.7085748362999484
0.0535,1.72844375,1.0,2696.7926132845914,0.4522857755659919,1.301727812232267,0.9763736489632295,0.2856476375,0.7096949213186536
0.054,1.7271,1.0,2694.619585971171,0.45535801912626866,1.3011408328129428,0.9766468808794578,0.2855912,0.7108233380507885
0.0545,1.7257455650008624,1.0,2692.537533846805,0.4584130251642462,1.300548203332122,0.9769129389002454,0.28553431373003624,0.7119603873527851
0.055,1.724389801099255,1.0,2690.9485732686703,0.46145089831899205,1.2999504668550363,0.9771720950093795,0.2854773716461687,0.7131049663056306
0.0555,1.7230340371976478,1.0,2689.8747133744973,0.4644717348486841,1.2993480180158359,0.9774246001170959,0.2854204295623012,0.714256263105838
0.056,1.7216782732960407,1.0,2689.283821676362,0.46747562827952616,1.2987411482396327,0.9776706883511834,0.2853634874784337,0.7154136682030159
0.0565,1.7203225093944334,1.0,2689.1439155720755,0.47046267213772197,1.298130148951539,0.9779105841550192,0.28530654539456624,0.7165765761675162
0.057,1.7189667454928261,1.0,2689.423134721917,0.4734329599494753,1.2975153115766669,0.9781445027753041,0.2852496033106987,0.7177443857698942
0.0575,1.717610981591219,1.0,2690.089715308011,0.47638658524099003,1.296896927540128,0.9783726507215346,0.2851926612268312,0.7189165000549488
0.058,1.7162552176896118,1.0,2691.1119661763005,0.4793236415384698,1.296275288267035,0.9785952261990549,0.2851357191429637,0.7200923264103487
0.0585,1.7148994537880045,1.0,2692.458246861979,0.4822442223681185,1.2956506851824996,0.9788124195173945,0.2850787770590962,0.7212712766298423
0.059000000000000004,1.7135436898863974,1.0,2694.0969474983003,0.48514842125613983,1.295023409711634,0.9790244134754815,0.2850218349752287,0.7224527669710502
0.059500000000000004,1.71218792598479,1.0,2695.9986342733214,0.4880363312657009,1.2943937334908213,0.9792313826036269,0.2849648928913612,0.7236362553614007
0.06,1.7108321620831828,1.0,2698.146644349279,0.4909080426513266,1.2937618113957527,0.9794334881080407,0.28490795080749365,0.7248214227215759
0.0605,1.7094763981815757,1.0,2700.529203982294,0.49376364217298313,1.2931277536989778,0.9796308823177757,0.2848510087236262,0.7260080357506103
0.061,1.7081206342799684,1.0,2703.11536787258,0.4966032259339131,1.2924918458756796,0.9798237218295813,0.2847940666397587,0.7271955360211662
0.0615,1.706764870378361,1.0,2705.8851871178904,0.49942688527590756,1.2918542726974158,0.9800121516423443,0.2847371245558912,0.7283835571054287
0.062,1.7054091064767538,1.0,2708.8267796050927,0.5022347075850288,1.2912151451356497,0.9801963071592372,0.28468018247202365,0.7295718725880819
0.0625,1.7040533425751467,1.0,2711.928253662182,0.505026780247339,1.2905745741618446,0.9803763187536192,0.2846232403881562,0.7307602578146131
0.063,1.7026975786735394,1.0,2715.1777043697984,0.5078031906489007,1.2899326707474639,0.9805523119963723,0.28456629830428865,0.731948489901922
0.0635,1.7013418147719321,1.0,2718.563210147082,0.5105640261757758,1.2892895458639708,0.9807244078713695,0.2845093562204212,0.7331363477481426
0.064,1.699986050870325,1.0,2722.072829609392,0.5133093742140267,1.2886453104828286,0.9808927229797717,0.28445241413655364,0.7343236120416821
0.0645,1.6986302869687178,1.0,2725.694598699647,0.5160393221497157,1.2880000755755008,0.9810573697338077,0.2843954720526861,0.7355100652694702
0.065,1.6972745230671105,1.0,2729.4165280926322,0.518753957368905,1.2873539521134507,0.9812184565406559,0.28433852996881864,0.7366954917244282
0.0655,1.6959187591655034,1.0,2733.230335184397,0.5214533636989503,1.2867070171478139,0.9813760860516223,0.28428158788495117,0.7378797395350867
0.066,1.694562995263896,1.0,2737.125591708392,0.5241376297046181,1.2860593670332443,0.9815303585914522,0.28422464580108364,0.7390626228716187
0.0665,1.6932072313622888,1.0,2741.092975091528,0.5268068425117644,1.2854110878550022,0.9816813703952868,0.2841677037172161,0.7402439761780109
0.067,1.6918514674606817,1.0,2745.127311780161,0.5294610846824638,1.2847622278698938,0.9818292122412818,0.28411076163334864,0.7414237040133121
0.0675,1.6904957035590744,1.0,2749.223414938626,0.532100438778791,1.2841128353347255,0.9819739717948666,0.2840538195494811,0.7426017117285176
0.068,1.6891399396574671,1.0,2753.3760838542557,0.5347249873628207,1.283462958506304,0.9821157337385626,0.28399687746561364,0.7437779054682825
0.0685,1.6877841757558598,1.0,2757.5801033928137,0.5373348129966277,1.2828126456414355,0.9822545798955309,0.2839399353817461,0.7449521921724868
0.069,1.6864284118542527,1.0,2761.830243506516,0.5399299982422865,1.2821619449969268,0.982390589347193,0.2838829932978786,0.7461244795776507
0.0695,1.6850726479526454,1.0,2766.121258793385,0.5425106256618718,1.281510904829584,0.9825238385452468,0.2838260512140111,0.7472946762182042
0.07,1.6837168840510381,1.0,2770.4478881076748,0.5450767778174582,1.280859573396214,0.9826544014183826,0.2837691091301436,0.7484626914276042
0.07050000000000001,1.682361120149431,1.0,2774.8080492056265,0.5476285289793932,1.2802079701505034,0.9827823476397753,0.2837121670462761,0.7496284868116538
0.07100000000000001,1.6810053562478238,1.0,2779.196780756321,0.5501659639339819,1.2795561404244422,0.9829077464389468,0.2836552249624086,0.7507919781600432
0.07150000000000001,1.6796495923462165,1.0,2783.606654583389,0.552689174738022,1.2789041516141273,0.9830306662465913,0.2835982828785411,0.7519530427691451
0.07200000000000001,1.6782938284446094,1.0,2788.0358579941617,0.5551982382364387,1.2782520204002497,0.9831511701101671,0.2835413407946736,0.7531116490535046
0.0725,1.676938064543002,1.0,2792.482572547069,0.5576932312741566,1.2775997634634997,0.9832693190697837,0.2834843987108061,0.7542677657047482
0.073,1.6755823006413948,1.0,2796.944974001333,0.560174230696101,1.2769473974845684,0.9833851722358652,0.2834274566269386,0.7554213616917235
