Time [s],Phi [rad],STIM [ ],Fsee [N],Gamma [ ],Lcerel [ ],q [ ],Lmtc [m],fisomrel [ ]
0.0,1.8,1.0,17.96713187838024,1.0149772758699018e-05,1.3793397491649917,0.005000027452872453,0.288653,0.5411395239267895
0.0005,1.79999375,1.0,18.27651667133966,0.005619302149354811,1.3793024130575973,0.012940930373211437,0.2886527375,0.5412298451807522
0.001,1.799975,1.0,21.618248891165823,0.01119699161603974,1.3789383156636632,0.03560935894044277,0.28865195,0.5421101815114349
0.0015,1.79994375,1.0,31.06924880517916,0.016743394655722416,1.3780462026383822,0.07060277674352101,0.2886506375,0.544263611832587
0.002,1.7999,1.0,53.58260478064337,0.02225868675966079,1.3763681176129505,0.11471910595608797,0.2886488,0.548300510345932
0.0025,1.79984375,1.0,97.11938590993994,0.027743042435025504,1.37393514565884,0.1645760546696497,0.28864643749999996,0.5541215141616778
0.003,1.7997750000000001,1.0,160.9589381488764,0.033196635212616815,1.3712143148847649,0.21728165147341535,0.28864354999999997,0.5605865192112074
0.0035,1.79969375,1.0,237.6843054980473,0.038619637646456116,1.3685847042327923,0.2706140784688075,0.2886401375,0.5667899100944676
0.004,1.7996,1.0,321.4678927374241,0.04401222132456818,1.3661560626946279,0.3229169531913462,0.2886362,0.5724800310968359
0.0045000000000000005,1.7994937500000001,1.0,409.26899445847243,0.0493745568741656,1.3639227849729438,0.3730356004468952,0.2886317375,0.5776792301579607
0.005,1.799375,1.0,499.4148295541964,0.05470681395273959,1.3618583141824803,0.42024848341238796,0.28862675,0.582457144314456
0.0055,1.79924375,1.0,590.7918041860243,0.060009161295519815,1.3599388079384558,0.46417464552224863,0.2886212375,0.5868751739153171
0.006,1.7991000000000001,1.0,682.5195377480618,0.06528176665864364,1.3581463887643608,0.5046808332896673,0.2886152,0.590979477726554
0.006500000000000001,1.79894375,1.0,773.8830089432657,0.0705247968744438,1.3564672237251705,0.5418015545524568,0.2886086375,0.5948058622757311
0.007,1.798775,1.0,864.2872324810655,0.07573841783635546,1.354890372038194,0.5756775092835592,0.28860155,0.5983827290643887
0.0075,1.79859375,1.0,953.2440160120461,0.08092279450691975,1.3534067668770704,0.6065105853486701,0.2885939375,0.6017336005277296
0.008,1.7984,1.0,1040.3575565673868,0.08607809088705186,1.352008659566197,0.6345326831885195,0.2885858,0.60487851910207
0.0085,1.79819375,1.0,1125.3194299573988,0.09120447023399242,1.3506891678511075,0.659984956406342,0.2885771375,0.6078351643874291
0.009000000000000001,1.797975,1.0,1207.8797663482044,0.09630209451169609,1.3494423139879848,0.683104861900753,0.28856795,0.6106188430954167
0.0095,1.79774375,1.0,1287.8711505982565,0.10137112516382718,1.3482624024201328,0.7041180948667568,0.2885582375,0.6132439383308592
0.01,1.7975,1.0,1365.1637740006852,0.10641172281130651,1.3471444273752913,0.7232346762790021,0.288548,0.6157230438210495
0.0105,1.79724375,1.0,1439.6580173960463,0.11142404643045663,1.3460839649332723,0.7406470589210147,0.2885372375,0.6180672487757193
0.011,1.796975,1.0,1511.303797661229,0.11640825442337445,1.345076778609538,0.756529589640243,0.28852595000000003,0.6202870435729081
0.0115,1.79669375,1.0,1580.108669033209,0.12136450570199614,1.3441186305202675,0.7710390018978234,0.2885141375,0.6223927555129325
0.012,1.7964,1.0,1646.0656873695275,0.12629295661292883,1.343206063399644,0.7843158446841005,0.28850180000000003,0.6243928509110952
0.0125,1.79609375,1.0,1709.1809371183544,0.13119376234383998,1.3423359548186262,0.7964855678488526,0.2884889375,0.626294942724552
0.013000000000000001,1.7957750000000001,1.0,1769.4968463748469,0.13606707808239693,1.341505182348173,0.8076597890192607,0.28847555,0.6281065383588684
0.0135,1.79544375,1.0,1827.0675952135414,0.14091305816800098,1.3407108609723897,0.8179378007542668,0.2884616375,0.6298345319370311
0.014,1.7951000000000001,1.0,1881.979247484112,0.1457318570242717,1.339950072355899,0.8274077998513671,0.2884472,0.6314858045447036
0.0145,1.79474375,1.0,1934.285967114039,0.1505236262481306,1.3392205277411648,0.8361483693021751,0.2884322375,0.6330657957876455
0.015,1.794375,1.0,1984.0515002931425,0.15528851694670032,1.3385200598856748,0.8442293990126412,0.28841675,0.6345796207110943
0.0155,1.79399375,1.0,2031.3579533753914,0.16002668019860408,1.3378465043440024,0.8517130622594278,0.2884007375,0.6360323325973787
0.016,1.7936,1.0,2076.2933608503727,0.16473826587986612,1.3371978120343149,0.8586547611171379,0.2883842,0.6374286848191035
0.0165,1.7931937500000001,1.0,2118.9515070734683,0.16942342431294685,1.3365720296564623,0.865103923213148,0.2883671375,0.6387731787402089
0.017,1.792775,1.0,2159.4011542665703,0.17408230254430385,1.3359675959584183,0.8711047900724731,0.28834955,0.6400694338836767
0.0175,1.7923437500000001,1.0,2197.72185421675,0.17871504762039467,1.3353829496881564,0.8766969162951971,0.2883314375,0.6413210365384936
0.018000000000000002,1.7919,1.0,2234.0009711320204,0.1833218063200491,1.3348165503890255,0.8819157261310873,0.2883128,0.6425314974030395
0.0185,1.79144375,1.0,2268.321405204754,0.18790272410135575,1.3342669915084429,0.8867930241983689,0.2882936375,0.6437040127165006
0.019,1.790975,1.0,2300.782844115785,0.19245794857345608,1.3337327774415708,0.8913573597270477,0.28827395,0.6448419427969865
0.0195,1.79049375,1.0,2331.4498813193945,0.196987622101926,1.3332128300456247,0.8956345181195394,0.2882537375,0.6459477356281429
0.02,1.79,1.0,2360.3927386464184,0.20149188705234145,1.3327060711778207,0.8996477356827703,0.288233,0.6470238207953409
0.0205,1.78949375,1.0,2387.6868032165526,0.20597088579027834,1.3322114226953736,0.9034179859086351,0.2882117375,0.6480726104295784
0.021,1.788975,1.0,2413.412190122936,0.21042476068131263,1.3317278064554996,0.906964230641188,0.28818995000000003,0.6490965000772404
0.021500000000000002,1.78844375,1.0,2437.6364997749924,0.21485365168746426,1.3312543062035453,0.9103036735426249,0.2881676375,0.6500975274923719
0.022,1.7879,1.0,2460.4460852485477,0.21925770231027877,1.330789860773063,0.9134518895870739,0.2881448,0.6510780229902347
0.0225,1.78734375,1.0,2481.8991845029445,0.22363705070216133,1.33033371101633,0.9164230841258765,0.28812143749999997,0.6520396663462366
0.023,1.786775,1.0,2502.0509062610126,0.22799183404988765,1.329885153323349,0.9192301898327291,0.28809755,0.6529840102577507
0.0235,1.78619375,1.0,2520.95876337133,0.23232218954023345,1.329443484084123,0.9218849889319646,0.28807313749999996,0.6539125981967928
0.024,1.7856,1.0,2538.682471795136,0.2366282543599745,1.3290079996886548,0.9243982314300269,0.2880482,0.6548269647349175
0.0245,1.78499375,1.0,2555.283714553878,0.24091016568223825,1.328577996959226,0.9267797398420514,0.2880227375,0.6557286349306852
0.025,1.784375,1.0,2570.8144684618774,0.24516805706039058,1.3281528807979381,0.9290385187034732,0.28799675,0.6566188993112698
0.025500000000000002,1.78374375,1.0,2585.344455004049,0.24940206818032337,1.327731904716677,0.9311827959933417,0.2879702375,0.6574993578787597
0.026000000000000002,1.7831000000000001,1.0,2598.9151751450668,0.2536123308453629,1.3273145997323017,0.933220162855442,0.2879432,0.6583710229658263
0.0265,1.78244375,1.0,2611.5692534799305,0.2577989768588353,1.326900496861673,0.9351575928575288,0.2879156375,0.6592349016313497
0.027,1.781775,1.0,2623.3503438015637,0.2619621380240669,1.3264891271216508,0.9370015005161738,0.28788755,0.6600919957632096
0.0275,1.7810937500000001,1.0,2634.303039544218,0.26610194614438404,1.3260800215290949,0.9387577935632673,0.2878589375,0.6609433021670441
0.028,1.7804,1.0,2644.472789103847,0.2702185330231128,1.3256727111008655,0.9404319196909395,0.2878298,0.6617898126409828
0.0285,1.77969375,1.0,2653.892170136638,0.27431202552355755,1.3252668526441684,0.9420289245727187,0.2878001375,0.6626322530961634
0.029,1.778975,1.0,2662.6157786295553,0.278382559852004,1.3248619059488236,0.9435534476769907,0.28776995,0.6634717540283728
0.029500000000000002,1.7782437500000001,1.0,2670.6814229928923,0.28243026532146215,1.3244574913837464,0.9450098018538337,0.2877392375,0.6643091080515503
0.03,1.7775,1.0,2678.117930568601,0.2864552675817826,1.3240533164506982,0.9464019927821571,0.287708,0.6651449237796672
0.0305,1.77674375,1.0,2684.9545440083757,0.2904576922828161,1.3236490886514407,0.9477337351195265,0.2876762375,0.6659798068083287
0.031,1.775975,1.0,2691.220884058207,0.29443766507441327,1.3232445154877357,0.9490084773069829,0.28764395,0.6668143597165147
0.0315,1.7751937500000001,1.0,2696.946914240274,0.29839531160642485,1.3228393044613445,0.9502294239685121,0.2876111375,0.6676491820628678
0.032,1.7744,1.0,2702.1629074314023,0.3023307575287014,1.322433163074029,0.9513995561644175,0.2875778,0.66848487037652
0.0325,1.77359375,1.0,2706.8994143387667,0.3062441284910938,1.3220257988275501,0.9525216497273405,0.2875439375,0.6693220181424688
0.033,1.772775,1.0,2711.1799680684126,0.3101355469222578,1.3216169854897923,0.9535982987184447,0.28750955,0.6701610798611566
0.0335,1.7719437500000002,1.0,2715.0318466162835,0.3140051379634106,1.3212064645193053,0.9546319201941081,0.2874746375,0.6710025738233681
0.034,1.7711000000000001,1.0,2718.4880252576763,0.317853028095861,1.3207939271988356,0.9556247658482753,0.2874392,0.671847118215396
0.0345,1.7702437500000001,1.0,2721.5666073132275,0.32167933650459174,1.3203792018175045,0.9565789533665077,0.2874032375,0.6726950479680445
0.035,1.7693750000000001,1.0,2724.285820984178,0.3254841823745857,1.3199621166644333,0.9574964636285566,0.28736675,0.673546696108468
0.035500000000000004,1.76849375,1.0,2726.6640065179404,0.32926768489082564,1.3195425000287433,0.9583791511306127,0.2873297375,0.6744023937352698
0.036000000000000004,1.7676,1.0,2728.7196040269246,0.33302996323829437,1.319120180199556,0.9592287534989714,0.2872922,0.6752624699917185
0.0365,1.76669375,1.0,2730.471141961507,0.3367711366019746,1.3186949854659926,0.9600469001836961,0.2872541375,0.6761272520370879
0.037,1.765775,1.0,2731.9372262366237,0.34049132416684924,1.3182667441171743,0.9608351204113859,0.28721555,0.6769970650161132
0.0375,1.76484375,1.0,2733.136530011782,0.3441906451179011,1.3178352844422225,0.9615948504677466,0.2871764375,0.6778722320265673
0.038,1.7639,1.0,2734.086062690541,0.3478692119763783,1.3174004503643182,0.9623274404925267,0.28713679999999997,0.6787530424379082
0.0385,1.76294375,1.0,2734.803489860723,0.3515271497388459,1.316962080282574,0.9630341625301574,0.28709663750000003,0.6796397948435684
0.039,1.761975,1.0,2735.3007479622797,0.35516457220374453,1.3165200649843174,0.9637162165724099,0.28705595,0.6805326800456744
0.0395,1.7609937500000001,1.0,2735.5895593754317,0.358781592376285,1.316074297490729,0.9643747330466819,0.2870147375,0.6814318828626984
0.04,1.76,1.0,2735.6816737259146,0.36237832326167835,1.315624670822989,0.965010777545957,0.286973,0.6823375866322698
0.0405,1.7589937500000001,1.0,2735.588863522023,0.3659548778651354,1.315171078002278,0.965625355230911,0.2869307375,0.6832499731852104
0.041,1.757975,1.0,2735.322920045401,0.36951136919186717,1.3147134120497768,0.9662194148884518,0.28688795,0.6841692228188374
0.0415,1.75694375,1.0,2734.8956494953004,0.3730479102470845,1.3142515659866656,0.9667938526768212,0.2868446375,0.6850955142695421
0.042,1.7559,1.0,2734.3188693869515,0.37656461403599834,1.3137854328341247,0.96734951558447,0.28680079999999997,0.6860290246846332
0.0425,1.75484375,1.0,2733.593748946434,0.3800615720467602,1.3133150024020366,0.9678872091188256,0.2867564375,0.686969736192002
0.043000000000000003,1.753775,1.0,2732.7342291259997,0.38353890623160386,1.3128401485836225,0.9684076910366102,0.28671155,0.6879178617161257
0.043500000000000004,1.75269375,1.0,2731.761683787448,0.38699675418207313,1.3123606777551002,0.9689116757927061,0.28666613750000003,0.6888737467869084
0.044,1.7516,1.0,2730.681476009919,0.39043522016798626,1.3118765417277438,0.9693998465952717,0.2866202,0.6898374448977771
0.0445,1.75049375,1.0,2729.498971279911,0.3938544084591618,1.3113876923128274,0.9698728511282123,0.2865737375,0.6908090085334565
0.045,1.7493750000000001,1.0,2728.219536469985,0.39725442332541805,1.3108940813216248,0.9703313037433057,0.28652675,0.6917884891555579
0.0455,1.74824375,1.0,2726.8485388687886,0.4006353690365734,1.3103956605654101,0.9707757874964373,0.2864792375,0.6927759371880189
0.046,1.7471,1.0,2725.3913452630186,0.4039973498624461,1.3098923818554573,0.9712068560404339,0.2864312,0.6937714020023962
0.0465,1.7459437500000001,1.0,2723.8533210703577,0.4073404700728546,1.3093841970030404,0.9716250353858785,0.28638263750000004,0.6947749319030099
0.047,1.744775,1.0,2722.2398295243424,0.4106648339376173,1.3088710578194331,0.9720308255402862,0.28633355,0.69578657411194
0.0475,1.74359375,1.0,2720.556230910561,0.41397054572655256,1.30835291611591,0.9724247020351157,0.28628393750000003,0.6968063747538731
0.048,1.7424,1.0,2718.807881853942,0.4172577097094787,1.3078297237037444,0.972807117349273,0.2862338,0.6978343788408048
0.0485,1.74119375,1.0,2717.000134658476,0.42052643015621405,1.3073014323942107,0.9731785022370248,0.2861831375,0.6988706302565892
0.049,1.739975,1.0,2715.138336697313,0.4237768113365771,1.3067679939985828,0.9735392669675619,0.28613195,0.6999151717413441
0.0495,1.73874375,1.0,2713.227829854964,0.4270089575203861,1.3062293603281347,0.973889802482852,0.2860802375,0.7009680448757061
0.05,1.7375,1.0,2711.273950021255,0.4302229729774595,1.3056854831941402,0.9742304814798592,0.286028,0.7020292900649394
0.0505,1.73624375,1.0,2709.282026635942,0.4334189619776156,1.3051363144078738,0.9745616594227099,0.2859752375,0.7030989465228927
0.051000000000000004,1.734975,1.0,2707.2573822856034,0.4365970287906728,1.304581805780609,0.9748836754899312,0.28592195,0.7041770522558146
0.051500000000000004,1.73369375,1.0,2705.2014237045464,0.439757255798919,1.3040219448109336,0.9751968533721012,0.2858681375,0.7052635748513318
0.052000000000000005,1.7324,1.0,2703.1191206746,0.4428997657951629,1.3034566864393695,0.9755015045287502,0.2858138,0.7063585441812442
0.0525,1.73109375,1.0,2701.012950380246,0.4460246581901196,1.3028860083171556,0.9757979254378062,0.28575893750000003,0.7074619450436861
0.053,1.729775,1.0,2698.8848626134914,0.44913202837384003,1.3023098928848837,0.976086399370668,0.28570355000000003,0.708573752117124
0.0535,1.72844375,1.0,2696.736804441746,0.452221971736375,1.3017283225831466,0.9763671972138973,0.2856476375,0.7096939392575274
0.054,1.7271,1.0,2694.570720130583,0.4552945836677754,1.3011412798525366,0.9766405781136197,0.2855912,0.7108224794922713
0.0545,1.7257437500000001,1.0,2692.3885510726473,0.45834995955809205,1.3005487471336465,0.9769067900811201,0.2855342375,0.7119593450140159
0.055,1.724375,1.0,2690.1922357240865,0.4613881947973758,1.2999507068670686,0.9771660705622759,0.28547675,0.7131045071745724
0.0555,1.72299375,1.0,2687.9837095476905,0.4644093847756775,1.2993471414933953,0.9774186469732704,0.2854187375,0.7142579364787411
0.056,1.7216,1.0,2685.7649049623706,0.467413624883048,1.298738033453219,0.9776647372048468,0.2853602,0.7154196025781359
0.0565,1.72019375,1.0,2683.5377513001044,0.47040101050953814,1.2981233651871327,0.9779045500971918,0.28530113749999997,0.7165894742649858
0.057,1.718775,1.0,2681.3041747695443,0.47337163704519875,1.2975031191357282,0.9781382858873872,0.28524155,0.7177675194659205
0.0575,1.71734375,1.0,2679.0660984259152,0.4763255998800808,1.2968772777395987,0.978366136631221,0.2851814375,0.7189537052357308
0.058,1.7159,1.0,2676.825442148689,0.4792629944042349,1.2962458234393361,0.9785882866010234,0.2851208,0.7201479977511152
0.0585,1.71444375,1.0,2674.582104099457,0.4821839013499257,1.295608757210579,0.9788049124389654,0.2850596375,0.7213503273610236
0.059000000000000004,1.7129750000000001,1.0,2672.3349585172673,0.4850883961188208,1.294966089436755,0.9790161838440297,0.28499795,0.7225606061300647
0.059500000000000004,1.71149375,1.0,2670.092035491716,0.4879766209835989,1.2943177463748254,0.979222264788738,0.2849357375,0.7237789035996298
0.06,1.71,1.0,2667.853780014861,0.49084866226566,1.2936637238955464,0.9794233119141333,0.284873,0.7250051571039551
0.0605,1.7084937500000001,1.0,2665.620636332757,0.4937046062864039,1.2930040178696731,0.9796194757784834,0.2848097375,0.7262393032915443
0.061,1.7069750000000001,1.0,2663.393047948429,0.49654453936723064,1.2923386241679613,0.9798109011383948,0.28474595,0.7274812781236718
0.0615,1.7054437500000001,1.0,2661.171457625604,0.49936854782954,1.291667538661167,0.9799977272148546,0.2846816375,0.7287310168728849
0.062,1.7039,1.0,2658.9563073931836,0.502176717994732,1.2909907572200454,0.9801800879451121,0.2846168,0.729988454121507
0.0625,1.70234375,1.0,2656.748038549118,0.5049691361842065,1.2903082757153528,0.9803581122212591,0.2845514375,0.7312535237601362
0.063,1.7007750000000001,1.0,2654.547091665667,0.5077458887193633,1.2896200900178443,0.9805319241163016,0.28448555,0.7325261589861474
0.0635,1.69919375,1.0,2652.3539065945483,0.5105070619216024,1.2889261959982758,0.9807016430984693,0.28441913750000003,0.7338062923021872
0.064,1.6976,1.0,2650.1689224722413,0.5132527421123239,1.2882265895274032,0.9808673842344539,0.2843522,0.7350938555146742
0.0645,1.69599375,1.0,2647.9925777264425,0.5159830156129273,1.2875212664759819,0.9810292583822275,0.2842847375,0.7363887797322941
0.065,1.694375,1.0,2645.825310082093,0.5186979687448128,1.2868102227147675,0.9811873723740449,0.28421675,0.7376909953644945
0.0655,1.69274375,1.0,2643.667556567975,0.5213976878293802,1.286093454114516,0.9813418291901995,0.2841482375,0.7390004321199789
0.066,1.6911,1.0,2641.519753524241,0.5240822591880295,1.2853709565459828,0.9814927281240579,0.2840792,0.7403170190052003
0.0665,1.6894437500000001,1.0,2639.3823366096985,0.5267517691421606,1.2846427258799238,0.9816401649388753,0.2840096375,0.7416406843228527
0.067,1.687775,1.0,2637.2557408093203,0.5294063040131732,1.2839087579870945,0.9817842320168532,0.28393955,0.7429713556703617
0.0675,1.68609375,1.0,2635.1404004431292,0.5320459501224675,1.2831690487382508,0.9819250185008745,0.2838689375,0.7443089599383743
0.068,1.6844000000000001,1.0,2633.036749174459,0.5346707937914431,1.2824235940041482,0.9820626104293273,0.2837978,0.7456534233092478
0.0685,1.68269375,1.0,2630.944958649361,0.5372809206561561,1.2816723920753799,0.9821970909347896,0.2837261375,0.7470046669085889
0.069,1.680975,1.0,2628.865054765178,0.5398764088820156,1.2809154425903775,0.9823285398798266,0.28365395,0.7483626087826925
0.0695,1.67924375,1.0,2626.797224760493,0.5424573385710637,1.2801527436927163,0.9824570344618812,0.28358123749999997,0.7497271690097043
0.07,1.6775,1.0,2624.741017540238,0.5450237910952082,1.279384299440581,0.982582649620804,0.283508,0.7510982564607644
0.07050000000000001,1.67574375,1.0,2622.6933964532186,0.54757584728671,1.2786101378746404,0.982705458853101,0.2834342375,0.7524757368414345
0.07100000000000001,1.673975,1.0,2620.6546937968133,0.5501135882172635,1.2778302558278347,0.9828255317924831,0.28335995,0.7538595310798466
0.07150000000000001,1.67219375,1.0,2618.6359061531616,0.5526370959315163,1.2770445511634338,0.9829429313028923,0.2832851375,0.7552497342814142
0.07200000000000001,1.6704,1.0,2616.632862850262,0.5551464491058086,1.276253062394986,0.9830577243124923,0.2832098,0.7566461910631124
0.0725,1.66859375,1.0,2614.641399721675,0.5576417264164804,1.2754558280360393,0.9831699755717084,0.2831339375,0.7580487461765942
0.073,1.6667750000000001,1.0,2612.6573590046155,0.5601230065398719,1.2746528866001416,0.9832797477382768,0.28305755,0.7594572445223525
0.0735,1.66494375,1.0,2610.6765892703756,0.5625903681523233,1.273844276600841,0.9833871014584472,0.2829806375,0.760871531163782
0.074,1.6631057415622263,1.0,2608.97383497213,0.5650438899301748,1.2730300365516862,0.9834920954445466,0.2829034411456135,0.7622914513411507
0.0745,1.6612677223408177,1.0,2607.858332202302,0.5674836484914795,1.272210335524266,0.9835947921843577,0.2828262443383143,0.7637166238321638
0.075,1.6594297031194092,1.0,2607.254219253376,0.569909723640169,1.2713858804173241,0.9836952759978536,0.28274904753101515,0.7651457395092915
