Time [s],Phi [rad],STIM [ ],Fsee [N],Gamma [ ],Lcerel [ ],q [ ],Lmtc [m],fisomrel [ ]
0.0,1.8,1.0,17.966900125137272,1.798430891104602e-05,1.3793397751292082,0.005000085802944647,0.288653,0.541139461112633
0.0005,1.79999375,1.0,18.27894781033093,0.005627092739958048,1.3793021430126775,0.012962696105118715,0.2886527375,0.5412304984247142
0.001,1.799975,1.0,21.626533597924727,0.011204738507589011,1.3789374695812646,0.035650197893567166,0.28865195,0.5421122262351663
0.0015,1.79994375,1.0,31.089933281785555,0.016751098093338985,1.3780444406855727,0.07065867471206859,0.2886506375,0.5442678599066724
0.002,1.7999,1.0,53.6280393555668,0.02226634698707643,1.376365170682392,0.11478530498373817,0.2886488,0.5483075838559117
0.0025,1.79984375,1.0,97.19636463590318,0.027750659694627068,1.3739314369810691,0.16464807350397465,0.28864643749999996,0.5541303585372217
0.003,1.7997750000000001,1.0,161.05945319140412,0.03320420974541386,1.3712105531072705,0.21735595082786272,0.28864354999999997,0.5605954249419463
0.0035,1.79969375,1.0,237.79807233910947,0.03862716969210814,1.368581200339551,0.27068797891968205,0.2886401375,0.5667981465441829
0.004,1.7996,1.0,321.589048253722,0.044019711121396674,1.3661528540556467,0.3229885102920873,0.2886362,0.5724875238102816
0.0045000000000000005,1.7994937500000001,1.0,409.3945338200251,0.049382004659170406,1.3639198383160402,0.37310352783350054,0.2886317375,0.5776860691327396
0.005,1.799375,1.0,499.54297954813785,0.05471421996163195,1.3618555911840333,0.4203120352022323,0.28862675,0.5824634283445592
0.0055,1.79924375,1.0,590.9211559607805,0.06001652576243458,1.3599362808597453,0.4642334847060652,0.2886212375,0.5868809748751741
0.006,1.7991000000000001,1.0,682.6491018568696,0.06528908981667253,1.358144033747955,0.5047349059182378,0.2886152,0.5909848567944636
0.006500000000000001,1.79894375,1.0,774.0136631601947,0.07053207895371931,1.3564649934686162,0.5418509751750403,0.2886086375,0.5948109324981488
0.007,1.798775,1.0,864.4193492760994,0.07574565907428285,1.3548882380119147,0.5757225160803072,0.28860155,0.5983875590586689
0.0075,1.79859375,1.0,953.3759090062207,0.0809299951230407,1.3534047382975347,0.606551500002212,0.2885939375,0.60173817266853
0.008,1.7984,1.0,1040.4896646721159,0.08608525114998354,1.35200671460142,0.6345698327984605,0.2885858,0.6048828854448801
0.0085,1.79819375,1.0,1125.4487664891935,0.09121159027174384,1.3506873369781836,0.6600187001460874,0.2885771375,0.607839259193718
0.009000000000000001,1.797975,1.0,1208.0094775886153,0.0963091746555948,1.349440541670678,0.683135497278953,0.28856795,0.6106227928472676
0.0095,1.79774375,1.0,1287.997551002964,0.10137816567185888,1.348260729832122,0.7041459539209131,0.2885582375,0.6132476532423395
0.01,1.7975,1.0,1365.281066223261,0.10641872363580282,1.3471429198837355,0.7232600753838989,0.288548,0.6157263812965383
0.0105,1.79724375,1.0,1439.7724362818435,0.11143100800476226,1.346082532920823,0.7406702092383558,0.2885372375,0.6180704094614395
0.011,1.796975,1.0,1511.4231676279144,0.1164151775257087,1.3450753204736854,0.756550677515778,0.28852595000000003,0.6202902525509673
0.0115,1.79669375,1.0,1580.2126510886583,0.12137138970643506,1.3441173883098887,0.7710583487162063,0.2885141375,0.6223954817052975
0.012,1.7964,1.0,1646.1520636181249,0.12629980148984982,1.3432050523966583,0.7843336378555311,0.28850180000000003,0.6243950638055071
0.0125,1.79609375,1.0,1709.262394480426,0.13120056875381356,1.3423350191576318,0.7965019033657597,0.2884889375,0.6262969855176783
0.013000000000000001,1.7957750000000001,1.0,1769.5809281958416,0.13607384666315978,1.3415042331444536,0.8076747796659153,0.28847555,0.6281086056901106
0.0135,1.79544375,1.0,1827.156962779978,0.14091978909162553,1.3407098681199852,0.8179515688411608,0.2884616375,0.6298366893037701
0.014,1.7951000000000001,1.0,1882.0625890170263,0.14573854981862583,1.3399491600580749,0.8274205104910792,0.2884472,0.6314877824483718
0.0145,1.79474375,1.0,1934.3659305699923,0.15053028140857821,1.3392196643370686,0.8361601150574206,0.2884322375,0.6330676636704289
0.015,1.794375,1.0,1984.1298704096769,0.1552951348421893,1.3385192243651718,0.8442402656314463,0.28841675,0.6345814245382733
0.0155,1.79399375,1.0,2031.434958972024,0.16003326100494042,1.3378456929863758,0.8517231314837668,0.2884007375,0.6360340807734551
0.016,1.7936,1.0,2076.3728842741434,0.164744810185751,1.337196983264487,0.8586640944002859,0.2883842,0.6374304670833204
0.0165,1.7931937500000001,1.0,2119.0268210550807,0.16942993166711656,1.3365712526965383,0.8651126078205699,0.2883671375,0.6387748464868717
0.017,1.792775,1.0,2159.470463211431,0.1740887730255167,1.335966887675911,0.871112889256149,0.28834955,0.6400709514839344
0.0175,1.7923437500000001,1.0,2197.7880402211413,0.17872148176283129,1.3353822792419947,0.8767044736697718,0.2883314375,0.6413224705690201
0.018000000000000002,1.7919,1.0,2234.071739468012,0.18332820478019285,1.3348158393699638,0.8819227679345153,0.2883128,0.6425330156472786
0.0185,1.79144375,1.0,2268.4043783322722,0.18790908810721887,1.3342661641978761,0.8867995753471393,0.2882936375,0.6437057763789493
0.019,1.790975,1.0,2300.858510887085,0.1924642760175669,1.33373202832191,0.891363507895027,0.28827395,0.6448435372198464
0.0195,1.79049375,1.0,2331.5110698437093,0.1969939125065302,1.3332122282604757,0.8956403131156288,0.2882537375,0.6459490144696705
0.02,1.79,1.0,2360.433685435699,0.20149813996068253,1.3327056709445269,0.8996532188765798,0.288233,0.6470246700298221
0.0205,1.78949375,1.0,2387.736282871553,0.2059771049434585,1.3322109418304358,0.903423121149504,0.2882117375,0.6480736292351239
0.021,1.788975,1.0,2413.4763867954184,0.2104309471258253,1.3317271858991029,0.9069690324022117,0.28818995000000003,0.649097812931958
0.021500000000000002,1.78844375,1.0,2437.715315182869,0.21485980617875006,1.3312535481314285,0.9103081678671466,0.2881676375,0.6500991289870517
0.022,1.7879,1.0,2460.517872410717,0.21926382177319992,1.330789173508313,0.9134561401885056,0.2881448,0.6510794728625229
0.0225,1.78734375,1.0,2481.952058534774,0.22364313358014215,1.330333207010657,0.9164271307706553,0.28812143749999997,0.6520407281443061
0.023,1.786775,1.0,2502.086547876845,0.22799788080026592,1.3298848149507825,0.9192340446701239,0.28809755,0.6529847221456888
0.0235,1.78619375,1.0,2520.9831454060695,0.23232820106121307,1.329443253476636,0.9218886556484595,0.28807313749999996,0.6539130827127836
0.024,1.7856,1.0,2538.712047741523,0.23663423379863796,1.3290077209349993,0.9244016966496876,0.2880482,0.6548275496337934
0.0245,1.78499375,1.0,2555.32179767047,0.2409161134645209,1.3285776391935444,0.926783012036589,0.2880227375,0.6557293846364698
0.025,1.784375,1.0,2570.862587437658,0.24517397451084227,1.3281524301199439,0.929041609061117,0.28799675,0.6566198424948193
0.025500000000000002,1.78374375,1.0,2585.386120221946,0.24940795138958236,1.32773151558187,0.9311857404779412,0.2879702375,0.6575001712194211
0.026000000000000002,1.7831000000000001,1.0,2598.945479023344,0.2536181785527215,1.3273143174469955,0.933222977998115,0.2879432,0.6583716122264269
0.0265,1.78244375,1.0,2611.5864604448816,0.2578047881376609,1.326900336964729,0.9351602892881874,0.2879156375,0.6592352349883503
0.027,1.781775,1.0,2623.362894910808,0.2619679154714599,1.3264890107517078,0.9370040749335471,0.28788755,0.6600922380687859
0.0275,1.7810937500000001,1.0,2634.32271545099,0.2661076934888371,1.3260798394800282,0.938760238738901,0.2878589375,0.6609436807547164
0.028,1.7804,1.0,2644.5015333372344,0.2702242511714377,1.325672445660249,0.9404342412088633,0.2878298,0.6617903639594136
0.0285,1.77969375,1.0,2653.9356540310605,0.2743177175009072,1.3252664518029302,0.9420311234848204,0.2878001375,0.6626330846030997
0.029,1.778975,1.0,2662.6620166398893,0.2783882214588909,1.3248614804186314,0.9435555450109966,0.28776995,0.6634726356511964
0.029500000000000002,1.7782437500000001,1.0,2670.718136532382,0.2824358920270342,1.3244571540179118,0.9450118173652512,0.2877392375,0.6643098061434857
0.03,1.7775,1.0,2678.1420511133983,0.2864608581869823,1.324053095111331,0.9464039346868892,0.287708,0.6651453812141794
0.0305,1.77674375,1.0,2684.965722960708,0.29046324609251245,1.323648986199648,0.9477356079642357,0.2876762375,0.6659800182778699
0.031,1.775975,1.0,2691.227730048038,0.29444318578287176,1.3232444528193252,0.9490102762823874,0.28764395,0.6668144889079561
0.0315,1.7751937500000001,1.0,2696.9583776705076,0.2984008033021645,1.3228391996362385,0.9502311442928911,0.2876111375,0.6676493978897734
0.032,1.7744,1.0,2702.182593297056,0.30233622204545,1.322432983234424,0.9514011986176398,0.2875778,0.6684852401867019
0.0325,1.77359375,1.0,2706.9255584633056,0.3062495654077875,1.3220255601979167,0.9525232202111571,0.2875439375,0.669322508224547
0.033,1.772775,1.0,2711.212684160144,0.3101409567842363,1.3216166871107529,0.953599801019495,0.28750955,0.6701616918746942
0.0335,1.7719437500000002,1.0,2715.069587536677,0.31401051956985565,1.3212061205569676,0.9546333590993933,0.2874746375,0.6710032784334911
0.034,1.7711000000000001,1.0,2718.5220699161628,0.3178583771597048,1.320793617120597,0.9556261523563931,0.2874392,0.6718477525978439
0.0345,1.7702437500000001,1.0,2721.5887070127533,0.3216846453906049,1.3203790006474279,0.9565802964898433,0.2874032375,0.6726954590055977
0.035,1.7693754653707305,1.0,2724.32509895844,0.32548945566148085,1.3199619694697045,0.957497760943861,0.28736676954557067,0.6735469964702421
0.035500000000000004,1.768503876275048,1.0,2727.1522878960773,0.3292729288434393,1.319542632783259,0.9583804303683775,0.287330162803552,0.6744021231949724
0.036000000000000004,1.7676322871793653,1.0,2730.2154181497594,0.3330351819074725,1.3191211650401833,0.9592300760498611,0.28729355606153334,0.6752604656358294
0.0365,1.7667606980836827,1.0,2733.4956779147096,0.33677633182457245,1.3186977406925695,0.9600483585646054,0.2872569493195147,0.6761216520326905
0.037,1.7658891089880002,1.0,2736.974236320579,0.34049649556573147,1.31827253419251,0.9608368359514284,0.287220342577496,0.6769853124320078
0.0375,1.7650175198923175,1.0,2740.632236201167,0.3441957901019417,1.3178457199920963,0.9615969711942561,0.28718373583547735,0.6778510787076082
0.038,1.764145930796635,1.0,2744.4507875381496,0.3478743324041952,1.3174174725434211,0.9623301390797908,0.28714712909345863,0.6787185845795488
0.0385,1.7632743417009524,1.0,2748.41096158101,0.3515322394434842,1.3169879662985762,0.9630376324886883,0.28711052235143997,0.6795874656310356
0.039,1.7624027526052697,1.0,2752.493785639782,0.35516962819080095,1.3165573757096536,0.963720668172656,0.2870739156094213,0.6804573593233968
0.0395,1.7615311635095872,1.0,2756.6821212588034,0.35878661399084344,1.3161258582002495,0.9643803902025053,0.28703730886740264,0.6813279393404201
0.04,1.7606595744139046,1.0,2760.969153613813,0.36238330634019367,1.315693477472095,0.965017867372739,0.287000702125384,0.6821990697754332
0.0405,1.759787985318222,1.0,2765.3312821845693,0.3659598312257549,1.3152604486599142,0.9656341241651991,0.2869640953833653,0.6830703109398903
0.041,1.7589163962225394,1.0,2769.761818718896,0.3695162986838873,1.3148268336467246,0.9662301112362802,0.28692748864134665,0.6839415332142142
0.0415,1.7580448071268568,1.0,2774.254055470165,0.3730528187509512,1.3143926943155437,0.9668067265154898,0.286890881899328,0.6848126076562917
0.042,1.757173218031174,1.0,2778.8012644355254,0.37656950146330675,1.3139580925493888,0.9673648186774421,0.2868542751573093,0.6856834060036653
0.0425,1.7563016289354916,1.0,2783.396696678936,0.3800664568573143,1.3135230902312771,0.9679051903510305,0.28681766841529066,0.6865538006754799
0.043000000000000003,1.755430039839809,1.0,2788.0335817390082,0.38354379496933405,1.3130877492442266,0.9684286010881528,0.286781061673272,0.6874236647741847
0.043500000000000004,1.7545584507441263,1.0,2792.7051271222167,0.38700162583572617,1.3126521314712543,0.9689357701122475,0.28674445493125333,0.6882928720869947
0.044,1.7536868616484438,1.0,2797.4045178803203,0.390440059492851,1.3122162987953776,0.9694273788650263,0.2867078481892346,0.689161297087103
0.0445,1.7528152725527613,1.0,2802.1249162734853,0.3938592059770688,1.311780313099614,0.9699040733680733,0.28667124144721595,0.6900288149346514
0.045,1.7519436834570785,1.0,2806.8599358884276,0.39725917427524926,1.3113442320149606,0.9703664659377339,0.2866346347051973,0.6908953099203264
0.0455,1.751072094361396,1.0,2811.6079608927,0.4006400661201938,1.3109080702539473,0.9708151334707066,0.2865980279631786,0.6917607520757862
0.046,1.7502005052657135,1.0,2816.3605231062547,0.40400200066643877,1.3104719037970798,0.9712506308232998,0.28656142122115996,0.6926249902825792
0.0465,1.7493289161700307,1.0,2821.1155369998332,0.4073450813255817,1.3100357513025596,0.9716734788016584,0.2865248144791413,0.6934879876092392
0.047,1.7484573270743482,1.0,2825.8709100072892,0.41066941150922015,1.3095996314285892,0.9720841725553279,0.28648820773712264,0.6943497073318934
0.0475,1.7475857379786657,1.0,2830.6245425352936,0.41397509462895166,1.3091635628333698,0.9724831830840618,0.28645160099510397,0.6952101129342381
0.048,1.746714148882983,1.0,2835.374327980419,0.41726223409637375,1.3087275641751037,0.9728709586425222,0.28641499425308525,0.6960691681074848
0.0485,1.7458425597873004,1.0,2840.118152754748,0.42053093332308394,1.3082916541119927,0.9732479260506769,0.2863783875110666,0.6969268367502917
0.049,1.7449709706916179,1.0,2844.8538963180285,0.42378129572067985,1.3078558513022387,0.9736144919170447,0.2863417807690479,0.6977830829686669
0.0495,1.7440993815959351,1.0,2849.579431218584,0.427013424700759,1.3074201744040435,0.9739710437813313,0.28630517402702926,0.698637871075853
0.05,1.7432277925002526,1.0,2854.292623141441,0.43022742367491895,1.306984642075609,0.9743179511824543,0.2862685672850106,0.6994911655921882
0.0505,1.74235620340457,1.0,2858.9915520835284,0.4334233942936663,1.3065492710112916,0.9746555663280168,0.28623196054299194,0.7003429350843294
0.051000000000000004,1.7414846143088873,1.0,2863.6782072773253,0.4366014112055176,1.306114043160991,0.9749842201130513,0.2861953538009733,0.7011932161340273
0.051500000000000004,1.7406130252132048,1.0,2868.34638687196,0.43976161888770143,1.3056790131644105,0.9753042409023016,0.2861587470589546,0.7020419034146435
0.052000000000000005,1.7397414361175223,1.0,2872.9958623810094,0.4429041127269182,1.305244182563064,0.9756159335866874,0.28612214031693595,0.7028889955720881
0.0525,1.7388698470218396,1.0,2877.626405017933,0.4460289881098683,1.3048095528984656,0.9759195895765117,0.2860855335749173,0.7037344912686145
0.053,1.737998257926157,1.0,2882.2377857026754,0.44913634042325223,1.304375125712129,0.9762154875142688,0.2860489268328986,0.7045783891827987
0.0535,1.7371266688304745,1.0,2886.8297750686293,0.4522262650537704,1.303940902545568,0.9765038939438452,0.28601232009087996,0.7054206880095204
0.054,1.7362550797347918,1.0,2891.402143469549,0.45529885738812315,1.3035068849402964,0.9767850639391317,0.28597571334886124,0.7062613864599416
0.0545,1.7353834906391092,1.0,2895.9546609866825,0.4583542128130109,1.3030730744378285,0.9770592416948352,0.2859391066068426,0.7071004832614876
0.055,1.7345119015434267,1.0,2900.4870974356904,0.4613924267151342,1.3026394725796777,0.9773266610820616,0.2859024998648239,0.7079379771578269
0.0555,1.733640312447744,1.0,2904.999222373715,0.4644135944811933,1.302206080907358,0.9775875461710462,0.28586589312280525,0.7087738669088504
0.056,1.7327687233520614,1.0,2909.490805106606,0.46741781149788864,1.3017729009623833,0.9778421117232361,0.2858292863807866,0.7096081512906494
0.0565,1.731897134256379,1.0,2913.9616146962335,0.47040517315192076,1.3013399342862675,0.9780905636547547,0.2857926796387679,0.7104408290954974
0.057,1.7310255451606962,1.0,2918.411419967511,0.47337577482998994,1.3009071824205243,0.978333099473135,0.2857560728967492,0.7112718991318283
0.0575,1.7301539560650137,1.0,2922.839989516052,0.4763297119187967,1.3004746469066677,0.9785699086890729,0.28571946615473054,0.7121013602242137
0.058,1.7292823669693311,1.0,2927.2470917150954,0.47926707980504135,1.3000423292862116,0.9788011732048106,0.2856828594127119,0.7129292112133437
0.0585,1.7284107778736484,1.0,2931.632494723334,0.48218797387542434,1.2996102311006699,0.979027067680663,0.2856462526706932,0.7137554509560051
0.059000000000000004,1.7275391887779659,1.0,2935.9963447973887,0.485092463230483,1.2991783505760333,0.9792477575068563,0.28560964592867455,0.7145800846511612
0.059500000000000004,1.7266675996822833,1.0,2940.338998160118,0.4879806458040395,1.2987466841075246,0.9794634039210293,0.2855730391866559,0.7154031209654302
0.06,1.7257960105866008,1.0,2944.660261923709,0.4908526496524942,1.298315232909108,0.9796741645839683,0.2855364324446372,0.7162245593570937
0.0605,1.724924421490918,1.0,2948.960360371364,0.4937085606154652,1.2978839945457696,0.9798801874671409,0.28549982570261856,0.7170444062291323
0.061,1.7240528323952355,1.0,2953.239518902257,0.49654846453257023,1.2974529665824954,0.9800816149068221,0.2854632189605999,0.7178626679568649
0.0615,1.7231812432995528,1.0,2957.497964020036,0.4993724472434273,1.2970221465842713,0.9802785838618248,0.28542661221858123,0.7186793508879836
0.062,1.7223096542038703,1.0,2961.7359233216725,0.5021805945876542,1.296591532116083,0.9804712261575541,0.28539000547656257,0.7194944613425844
0.0625,1.7214380651081878,1.0,2965.953625486157,0.5049729924048688,1.2961611207429167,0.9806596687172104,0.2853533987345439,0.7203080056132001
0.063,1.7205664760125052,1.0,2970.151300263711,0.5077497265346891,1.295730910029758,0.9808440337809058,0.28531679199252524,0.7211199899648315
0.0635,1.7196948869168225,1.0,2974.3291784644107,0.5105108828167328,1.2953008975415932,0.9810244391134163,0.2852801852505065,0.7219304206349793
0.064,1.71882329782114,1.0,2978.487491948065,0.5132565470906181,1.294871080843408,0.9812009982012325,0.28524357850848786,0.7227393038336745
0.0645,1.7179517087254572,1.0,2982.6264736130693,0.5159868051959626,1.2944414575001884,0.9813738204395412,0.2852069717664692,0.7235466457435101
0.065,1.7170801196297747,1.0,2986.7463573860387,0.5187017429723844,1.2940120250769203,0.9815430113097164,0.28517036502445053,0.7243524525196697
0.0655,1.7162085305340922,1.0,2990.8473782115007,0.5214014462595011,1.2935827811385898,0.9817086725478715,0.28513375828243187,0.7251567302899582
0.066,1.7153369414384096,1.0,2994.929772041689,0.5240860008969308,1.2931537232501824,0.9818709023049796,0.2850971515404132,0.7259594851548326
0.0665,1.714465352342727,1.0,2998.9937758262286,0.5267554927242915,1.2927248489766845,0.9820297952990454,0.28506054479839454,0.7267607231874276
0.067,1.7135937632470444,1.0,3003.0396275024646,0.5294100075812008,1.2922961558830819,0.9821854429597732,0.2850239380563759,0.7275604504335877
0.0675,1.7127221741513616,1.0,3007.067565985167,0.5320496313072768,1.2918676415343604,0.9823379335661542,0.28498733131435716,0.7283586729118945
0.068,1.711850585055679,1.0,3011.0778311575764,0.5346744497421372,1.2914393034955058,0.982487352377364,0.2849507245723385,0.729155396613694
0.0685,1.7109789959599966,1.0,3015.0706638608513,0.5372845487254001,1.2910111393315045,0.9826337817573454,0.28491411783031984,0.729950627503124
0.069,1.710107406864314,1.0,3019.046202339717,0.5398800014838733,1.290583147502262,0.9827773005466107,0.28487751108830117,0.7307443698586692
0.0695,1.7092358177686313,1.0,3023.0045795085985,0.542460869197268,1.290155326519493,0.9829179842204921,0.2848409043462825,0.7315366278455563
0.07,1.7083642286729488,1.0,3026.9464729469105,0.5450272806010961,1.2897276701992324,0.9830559096736925,0.28480429760426385,0.7323274142886633
0.07050000000000001,1.707492639577266,1.0,3030.872081801114,0.5475793123128775,1.2893001765021175,0.9831911482700751,0.2847676908622452,0.733116734297971
0.07100000000000001,1.7066210504815835,1.0,3034.7816060078285,0.5501170409501326,1.2888728433887848,0.9833237690452613,0.2847310841202265,0.7339045929607098
0.07150000000000001,1.705749461385901,1.0,3038.6752462862473,0.5526405431303816,1.288445668819872,0.9834538387983025,0.28469447737820786,0.7346909953413799
