Time [s],Phi [rad],STIM [ ],Fsee [N],Gamma [ ],Lcerel [ ],q [ ],Lmtc [m],fisomrel [ ]
0.0,1.8,1.0,17.965891310832365,1.2929941362717552e-05,1.3793398881525463,0.005000044467091821,0.288653,0.5411391876798906
0.0005,1.79999375,1.0,18.276327491570104,0.005622066723413071,1.3793024340719724,0.012948653205795142,0.2886527375,0.5412297943465467
0.001,1.799975,1.0,21.620199395993293,0.011199740683022884,1.3789381164521861,0.03562385590875386,0.28865195,0.5421106629453746
0.0015,1.79994375,1.0,31.075605229121564,0.016746128302615102,1.3780456611206962,0.07062262368819076,0.2886506375,0.5442649174356371
0.002,1.7999,1.0,53.59772303974756,0.02226140507295302,1.3763671368893629,0.11474261219660756,0.2886488,0.5483028643804324
0.0025,1.79984375,1.0,97.14571594124887,0.027745745500731445,1.3739338769663842,0.16460162681631324,0.28864643749999996,0.5541245397222228
0.003,1.7997750000000001,1.0,160.9936962191092,0.03319932311626096,1.3712130139304632,0.2173080317042793,0.28864354999999997,0.5605895991347631
0.0035,1.79969375,1.0,237.7238625974326,0.03862231047308397,1.3685834858226789,0.2706403154863818,0.2886401375,0.5667927741671017
0.004,1.7996,1.0,321.51016309062135,0.04401487915875082,1.3661549431531788,0.3229423570330668,0.2886362,0.5724826454224887
0.0045000000000000005,1.7994937500000001,1.0,409.31289990185326,0.04937719980000579,1.3639217543740405,0.37305971478634664,0.2886317375,0.5776816221088028
0.005,1.799375,1.0,499.4597347285216,0.054709442053889806,1.36185735997397,0.420271043657288,0.28862675,0.5824593464051935
0.0055,1.79924375,1.0,590.8371923759205,0.060011774655043114,1.3599379211813662,0.4641955323337085,0.2886212375,0.5868772094886371
0.006,1.7991000000000001,1.0,682.5650603773937,0.06528436535926341,1.358145561298793,0.5047000275440059,0.2886152,0.590981367735882
0.006500000000000001,1.79894375,1.0,773.9305163536317,0.07052738099996869,1.3564664127558688,0.5418190802166758,0.2886086375,0.594807705921437
0.007,1.798775,1.0,864.3348270151538,0.07574098746452813,1.3548896032451765,0.5756934738145082,0.28860155,0.5983844690959224
0.0075,1.79859375,1.0,953.290118958873,0.08092534972480078,1.3534060577749747,0.6065251115877452,0.2885939375,0.6017351987498446
0.008,1.7984,1.0,1040.4046945643881,0.08608063180459102,1.3520079655617232,0.6345458645030226,0.2885858,0.6048800771080889
0.0085,1.79819375,1.0,1125.3649571331664,0.09120699679683482,1.3506885233616956,0.6599969339687681,0.2885771375,0.6078366058112037
0.009000000000000001,1.797975,1.0,1207.9309478787136,0.09630460696834654,1.3494416146547095,0.6831156941409062,0.28856795,0.6106204016183341
0.0095,1.79774375,1.0,1287.9200845416542,0.1013736236978104,1.348261754894059,0.7041279527485151,0.2885582375,0.6132453765245868
0.01,1.7975,1.0,1365.1978192811662,0.1064142070568227,1.3471439898036084,0.7232437400811975,0.288548,0.6157240125740824
0.0105,1.79724375,1.0,1439.6759155103566,0.11142651620452566,1.346083740925217,0.7406554139999426,0.2885372375,0.6180677431990027
0.011,1.796975,1.0,1511.3448396431081,0.11641071137571,1.3450762772643312,0.7565370815674801,0.28852595000000003,0.6202881469049439
0.0115,1.79669375,1.0,1580.1549630215886,0.12136694912628586,1.344118077469095,0.7710458176787082,0.2885141375,0.622393969256932
0.012,1.7964,1.0,1646.0957295452251,0.1262953857325034,1.3432057117637524,0.7843221625325139,0.28850180000000003,0.624393620576327
0.0125,1.79609375,1.0,1709.1987357478058,0.1311961774706128,1.3423357503725457,0.7964914182582231,0.2884889375,0.6262953890843944
0.013000000000000001,1.7957750000000001,1.0,1769.5161685746807,0.1360694797295971,1.3415049642169343,0.8076651562724905,0.28847555,0.628107013441296
0.0135,1.79544375,1.0,1827.1058810096338,0.1409154471575578,1.3407104356233295,0.8179426592658784,0.2884616375,0.6298354561778096
0.014,1.7951000000000001,1.0,1882.0139027309972,0.14573423231176957,1.3399496929998962,0.8274122903305671,0.2884472,0.6314866270066211
0.0145,1.79474375,1.0,1934.308483761543,0.15052598764368857,1.33922028461623,0.836152559704036,0.2884322375,0.6330663217630227
0.015,1.794375,1.0,1984.0601769762886,0.1552908644339236,1.3385199673808956,0.8442333237491347,0.28841675,0.6345798204223131
0.0155,1.79399375,1.0,2031.378286810236,0.1600290153273595,1.3378462901023989,0.8517166596402377,0.2884007375,0.6360327942093296
0.016,1.7936,1.0,2076.3268894081616,0.16474058902873653,1.3371974626075718,0.8586580568984938,0.2883842,0.6374294362596149
0.0165,1.7931937500000001,1.0,2118.9789541566915,0.1694257339357449,1.33657174650314,0.8651070034347772,0.2883671375,0.6387737865300578
0.017,1.792775,1.0,2159.4199973578025,0.17408459844607474,1.335967403395829,0.8711076812305022,0.28834955,0.6400698464778835
0.0175,1.7923437500000001,1.0,2197.737105477593,0.17871732995647702,1.335382795196151,0.8766996207271973,0.2883314375,0.641321366984747
0.018000000000000002,1.7919,1.0,2234.0251181547355,0.18332407658982833,1.3348163077793505,0.8819182273768759,0.2883128,0.6425320154496278
0.0185,1.79144375,1.0,2268.360117743701,0.18790498357469937,1.3342666055105934,0.8867953259087634,0.2882936375,0.643704835588091
0.019,1.790975,1.0,2300.8144049737957,0.19246019484825894,1.3337324649798108,0.8913595306086074,0.28827395,0.6448426078396026
0.0195,1.79049375,1.0,2331.466888844258,0.1969898543476759,1.3332126627769336,0.8956365859602575,0.2882537375,0.6459480910877089
0.02,1.79,1.0,2360.4012597401766,0.20149410582061905,1.332705987888332,0.8996496952851207,0.288233,0.6470239975231156
0.0205,1.78949375,1.0,2387.6899147787253,0.2059730911275641,1.332211392455704,0.9034198390488102,0.2882117375,0.6480726744982215
0.021,1.788975,1.0,2413.4249153757105,0.2104269551083504,1.331727683446334,0.9069659554507509,0.28818995000000003,0.6490967603167372
0.021500000000000002,1.78844375,1.0,2437.6648128960956,0.21485583684144474,1.3312540338773673,0.9103052686122511,0.2881676375,0.6500981028060332
0.022,1.7879,1.0,2460.471572509302,0.21925987540531378,1.3307896167659485,0.9134533990726951,0.2881448,0.651078537754582
0.0225,1.78734375,1.0,2481.910292819829,0.2236392098784243,1.3303336051292227,0.9164245352484277,0.28812143749999997,0.6520398894206976
0.023,1.786775,1.0,2502.0489406607676,0.22799397933924304,1.329885171984335,0.9192315845658305,0.28809755,0.6529839709976586
0.0235,1.78619375,1.0,2520.9498866159024,0.2323243208502097,1.3294435680415544,0.9218863203248205,0.28807313749999996,0.653912421798628
0.024,1.7856,1.0,2538.679343571325,0.23663037416494145,1.3290080291722974,0.9243994835136589,0.2880482,0.6548269028704103
0.0245,1.78499375,1.0,2555.2924733344325,0.2409122756329229,1.328577914676042,0.9267809086317951,0.2880227375,0.6557288073569634
0.025,1.784375,1.0,2570.8374158131805,0.24517015905653816,1.3281526658745861,0.9290396069702989,0.28799675,0.6566193491052368
0.025500000000000002,1.78374375,1.0,2585.363794946897,0.2494041582381714,1.3277317240897282,0.9311838349176796,0.2879702375,0.6574997354119079
0.026000000000000002,1.7831000000000001,1.0,2598.9225919714454,0.2536144069802067,1.3273145306432663,0.9332211674553594,0.2879432,0.658371167186793
0.0265,1.78244375,1.0,2611.5660256039146,0.25780103908502816,1.3269005268569989,0.9351585636009723,0.2879156375,0.6592348390963538
0.027,1.781775,1.0,2623.337897651194,0.26196418569265856,1.326489242518723,0.9370024373304452,0.28788755,0.6600917554832606
0.0275,1.7810937500000001,1.0,2634.2871618771696,0.2661039813080121,1.3260801684358807,0.9387586914527063,0.2878589375,0.6609429966608025
0.028,1.7804,1.0,2644.4630522822554,0.2702205592901995,1.3256728010165466,0.9404327695204019,0.2878298,0.6617896258865971
0.0285,1.77969375,1.0,2653.8990329219446,0.2743140475944368,1.3252667893817378,0.9420297171440668,0.2878001375,0.662632384328113
0.029,1.778975,1.0,2662.629175940667,0.27838457417594,1.3248617826524727,0.9435541978412756,0.28776995,0.6634720094765868
0.029500000000000002,1.7782437500000001,1.0,2670.688108472556,0.28243226698992524,1.3244574299497687,0.9450105269046575,0.2877392375,0.6643092351734405
0.03,1.7775,1.0,2678.110962272202,0.28645725399160854,1.3240533803946437,0.9464027018633981,0.287708,0.6651447916288404
0.0305,1.77674375,1.0,2684.933326074691,0.290459663136206,1.3236492831081155,0.9477344299179326,0.2876762375,0.6659794054324073
0.031,1.775975,1.0,2691.191200685669,0.29443962237893373,1.3232447872112019,0.9490091526814938,0.28764395,0.6668137995560741
0.0315,1.7751937500000001,1.0,2696.913502156449,0.29839725446819026,1.3228396099929107,0.950230075393286,0.2876111375,0.6676485529962541
0.032,1.7744,1.0,2702.1367633738464,0.3023326913780333,1.322433401913255,0.9514001743747662,0.2875778,0.6684843792431292
0.0325,1.77359375,1.0,2706.8841752423996,0.30624605560990426,1.3220259379224306,0.9525222331265071,0.2875439375,0.669321732478249
0.033,1.772775,1.0,2711.178484476725,0.31013746914773793,1.3216169990205666,0.9535988465054706,0.28750955,0.6701610521077961
0.0335,1.7719437500000002,1.0,2715.0426337210365,0.314007053975469,1.3212063662077926,0.9546324352605048,0.2874746375,0.6710027752155148
0.034,1.7711000000000001,1.0,2718.499741831543,0.31785493207703225,1.3207938204842375,0.9556252597887388,0.2874392,0.6718473365405828
0.0345,1.7702437500000001,1.0,2721.5730852228385,0.3216812254363624,1.3203791428500309,0.9565794326501637,0.2874032375,0.6726951684524219
0.035,1.7693750000000001,1.0,2724.286080277361,0.32548605603739417,1.319962114305302,0.9574969299655675,0.28736675,0.6735467009224518
0.035500000000000004,1.76849375,1.0,2726.6538820780906,0.32926953846874074,1.3195425921040074,0.9583796080761252,0.2873297375,0.6744022060951913
0.036000000000000004,1.7676,1.0,2728.701980431566,0.33303179782670844,1.319120340414542,0.9592291991794117,0.2872922,0.6752621439212592
0.0365,1.76669375,1.0,2730.458332002624,0.3367729622078931,1.3186951018831063,0.960047326137775,0.2872541375,0.6761270154200143
0.037,1.765775,1.0,2731.936144918234,0.3404931464716382,1.3182667539415653,0.9608355225173894,0.28721555,0.6769970450749334
0.0375,1.76484375,1.0,2733.148686083077,0.3441924654772868,1.3178351740217835,0.9615952286726349,0.2871764375,0.6778724558499445
0.038,1.7639,1.0,2734.10927445474,0.3478710340841823,1.3174002395556252,0.9623277984413915,0.28713679999999997,0.678753469164642
0.0385,1.76294375,1.0,2734.8312746529405,0.3515289671516678,1.3169618279749549,0.9630345052887321,0.28709663750000003,0.6796403048685431
0.039,1.761975,1.0,2735.328090900551,0.35516637953908664,1.3165198167116372,0.9637165479499715,0.28705595,0.6805331812143864
0.0395,1.7609937500000001,1.0,2735.6131612991508,0.35878338610578214,1.3160740831975364,0.9643750556188334,0.2870147375,0.6814323148304746
0.04,1.76,1.0,2735.69995243641,0.3623801017110974,1.3156245048645174,0.9650110927218887,0.286973,0.6823379206920543
0.0405,1.7589937500000001,1.0,2735.6019543273787,0.3659566412143758,1.3151709591444445,0.9656256633163043,0.2869307375,0.683250212091744
0.041,1.757975,1.0,2735.332675688496,0.36951311947496057,1.3147133234691821,0.9662197151442893,0.28688795,0.6841694006089986
0.0415,1.75694375,1.0,2734.9030763443584,0.3730496472278641,1.314251498546085,0.9667941446523434,0.2868446375,0.685095649430931
0.042,1.7559,1.0,2734.3220089492247,0.37656633362798475,1.3137854043218562,0.9673498004649844,0.28680079999999997,0.6860290817428866
0.0425,1.75484375,1.0,2733.6063975332586,0.38006330254594717,1.3133148875174157,0.96788748150344,0.2867564375,0.686969965752389
0.043000000000000003,1.753775,1.0,2732.7630321369797,0.38354066125149716,1.3128398869307991,0.9684079485895343,0.28671155,0.6879183837535868
0.043500000000000004,1.75269375,1.0,2731.7987079381996,0.38699851701438065,1.312360341360042,0.9689119221330361,0.28666613750000003,0.6888744169178509
0.044,1.7516,1.0,2730.7202237168717,0.39043697710434333,1.3118761896031799,0.9694000846778908,0.2866202,0.6898381452761524
0.0445,1.75049375,1.0,2729.534380404494,0.39385614879113123,1.3113873704582486,0.9698730832636527,0.2865737375,0.6908096477012036
0.045,1.7493750000000001,1.0,2728.2479797152137,0.3972561393444901,1.3108938227232836,0.9703315316172217,0.28652675,0.6917890018893607
0.0455,1.74824375,1.0,2726.8678228609356,0.4006370560341658,1.3103954851963202,0.9707760121886204,0.2864792375,0.6927762843422862
0.046,1.7471,1.0,2725.400709348849,0.40399900612990414,1.3098922966753945,0.9712070780433182,0.2864312,0.6937715703483713
0.0465,1.7459437500000001,1.0,2723.853435862562,0.40734209690145096,1.309384195958542,0.971625254622491,0.28638263750000004,0.6947749339639239
0.047,1.744775,1.0,2722.2327952255637,0.4106664356185521,1.3088711218437978,0.9720310413816142,0.28633355,0.6957864479941129
0.0475,1.74359375,1.0,2720.544600940466,0.41397212654017157,1.3083530220016768,0.9724249135628877,0.28628393750000003,0.6968061665256168
0.048,1.7424,1.0,2718.7906505708115,0.4172592619176796,1.3078298806375206,0.9728073244337642,0.2862338,0.6978340707483732
0.0485,1.74119375,1.0,2716.9840720661723,0.42052797118184065,1.3073015787327875,0.9731787029515572,0.2861831375,0.6988703434577054
0.049,1.739975,1.0,2715.1280907121027,0.42377835381113804,1.3067680873767897,0.9735394601508286,0.28613195,0.6999149890535278
0.0495,1.73874375,1.0,2713.225928899591,0.4270105092840552,1.30622937765884,0.9738899877203417,0.2860802375,0.7009680110289525
0.05,1.7375,1.0,2711.280805842347,0.4302245370790756,1.3056854206682509,0.9742306590856809,0.286028,0.7020294119606967
0.0505,1.73624375,1.0,2709.2959373121666,0.4334205366746825,1.3051361874943346,0.9745618304218701,0.2859752375,0.7030991934994334
0.051000000000000004,1.734975,1.0,2707.274535393544,0.43659860754935936,1.304581649226404,0.9748838416011048,0.28592195,0.7041773563600887
0.051500000000000004,1.73369375,1.0,2705.2198082560994,0.43975884918158953,1.3040217769537712,0.9751970170802878,0.2858681375,0.70526390031209
0.052000000000000005,1.7324,1.0,2703.1349599459954,0.4429013610498564,1.303456541765749,0.9755016667326961,0.2858138,0.7063588241695542
0.0525,1.73109375,1.0,2701.0231901958487,0.44602624263264334,1.3028859147516498,0.9757980866277474,0.28575893750000003,0.7074621257814295
0.053,1.729775,1.0,2698.8876942528523,0.44913359340843384,1.3023098670007864,0.9760865597625321,0.28570355000000003,0.7085738020215779
0.0535,1.72844375,1.0,2696.7316627258488,0.4522235128557112,1.3017283696024708,0.9763673567484777,0.2856476375,0.7096938487788098
0.054,1.7271,1.0,2694.558281450743,0.4552961004529589,1.3011413936460159,0.9766407364562658,0.2855912,0.7108222609468601
0.0545,1.7257437500000001,1.0,2692.370731374281,0.45835145567866015,1.3005489102207342,0.9769069466218626,0.2855342375,0.7119590324143147
0.055,1.724375,1.0,2690.168547912576,0.4613896480392831,1.2999509237481226,0.9771662235236269,0.28547675,0.713104092291607
0.0555,1.72299375,1.0,2687.9569669135603,0.46441080964823495,1.2993473864444562,0.9774187963626348,0.2854187375,0.7142574688420708
0.056,1.7216,1.0,2685.73785542538,0.4674150382859523,1.2987382813177075,0.9776648832549766,0.2853602,0.7154191303422903
0.0565,1.72019375,1.0,2683.5123643531556,0.47040242493573253,1.2981235979131973,0.9779046930094942,0.28530113749999997,0.7165890317834511
0.057,1.718775,1.0,2681.2816427440675,0.4733730605808726,1.297503325776246,0.9781384258450125,0.28524155,0.7177671273981914
0.0575,1.71734375,1.0,2679.0468377727075,0.4763270362046698,1.2968774544521742,0.9783662738109972,0.2851814375,0.7189533706568789
0.058,1.7159,1.0,2676.809094729341,0.47926444279042135,1.2962459734863023,0.9785884211843353,0.2851208,0.7201477142638809
0.0585,1.71444375,1.0,2674.569557010784,0.4821853713214243,1.295608872423951,0.9788050448437806,0.2850596375,0.7213501101538276
0.059000000000000004,1.7129750000000001,1.0,2672.3293661129323,0.4850899127809759,1.2949661408104407,0.9790163146234836,0.28499795,0.7225605094878675
0.059500000000000004,1.71149375,1.0,2670.0896616264176,0.4879781581523733,1.2943177681910922,0.9792223936469272,0.2849357375,0.7237788626499186
0.06,1.71,1.0,2667.851581234307,0.49085019841891364,1.2936637441112258,0.9794234386425066,0.284873,0.7250051192429099
0.0605,1.7084937500000001,1.0,2665.616260712607,0.4937061245638942,1.2930040581161621,0.9796196002418857,0.2848097375,0.726239228085015
0.061,1.7069750000000001,1.0,2663.384833932517,0.49654602757061206,1.2923386997512218,0.9798110232622057,0.28474595,0.7274811372058831
0.0615,1.7054437500000001,1.0,2661.1584328657495,0.4993699984223644,1.2916676585617253,0.9799978469731265,0.2846816375,0.7287307938428599
0.062,1.7039,1.0,2658.9381875923737,0.5021781281024484,1.2909909240929929,0.9801802053496345,0.2846168,0.7299881444372005
0.0625,1.70234375,1.0,2656.72522630998,0.5049705075941613,1.2903084858903457,0.9803582273114665,0.2845514375,0.7312531346302772
0.063,1.7007750000000001,1.0,2654.520675346788,0.5077472278808002,1.2896203334991039,0.9805320369499647,0.28448555,0.7325257092597827
0.0635,1.69919375,1.0,2652.3241077819707,0.510508327427877,1.2889264707698618,0.9807017505961705,0.28441913750000003,0.7338057859964038
0.064,1.6976,1.0,2650.1377623775224,0.5132539560670157,1.2882268769696805,0.980867487225579,0.2843522,0.7350933271438287
0.0645,1.69599375,1.0,2647.961940894217,0.515984203545216,1.2875215492074257,0.9810293579549707,0.2842847375,0.7363882612926081
0.065,1.694375,1.0,2645.7967147657846,0.518699151532909,1.2868104867141268,0.9811874693964727,0.28421675,0.7376905124706814
0.0655,1.69274375,1.0,2643.642155342845,0.5213988817005263,1.286093688720813,0.9813419243256818,0.2841482375,0.7390000040628781
0.066,1.6911,1.0,2641.498333894247,0.524083475718499,1.2853711544585134,0.9814928218456799,0.2840792,0.7403166588106356
0.0665,1.6894437500000001,1.0,2639.365321608909,0.5267530152572588,1.2846428831582573,0.9816402575429015,0.2840096375,0.7416403988117178
0.067,1.687775,1.0,2637.2431895967625,0.5294075819872369,1.2839088740510736,0.9817843236353067,0.28393955,0.742971145519935
0.0675,1.68609375,1.0,2635.1320088910984,0.5320472575788647,1.2831691263679919,0.9819251091132929,0.2838689375,0.7443088197448606
0.068,1.6844000000000001,1.0,2633.031850449514,0.5346721237025737,1.282423639340041,0.982062699873752,0.2837978,0.7456533416515512
0.0685,1.68269375,1.0,2630.942785155891,0.5372822620287951,1.2816724121982503,0.9821971788476453,0.2837261375,0.7470046307602645
0.069,1.680975,1.0,2628.864883821823,0.5398777542279604,1.280915444173649,0.9823286261214578,0.28365395,0.7483626059461783
0.0695,1.67924375,1.0,2626.798217188296,0.542458681970501,1.280152734497266,0.9824571190528608,0.28358123749999997,0.7497271854391083
0.07,1.6775,1.0,2624.7428559274,0.5450251269268481,1.2793842824001311,0.9825827323809004,0.283508,0.7510982868232263
0.07050000000000001,1.67574375,1.0,2622.6988706439106,0.5475771707674333,1.2786100871132728,0.9827055383310022,0.2834342375,0.7524758270367811
0.07100000000000001,1.673975,1.0,2620.6663318768283,0.550114895162688,1.2778301478677208,0.9828256067150714,0.28335995,0.7538597223718126
0.07150000000000001,1.67219375,1.0,2618.645310101247,0.5526383817830434,1.2770444638945038,0.9829430050269481,0.2832851375,0.7552498884738743
0.07200000000000001,1.6704,1.0,2616.635875730046,0.5551477122989309,1.2762530344246514,0.9830577985334622,0.2832098,0.7566462403417485
0.0725,1.66859375,1.0,2614.6380991154983,0.557642968380782,1.2754558586891929,0.9831700503613189,0.2831339375,0.7580486923271665
0.073,1.6667750000000001,1.0,2612.6520505510193,0.5601242316990279,1.274652935919157,0.9832798215800288,0.28305755,0.7594571581345264
0.0735,1.66494375,1.0,2610.677937871707,0.5625915724450443,1.273844264066706,0.9833871705601271,0.2829806375,0.760871553054095
0.074,1.6631,1.0,2608.7166975792748,0.5650450303860195,1.2730298343066642,0.9834921517574648,0.2829032,0.7622918035027919
0.0745,1.6612437500000001,1.0,2606.7675923658567,0.5674847509349729,1.2722096533696667,0.9835948245734181,0.2828252375,0.7637178080751463
0.075,1.659375,1.0,2604.830372875655,0.5699108063658795,1.2713837234569454,0.9836952421896601,0.28274675,0.7651494727125134
0.0755,1.65749375,1.0,2602.9047901772065,0.5723232689527145,1.2705520467697315,0.9837934561121824,0.2826677375,0.766586702770118
