Time [s],Phi [rad],STIM [ ],Fsee [N],Gamma [ ],Lcerel [ ],q [ ],Lmtc [m],fisomrel [ ]
0.0,1.8,1.0,17.968011090317294,1.0447428004631279e-05,1.3793396506649842,0.005000029080023952,0.288653,0.5411397622237493
0.0005,1.79999375,1.0,18.277414839331907,0.005619598134989995,1.379302313289221,0.012941754990284375,0.2886527375,0.5412300865224668
0.001,1.799975,1.0,21.61932096531551,0.01119728594142978,1.37893820616809,0.035610904239015646,0.28865195,0.5421104461291779
0.0015,1.79994375,1.0,31.07078609961349,0.016743687330179554,1.378046071667822,0.07060489013599335,0.2886506375,0.5442639276037244
0.002,1.7999,1.0,53.585096601531404,0.022258977792445674,1.3763679559586584,0.11472160845706893,0.2886488,0.5483008983657571
0.0025,1.79984375,1.0,97.12306258704079,0.027743331835346597,1.3739349684906312,0.1645787783455325,0.28864643749999996,0.5541219366706334
0.003,1.7997750000000001,1.0,160.96345249778614,0.03319692298963097,1.3712141459099785,0.21728446315148223,0.28864354999999997,0.560586919248486
0.0035,1.79969375,1.0,237.68925054769147,0.03861992380926882,1.3685845519132864,0.2706168766024956,0.2886401375,0.5667902681469448
0.004,1.7996,1.0,321.47304911952426,0.04401250588223379,1.366155926122547,0.32291966376936604,0.2886362,0.5724803500170276
0.0045000000000000005,1.7994937500000001,1.0,409.2742568308848,0.049374839835687745,1.36392266144559,0.3730381743909302,0.2886317375,0.5776795168570106
0.005,1.799375,1.0,499.4201350876034,0.05470709532706751,1.3618582014407852,0.4202508922449445,0.28862675,0.5824574044963015
0.0055,1.79924375,1.0,590.7971123658222,0.06000944109156591,1.35993870422985,0.4641768761930109,0.2886212375,0.5868754119813027
0.006,1.7991000000000001,1.0,682.5248090492948,0.06528204488525739,1.3581462929464205,0.5046828836986026,0.2886152,0.590979696583982
0.006500000000000001,1.79894375,1.0,773.8880010092784,0.07052507354072565,1.3564671385075622,0.5418034319794637,0.2886086375,0.5948060560083881
0.007,1.798775,1.0,864.2924158911269,0.07573869295065834,1.3548902883097067,0.5756792176492117,0.28860155,0.5983829185696852
0.0075,1.79859375,1.0,953.249790504987,0.08092306807758051,1.3534066780595733,0.6065121326690508,0.2885939375,0.601733800710769
0.008,1.7984,1.0,1040.3513390199982,0.08607836256040091,1.352008751107232,0.6345341918452968,0.2885858,0.6048783135967053
0.0085,1.79819375,1.0,1125.3213149924572,0.09120474049212406,1.3506891411660147,0.6599862621565334,0.2885771375,0.6078352240696525
0.009000000000000001,1.797975,1.0,1207.9064741771608,0.09630236379868815,1.3494419490561838,0.6831058604030382,0.28856795,0.6106196563769626
0.0095,1.79774375,1.0,1287.8978646879998,0.10137139302070979,1.3482620489202295,0.7041189983128219,0.2885582375,0.6132447234753944
0.01,1.7975,1.0,1365.1725250541851,0.10641198869880562,1.347144314900643,0.72323561230543,0.288548,0.6157232928321531
0.0105,1.79724375,1.0,1439.665392782431,0.11142431076703194,1.3460838726247222,0.7406479190886687,0.2885372375,0.6180674525161833
0.011,1.796975,1.0,1511.3281029230022,0.11640851798224318,1.3450764817096403,0.7565302769481836,0.28852595000000003,0.6202876969735213
0.0115,1.79669375,1.0,1580.126239138697,0.12136476752344642,1.3441184206180332,0.7710396630842289,0.2885141375,0.6223932161713979
0.012,1.7964,1.0,1646.0613659961066,0.1262932160049037,1.3432061139804656,0.7843165581440136,0.28850180000000003,0.6243927401990678
0.0125,1.79609375,1.0,1709.1784044863555,0.13119402037352537,1.3423359839100923,0.796486214413892,0.2884889375,0.626294879210169
0.013000000000000001,1.7957750000000001,1.0,1769.5114027663096,0.13606733544974803,1.341505018018756,0.8076603071366555,0.28847555,0.6281068962627843
0.0135,1.79544375,1.0,1827.096498636131,0.1409133146561976,1.3407105398595838,0.8179382154260881,0.2884616375,0.629835229683007
0.014,1.7951000000000001,1.0,1881.9974604772858,0.1457321114155002,1.3399498729857027,0.8274082216396621,0.2884472,0.6314862367889178
0.0145,1.79474375,1.0,1934.283482329384,0.15052387819077256,1.3392205545708722,0.8361488352663463,0.2884322375,0.6330657377443556
0.015,1.794375,1.0,1984.054179746865,0.15528876797929,1.3385200313191754,0.8442298123034118,0.28841675,0.6345796823841343
0.0155,1.79399375,1.0,2031.3747265016907,0.160026930615602,1.3378463276152266,0.8517133972988293,0.2884007375,0.6360327133829878
0.016,1.7936,1.0,2076.3158686278807,0.16473851537748063,1.3371975774632407,0.8586550525520871,0.2883842,0.6374291892631434
0.0165,1.7931937500000001,1.0,2118.9626339707684,0.169423671542698,1.3365719148674342,0.865104227147666,0.2883671375,0.6387734251354229
0.017,1.792775,1.0,2159.397721471001,0.17408254728916983,1.3359676310391646,0.871105114615786,0.28834955,0.6400693587178947
0.0175,1.7923437500000001,1.0,2197.7246666552564,0.17871529158223862,1.3353829211987165,0.8766972019903644,0.2883314375,0.6413210974751771
0.018000000000000002,1.7919,1.0,2234.0170862263326,0.18332205005324834,1.334816388477499,0.8819159576075913,0.2883128,0.6425318431341979
0.0185,1.79144375,1.0,2268.3489971245062,0.1879029677165145,1.3342667163925497,0.886793210951919,0.2882936375,0.6437045992096389
0.019,1.790975,1.0,2300.8019324800002,0.1924581895863527,1.3337325884609048,0.8913575531944745,0.28827395,0.6448423450229093
0.0195,1.79049375,1.0,2331.456526975106,0.19698785965443505,1.3332127646856518,0.8956347265223669,0.2882537375,0.64594787452342
0.02,1.79,1.0,2360.4012633183356,0.20149212287228618,1.3327059878533574,0.8996479263239281,0.288233,0.6470239975973266
0.0205,1.78949375,1.0,2387.7095022513477,0.20597112162752987,1.3322112020956025,0.9034181343176004,0.2882117375,0.6480730778131211
0.021,1.788975,1.0,2413.445639944861,0.21042499641908347,1.3317274831121506,0.9069643472416348,0.28818995000000003,0.6490971841456563
0.021500000000000002,1.78844375,1.0,2437.6780453976494,0.21485388774586434,1.331253906602765,0.9103037664908277,0.2881676375,0.65009837168497
0.022,1.7879,1.0,2460.47872742784,0.21925793610678987,1.330789548267209,0.9134519925471497,0.2881448,0.6510786822614025
0.0225,1.78734375,1.0,2481.9134121425373,0.22363727999393979,1.3303335753951429,0.9164232131980943,0.28812143749999997,0.6520399520620583
0.023,1.786775,1.0,2502.0576504218006,0.22799206097595717,1.329885089295792,0.9192303244877925,0.28809755,0.6529841449627146
0.0235,1.78619375,1.0,2520.969967122902,0.2323224165269463,1.32944337811789,0.9218851089724175,0.28807313749999996,0.6539128208363295
0.024,1.7856,1.0,2538.7022810428084,0.23662848209187445,1.3290078129860743,0.9243983310460288,0.2880482,0.6548273564863533
0.0245,1.78499375,1.0,2555.308403247537,0.2409103931157089,1.3285777650249813,0.9267798260068608,0.2880227375,0.6557291209540441
0.025,1.784375,1.0,2570.8438770501,0.24516828504341684,1.3281526053592478,0.9290385929978711,0.28799675,0.6566194757523525
0.025500000000000002,1.78374375,1.0,2585.3658267573132,0.24940229331996563,1.3277317051135111,0.9311828775195452,0.2879702375,0.6574997750745873
0.026000000000000002,1.7831000000000001,1.0,2598.9209801515804,0.2536125500809112,1.327314545657642,0.9332202612640973,0.2879432,0.6583711358448066
0.0265,1.78244375,1.0,2611.570168103695,0.25779919313616856,1.3269004883624536,0.9351576928060843,0.2879156375,0.6592349193507314
0.027,1.781775,1.0,2623.357649732389,0.26196235470592094,1.326489059383321,0.9370015872162155,0.28788755,0.6600921368080177
0.0275,1.7810937500000001,1.0,2634.32087478986,0.2661021645708933,1.326079856510505,0.9387578625409767,0.2878589375,0.6609436453382924
0.028,1.7804,1.0,2644.498081731468,0.2702187525118107,1.3256724775342656,0.9404319758177547,0.2878298,0.6617902977573127
0.0285,1.77969375,1.0,2653.928229316189,0.2743122483093982,1.3252665202448635,0.9420289650365163,0.2878001375,0.6626329426269064
0.029,1.778975,1.0,2662.6509317940368,0.2783827817443807,1.3248615824325585,0.9435534867760198,0.28776995,0.6634724242966008
0.029500000000000002,1.7782437500000001,1.0,2670.706397680004,0.2824304825974832,1.3244572618876111,0.9450098500075205,0.2877392375,0.6643095829349303
0.03,1.7775,1.0,2678.126584626211,0.2864554765009644,1.324053237037633,0.946402055829271,0.287708,0.6651450878999734
0.0305,1.77674375,1.0,2684.953485656407,0.2904578960009272,1.3236490983509344,0.9477338055783435,0.2876762375,0.6659797867877144
0.031,1.775975,1.0,2691.219098836302,0.2944378681932629,1.323244531829727,0.9490085458795327,0.28764395,0.6668143260273616
0.0315,1.7751937500000001,1.0,2696.949332279593,0.29839551679118054,1.3228392823500361,0.9502294859734366,0.2876111375,0.6676492275883728
0.032,1.7744,1.0,2702.1703822603567,0.30233096550788907,1.3224330947878875,0.9513996111721759,0.2875778,0.668485010795616
0.0325,1.77359375,1.0,2706.9087058663476,0.3062443380565974,1.3220257140193068,0.9525217012268257,0.2875439375,0.6693221923161852
0.033,1.772775,1.0,2711.1909950947706,0.31013575815051453,1.3216168849203191,0.953598346976906,0.28750955,0.6701612861420606
0.0335,1.7719437500000002,1.0,2715.0441523914255,0.3140053495028494,1.3212063523669504,0.9546319654609756,0.2874746375,0.6710028035686177
0.034,1.7711000000000001,1.0,2718.495267633121,0.317853235826811,1.3207938612352261,0.9556248136469311,0.2874392,0.6718472531689875
0.0345,1.7702437500000001,1.0,2721.5563179912124,0.3216795317195867,1.3203792954798572,0.9565790138609457,0.2874032375,0.6726948565938468
0.035,1.7693750000000001,1.0,2724.265716400249,0.3254843706352007,1.3199622995826397,0.9574965302102199,0.28736675,0.673546322850093
0.035500000000000004,1.76849375,1.0,2726.643398097235,0.3292678725684723,1.3195426874492457,0.9583792162020454,0.2873297375,0.6744020117911788
0.036000000000000004,1.7676,1.0,2728.7047210167984,0.3330301544037612,1.3191203155000217,0.9592288122214055,0.2872922,0.6752621946274445
0.0365,1.76669375,1.0,2730.4651242173763,0.3367713330254274,1.3186950401553148,0.9600469502973119,0.2872541375,0.6761271408813849
0.037,1.765775,1.0,2731.940118924675,0.3404915253178308,1.318266717835471,0.9608351620689567,0.28721555,0.6769971183617242
0.0375,1.76484375,1.0,2733.1452800320576,0.3441908481653312,1.3178352049608375,0.9615948860806945,0.2871764375,0.6778723931361685
0.038,1.7639,1.0,2734.0962380581104,0.34786941845228847,1.3174003579517608,0.9623274744691992,0.28713679999999997,0.6787532295028511
0.0385,1.76294375,1.0,2734.8086715613294,0.35152735306306254,1.3169620332285876,0.9630341990995557,0.28709663750000003,0.6796398899604583
0.039,1.761975,1.0,2735.2983000113927,0.3551647688820133,1.3165200872116645,0.9637162572012126,0.28705595,0.6805326351770419
0.0395,1.7609937500000001,1.0,2735.5808771186166,0.3587817827935006,1.316074376321338,0.9643747765495255,0.2870147375,0.6814317239575165
0.04,1.76,1.0,2735.6639218380383,0.36237850208353917,1.3156248319987938,0.9650108251754729,0.286973,0.6823372621994044
0.0405,1.7589937500000001,1.0,2735.5690600902203,0.36595505245107846,1.3151712578078758,0.965625402615606,0.2869307375,0.6832496117723261
0.041,1.757975,1.0,2735.3066343666205,0.36951154588752916,1.3147135599230162,0.9662194587926042,0.28688795,0.6841689260222643
0.0415,1.75694375,1.0,2734.885288231054,0.37304809229788266,1.314251660073782,0.9667938919051557,0.2868446375,0.685095325704312
0.042,1.7559,1.0,2734.3136769597277,0.3765648015871304,1.3137854799897406,0.96734955087442,0.28680079999999997,0.6860289303176279
0.0425,1.75484375,1.0,2733.600465104927,0.38006178366026366,1.3133149414004597,0.9678872385483628,0.2867564375,0.6869698580842682
0.043000000000000003,1.753775,1.0,2732.7543241936846,0.38353914842227393,1.3128399660355066,0.9684077146662773,0.28671155,0.6879182259276246
0.043500000000000004,1.75269375,1.0,2731.7839305636853,0.38699700577815255,1.3123604756244487,0.9689116986036866,0.28666613750000003,0.6888741494504727
0.044,1.7516,1.0,2730.697963333424,0.39043546563289083,1.3118763918968535,0.9693998719159359,0.2866202,0.6898377429126284
0.0445,1.75049375,1.0,2729.5051025094417,0.39385463789148034,1.3113876365822885,0.9698728806971,0.2865737375,0.6908091192082162
0.045,1.7493750000000001,1.0,2728.214027228797,0.3972546324589123,1.3108941314103209,0.970331337769302,0.28652675,0.6917883898425452
0.0455,1.74824375,1.0,2726.828125840428,0.4006355395425841,1.3103958462026581,0.9707758255715813,0.2864792375,0.6927755697070657
0.046,1.7471,1.0,2725.361873047008,0.40399749282538683,1.3098926499493417,0.9712068957236143,0.2864312,0.6937708721536184
0.0465,1.7459437500000001,1.0,2723.820333762909,0.4073405971439006,1.3093844971567414,0.9716250745698877,0.28638263750000004,0.6947743396654027
0.047,1.744775,1.0,2722.2078359573193,0.4106649547553835,1.308871349017257,0.9720308625770478,0.28633355,0.6957860004982775
0.0475,1.74359375,1.0,2720.52870547319,0.4139706679170938,1.3083531667232873,0.9724247357212552,0.28628393750000003,0.6968058819251295
0.048,1.7424,1.0,2718.787265483868,0.41725783888628976,1.3078299114672316,0.9728071469121918,0.2862338,0.6978340102234578
0.0485,1.74119375,1.0,2716.9878359849813,0.4205265699202295,1.307301544441489,0.9731785273214876,0.2861831375,0.6988704106628685
0.049,1.739975,1.0,2715.1347333180493,0.4237769632761713,1.3067680268384592,0.973539287622801,0.28613195,0.6999151074924694
0.0495,1.73874375,1.0,2713.2322697286286,0.4270091212113734,1.3062293198505412,0.9738898191501891,0.2860802375,0.7009681239281725
0.05,1.7375,1.0,2711.2847529576215,0.43022314598309397,1.3056853846701342,0.9742304949808442,0.286028,0.7020294821398982
0.0505,1.73624375,1.0,2709.296485865285,0.43341913984859126,1.3051361824896373,0.9745616709477735,0.2859752375,0.7030992032386825
0.051000000000000004,1.734975,1.0,2707.27176608965,0.4365972050651235,1.30458167450145,0.9748836865875403,0.28592195,0.7041773072636887
0.051500000000000004,1.73369375,1.0,2705.2148857375755,0.43975744388994886,1.3040218218979713,0.9751968660277736,0.2858681375,0.7052638131691269
0.052000000000000005,1.7324,1.0,2703.1301311094553,0.4428999585803256,1.3034565858716007,0.9755015188187686,0.2858138,0.7063587388110708
0.0525,1.73109375,1.0,2701.0136712019216,0.4460248197846414,1.302886001730699,0.9757979420642119,0.28575893750000003,0.7074619577665531
0.053,1.729775,1.0,2698.87659064825,0.4491321634549982,1.3023099684992354,0.9760864180797226,0.28570355000000003,0.7085736063328805
0.0535,1.72844375,1.0,2696.72254068265,0.4522220919704845,1.301728453020707,0.9763672174952784,0.2856476375,0.7096936882580709
0.054,1.7271,1.0,2694.5530412768326,0.45529469878597967,1.301141441585074,0.9766405994900003,0.2855912,0.7108221688777535
0.0545,1.7257437500000001,1.0,2692.3696101474306,0.45835007735636285,1.3005489204822964,0.9769068121129395,0.2855342375,0.7119590127453006
0.055,1.724375,1.0,2690.1737627124344,0.46138832113651335,1.2999508760023344,0.9771660928519856,0.28547675,0.713104183627016
0.0555,1.72299375,1.0,2687.967012052514,0.4644095235813104,1.2993472944351478,0.9774186691691066,0.2854187375,0.7142576444973116
0.056,1.7216,1.0,2685.750868875691,0.46741377814563323,1.298738162070697,0.9776647590041767,0.2853602,0.715419357533871
0.0565,1.72019375,1.0,2683.5268414868015,0.4704011782843611,1.2981234651989417,0.9779045712494803,0.28530113749999997,0.7165892841128041
0.057,1.718775,1.0,2681.296435760925,0.47337181745237333,1.2975031901098422,0.9781383061968183,0.28524155,0.7177673848037855
0.0575,1.71734375,1.0,2679.0611551206607,0.4763257891045491,1.2968773230933583,0.9783661559590142,0.2851814375,0.7189536193651841
0.058,1.7159,1.0,2676.8225005180902,0.4792631866957677,1.2962458504394505,0.978588304867475,0.2851208,0.7201479467391796
0.0585,1.71444375,1.0,2674.5819704208743,0.4821841036809083,1.2956087584380784,0.9788049298473471,0.2850596375,0.721350325046868
0.059000000000000004,1.7129750000000001,1.0,2672.341060801769,0.4850886335148502,1.2949660333792024,0.9790162007717016,0.28499795,0.7225607115833523
0.059500000000000004,1.71149375,1.0,2670.101265133448,0.4879768696524727,1.294317661552782,0.9792222807960705,0.2849357375,0.7237790628128254
0.06,1.71,1.0,2667.8640743865176,0.490848905548655,1.293663629248778,0.9794233266745749,0.284873,0.725005334363636
0.0605,1.7084937500000001,1.0,2665.6309770322196,0.49370483465827636,1.2930039227571501,0.9796194890587878,0.2848097375,0.7262394810233481
0.061,1.7069750000000001,1.0,2663.40074477472,0.4965447271386918,1.2923385533438527,0.9798109122631367,0.28474595,0.7274814101684419
0.0615,1.7054437500000001,1.0,2661.175194263838,0.4993686852356996,1.291667504263273,0.9799977361407074,0.2846816375,0.72873108085725
0.062,1.7039,1.0,2658.957471723369,0.5021768199919283,1.2909907464972534,0.9801800952429603,0.2846168,0.7299884740209541
0.0625,1.70234375,1.0,2656.7478204234435,0.5049692158740217,1.2903082777249961,0.9803581183787496,0.2845514375,0.7312535200393704
0.063,1.7007750000000001,1.0,2654.546483243631,0.5077459573486229,1.2896200956257038,0.9805319295447639,0.28448555,0.7325261486280554
0.0635,1.69919375,1.0,2652.3537026762588,0.5105071288823759,1.2889261978785786,0.9807016481393556,0.28441913750000003,0.733806288837463
0.064,1.6976,1.0,2650.169720829753,0.513252814941924,1.2882265821628232,0.9808673891653341,0.2843522,0.7350938690520962
0.0645,1.69599375,1.0,2647.994779432582,0.5159830999939108,1.2875212461576402,0.9810292634223716,0.2842847375,0.7363888169896611
0.065,1.694375,1.0,2645.829119837035,0.5186980685049797,1.2868101875422315,0.9811873776896216,0.28421675,0.7376910597002232
0.0655,1.69274375,1.0,2643.672983022883,0.5213978049417745,1.2860934039958003,0.9813418348991191,0.2841482375,0.7390005235653565
0.066,1.6911,1.0,2641.5266096018145,0.5240823937709385,1.2853708931975485,0.9814927343004869,0.2840792,0.7403171342973003
0.0665,1.6894437500000001,1.0,2639.390239821342,0.5267519194591154,1.2846426528266786,0.9816401716174439,0.2840096375,0.7416408169381089
0.067,1.687775,1.0,2637.2641135690196,0.5294064664729486,1.2839086805623934,0.9817842391965784,0.28393955,0.7429714958588038
0.0675,1.68609375,1.0,2635.148470377235,0.5320461192790817,1.283168974083895,0.9819250261488202,0.2838689375,0.7443090947585281
0.068,1.6844000000000001,1.0,2633.043549427245,0.5346709623441583,1.282423531070386,0.9820626184840171,0.2837978,0.7456535366636949
0.0685,1.68269375,1.0,2630.9495895541118,0.537281080134822,1.2816723492010689,0.9821970992390004,0.2837261375,0.7470047439271401
0.069,1.680975,1.0,2628.8668292515267,0.5398765571177161,1.280915426155146,0.9823285485994914,0.28365395,0.7483626382272726
0.0695,1.67924375,1.0,2626.795506676304,0.5424574777594844,1.2801527596118198,0.9824570440161918,0.28358123749999997,0.7497271405672254
0.07,1.6775,1.0,2624.735748342875,0.5450239219541283,1.2793843482820628,0.9825826600773496,0.283508,0.7510981694356091
0.07050000000000001,1.67574375,1.0,2622.687401600704,0.547575926980528,1.2786101934640892,0.982705466349028,0.2834342375,0.752475638067292
0.07100000000000001,1.673975,1.0,2620.65268854465,0.5501136400282418,1.277830274429488,0.9828255358133385,0.28335995,0.7538594981200107
0.07150000000000001,1.67219375,1.0,2618.6313358093967,0.5526371365755304,1.2770445935764223,0.9829429356945719,0.2832851375,0.7552496593433514
0.07200000000000001,1.6704,1.0,2616.623070520213,0.5551464921006544,1.2762531533030548,0.9830577310050761,0.2832098,0.7566460308996139
0.0725,1.66859375,1.0,2614.6276202867557,0.5576417820818744,1.2754559560075487,0.9831699846312343,0.2831339375,0.758048521364692
0.073,1.6667750000000001,1.0,2612.644713197279,0.5601230819974514,1.2746530040880673,0.9832797574155482,0.28305755,0.7594570387289545
0.0735,1.66494375,1.0,2610.6740778127178,0.5625904673256461,1.2738442999427733,0.9833871082350247,0.2829806375,0.7608714903981264
0.074,1.6631,1.0,2608.7154431606778,0.5650440135447192,1.27302984596983,0.9834920940760551,0.2829032,0.7622917831941676
0.0745,1.6612437500000001,1.0,2606.768538730125,0.5674837961329313,1.2722096445674003,0.9835947701059624,0.2828252375,0.7637178233561531
0.075,1.659375,1.0,2604.833094465787,0.5699098905685434,1.2713836981336475,0.9836951897413928,0.28274675,0.7651495165411522
0.0755,1.65749375,1.0,2602.9088407627187,0.5723223723298159,1.2705520090667346,0.9837934047137004,0.2826677375,0.766586767825107
