Time [s],Phi [rad],STIM [ ],Fsee [N],Gamma [ ],Lcerel [ ],q [ ],Lmtc [m],fisomrel [ ]
0.0,1.8,1.0,18.08025055953641,0.00034166056550463,1.3793270959648807,0.0050302542732173225,0.288653,0.5411701347794968
0.0005,1.79999375,1.0,18.495950210238096,0.005948953428767636,1.379278110838413,0.013886876413754263,0.2886527375,0.5412886308636626
0.001,1.799975,1.0,22.083732119874742,0.01152479381244818,1.3788910264588705,0.037357774666448386,0.28865195,0.5422244581280087
0.0015,1.79994375,1.0,32.07117656113747,0.01706935814109281,1.3779615191571841,0.07298240086949308,0.2886506375,0.5444677615956428
0.002,1.7999,1.0,55.64928184650423,0.0225828218473809,1.3762353109958732,0.11752853421635631,0.2886488,0.5486192307392813
0.0025,1.79984375,1.0,100.51664883843253,0.028065359381380432,1.3737728471564559,0.16762690026707688,0.28864643749999996,0.5545084780885099
0.003,1.7997750000000001,1.0,165.3302557669239,0.033517144215690985,1.3710517887758908,0.22042546514325032,0.28864354999999997,0.5609712055045015
0.0035,1.79969375,1.0,242.59636962301528,0.03893834884729189,1.3684341737252006,0.2737384435734926,0.2886401375,0.5671436850491988
0.004,1.7996,1.0,326.67807562117883,0.04432914480748663,1.3660186197535678,0.3259404123104014,0.2886362,0.5728009247247869
0.0045000000000000005,1.7994937500000001,1.0,414.65374274194266,0.04968970266740329,1.363796797647296,0.37590441866537383,0.2886317375,0.5779715880789935
0.005,1.799375,1.0,504.90066465139284,0.05502019202939626,1.3617420591764888,0.42293164976998476,0.28862675,0.5827253910164338
0.0055,1.79924375,1.0,596.3205375343705,0.06032078156559935,1.3598310415601764,0.46665828866703557,0.2886212375,0.5871225176330312
0.006,1.7991000000000001,1.0,688.0484848008861,0.0655916389853423,1.358046090043835,0.5069629521257554,0.2886152,0.5912085376413331
0.006500000000000001,1.79894375,1.0,779.3731602299861,0.07083293104294229,1.3563736689794799,0.5438879927524309,0.2886086375,0.5950185205934443
0.007,1.798775,1.0,869.7098630884415,0.07604482365018835,1.3548029162123831,0.5775787752280637,0.28860155,0.5985806461963924
0.0075,1.79859375,1.0,958.5686423509953,0.08122748154193661,1.3533249827040221,0.6082397804814097,0.2885939375,0.60191791006761
0.008,1.7984,1.0,1045.575754567407,0.08638106899269483,1.3519319281772115,0.636103789698667,0.2885858,0.6050507587036672
0.0085,1.79819375,1.0,1130.4110731125252,0.09150574882542836,1.3506171704193106,0.6614121889883346,0.2885771375,0.6079961728544518
0.009000000000000001,1.797975,1.0,1212.830938941584,0.09660168305274726,1.3493747307145418,0.6844019026716248,0.28856795,0.6107694436802977
0.0095,1.79774375,1.0,1292.6750163405281,0.10166903343961214,1.3481988930787812,0.70529775763329,0.2885582375,0.6133849836055852
0.01,1.7975,1.0,1369.8071352459008,0.10670795998063447,1.3470847982211136,0.7243088311087669,0.288548,0.6158550473335742
0.0105,1.79724375,1.0,1444.138623203465,0.11171862189913244,1.3460279302490825,0.7416264531572704,0.2885372375,0.6181909167332146
0.011,1.796975,1.0,1515.6282667498026,0.11670117778303138,1.3450239907628307,0.7574238839732298,0.28852595000000003,0.620403207264318
0.0115,1.79669375,1.0,1584.2728153839173,0.12165578610890498,1.3440689159102317,0.7718569347557103,0.2885141375,0.6225018530113454
0.012,1.7964,1.0,1650.058281868139,0.12658260280507697,1.3431593592046507,0.7850652645460269,0.28850180000000003,0.624495070759737
0.0125,1.79609375,1.0,1713.0077313681138,0.13148178361639049,1.3422920223525832,0.7971733899424505,0.2884889375,0.6263908527862843
0.013000000000000001,1.7957750000000001,1.0,1773.1624163794343,0.13635348351583668,1.3414638224690962,0.8082921773188717,0.28847555,0.6281966133443672
0.0135,1.79544375,1.0,1830.599660969331,0.14119785795314158,1.3406716390289168,0.8185201429044707,0.2884616375,0.6299197524277786
0.014,1.7951000000000001,1.0,1885.367815570512,0.1460150594206762,1.3399129956774385,0.8279450434842531,0.2884472,0.6315661842142528
0.0145,1.79474375,1.0,1937.523661645217,0.15080523969316814,1.3391855830434687,0.8366449038362151,0.2884322375,0.6331413911207341
0.015,1.794375,1.0,1987.1450179050842,0.1555685505453451,1.3384870917558143,0.8446890798379743,0.28841675,0.6346507930953156
0.0155,1.79399375,1.0,2034.3099181387756,0.16030514268884913,1.3378154124180475,0.8521393385476432,0.2884007375,0.6360993212143639
0.016,1.7936,1.0,2079.123554916626,0.16501516735677127,1.3371683263429397,0.8590506547114974,0.2883842,0.6374920909155004
0.0165,1.7931937500000001,1.0,2121.655340019573,0.16969877255554136,1.3365441448105846,0.8654722079597512,0.2883671375,0.6388330312299499
0.017,1.792775,1.0,2161.980136803339,0.17435610589647604,1.335941248452974,0.8714479280320067,0.28834955,0.640125885165361
0.0175,1.7923437500000001,1.0,2200.183774302301,0.1789873149908919,1.3353580179021,0.8770170948540844,0.2883314375,0.641374361698899
0.018000000000000002,1.7919,1.0,2236.346708865358,0.1835925461779128,1.3347929884409826,0.8822149258285343,0.2883128,0.64258180768736
0.0185,1.79144375,1.0,2270.571938312402,0.18817194695793818,1.334244557193797,0.8870729734659958,0.2882936375,0.6437518366910795
0.019,1.790975,1.0,2302.930371196993,0.192725661135682,1.3337115211790058,0.8916196829963887,0.28827395,0.6448871831390113
0.0195,1.79049375,1.0,2333.4936375055418,0.1972538320187341,1.3331927341079135,0.8958806624779466,0.2882537375,0.6459904398523382
0.02,1.79,1.0,2362.339168258821,0.20175660291468425,1.3326870496918246,0.8998789911162975,0.288233,0.6470641803805786
0.0205,1.78949375,1.0,2389.5437580621187,0.20623411623029567,1.3321933794096459,0.9036355155104977,0.2882117375,0.6481108376160685
0.021,1.788975,1.0,2415.1890718128748,0.21068651495248716,1.3317106332952064,0.9071690847973933,0.28818995000000003,0.6491328308638172
0.021500000000000002,1.78844375,1.0,2439.3482473517324,0.2151139404871541,1.3312378448172835,0.9104967945453037,0.2881676375,0.6501323028086774
0.022,1.7879,1.0,2462.080439461878,0.21951653151584588,1.3307742165306684,0.9136341840080717,0.2881448,0.6511110257605948
0.0225,1.78734375,1.0,2483.4478568741665,0.223894426720112,1.3303189509901534,0.9165953688811604,0.28812143749999997,0.6520707608952954
0.023,1.786775,1.0,2503.5155075497205,0.22824776478150186,1.3298712507505301,0.9193931914214281,0.28809755,0.6530132586998753
0.0235,1.78619375,1.0,2522.345235892604,0.23257668330206974,1.3294303724726075,0.9220393625236571,0.28807313749999996,0.6539401457033134
0.024,1.7856,1.0,2540.0003828965246,0.23688132010455806,1.3289955799359345,0.924544569665449,0.2880482,0.6548530241792669
0.0245,1.78499375,1.0,2556.549986660594,0.24116181368785153,1.3285661025997113,0.9269185733770333,0.2880227375,0.6557535593827678
0.025,1.784375,1.0,2572.0391888672416,0.24541829756491768,1.3281414114890404,0.9291703448347444,0.28799675,0.6566429019961105
0.025500000000000002,1.78374375,1.0,2586.514561490781,0.24965090524872396,1.3277209776290242,0.9313081041998462,0.2879702375,0.6575221964983311
0.026000000000000002,1.7831000000000001,1.0,2600.0239875582733,0.2538597702522379,1.3273042720447654,0.9333393936839202,0.2879432,0.6583925813177494
0.0265,1.78244375,1.0,2612.6165481140038,0.2580450260884269,1.3268907657613667,0.9352711426149183,0.2879156375,0.6592551889666688
0.027,1.781775,1.0,2624.341483766115,0.2622068058865602,1.3264799384400205,0.9371097266339181,0.28788755,0.6601111281766594
0.0275,1.7810937500000001,1.0,2635.2414750214593,0.26634523985767816,1.326071339519597,0.9388610275449458,0.2878589375,0.660961356963953
0.028,1.7804,1.0,2645.369978929603,0.2704604638157606,1.325664426619304,0.9405304582807615,0.2878298,0.6618070192433672
0.0285,1.77969375,1.0,2654.7608669533706,0.2745526057524357,1.325258845485461,0.9421230406813313,0.2878001375,0.6626488629893654
0.029,1.778975,1.0,2663.4486177370513,0.2786217936593314,1.3248542418643876,0.9436434166167156,0.28776995,0.6634876324703889
0.029500000000000002,1.7782437500000001,1.0,2671.468263698164,0.282668155528076,1.3244502615024036,0.9450958816403088,0.2877392375,0.6643240682749423
0.03,1.7775,1.0,2678.855340402144,0.2866918193502976,1.3240465501458285,0.9464844152595865,0.287708,0.6651589073296782
0.0305,1.77674375,1.0,2685.645838719229,0.2906929131176243,1.3236427535409818,0.9478127082011476,0.2876762375,0.6659928829094748
0.031,1.775975,1.0,2691.8687573453567,0.29467156110025805,1.3232385851880015,0.9490841944307636,0.28764395,0.6668265849670252
0.0315,1.7751937500000001,1.0,2697.5568319892163,0.29862789136539214,1.3228337274966029,0.9503020626475058,0.2876111375,0.6676606645109986
0.032,1.7744,1.0,2702.749964161969,0.3025620354111774,1.3224278003172643,0.95146927268505,0.2875778,0.6684958979036045
0.0325,1.77359375,1.0,2707.4699190467827,0.30647411477911235,1.3220205918264358,0.9525885980031581,0.2875439375,0.6693327118614542
0.033,1.772775,1.0,2711.738673648572,0.31036425101069554,1.3216118902005674,0.9536626236752455,0.28750955,0.6701715308725071
0.0335,1.7719437500000002,1.0,2715.578396796812,0.3142325656474255,1.3212014836161092,0.9546937614478583,0.2874746375,0.6710127771773289
0.034,1.7711000000000001,1.0,2719.0114301430804,0.3180791802308009,1.320789160249511,0.9556842634256848,0.2874392,0.6718568707474923
0.0345,1.7702437500000001,1.0,2722.060270153637,0.3219042163023201,1.320374708277223,0.9566362345220818,0.2874032375,0.6727042292611105
0.035,1.7693750000000001,1.0,2724.747551096531,0.32570779540348166,1.319957915875695,0.9575516437994563,0.28736675,0.6735552680755154
0.035500000000000004,1.76849375,1.0,2727.096029023893,0.32949003907578417,1.3195385712213774,0.9584323348100987,0.2873297375,0.6744104001970685
0.036000000000000004,1.7676,1.0,2729.1268458191257,0.33325106699098017,1.319116478134386,0.9592800362174555,0.2872922,0.6752700044104143
0.0365,1.76669375,1.0,2730.8568629246456,0.33699099525814147,1.3186914801555372,0.9600963723949615,0.2872541375,0.6761343765187273
0.037,1.765775,1.0,2732.3113376062097,0.34070995168417506,1.3182633452197374,0.9608828629355504,0.28721555,0.6770039639334893
0.0375,1.76484375,1.0,2733.5032483032182,0.344408050974094,1.3178319534415524,0.96164094328026,0.2871764375,0.6778789839653281
0.038,1.7639,1.0,2734.4456242084434,0.3480854078329113,1.317397184935548,0.9623719627064785,0.28713679999999997,0.6787596524074924
0.0385,1.76294375,1.0,2735.151539079607,0.35174213696564005,1.31695891981629,0.9630771904425874,0.28709663750000003,0.679646183510493
0.039,1.761975,1.0,2735.6341053684287,0.35537835307729326,1.3165170381983444,0.9637578212846489,0.28705595,0.6805387899558284
0.0395,1.7609937500000001,1.0,2735.90646866975,0.3589941708728839,1.316071420196277,0.964414980760632,0.2870147375,0.6814376828287897
0.04,1.76,1.0,2735.981802488074,0.36258970505742505,1.3156219459246536,0.9650497298830801,0.286973,0.682343071590354
0.0405,1.7589937500000001,1.0,2735.8733033236776,0.3661650703359297,1.31516849549804,0.9656630695270492,0.2869307375,0.6832551640481566
0.041,1.757975,1.0,2735.594186076669,0.369720381413411,1.3147109490310023,0.966255944466497,0.28688795,0.6841741663265495
0.0415,1.75694375,1.0,2735.1500773219914,0.3732557366495692,1.314249255670027,0.9668292501828453,0.2868446375,0.685100144486078
0.042,1.7559,1.0,2734.5608751154373,0.3767712689470204,1.3137832350813585,0.967383828037813,0.28680079999999997,0.6860334227738422
0.0425,1.75484375,1.0,2733.836046314013,0.38026709064898295,1.3133128017090256,0.9679204781297086,0.2867564375,0.68697413356263
0.043000000000000003,1.753775,1.0,2732.9826318009564,0.3837433088177779,1.3128378920849668,0.9684399585680208,0.28671155,0.6879223637622279
0.043500000000000004,1.75269375,1.0,2732.007677522713,0.3872000305157262,1.3123584427411215,0.9689429872223545,0.28666613750000003,0.6888781991337423
0.044,1.7516,1.0,2730.9182328880966,0.3906373628051488,1.311874390209428,0.9694302442560204,0.2866202,0.6898417242713565
0.0445,1.75049375,1.0,2729.7213492581086,0.3940554127483667,1.3113856710218261,0.9699023744758625,0.2865737375,0.6908130225838236
0.045,1.7493750000000001,1.0,2728.424078523624,0.3974542874077009,1.3108922217102543,0.9703599895133344,0.28652675,0.6917921762757082
0.0455,1.74824375,1.0,2727.033471773539,0.40083409384547236,1.3103939788066519,0.9708036698504726,0.2864792375,0.6927792663283665
0.046,1.7471,1.0,2725.5565780517695,0.404194939124002,1.3098908788429575,0.9712339667032014,0.2864312,0.6937743724806742
0.0465,1.7459437500000001,1.0,2724.000443203559,0.4075369303056109,1.3093828583511102,0.9716514037732848,0.28638263750000004,0.6947775732094925
0.047,1.744775,1.0,2722.3721088107714,0.41086017445261996,1.3088698538630492,0.9720564788792616,0.28633355,0.6957889457098808
0.0475,1.74359375,1.0,2720.678611217708,0.4141647786273502,1.3083518019107134,0.9724496654757833,0.28628393750000003,0.6968085658750516
0.048,1.7424,1.0,2718.9233892728853,0.41745084171391944,1.307828671733672,0.9728314153448301,0.2862338,0.6978364440646786
0.0485,1.74119375,1.0,2717.107170348786,0.42071846161610477,1.3073004572544045,0.9732021602060731,0.2861831375,0.6988725413623531
0.049,1.739975,1.0,2715.2444678596516,0.42396776642975265,1.30676702676788,0.973562306295514,0.28613195,0.6999170640561061
0.0495,1.73874375,1.0,2713.3380551648056,0.42719885475842634,1.3062283554320266,0.9739122443976896,0.2860802375,0.7009700074279221
0.05,1.7375,1.0,2711.390702928461,0.43041182520568916,1.3056844184047733,0.9742523470891232,0.286028,0.7020313658945647
0.0505,1.73624375,1.0,2709.4051789036407,0.43360677637510425,1.3051351908440483,0.974582969747242,0.2859752375,0.7031011329992547
0.051000000000000004,1.734975,1.0,2707.384247730179,0.43678380687023494,1.3045806479077802,0.9749044514946925,0.28592195,0.7041793014033063
0.051500000000000004,1.73369375,1.0,2705.330670746369,0.4399430152946444,1.3040207647538968,0.9752171160837221,0.2858681375,0.7052658628777286
0.052000000000000005,1.7324,1.0,2703.247205813669,0.44308450025189594,1.3034555165403274,0.975521272724929,0.2858138,0.7063608082947802
0.0525,1.73109375,1.0,2701.1366071562425,0.4462083603455527,1.302884878425,0.9758172168643311,0.28575893750000003,0.7074641276194928
0.053,1.729775,1.0,2699.0016252129344,0.44931469417917813,1.302308825565843,0.9761052309124003,0.28570355000000003,0.7085758099011502
0.0535,1.72844375,1.0,2696.8450065040074,0.4524036003563353,1.3017273331207848,0.9763855849284155,0.2856476375,0.7096958432647288
0.054,1.7271,1.0,2694.6694935106484,0.45547517748058747,1.3011403762477542,0.9766585372632351,0.2855912,0.7108242149022992
0.0545,1.7257437500000001,1.0,2692.477824568975,0.45852952415549797,1.3005479301046792,0.9769243351633399,0.2855342375,0.7119609110643906
0.055,1.724375,1.0,2690.2727337769393,0.4615667389846299,1.2999499698494885,0.9771832153387946,0.28547675,0.7131059170513104
0.0555,1.72299375,1.0,2688.0569509156308,0.46458692057154666,1.2993464706401106,0.9774354044975576,0.2854187375,0.7142592172044306
0.056,1.7216,1.0,2685.8319062715573,0.46759014071893024,1.2987374195018657,0.9776811180521244,0.2853602,0.7154207722875201
0.0565,1.72019375,1.0,2683.601942755962,0.47057652656223176,1.29812277673905,0.9779205660365751,0.28530113749999997,0.7165905930784393
0.057,1.718775,1.0,2681.368255491787,0.47354617249429554,1.297502531458126,0.9781539484709623,0.28524155,0.7177686344898173
0.0575,1.71734375,1.0,2679.131767909913,0.47649916873941855,1.2968766752402163,0.9783814569825098,0.2851814375,0.7189548459767702
0.058,1.7159,1.0,2676.8934019190037,0.4794356055218978,1.2962451996664426,0.9786032754487156,0.2851208,0.7201491762582576
0.0585,1.71444375,1.0,2674.654077899702,0.48235557306603033,1.2956080963179266,0.9788195803704569,0.2850596375,0.7213515733140671
0.059000000000000004,1.7129750000000001,1.0,2672.414714700406,0.48525916159611304,1.2949653567757908,0.979030541224266,0.28499795,0.7225619843817934
0.059500000000000004,1.71149375,1.0,2670.1762296350366,0.4881464613364429,1.2943169726211567,0.9792363207951024,0.2849357375,0.7237803559538178
0.06,1.71,1.0,2667.939538481923,0.491017562511317,1.2936629354351468,0.9794370754908388,0.284873,0.7250066337742755
0.0605,1.7084937500000001,1.0,2665.705555484744,0.49387255534503227,1.2930032367988826,0.9796329556396034,0.2848097375,0.7262407628360266
0.061,1.7069750000000001,1.0,2663.4751933545886,0.49671153006188573,1.2923378682934865,0.9798241057710343,0.28474595,0.7274826873776152
0.0615,1.7054437500000001,1.0,2661.249363273816,0.4995345768861743,1.2916668215000802,0.9800106648824335,0.2846816375,0.7287323508802308
0.062,1.7039,1.0,2659.0289749016133,0.502341786042195,1.290990087999786,0.980192766690741,0.2846168,0.7299896960646582
0.0625,1.70234375,1.0,2656.814936380707,0.505133247754245,1.2903076593737255,0.9803705398711836,0.2845514375,0.7312546648882301
0.063,1.7007750000000001,1.0,2654.608154346032,0.507909052246621,1.2896195272030209,0.9805441082833977,0.28448555,0.7325271985417687
0.0635,1.69919375,1.0,2652.409533934974,0.51066928974362,1.2889256830687943,0.9807135911857706,0.28441913750000003,0.7338072374465263
0.064,1.6976,1.0,2650.221602556153,0.5134139971477498,1.288226103573696,0.9808790987995895,0.2843522,0.7350947487841999
0.0645,1.69599375,1.0,2648.043527367965,0.5161433212824195,1.287520796291772,0.9810407468223761,0.2842847375,0.736389641899698
0.065,1.694375,1.0,2645.875126862835,0.518857357586352,1.2868097627967647,0.9811986427398683,0.28421675,0.7376918366213762
0.0655,1.69274375,1.0,2643.7165998571168,0.5215561870191245,1.2860930011527636,0.9813528889698078,0.2841482375,0.7390012585822858
0.066,1.6911,1.0,2641.568144870254,0.5242398905403145,1.2853705094238586,0.9815035842726301,0.2840792,0.7403178327524473
0.0665,1.6894437500000001,1.0,2639.4299601282555,0.5269085491094994,1.284642285674139,0.9816508239065206,0.2840096375,0.7416414834381435
0.067,1.687775,1.0,2637.302243566996,0.5295622436862563,1.283908327967695,0.9817946997748244,0.28393955,0.7429721342812108
0.0675,1.68609375,1.0,2635.1851928366273,0.5322010552301626,1.2831686343686162,0.9819353005662381,0.2838689375,0.7443097082583322
0.068,1.6844000000000001,1.0,2633.0790053049836,0.5348250647007956,1.282423202940992,0.982072711888188,0.2837978,0.745654127680329
0.0685,1.68269375,1.0,2630.983878061644,0.5374343530577327,1.2816720317489125,0.9822070163937631,0.2837261375,0.7470053141914529
0.069,1.680975,1.0,2628.9000079219522,0.5400290012605512,1.2809151188564671,0.9823382939025646,0.28365395,0.7483631887686766
0.0695,1.67924375,1.0,2626.8275914311184,0.5426090902688284,1.2801524623277458,0.9824666215157979,0.28358123749999997,0.7497276717209853
0.07,1.6775,1.0,2624.7668248684377,0.5451747010421417,1.279384060226838,0.9825920737259194,0.283508,0.7510986826886688
0.07050000000000001,1.67574375,1.0,2622.7179042515245,0.5477259145400684,1.2786099106178337,0.9827147225211315,0.2834342375,0.7524761406426107
0.07100000000000001,1.673975,1.0,2620.6810253405683,0.5502628117221856,1.2778300115648225,0.9828346374849999,0.28335995,0.7538599638835798
0.07150000000000001,1.67219375,1.0,2618.6563836429295,0.552785473548071,1.277044361131894,0.9829518858914524,0.2832851375,0.7552500700415201
0.07200000000000001,1.6704,1.0,2616.6441744176896,0.5552939809773016,1.276252957383138,0.9830665327954006,0.2832098,0.756646376074841
0.0725,1.66859375,1.0,2614.6445926799584,0.5577884149694549,1.2754557983826442,0.9831786411192162,0.2831339375,0.7580487982697068
0.073,1.6667750000000001,1.0,2612.6578332059817,0.5602688564841081,1.2746528821945022,0.9832882717352746,0.28305755,0.7594572522393268
0.0735,1.66494375,1.0,2610.6840905375507,0.5627353864808387,1.273844206882802,0.9833954835447712,0.2829806375,0.7608716529232435
0.074,1.6631,1.0,2608.723558986853,0.5651880859192239,1.2730297705116331,0.9835003335530002,0.2829032,0.7622919145866229
0.0745,1.6612437500000001,1.0,2606.7759635096386,0.5676270309060748,1.2722095755085419,0.9836028768587621,0.2828252375,0.7637179432444497
0.075,1.659375,1.0,2604.8401567306973,0.5700522954590326,1.2713836324221846,0.9837031670512645,0.28274675,0.7651496302721321
0.0755,1.65749375,1.0,2602.9162278030158,0.5724639618522535,1.2705519403079708,0.9838012559910979,0.2826677375,0.7665868864655364
