Time [s],Phi [rad],STIM [ ],Fsee [N],Gamma [ ],Lcerel [ ],q [ ],Lmtc [m],fisomrel [ ]
0.0,1.8,1.0,17.96897927753426,3.754059499931193e-05,1.3793395421996726,0.005000371701673923,0.288653,0.541140024629282
0.0005,1.79999375,1.0,18.287453179695753,0.00564653933075295,1.3793011983985235,0.01301714770563906,0.2886527375,0.541232783461237
0.001,1.799975,1.0,21.649529352932518,0.01122407601838541,1.3789351219699584,0.03575222732691765,0.28865195,0.5421178996735101
0.0015,1.79994375,1.0,31.14392482263611,0.016770327135997364,1.378039844317747,0.07079825448305276,0.2886506375,0.5442789416715994
0.002,1.7999,1.0,53.74393274848142,0.022285468169993418,1.3763576593729876,0.11495056200041127,0.2886488,0.5483256129824179
0.0025,1.79984375,1.0,97.39094858808127,0.02776967362283857,1.3739220688665843,0.16482783329722872,0.28864643749999996,0.5541526990259356
0.003,1.7997750000000001,1.0,161.31254883795614,0.033223117020519624,1.3712010861933945,0.21754138839391934,0.28864354999999997,0.5606178367628958
0.0035,1.79969375,1.0,238.08397874983376,0.03864597091233837,1.368572398435571,0.27087241142351565,0.2886401375,0.5668188364523299
0.004,1.7996,1.0,321.89316484639266,0.04403840688164057,1.3661448026032303,0.32316708791469745,0.2886362,0.5725063250211782
0.0045000000000000005,1.7994937500000001,1.0,409.70939824935306,0.04940059555101582,1.363912449812613,0.3732730426527153,0.2886317375,0.5777032170643573
0.005,1.799375,1.0,499.86420060108014,0.05473270657348326,1.3618487672448092,0.4204706276194255,0.28862675,0.582479176158839
0.0055,1.79924375,1.0,591.2452023181351,0.060034908678671624,1.359929951347772,0.4643803155653418,0.2886212375,0.5868955042180818
0.006,1.7991000000000001,1.0,682.9735360849241,0.06530736961917367,1.3581381376635557,0.5048698413358165,0.2886152,0.5909983238229592
0.006500000000000001,1.79894375,1.0,774.3326952960333,0.0705502561786336,1.3564595484075959,0.5419743884661119,0.2886086375,0.5948233110620307
0.007,1.798775,1.0,864.7382881497252,0.07576373443231108,1.354883087000168,0.5758349466599343,0.28860155,0.5983992173508648
0.0075,1.79859375,1.0,953.6795036655845,0.08094796904249911,1.3534000693945634,0.6066538499216775,0.2885939375,0.601748695637493
0.008,1.7984,1.0,1040.787619986703,0.08610312423796046,1.3520023284003033,0.6346628237132059,0.2885858,0.6048927321452966
0.0085,1.79819375,1.0,1125.7410121716946,0.09122936314333699,1.3506832003696216,0.6601031631925371,0.2885771375,0.6078485107733412
0.009000000000000001,1.797975,1.0,1208.2861606737881,0.09632684753564405,1.3494367615126885,0.6832123105435989,0.28856795,0.6106312171668509
0.0095,1.79774375,1.0,1288.2685844457,0.10139573945771234,1.3482571436701931,0.7042157953457749,0.2885582375,0.6132556182483371
0.01,1.7975,1.0,1365.5570965315562,0.10643619927862227,1.3471393724755385,0.7233235754823532,0.288548,0.615734234940336
0.0105,1.79724375,1.0,1440.0420716220185,0.11144838570788754,1.3460791585179526,0.7407280853001018,0.2885372375,0.6180778572688326
0.011,1.796975,1.0,1511.677626212635,0.11643245745502179,1.3450722123866632,0.7566035557063782,0.28852595000000003,0.6202970925974924
0.0115,1.79669375,1.0,1580.4565506852325,0.12138857249505038,1.3441144747500917,0.7711067151875622,0.2885141375,0.6224018758528971
0.012,1.7964,1.0,1646.3942261550874,0.12631688820427345,1.3432022181125007,0.7843779089173777,0.28850180000000003,0.6244012674829703
0.0125,1.79609375,1.0,1709.4963671717546,0.13121755974858496,1.3423323317514086,0.7965425256075072,0.2884889375,0.6263028527986081
0.013000000000000001,1.7957750000000001,1.0,1769.8012138097058,0.13609074213308647,1.3415017464364956,0.8077121440308809,0.28847555,0.6281140216225238
0.0135,1.79544375,1.0,1827.3596716206291,0.14093658943606857,1.3407076161629814,0.8179860152446138,0.2884616375,0.6298415825527377
0.014,1.7951000000000001,1.0,1882.261448699956,0.14575525637921846,1.3399469833227853,0.8274522704152468,0.2884472,0.6314925016892154
0.0145,1.79474375,1.0,1934.556982396506,0.15054689439025995,1.339217601530376,0.83618946325552,0.2884322375,0.6330721263137087
0.015,1.794375,1.0,1984.3107354348072,0.1553116545706244,1.3385172961876013,0.844267440420124,0.28841675,0.6345855873145275
0.0155,1.79399375,1.0,2031.6058289251198,0.1600496880217433,1.337843892696309,0.851748336231741,0.2884007375,0.6360379597187655
0.016,1.7936,1.0,2076.5262576454475,0.16476114450707852,1.3371953848969589,0.8586875351647075,0.2883842,0.6374339043501013
0.0165,1.7931937500000001,1.0,2119.1741169355023,0.16944617462597542,1.3365697331912882,0.8651344099923157,0.2883671375,0.638778108098039
0.017,1.792775,1.0,2159.61678773277,0.17410492537174901,1.3359653923925545,0.8711331842604293,0.28834955,0.6400741553396585
0.0175,1.7923437500000001,1.0,2197.93110519905,0.17873754363664135,1.3353808300673067,0.8767234000933033,0.2883314375,0.641325570227565
0.018000000000000002,1.7919,1.0,2234.2036793564853,0.18334417631289457,1.334814513782094,0.881940465168097,0.2883128,0.6425358461762118
0.0185,1.79144375,1.0,2268.514561140128,0.18792496863527672,1.3342650656077242,0.8868161744366277,0.2882936375,0.6437081183490556
0.019,1.790975,1.0,2300.964207378512,0.19248006801147868,1.3337309819212493,0.8913790591411462,0.28827395,0.6448457643682359
0.0195,1.79049375,1.0,2331.6212217678344,0.1970096173043855,1.3332111449433832,0.8956548817023061,0.2882537375,0.6459513165992337
0.02,1.79,1.0,2360.555407460931,0.20151375884465406,1.3327044811963524,0.899666868211216,0.288233,0.6470271944893686
0.0205,1.78949375,1.0,2387.8417159378955,0.20599263496294118,1.3322099172023834,0.9034359830705311,0.2882117375,0.6480758001032705
0.021,1.788975,1.0,2413.55981189143,0.21044638798990375,1.331726379483702,0.9069811800229246,0.28818995000000003,0.6490995189879941
0.021500000000000002,1.78844375,1.0,2437.7761342977424,0.21487515778737482,1.3312529631618626,0.9103196568808503,0.2881676375,0.6501003647847121
0.022,1.7879,1.0,2460.5786133307442,0.2192790879828472,1.3307885920041858,0.9134669780379516,0.2881448,0.6510806996169909
0.0225,1.78734375,1.0,2482.0235420652443,0.2236583163421778,1.3303325256241167,0.9164373458808207,0.28812143749999997,0.6520421636313529
0.023,1.786775,1.0,2502.1672366300136,0.2280129801975687,1.3298840489208896,0.919243684833593,0.28809755,0.6529863337613524
0.0235,1.78619375,1.0,2521.06843658469,0.23234321688122203,1.3294424467937385,0.9218977697484049,0.28807313749999996,0.6539147775846773
0.024,1.7856,1.0,2538.7881007526776,0.23664916372533995,1.3290070041418973,0.9244103440362961,0.2880482,0.654829053652977
0.0245,1.78499375,1.0,2555.3800384419214,0.24093095695032793,1.3285770920651896,0.9267912389986641,0.2880227375,0.6557305311542855
0.025,1.784375,1.0,2570.906898874038,0.24518873274749833,1.328152015106751,0.92904943858023,0.28799675,0.6566207110375597
0.025500000000000002,1.78374861004085,1.0,2585.658369378196,0.24942262831605994,1.3277311678288486,0.9311931903861423,0.2879704416217157,0.6575008980661323
0.026000000000000002,1.7831221327910172,1.0,2600.0058972389907,0.2536327756478511,1.3273144359777387,0.9332301394700019,0.2879441295772227,0.6583713647977514
0.0265,1.7824956555411844,1.0,2613.9623295682295,0.2578193067347102,1.3269017052996783,0.9351673074822354,0.2879178175327297,0.6592323822454154
0.027,1.7818691782913516,1.0,2627.5365444384083,0.2619823535684757,1.3264928615409244,0.9370111518374523,0.2878915054882368,0.6600842199069477
0.0275,1.7812427010415186,1.0,2640.7376500008113,0.26612204814098606,1.3260877904477333,0.9387676185516631,0.2878651934437438,0.6609271457937347
0.028,1.7806162237916858,1.0,2653.5749747841246,0.27023852244407953,1.3256863777663623,0.9404421894943681,0.2878388813992508,0.6617614264586299
0.0285,1.779989746541853,1.0,2666.057908032324,0.2743319060128725,1.3252885106249384,0.9420399239312081,0.28781256935475785,0.6625873241562799
0.029,1.7793632692920203,1.0,2678.197155860867,0.27840233085703686,1.3248940659072403,0.9435654968866009,0.28778625731026486,0.6634051209766001
0.029500000000000002,1.7787367920421875,1.0,2690.0025015489464,0.2824499242967111,1.324502930792283,0.9450232333912884,0.28775994526577187,0.6642150762347536
0.03,1.7781103147923547,1.0,2701.4838605657487,0.2864748134134748,1.3241149929215899,0.946417139532842,0.2877336332212789,0.6650174469497379
0.0305,1.7774838375425217,1.0,2712.6513226364373,0.29047712528890746,1.3237301399366825,0.9477509300556766,0.2877073211767859,0.6658124888283672
0.031,1.776857360292689,1.0,2723.5151439170077,0.2944569870045887,1.3233482594790842,0.949028053222831,0.28768100913229294,0.666600456287777
0.0315,1.7762308830428561,1.0,2734.072336048034,0.2984144921475471,1.322969360920104,0.9502517178949322,0.28765469708779995,0.6673813517438123
0.032,1.7756044057930234,1.0,2744.346144004569,0.30234979704586795,1.3225932162879452,0.9514248994597038,0.287628385043307,0.6681556658322672
0.0325,1.7749779285431906,1.0,2754.3558879729317,0.3062630502306757,1.322219635312371,0.9525503701161327,0.287602072998814,0.66892380937233
0.033,1.7743514512933578,1.0,2764.108427828852,0.31015436956168047,1.3218485420681374,0.953630717942598,0.287575760954321,0.6696859565325715
0.0335,1.773724974043525,1.0,2773.6107248308845,0.31402387289859257,1.3214798606300002,0.9546683574253391,0.28754944890982803,0.6704422806419503
0.034,1.773098496793692,1.0,2782.86983749662,0.3178716781011222,1.3211135150727158,0.9556655431771591,0.28752313686533504,0.6711929542016732
0.0345,1.7724720195438592,1.0,2791.8929176066777,0.3216979030289795,1.3207494294710398,0.9566243824179117,0.2874968248208421,0.6719381488966916
0.035,1.7718455422940265,1.0,2800.687206336177,0.32550266554187474,1.3203875278997284,0.9575468463415601,0.2874705127763491,0.6726780356068265
0.035500000000000004,1.7712190650441937,1.0,2809.260030514718,0.3292860834995181,1.3200277344335372,0.9584347804807923,0.2874442007318561,0.67341278441753
0.036000000000000004,1.770592587794361,1.0,2817.6187990134054,0.33304827476161974,1.3196699731472228,0.9592899141680269,0.2874178886873632,0.6741425646302739
0.0365,1.7699661105445281,1.0,2825.770999260086,0.3367893571878898,1.3193141681155407,0.9601138691809371,0.2873915766428702,0.6748675447725773
0.037,1.7693396332946951,1.0,2833.7241938823945,0.34050944863803867,1.318960243413247,0.9609081676511728,0.2873652645983772,0.6755878926076602
0.0375,1.7687131560448623,1.0,2841.486017478546,0.3442086669717765,1.3186081231150977,0.9616742393066094,0.2873389525538842,0.6763037751437333
0.038,1.7680866787950296,1.0,2849.0641735159015,0.34788713004881333,1.3182577312958488,0.9624134281100503,0.28731264050939126,0.6770153586429188
0.0385,1.7674602015451968,1.0,2856.466431357283,0.3515449557288596,1.3179089920302565,0.9631269983507805,0.28728632846489827,0.6777228086298034
0.039,1.766833724295364,1.0,2863.7006234153628,0.35518226187162527,1.3175618293930764,0.9638161402395551,0.2872600164204053,0.6784262898996257
0.0395,1.7662072470455312,1.0,2870.7746424347315,0.35879916633682074,1.3172161674590646,0.9644819750524376,0.28723370437591234,0.6791259665260929
0.04,1.7655807697956982,1.0,2877.696438901442,0.3623957869841561,1.3168719303029772,0.9651255598643451,0.28720739233141934,0.6798220018688302
0.0405,1.7649542925458654,1.0,2884.47028611451,0.36597222975104354,1.316529075002319,0.9657478926583329,0.28718108028692635,0.6805144919584702
0.041,1.7643278152960327,1.0,2891.100909216702,0.369528608549193,1.3161875549599606,0.9663499167095013,0.28715476824243336,0.6812035398228375
0.0415,1.7637013380461999,1.0,2897.597804448932,0.37306505116786054,1.3158472818087197,0.9669325219056784,0.28712845619794036,0.6818893321876378
0.042,1.763074860796367,1.0,2903.9648983100483,0.3765816653311425,1.3155082167555472,0.9674965501419076,0.2871021441534474,0.6825719552287457
0.0425,1.7624483835465343,1.0,2910.206146531945,0.38007855876313523,1.3151703210073944,0.9680427977710923,0.28707583210895443,0.6832514947579591
0.043000000000000003,1.7618219062967013,1.0,2916.325533057733,0.3835558391879351,1.3148335557712123,0.9685720185310688,0.28704952006446144,0.6839280362259406
0.043500000000000004,1.7611954290468685,1.0,2922.3270690523004,0.38701361432963843,1.314497882253952,0.9690849262550706,0.2870232080199685,0.6846016647250619
0.044,1.7605689517970358,1.0,2928.2147919466047,0.3904519919123416,1.3141632616625645,0.969582197383631,0.2869968959754755,0.6852724649921527
0.0445,1.759942474547203,1.0,2933.992764515708,0.3938710796601409,1.3138296552040007,0.9700644732943048,0.2869705839309825,0.6859405214111544
0.045,1.7593159972973702,1.0,2939.665073989535,0.3972709852971328,1.313497024085212,0.9705323624641012,0.2869442718864895,0.686605918015676
0.0455,1.7586895200475374,1.0,2945.235831197463,0.4006518165474136,1.3131653295131493,0.9709864424781597,0.2869179598419966,0.687268738491456
0.046,1.7580630427977044,1.0,2950.709169745886,0.4040136811350796,1.3128345326947637,0.9714272618969991,0.2868916477975036,0.6879290661787272
0.0465,1.7574365655478716,1.0,2956.08924522967,0.4073566867842272,1.3125045948370062,0.9718553419935652,0.2868653357530106,0.6885869840744854
0.047,1.7568100882980389,1.0,2961.3802344766514,0.4106809412189528,1.312175477146828,0.9722711783703197,0.28683902370851766,0.6892425748346631
0.0475,1.756183611048206,1.0,2966.586334825149,0.4139865521633527,1.3118471408311798,0.9726752424657183,0.28681271166402467,0.6898959207762063
0.048,1.7555571337983733,1.0,2971.7055953164213,0.4172735922370569,1.3115196008295102,0.9730679823146803,0.2867863996195317,0.6905469971269853
0.0485,1.7549306565485405,1.0,2976.7479973373497,0.42054220971022377,1.3111927682074407,0.9734498267903804,0.2867600875750387,0.6911959853807081
0.049,1.7543041792987075,1.0,2981.716211126747,0.4237925070285557,1.310866617946073,0.9738211831403765,0.2867337755305457,0.6918429395624052
0.0495,1.7536777020488747,1.0,2986.6122625391954,0.42702458265534454,1.3105411307368497,0.9741824394506904,0.28670746348605275,0.6924879021705319
0.05,1.753051224799042,1.0,2991.438187699182,0.4302385350538822,1.3102162872712133,0.974533965815534,0.28668115144155976,0.693130915534643
0.0505,1.7524247475492092,1.0,2996.1960327218226,0.4334344626874608,1.3098920682406061,0.9748761153329013,0.28665483939706676,0.6937720218161975
0.051000000000000004,1.7517982702993764,1.0,3000.8878534412397,0.43661246401937204,1.3095684543364707,0.975209225036479,0.2866285273525738,0.6944112630093382
0.051500000000000004,1.7511717930495436,1.0,3005.5157151470626,0.439772637512908,1.3092454262502495,0.9755336167684808,0.28660221530808083,0.6950486809416501
0.052000000000000005,1.7505453157997106,1.0,3010.0816923300918,0.44291508163136073,1.3089229646733849,0.9758495979976364,0.28657590326358784,0.6956843172748935
0.0525,1.7499188385498778,1.0,3014.5878684352656,0.4460398948380219,1.308601050297319,0.9761574625862354,0.28654959121909485,0.6963182135057129
0.053,1.749292361300045,1.0,3019.0363356231665,0.4491471755961837,1.308279663813495,0.9764574915098141,0.2865232791746019,0.6969504109663217
0.0535,1.7486658840502123,1.0,3023.429194540242,0.4522370223691381,1.3079587859133548,0.9767499535327911,0.2864969671301089,0.6975809508251675
0.054,1.7480394068003795,1.0,3027.7685540967054,0.45530953362017684,1.3076383972883407,0.977035105843104,0.2864706550856159,0.6982098740875671
0.0545,1.7474129295505467,1.0,3032.0565312530834,0.458364807812592,1.3073184786298957,0.9773131946486646,0.286444343041123,0.6988372215963212
0.055,1.746786452300714,1.0,3036.2952508146127,0.4614029434096755,1.3069990106294618,0.9775844557382299,0.28641803099663,0.6994630340323075
0.0555,1.746159975050881,1.0,3040.4868452346996,0.4644240388747193,1.3066799739784816,0.9778491150090929,0.286391718952137,0.7000873519150442
0.056,1.7455334978010482,1.0,3044.633454425608,0.4674281926710153,1.3063613493683972,0.9781073889638187,0.286365406907644,0.7007102156032362
0.0565,1.7449070205512154,1.0,3048.7330420326307,0.4704154548027999,1.306043153471552,0.9783594828684559,0.286339094863151,0.701331595067564
0.057,1.7442805433013826,1.0,3052.7914917692055,0.47338597884910466,1.3057253348537856,0.9786055990304473,0.2863127828186581,0.7019515932032547
0.0575,1.7436540660515498,1.0,3056.810139624598,0.4763398585530558,1.3054078812879053,0.9788459284099508,0.2862864707741651,0.7025702361200024
0.058,1.743027588801717,1.0,3060.7899288008007,0.47927718268441205,1.3050907839581771,0.9790806540653768,0.28626015872967214,0.7031875431880896
0.0585,1.742401111551884,1.0,3064.7318060295543,0.4821980400129323,1.3047740340488665,0.9793099517792208,0.28623384668517915,0.703803533704019
0.059000000000000004,1.7417746343020513,1.0,3068.6367215039204,0.48510251930837534,1.3044576227442395,0.9795339904047127,0.28620753464068616,0.7044182268907091
0.059500000000000004,1.7411481570522185,1.0,3072.505628810788,0.4879907093404999,1.3041415412285622,0.9797529321933197,0.28618122259619316,0.7050316418976876
0.06,1.7405216798023857,1.0,3076.339484865935,0.49086269887906475,1.3038257806861004,0.9799669331042984,0.28615491055170017,0.7056437978012806
0.0605,1.739895202552553,1.0,3080.1392498504297,0.4937185766938288,1.3035103323011197,0.9801761430974179,0.28612859850720723,0.7062547136047956
0.061,1.7392687253027201,1.0,3083.9058871482307,0.4965584315545508,1.3031951872578864,0.9803807064098853,0.28610228646271424,0.7068644082386963
0.0615,1.7386422480528871,1.0,3087.640363286771,0.49938235223098953,1.302880336740666,0.9805807618184434,0.28607597441822125,0.7074729005607805
0.062,1.7380157708030544,1.0,3091.343647878106,0.5021904274929038,1.3025657719337247,0.9807764428875441,0.2860496623737283,0.7080802093563434
0.0625,1.7373892935532216,1.0,3095.016713562105,0.5049827461100524,1.302251484021328,0.9809678782044285,0.2860233503292353,0.7086863533383448
0.063,1.7367628163033888,1.0,3098.660535951749,0.5077593968521942,1.3019374641877421,0.9811551916019073,0.2859970382847423,0.7092913511475636
0.0635,1.736136339053556,1.0,3102.2760935799033,0.5105204684890878,1.301623703617233,0.9813385023695667,0.28597072624024933,0.7098952213527541
0.064,1.7355098618037232,1.0,3105.8643678475023,0.5132660497904923,1.301310193494066,0.9815179254540798,0.2859444141957564,0.7104979824507923
0.0645,1.7348833845538902,1.0,3109.426342973771,0.5159962295261662,1.3009969250025075,0.9816935716492703,0.2859181021512634,0.7110996528668203
0.065,1.7342569073040575,1.0,3112.963005948451,0.5187110964658684,1.3006838893268233,0.9818655477765126,0.2858917901067704,0.7117002509543835
0.0655,1.7336304300542247,1.0,3116.4753464851847,0.5214107393793578,1.3003710776512791,0.9820339568560352,0.28586547806227747,0.7122997949955652
0.066,1.733003952804392,1.0,3119.963306303515,0.5240952208324694,1.3000584900927894,0.9821988969471306,0.2858391660177845,0.7128982861072558
0.0665,1.7323774755545591,1.0,3123.4278307873287,0.5267646388310087,1.2997461182425925,0.9823604646337829,0.2858128539732915,0.7134957417043934
0.067,1.7317509983047263,1.0,3126.870394643014,0.5294191013825872,1.2994339492180333,0.9825187535662204,0.2857865419287985,0.7140921876775901
0.0675,1.7311245210548933,1.0,3130.291437754878,0.5320586880785558,1.299121978950599,0.9826738527258639,0.2857602298843055,0.714687632999609
0.068,1.7304980438050606,1.0,3133.691401321898,0.5346834785102652,1.298810203371775,0.982825848055021,0.28573391783981256,0.7152820866100716
0.0685,1.7298715665552278,1.0,3137.070727839343,0.5372935522690662,1.2984986184130476,0.9829748225818685,0.28570760579531956,0.7158755574155032
0.069,1.729245089305395,1.0,3140.4298610819924,0.5398889889463093,1.2981872200059033,0.983120856539464,0.28568129375082657,0.7164680542893848
0.0695,1.7286186120555622,1.0,3143.769246086916,0.5424698681333454,1.2978760040818278,0.9832640274791076,0.28565498170633363,0.7170595860722032
0.07,1.7279921348057294,1.0,3147.089329136546,0.5450362694215253,1.2975649665723077,0.983404410378363,0.28562866966184064,0.7176501615714969
0.07050000000000001,1.7273656575558964,1.0,3150.390557742892,0.5475882724021995,1.2972541034088287,0.983542077744022,0.28560235761734765,0.7182397895619048
