Time [s],Phi [rad],STIM [ ],Fsee [N],Gamma [ ],Lcerel [ ],q [ ],Lmtc [m],fisomrel [ ]
0.0,1.8,1.0,17.967058635297324,1.0001429722809114e-05,1.379339757370681,0.005000026659364783,0.288653,0.541139504075105
0.0005,1.79999375,1.0,18.2764002398304,0.005619154638406011,1.3793024259909725,0.01294051868570436,0.2886527375,0.5412298138946519
0.001,1.799975,1.0,21.618025906664027,0.011196844932510719,1.3789383384383767,0.03560858642062297,0.28865195,0.5421101264718187
0.0015,1.79994375,1.0,31.068791661980967,0.016743248794971972,1.378046241585548,0.07060171939203821,0.2886506375,0.5442635179306172
0.002,1.7999,1.0,53.58167790934971,0.02225854171707393,1.376368177743722,0.11471785370334522,0.2886488,0.5483003660136164
0.0025,1.79984375,1.0,97.11786294106942,0.027742898206012796,1.3739352190471934,0.16457469217121906,0.28864643749999996,0.5541213391458147
0.003,1.7997750000000001,1.0,160.95697434787763,0.033196491792614836,1.3712143883917534,0.2172802456413006,0.28864354999999997,0.5605863451879353
0.0035,1.79969375,1.0,237.68209705116033,0.03861949503092703,1.368584772258817,0.2706126800230926,0.2886401375,0.56678975018787
0.004,1.7996,1.0,321.4655504085844,0.04401207950899949,1.366156124733977,0.3229155989688308,0.2886362,0.57247988622384
0.0045000000000000005,1.7994937500000001,1.0,409.26657439332763,0.04937441585406989,1.3639228417810951,0.37303431482892113,0.2886317375,0.5776790983098598
0.005,1.799375,1.0,499.41236494176076,0.054706673723654314,1.361858366555285,0.4202472805392797,0.28862675,0.582457023450067
0.0055,1.79924375,1.0,590.7893205484114,0.06000902185301028,1.359938856462706,0.4641735318007276,0.2886212375,0.5868750625265292
0.006,1.7991000000000001,1.0,682.5170539846166,0.0652816279982969,1.3581464339125628,0.5046798097482805,0.2886152,0.5909793746036807
0.006500000000000001,1.79894375,1.0,773.8805882440254,0.0705246589918088,1.3564672650480805,0.5418006181603432,0.2886086375,0.5948057683327219
0.007,1.798775,1.0,864.2849562029539,0.07573828072712294,1.3548904088073734,0.5756766547586782,0.28860155,0.598382645843544
0.0075,1.79859375,1.0,953.2416345120868,0.0809226581667968,1.3534068035070084,0.6065098095033572,0.2885939375,0.6017335179686186
0.008,1.7984,1.0,1040.356351647302,0.08607795532656477,1.3520086773062305,0.6345319683820068,0.2885858,0.6048784792765245
0.0085,1.79819375,1.0,1125.3183417703344,0.09120433540910199,1.3506891832558034,0.6599843062127865,0.2885771375,0.6078351299342395
0.009000000000000001,1.797975,1.0,1207.8780888930326,0.09630196030781144,1.349442336908617,0.6831042751880636,0.28856795,0.6106187920148105
0.0095,1.79774375,1.0,1287.8726250485774,0.10137099186241838,1.348262382909058,0.7041175397284912,0.2885582375,0.6132439816661499
0.01,1.7975,1.0,1365.1659115475625,0.10641159030533079,1.3471443999020136,0.7232341664316536,0.288548,0.6157231046449964
0.0105,1.79724375,1.0,1439.6588634525194,0.11142391464542042,1.3460839543442222,0.7406466018477397,0.2885372375,0.6180672721475329
0.011,1.796975,1.0,1511.3068666512418,0.11640812350870915,1.3450767411202886,0.7565291597051402,0.28852595000000003,0.6202871260771725
0.0115,1.79669375,1.0,1580.1103295636826,0.12136437544458022,1.3441186106825986,0.7710386159008306,0.2885141375,0.6223927990493563
0.012,1.7964,1.0,1646.0648719294936,0.12629282694409377,1.3432060729442032,0.7843155033618499,0.28850180000000003,0.6243928300198286
0.0125,1.79609375,1.0,1709.178010697158,0.13119363332150363,1.3423359884334145,0.7964852648780747,0.2884889375,0.6262948693345571
0.013000000000000001,1.7957750000000001,1.0,1769.4931796863602,0.1360669498411706,1.3415052237421088,0.8076595144594202,0.28847555,0.6281064482042482
0.0135,1.79544375,1.0,1827.0730390985482,0.14091293079025186,1.3407108004914279,0.8179375094073597,0.2884616375,0.6298346633561558
0.014,1.7951000000000001,1.0,1881.9862023861585,0.1457317304660849,1.3399499962233137,0.8274075246907557,0.2884472,0.6314859696038553
0.0145,1.79474375,1.0,1934.2855858779617,0.15052350025243705,1.3392205318575978,0.8361481425455013,0.2884322375,0.6330657868821699
0.015,1.794375,1.0,1984.0450819140067,0.15528839153307564,1.3385201283141128,0.8442292111379235,0.28841675,0.6345794729789432
0.0155,1.79399375,1.0,2031.3472132209831,0.16002655485842737,1.3378466175072097,0.8517129027172704,0.2884007375,0.6360320887721211
0.016,1.7936,1.0,2076.2877773640457,0.16473814149484675,1.33719787022437,0.858654597180742,0.2883842,0.6374285596815972
0.0165,1.7931937500000001,1.0,2118.953109771321,0.16942330105990525,1.3365720131224428,0.8651037491745923,0.2883671375,0.6387732142305683
0.017,1.792775,1.0,2159.4096387694617,0.17408218038284862,1.3359675092529097,0.8711046077485618,0.28834955,0.6400696196632526
0.0175,1.7923437500000001,1.0,2197.734492279197,0.17871492629292265,1.3353828216672532,0.8766967339719852,0.2883314375,0.6413213103651513
0.018000000000000002,1.7919,1.0,2234.014603992247,0.18332168561937323,1.3348164134169556,0.8819155522703958,0.2883128,0.6425317898807599
0.0185,1.79144375,1.0,2268.3371668416025,0.18790260419054314,1.3342668343507498,0.8867928553170655,0.2882936375,0.6437043477459452
0.019,1.790975,1.0,2300.794089020746,0.19245782836117462,1.3337326661134645,0.8913572110446675,0.28827395,0.6448421797474452
0.0195,1.79049375,1.0,2331.464261757807,0.19698750240673296,1.3332126886142404,0.8956343703750805,0.2882537375,0.6459480361813434
0.02,1.79,1.0,2360.4139740191226,0.20149176831666107,1.3327058636128062,0.8996475806041506,0.288233,0.6470242612170178
0.0205,1.78949375,1.0,2387.7145675425427,0.20597076808040188,1.3322111528688916,0.9034178248479714,0.2882117375,0.648073182109445
0.021,1.788975,1.0,2413.4420160775544,0.21042464368739822,1.3317275181422257,0.9069640733718248,0.28818995000000003,0.6490971100357121
0.021500000000000002,1.78844375,1.0,2437.668911590055,0.21485353571922122,1.3312539944547281,0.910303518952263,0.2881676375,0.6500981860898818
0.022,1.7879,1.0,2460.472975361985,0.2192575862463922,1.3307896033355096,0.9134517527999914,0.2881448,0.6510785660878069
0.0225,1.78734375,1.0,2481.9211841673373,0.22363693510148075,1.330333501310549,0.9164229630895341,0.28812143749999997,0.6520401081374793
0.023,1.786775,1.0,2502.0688940438263,0.22799171925124856,1.3298849825515464,0.9192300820666521,0.28809755,0.6529843695375189
0.0235,1.78619375,1.0,2520.9738672438175,0.2323220756624573,1.3294433412302014,0.921884891595864,0.28807313749999996,0.6539128983389066
0.024,1.7856,1.0,2538.696070741965,0.2366281413018686,1.3290078715182132,0.9243981413819252,0.2880482,0.6548272336704557
0.0245,1.78499375,1.0,2555.2974857883983,0.2409100531362442,1.328577867587282,0.9267796536183719,0.2880227375,0.6557289060325084
0.025,1.784375,1.0,2570.829736381176,0.24516794490578395,1.3281527377995241,0.9290384338393257,0.28799675,0.6566191985799642
0.025500000000000002,1.78374375,1.0,2585.358963376452,0.249401955977703,1.327731769214505,0.9311827157267841,0.2879702375,0.6574996410954415
0.026000000000000002,1.7831000000000001,1.0,2598.9305995592144,0.253612219356638,1.3273144560512962,0.9332200847218528,0.2879432,0.6583713228949111
0.0265,1.78244375,1.0,2611.5860988912364,0.2577988665116405,1.3269003403244866,0.9351575161696466,0.2879156375,0.6592352279838485
0.027,1.781775,1.0,2623.3679320875644,0.26196202891176223,1.3264889640486652,0.9370014261920665,0.28788755,0.6600923353138692
0.0275,1.7810937500000001,1.0,2634.3194991517607,0.26610183802605475,1.3260798692384208,0.9387577239714862,0.2878589375,0.6609436188694336
0.028,1.7804,1.0,2644.4850465619456,0.27021842532356966,1.3256725979083421,0.9404318585111553,0.2878298,0.6617900477411713
0.0285,1.77969375,1.0,2653.908488873355,0.27431192173608687,1.3252667022151543,0.9420288617630967,0.2878001375,0.6626325651469329
0.029,1.778975,1.0,2662.625700348837,0.27838245420342905,1.3248618146385471,0.9435533945963146,0.28776995,0.6634719432071118
0.029500000000000002,1.7782437500000001,1.0,2670.6874720466253,0.2824301587072915,1.3244574357979884,0.9450097551659392,0.2877392375,0.664309223072048
0.03,1.7775,1.0,2678.1221309695397,0.2864551607300608,1.3240532779061371,0.946401949940096,0.287708,0.6651450034384179
0.0305,1.77674375,1.0,2684.958414920285,0.29045758575412384,1.3236490531756535,0.9477336942995457,0.2876762375,0.6659798800334917
0.031,1.775975,1.0,2691.2254359900526,0.29443755926186727,1.3232444738191966,0.9490084373484374,0.28764395,0.666814445616552
0.0315,1.7751937500000001,1.0,2696.9526458829746,0.29839520673567776,1.322839252049426,0.9502293843191757,0.2876111375,0.6676492899750228
0.032,1.7744,1.0,2702.169803076986,0.3023306536579421,1.3224331000790017,0.9513995168306939,0.2875778,0.6684849999153204
0.0325,1.77359375,1.0,2706.9069418213944,0.306244025511047,1.3220257301205829,0.9525216112289332,0.2875439375,0.6693221592484232
0.033,1.772775,1.0,2711.186925994451,0.31013544313473457,1.3216169220315945,0.9535982618044231,0.28750955,0.6701612100220766
0.0335,1.7719437500000002,1.0,2715.0387628659682,0.31400503248151634,1.3212064014859684,0.9546318839999992,0.2874746375,0.6710027029478154
0.034,1.7711000000000001,1.0,2718.496305162572,0.3178529227774901,1.3207938517854074,0.9556247294057159,0.2874392,0.6718472725021749
0.0345,1.7702437500000001,1.0,2721.5772322156745,0.3216792326994398,1.3203791051005926,0.9565789160437614,0.2874032375,0.6726952455833655
0.035,1.7693750000000001,1.0,2724.2993468250806,0.3254840809241493,1.319961993602204,0.9574964251112283,0.28736675,0.6735469472260942
0.035500000000000004,1.76849375,1.0,2726.6805627406343,0.32926758612840246,1.3195423494609222,0.9583791114035067,0.2873297375,0.6744027005771489
0.036000000000000004,1.7676,1.0,2728.7388927681313,0.3330298669889832,1.3191200048474274,0.9592287128290433,0.2872922,0.6752628268691898
0.0365,1.76669375,1.0,2730.4924374998286,0.3367710421826753,1.3186947919324001,0.9600468591040582,0.2872541375,0.676127645392743
0.037,1.765775,1.0,2731.959374669226,0.3404912303862628,1.3182665428865208,0.9608350797063175,0.28721555,0.6769974734663982
0.0375,1.76484375,1.0,2733.157949130958,0.3441905502765294,1.3178350898804696,0.961594811158662,0.2871764375,0.67787262640521
0.038,1.7639,1.0,2734.1064634642153,0.3478691205302591,1.317400265084927,0.9623274037055685,0.28713679999999997,0.6787534174873024
0.0385,1.76294375,1.0,2734.8118683301836,0.3515270526644792,1.3169620041993912,0.963034135768,0.28709663750000003,0.679639948641279
0.039,1.761975,1.0,2735.2980822194495,0.35516446998231105,1.316520089189212,0.9637161987723919,0.28705595,0.6805326311851191
0.0395,1.7609937500000001,1.0,2735.582498424817,0.3587814893738494,1.316074361600668,0.964374719245435,0.2870147375,0.6814317536311548
0.04,1.76,1.0,2735.6750080927322,0.36237822255957763,1.3156247313426201,0.9650107642806309,0.286973,0.6823374648115397
0.0405,1.7589937500000001,1.0,2735.5855239505,0.3659547812599791,1.3151711083239292,0.9656253404504727,0.2869307375,0.6832499122380933
0.041,1.757975,1.0,2735.3239769157367,0.3695112771955373,1.3147134024534564,0.9662193978713015,0.28688795,0.6841692420796199
0.0415,1.75694375,1.0,2734.900312885655,0.37304782208673554,1.314251523640062,0.966793833954276,0.2868446375,0.6850955991387102
0.042,1.7559,1.0,2734.3244897063905,0.3765645276540573,1.3137853817926073,0.9673494968696958,0.28680079999999997,0.6860291268280219
0.0425,1.75484375,1.0,2733.6064743227166,0.3800615056179859,1.313314886819953,0.9678871887493056,0.2867564375,0.6869699671460463
0.043000000000000003,1.753775,1.0,2732.7562401063606,0.38353886769900486,1.3128399486309599,0.9684076686488761,0.28671155,0.6879182606523546
0.043500000000000004,1.75269375,1.0,2731.7837643662792,0.38699672561759746,1.3123604771344888,0.968911655291244,0.28666613750000003,0.6888741464423295
0.044,1.7516,1.0,2730.6980681963055,0.3904351819935546,1.3118763909438986,0.9693998289179283,0.2866202,0.6898377448080628
0.0445,1.75049375,1.0,2729.508269098123,0.39385435719237716,1.3113876077992292,0.9698728369802125,0.2865737375,0.6908091763682187
0.045,1.7493750000000001,1.0,2728.2205170319103,0.39725435761038824,1.310894072406597,0.9703312935744995,0.28652675,0.6917885068317655
0.0455,1.74824375,1.0,2726.8408170111893,0.4006352884195178,1.3103957307883431,0.9707757814315221,0.2864792375,0.6927757981772016
0.046,1.7471,1.0,2725.3751729327523,0.4039972547916959,1.3098925289668093,0.9712068538927289,0.2864312,0.6937711112581482
0.0465,1.7459437500000001,1.0,2723.8295866046865,0.4073403618988526,1.3093844129643364,0.9716250366703227,0.28638263750000004,0.6947745057867123
0.047,1.744775,1.0,2722.2100568390015,0.41066471491291795,1.308871328803266,0.9720308294856952,0.28633355,0.6957860403166605
0.0475,1.74359375,1.0,2720.5225786098713,0.41397041900582193,1.3083532225059396,0.9724247075957325,0.28628393750000003,0.6968057722264112
0.048,1.7424,1.0,2718.773142274798,0.4172575793494947,1.3078300400946985,0.9728071232156503,0.2862338,0.6978337577018378
0.0485,1.74119375,1.0,2716.967732862217,0.42052630111586614,1.307301727591884,0.9731785068462658,0.2861831375,0.698870051718889
0.049,1.739975,1.0,2715.1125018816747,0.42377668933234247,1.3067682294480958,0.9735392683873685,0.28613195,0.699914711101022
0.0495,1.73874375,1.0,2713.213037651836,0.42700884645447074,1.3062294951864408,0.9738897984668368,0.2860802375,0.7009677814982704
0.05,1.7375,1.0,2711.270751531072,0.430222874002667,1.3056855123647717,0.9742304719321793,0.286028,0.7020292331960682
0.0505,1.73624375,1.0,2709.2875978470865,0.43341887318017025,1.3051362635790962,0.9745616459381967,0.2859752375,0.7030990454368251
0.051000000000000004,1.734975,1.0,2707.265529121935,0.4365969451902194,1.3045817314254222,0.9748836612836995,0.28592195,0.7041771966897066
0.051500000000000004,1.73369375,1.0,2705.1822223059175,0.43975718950971765,1.3040221201267947,0.9751968574506843,0.2858681375,0.7052632349285994
0.052000000000000005,1.7324,1.0,2703.1134243570277,0.4428997092105955,1.3034567384688163,0.9755015017738363,0.2858138,0.706358443488101
0.0525,1.73109375,1.0,2701.035387028612,0.44602460240074715,1.3028858033042858,0.9757979065954866,0.28575893750000003,0.7074623410609614
0.053,1.7297754295932575,1.0,2698.942775672726,0.4491319670474422,1.3023095575124901,0.976086372062592,0.2857035680429168,0.7085743987136557
0.0535,1.728453706761461,1.0,2697.2371422301917,0.45222190111795035,1.3017282439727162,0.9763671851782479,0.28564805568398133,0.7096940905265977
0.054,1.7271319839296646,1.0,2696.059571171004,0.4552945025795413,1.3011421055642514,0.9766406204959086,0.2855925433250459,0.7108208936745195
0.0545,1.7258102610978683,1.0,2695.384341634778,0.4583498690694293,1.3005513743932418,0.9769069400875905,0.2855370309661105,0.711954309152849
0.055,1.7244885382660717,1.0,2695.172331683108,0.46138809704968203,1.2999564065937026,0.9771664021780005,0.285481518607175,0.7130936037735758
0.0555,1.7231668154342754,1.0,2695.372185492571,0.4644092846159062,1.2993576714145216,0.9774192609612694,0.28542600624823955,0.7142378334351891
0.056,1.721845092602479,1.0,2695.9558221251823,0.4674135260430749,1.2987554261021392,0.9776657472433158,0.28537049388930413,0.7153864648422488
0.0565,1.7205233697706828,1.0,2696.8952345676157,0.47040091560616143,1.2981499279029947,0.9779060822915344,0.28531498153036866,0.7165389684038237
0.057,1.7192016469388862,1.0,2698.162470444847,0.473371547580139,1.2975414340635283,0.9781404783138573,0.2852594691714332,0.7176948182889638
0.0575,1.71787992410709,1.0,2699.729614200854,0.4763255162399809,1.2969302018301798,0.9783691389100991,0.28520395681249777,0.7188534924779614
0.058,1.7165582012752936,1.0,2701.5726240112094,0.47926291425977124,1.2963164532440863,0.9785922573755251,0.28514844445356236,0.7200145393394299
0.0585,1.715236478443497,1.0,2703.666831884464,0.4821838354105873,1.2957004161705243,0.978810019727395,0.2850929320946269,0.7211774996064373
0.059000000000000004,1.7139147556117007,1.0,2705.984067194115,0.4850883755572816,1.2950823504376843,0.9790226065838737,0.2850374197356914,0.7223418573347311
0.059500000000000004,1.7125930327799044,1.0,2708.5097699564153,0.487976624768523,1.2944623915071278,0.9792301842101409,0.284981907376756,0.7235073341450988
0.06,1.7112713099481078,1.0,2711.2293775118496,0.4908486731129803,1.2938406748404174,0.9794329124242717,0.2849263950178205,0.7246736537287248
0.0605,1.7099495871163115,1.0,2714.1283190431072,0.49370461065932253,1.2932173358991155,0.9796309449007119,0.28487088265888505,0.7258405418629633
0.061,1.7086278642845152,1.0,2717.1920104992096,0.4965445274762185,1.2925925101447844,0.979824429457258,0.28481537029994963,0.7270077264259382
0.0615,1.7073061414527186,1.0,2720.4058499261887,0.4993685136323371,1.2919663330389863,0.9800135083265545,0.28475985794101416,0.7281749374099735
0.062,1.7059844186209223,1.0,2723.7552132056876,0.5021766591963471,1.2913389400432835,0.9801983184130549,0.28470434558207874,0.7293419069338523
0.0625,1.704662695789126,1.0,2727.2292255105203,0.504969050948386,1.2907104322887897,0.9803789895051969,0.28464883322314327,0.7305084329032686
0.063,1.7033409729573294,1.0,2730.816510699493,0.5077457779475604,1.29008091528458,0.98055564700696,0.28459332086420785,0.7316743067208555
0.0635,1.7020192501255331,1.0,2734.4999941537867,0.5105069350581782,1.289450546078266,0.9807284147974041,0.2845378085052724,0.7328392263233217
0.064,1.7006975272937368,1.0,2738.273430529455,0.5132526072435416,1.2888193830679353,0.9808974065536299,0.2844822961463369,0.7340030738656163
0.0645,1.6993758044619403,1.0,2742.130561145417,0.5159828794669528,1.288187484651676,0.9810627318644904,0.2844267837874015,0.7351657324302933
0.065,1.698054081630144,1.0,2746.065112993234,0.5186978366917137,1.2875549092275764,0.9812244964089273,0.284371271428466,0.7363270860303581
0.0655,1.6967323587983476,1.0,2750.0707978232936,0.5213975638811266,1.2869217151937242,0.981382802125301,0.2843157590695306,0.7374870196118986
0.066,1.6954106359665513,1.0,2754.1413113055487,0.5240821459984935,1.2862879609482072,0.9815377473722294,0.28426024671059513,0.7386454190564982
0.0665,1.6940889131347547,1.0,2758.2703322666594,0.5267516680071166,1.285653704889114,0.9816894270814177,0.2842047343516597,0.739802171183428
0.067,1.6927671903029584,1.0,2762.4515220022895,0.529406214870298,1.2850190054145316,0.9818379329029336,0.28414922199272424,0.7409571637516301
0.0675,1.691445467471162,1.0,2766.6785236652736,0.5320458715513399,1.284383920922549,0.9819833533433523,0.28409370963378877,0.7421102854614714
0.068,1.6901237446393655,1.0,2770.944961729436,0.5346707230135441,1.2837485098112535,0.9821257738971647,0.28403819727485335,0.7432614259562913
0.0685,1.6888020218075692,1.0,2775.252440234037,0.537280838054263,1.283112758375265,0.9822652727223866,0.28398268491591794,0.7444106060113163
0.069,1.687480298975773,1.0,2779.587946430117,0.5398763219027913,1.2824767846168805,0.9824019338578706,0.28392717255698247,0.7455576089046827
0.0695,1.6861585761439764,1.0,2783.9493014287623,0.5424572536337964,1.2818406086666907,0.9825358323361243,0.283871660198047,0.7467023957474149
0.07,1.68483685331218,1.0,2788.3343459528896,0.5450237122611725,1.2812042504184786,0.9826670406958785,0.2838161478391116,0.7478449284010892
0.07050000000000001,1.6835151304803837,1.0,2792.7409140030463,0.5475757767988141,1.2805677297660265,0.9827956290966553,0.2837606354801761,0.7489851690495469
0.07100000000000001,1.6821934076485872,1.0,2797.166832781527,0.5501135262606158,1.2799310666031172,0.9829216654134746,0.28370512312124063,0.7501230801991109
0.07150000000000001,1.6808716848167908,1.0,2801.609922624992,0.552637039660472,1.279294280823533,0.9830452153271884,0.2836496107623052,0.7512586246787802
0.07200000000000001,1.6795499619849945,1.0,2806.0679969458,0.555146396012277,1.2786573923210571,0.9831663424106685,0.2835940984033698,0.7523917656403969
0.0725,1.678228239153198,1.0,2810.5388621825773,0.5576416743299253,1.2780204209894717,0.9832851082110653,0.2835385860444343,0.7535224665587913
0.073,1.6769065163214016,1.0,2815.020317759462,0.5601229536273115,1.2773833867225592,0.9834015723283426,0.28348307368549885,0.7546506912318978
