Time [s],Phi [rad],STIM [ ],Fsee [N],Gamma [ ],Lcerel [ ],q [ ],Lmtc [m],fisomrel [ ]
0.0,1.8,1.0,17.9658894168749,1.427702154229771e-05,1.3793398883647403,0.005000054172789112,0.288653,0.5411391871665382
0.0005,1.79999375,1.0,18.276779874964276,0.0056234062475386416,1.3793023838207212,0.012952395263747772,0.2886527375,0.5412299159053516
0.001,1.799975,1.0,21.621656114725507,0.011201072693477164,1.3789379676785696,0.03563087731486065,0.28865195,0.5421110224860821
0.0015,1.79994375,1.0,31.079193589601424,0.016747452841544525,1.3780453554448602,0.07063223424613313,0.2886506375,0.5442656544214584
0.002,1.7999,1.0,53.60556740422646,0.022262722182265174,1.376366628078842,0.11475399389681568,0.2886488,0.5483040856778145
0.0025,1.79984375,1.0,97.15898349577829,0.027747055222102607,1.373933237744544,0.16461400923612973,0.28864643749999996,0.5541260641259005
0.003,1.7997750000000001,1.0,161.01100837983302,0.03320062549113064,1.3712123660087372,0.21732080633758344,0.28864354999999997,0.5605911330427148
0.0035,1.79969375,1.0,237.74345029089594,0.038623605542659534,1.3685828825337687,0.2706530216305642,0.2886401375,0.5667941922930424
0.004,1.7996,1.0,321.53101829102894,0.04401616696400956,1.3661543908248102,0.3229546603427194,0.2886362,0.5724839352031639
0.0045000000000000005,1.7994937500000001,1.0,409.3345063042125,0.04937848038169773,1.3639212472240867,0.3730713940658281,0.2886317375,0.5776827991672997
0.005,1.799375,1.0,499.48178763921396,0.05471071545254322,1.3618568913783102,0.42028197064634976,0.28862675,0.5824604278125823
0.0055,1.79924375,1.0,590.8594500746713,0.060013040910916124,1.3599374863412181,0.4642056490719729,0.2886212375,0.5868782076733591
0.006,1.7991000000000001,1.0,682.5873526728301,0.06528562451243385,1.358145156101444,0.5047093247499197,0.2886152,0.5909822932432155
0.006500000000000001,1.79894375,1.0,773.9526254751315,0.07052863308983151,1.3564660353533649,0.5418275815980795,0.2886086375,0.594808563901319
0.007,1.798775,1.0,864.3574468027754,0.07574223253199802,1.3548892378758763,0.5757012133770942,0.28860155,0.5983852960455347
0.0075,1.79859375,1.0,953.3135382562863,0.08092658780917103,1.3534056975730517,0.6065321395437472,0.2885939375,0.6017360105959971
0.008,1.7984,1.0,1040.4253827384698,0.0860818629384083,1.3520076609783238,0.6345522699177782,0.2885858,0.6048807608819179
0.0085,1.79819375,1.0,1125.3860569555259,0.09120822106783134,1.3506882246739207,0.6600027455154646,0.2885771375,0.6078372738362683
0.009000000000000001,1.797975,1.0,1207.9509204229932,0.09630582435745924,1.3494413417582372,0.6831209796013639,0.28856795,0.6106210097901879
0.0095,1.79774375,1.0,1287.9402522702824,0.10137483417659139,1.3482614880250094,0.7041327537855195,0.2885582375,0.6132459692557596
0.01,1.7975,1.0,1365.2144972853168,0.10641541041058199,1.3471437754492412,0.7232481291446825,0.288548,0.6157244871391798
0.0105,1.79724375,1.0,1439.7129859099016,0.11142771349537431,1.3460832769663496,0.7406592869842886,0.2885372375,0.6180687672328858
0.011,1.796975,1.0,1511.3826557331856,0.11641190196726153,1.345075815330786,0.7565406070768385,0.28852595000000003,0.6202891635006162
0.0115,1.79669375,1.0,1580.1814965940018,0.12136813266524385,1.3441177604894012,0.7710490964456111,0.2885141375,0.6223946649099461
0.012,1.7964,1.0,1646.1153264275636,0.1262965624283214,1.3432054823890456,0.7843251968928616,0.28850180000000003,0.6243941226342555
0.0125,1.79609375,1.0,1709.2146825351165,0.1311973474089107,1.3423355671987753,0.796494216718398,0.2884889375,0.6262957890009336
0.013000000000000001,1.7957750000000001,1.0,1769.5401396022608,0.1360706436520693,1.341504693606031,0.8076676906022665,0.28847555,0.6281076028222286
0.0135,1.79544375,1.0,1827.1298673216106,0.1409166046259958,1.3407101691415173,0.8179449897006458,0.2884616375,0.6298360352154295
0.014,1.7951000000000001,1.0,1882.0334670263576,0.1457353831300423,1.339949478839557,0.8274144545782475,0.2884472,0.6314870913160511
0.0145,1.79474375,1.0,1934.324144094061,0.15052713188539665,1.3392201155236267,0.8361545718154254,0.2884322375,0.6330666875769686
0.015,1.794375,1.0,1984.085570297003,0.1552920026280648,1.3385196966560804,0.8442351490498068,0.28841675,0.6345804048975616
0.0155,1.79399375,1.0,2031.402593374397,0.16003014711263946,1.3378460339996443,0.8517183529125585,0.2884007375,0.6360333460162985
0.016,1.7936,1.0,2076.3422846432973,0.16474171413490532,1.3371973021629977,0.85865965579951,0.2883842,0.6374297812946301
0.0165,1.7931937500000001,1.0,2118.985812076848,0.16942685249064715,1.33657167575482,0.8651085154186069,0.2883671375,0.638773938391557
0.017,1.792775,1.0,2159.420465951648,0.17408571029831313,1.3359673986071539,0.8711091073105798,0.28834955,0.6400698567383348
0.0175,1.7923437500000001,1.0,2197.7380115055284,0.17871843574066965,1.335382786018299,0.8767009495698604,0.2883314375,0.6413213866154461
0.018000000000000002,1.7919,1.0,2234.0339614508634,0.1833251769380845,1.3348162189294204,0.8819194474840679,0.2883128,0.6425322051715767
0.0185,1.79144375,1.0,2268.3737972562553,0.18790607801033413,1.3342664691146848,0.8867964540801242,0.2882936375,0.6437051263571476
0.019,1.790975,1.0,2300.8302259549455,0.19246128307719507,1.3337323083482588,0.8913605809552112,0.28827395,0.6448429412134652
0.0195,1.79049375,1.0,2331.482585179479,0.19699093625844374,1.3332125084043096,0.8956375702008258,0.2882537375,0.6459484191419258
0.02,1.79,1.0,2360.416281643434,0.2014951816738567,1.3327058410570034,0.8996506202445677,0.288233,0.6470243090770154
0.0205,1.78949375,1.0,2387.702667185366,0.20597416089730416,1.3322112685218406,0.9034207129392037,0.2882117375,0.6480729370762421
0.021,1.788975,1.0,2413.4354155714364,0.2104280187718605,1.3317275819460157,0.9069667821934804,0.28818995000000003,0.6490969750518158
0.021500000000000002,1.78844375,1.0,2437.6735470510644,0.2148568944546567,1.3312539498693203,0.9103060508572893,0.2881676375,0.6500982802805287
0.022,1.7879,1.0,2460.4790457978706,0.21926092703662986,1.3307895452192455,0.9134541392111157,0.2881448,0.6510786886914692
0.0225,1.78734375,1.0,2481.917028495515,0.2236402556087172,1.3303335409232824,0.9164252354408577,0.28812143749999997,0.6520400246845859
0.023,1.786775,1.0,2502.0554791953173,0.22799501926185575,1.3298851099089222,0.9192322467673922,0.28809755,0.6529841015955942
0.0235,1.78619375,1.0,2520.9559966627135,0.2323253548893465,1.3294435102519733,0.9218869476063234,0.28807313749999996,0.6539125432170216
0.024,1.7856,1.0,2538.6859174271267,0.23663140262733545,1.3290079672134476,0.9244000769575177,0.2880482,0.6548270328765147
0.0245,1.78499375,1.0,2555.2988416013113,0.2409132983607647,1.3285778548503053,0.9267814715936091,0.2880227375,0.655728932723124
0.025,1.784375,1.0,2570.843222788543,0.2451711759678503,1.3281526114869966,0.9290401420497295,0.28799675,0.6566194629281387
0.025500000000000002,1.78374375,1.0,2585.3690030901716,0.24940516932680823,1.3277316754479718,0.9311843440347211,0.2879702375,0.6574998370792899
0.026000000000000002,1.7831000000000001,1.0,2598.927485667992,0.2536154123158545,1.327314485057681,0.9332216519185902,0.2879432,0.6583712623451057
0.0265,1.78244375,1.0,2611.571214301303,0.2578020388132052,1.3269004786405747,0.9351590241686436,0.2879156375,0.6592349396191428
0.027,1.781775,1.0,2623.3429749926554,0.2619651793969546,1.3264891954430622,0.9370028759159849,0.28788755,0.6600918535042792
0.0275,1.7810937500000001,1.0,2634.2952997447646,0.2661049699453355,1.3260800931408863,0.938759105401127,0.2878589375,0.6609431532437211
0.028,1.7804,1.0,2644.472777779167,0.2702215426188184,1.3256727112054443,0.9404331622227757,0.2878298,0.6617898124237733
0.0285,1.77969375,1.0,2653.9091631660917,0.27431502544498465,1.3252666959994142,0.9420300913756303,0.2878001375,0.662632578040895
0.029,1.778975,1.0,2662.6388213329183,0.2783855464514156,1.3248616938854738,0.9435545558164397,0.28776995,0.6634721933860355
0.029500000000000002,1.7782437500000001,1.0,2670.6966754725736,0.2824332336656928,1.324457351226302,0.9450108703267461,0.2877392375,0.6643093980714672
0.03,1.7775,1.0,2678.118155724565,0.28645821511539754,1.3240533143845765,0.9464030319696395,0.287708,0.6651449280496519
0.0305,1.77674375,1.0,2684.939151129212,0.2904606188281113,1.3236492297229756,0.9477347475201722,0.2876762375,0.6659795156241217
0.031,1.775975,1.0,2691.195808405887,0.29444057270691365,1.323244745031742,0.949009458344698,0.28764395,0.666813886509452
0.0315,1.7751937500000001,1.0,2696.9172554997162,0.29839819942937607,1.3228395756709568,0.9502303693777208,0.2876111375,0.6676486236626167
0.032,1.7744,1.0,2702.1402174444183,0.3023336313027399,1.3224333703585025,0.951400456809827,0.2875778,0.6684844441302831
0.0325,1.77359375,1.0,2706.8872714590725,0.30624699036094866,1.3220259096616753,0.9525225046608657,0.2875439375,0.6693217905184009
0.033,1.772775,1.0,2711.18121167288,0.31013839863794584,1.321616974147772,0.953599107709498,0.28750955,0.6701611031251002
0.0335,1.7719437500000002,1.0,2715.0450283018795,0.31400797816767495,1.321206344384089,0.9546326866318332,0.2874746375,0.6710028199215883
0.034,1.7711000000000001,1.0,2718.501887893432,0.31785585098407954,1.320793800937923,0.955625501757381,0.2874392,0.6718473765299753
0.0345,1.7702437500000001,1.0,2721.5751146382786,0.321682139121103,1.3203791243765703,0.9565796655832262,0.2874032375,0.6726952061980296
0.035,1.7693750000000001,1.0,2724.2881727500458,0.3254869646126889,1.3199620952673277,0.9574971541715895,0.28736675,0.6735467397708595
0.035500000000000004,1.76849375,1.0,2726.6615755107896,0.329270448839884,1.3195425221371733,0.9583798203366872,0.2873297375,0.6744023486805297
0.036000000000000004,1.7676,1.0,2728.717250000124,0.333032711453785,1.319120201599834,0.9592293984898133,0.2872922,0.6752624264377594
0.0365,1.76669375,1.0,2730.473473869942,0.3367738709026918,1.3186949642736006,0.9600475182876521,0.2872541375,0.6761272951104862
0.037,1.765775,1.0,2731.944376968897,0.3404940450668222,1.3182666791487618,0.9608357128579021,0.28721555,0.6769971968865405
0.0375,1.7648439385495467,1.0,2733.153525335395,0.34419335182639377,1.3178352152156065,0.9615954221151298,0.28717644541908094,0.6778723723496463
0.038,1.763908609664161,1.0,2734.507251085551,0.347871908285781,1.3174005135159013,0.962328006221792,0.28713716160589475,0.6787529146040886
0.0385,1.7629732807787752,1.0,2736.188816728879,0.35152983158137996,1.3169628384738534,0.9630347750293946,0.28709787779270857,0.6796382622021617
0.039,1.7620379518933895,1.0,2738.1712596001266,0.35516723668073746,1.3165224375213136,0.963716959095586,0.2870585939795224,0.6805278907703003
0.0395,1.7611026230080036,1.0,2740.4279119892594,0.35878423847653457,1.3160795555329634,0.9643757169948366,0.28701931016633614,0.6814212837183811
0.04,1.7601672941226179,1.0,2742.932910587768,0.36238095155915356,1.3156344300833955,0.9650121398284364,0.28698002635314995,0.682317941791869
0.0405,1.7592319652372321,1.0,2745.661697188316,0.3659574903403405,1.3151872868114258,0.9656272554620426,0.28694074253996377,0.6832173923228699
0.041,1.7582966363518464,1.0,2748.5937660180716,0.3695139678172491,1.314738314465167,0.9662220304361306,0.2869014587267775,0.6841192391824797
0.0415,1.7573613074664607,1.0,2751.711113032904,0.37305049597073936,1.3142876789583695,0.9667973753919347,0.28686217491359134,0.6850231341038293
0.042,1.7564259785810747,1.0,2754.9957123350796,0.37656718678167117,1.3138355462047833,0.9673541508876259,0.28682289110040515,0.6859287306707441
0.0425,1.755490649695689,1.0,2758.4385558722643,0.38006414580008585,1.3133820003302281,0.9678931628678765,0.28678360728721897,0.6868358477966355
0.043000000000000003,1.7545553208103033,1.0,2762.0101300534025,0.3835414941766894,1.3129273106625954,0.968415191553193,0.2867443234740327,0.6877439357189908
0.043500000000000004,1.7536199919249176,1.0,2765.698132885339,0.38699934132759883,1.312471590505858,0.9689209611900345,0.28670503966084654,0.68865275869496
0.044,1.7526846630395319,1.0,2769.493568366183,0.39043779429391967,1.3120149230981224,0.9694111552057956,0.28666575584766035,0.6895621421048239
0.0445,1.751749334154146,1.0,2773.387421535914,0.3938569601167575,1.311557391677496,0.9698864214976977,0.2866264720344741,0.6904719122803422
0.045,1.7508140052687602,1.0,2777.3706568049347,0.39725694583721793,1.3110990794820858,0.9703473746315505,0.2865871882212879,0.6913818965095626
0.0455,1.7498786763833745,1.0,2781.434216436191,0.40063785849640643,1.3106400697499987,0.9707945978838451,0.28654790440810174,0.6922919230411861
0.046,1.7489433474979887,1.0,2785.5690191811195,0.40399980513542855,1.3101804457193413,0.9712286451397447,0.28650862059491555,0.6932018210884909
0.0465,1.748008018612603,1.0,2789.765959069076,0.40734289279538993,1.3097202906282208,0.9716500426584338,0.2864693367817293,0.6941114208328139
0.047,1.747072689727217,1.0,2794.015904350711,0.410667228517396,1.3092596877147442,0.9720592907162746,0.2864300529685431,0.695020553426591
0.0475,1.7461373608418314,1.0,2798.3134155107227,0.41397291338476266,1.3087986868316803,0.9724568619854947,0.2863907691553569,0.6959291167443553
0.048,1.7452020319564456,1.0,2802.6506871571314,0.4172600562699168,1.308337358911447,0.9728432087729563,0.2863514853421707,0.6968369677918159
0.0485,1.74426670307106,1.0,2807.0191593271475,0.4205287672348009,1.3078757814377928,0.973218762310158,0.2863122015289845,0.6977439515435856
0.049,1.743331374185674,1.0,2811.415598197007,0.4237791468368591,1.3074139839558812,0.9735839289171755,0.2862729177157983,0.6986500078710882
0.0495,1.7423960453002882,1.0,2815.836759974287,0.42701129563353535,1.306951996010876,0.9739390958658874,0.2862336339026121,0.6995550769927907
0.05,1.7414607164149025,1.0,2820.279390763532,0.43022531418227394,1.3064898471479411,0.9742846324465285,0.2861943500894259,0.7004590994745908
0.0505,1.7405253875295168,1.0,2824.7402264510315,0.43342130304051885,1.30602756691224,0.9746208909652615,0.2861550662762397,0.701362016230148
0.051000000000000004,1.739590058644131,1.0,2829.21599260902,0.43659936276571426,1.3055651848489367,0.9749482076778153,0.28611578246305347,0.702263768521158
0.051500000000000004,1.7386547297587451,1.0,2833.7034044197626,0.4397595939153043,1.3051027305031948,0.9752669036638163,0.2860764986498673,0.703164297957573
0.052000000000000005,1.7377194008733594,1.0,2838.1991666179297,0.44290209704673306,1.3046402334201783,0.975577285646073,0.2860372148366811,0.7040635464977656
0.0525,1.7367840719879737,1.0,2842.6999734532574,0.44602697271744457,1.3041777231450506,0.9758796467587314,0.2859979310234949,0.7049614564486382
0.053,1.735848743102588,1.0,2847.2025086721283,0.44913432148488314,1.303715229222976,0.9761742672679066,0.2859586472103087,0.7058579704656736
0.0535,1.7349134142172022,1.0,2851.7083258420125,0.4522242204467716,1.3032527377997292,0.9764614102039509,0.2859193633971225,0.7067531154877829
0.054,1.7339780853318163,1.0,2856.2104940542386,0.45529679708172754,1.302790310455418,0.9767413369294489,0.2858800795839363,0.7076467726221671
0.0545,1.7330427564464306,1.0,2860.707167776298,0.4583521502355511,1.3023279634245675,0.9770142920342775,0.28584079577075006,0.70853891113378
0.055,1.7321074275610449,1.0,2865.19760683259,0.4613903728159613,1.3018657030845535,0.9772805086024815,0.28580151195756387,0.7094295194555745
0.0555,1.7311720986756591,1.0,2869.681068840841,0.4644115577306773,1.301403535812752,0.9775402099581894,0.2857622281443777,0.7103185860955712
0.056,1.7302367697902734,1.0,2874.156809225148,0.4674157978874184,1.3009414679865385,0.9777936101552926,0.2857229443311915,0.7112060996368215
0.0565,1.7293014409048875,1.0,2878.624081229354,0.4704031861939037,1.300479505983289,0.9780409144386741,0.28568366051800526,0.7120920487373681
0.057,1.7283661120195017,1.0,2883.082135931964,0.4733738155578524,1.3000176561803791,0.9782823196788529,0.28564437670481907,0.7129764221302035
0.0575,1.727430783134116,1.0,2887.5302222611203,0.4763277788869837,1.299555924955185,0.9785180147817866,0.2856050928916329,0.7138592086232258
0.058,1.7264954542487303,1.0,2891.9675870109863,0.47926516908901673,1.2990943186850816,0.9787481810754355,0.28556580907844664,0.7147403970991928
0.0585,1.7255601253633444,1.0,2896.393474859334,0.48218607907167066,1.2986328437474457,0.9789729926745857,0.28552652526526046,0.7156199765156687
0.059000000000000004,1.7246247964779586,1.0,2900.8071283851586,0.4850906017426647,1.2981715065196524,0.9791926168253162,0.28548724145207427,0.7164979359049772
0.059500000000000004,1.723689467592573,1.0,2905.207788088068,0.48797883000971803,1.2977103133790775,0.9794072142303942,0.2854479576388881,0.7173742643741438
0.06,1.7227541387071872,1.0,2909.594692407902,0.4908508567805498,1.2972492707030971,0.979616939356802,0.28540867382570184,0.718248951104837
0.0605,1.7218188098218015,1.0,2913.9670777459655,0.49370677496287924,1.296788384869087,0.9798219407265034,0.28536939001251566,0.719121985353312
0.061,1.7208834809364155,1.0,2918.324395093097,0.4965466717365809,1.2963276603503102,0.9800223606414155,0.2853301061993294,0.719993360048824
0.0615,1.7199481520510298,1.0,2922.667696801912,0.49937060558536966,1.295867087541634,0.980218333071367,0.28529082238614323,0.720863094737344
0.062,1.719012823165644,1.0,2926.9950533515407,0.502178719864332,1.2954066830415876,0.980409994831755,0.28525153857295704,0.7217311594845888
0.0625,1.7180774942802584,1.0,2931.306496691196,0.5049710986259042,1.2949464461968265,0.9805974722182459,0.28521225475977086,0.7225975570021126
0.063,1.7171421653948724,1.0,2935.602059176803,0.5077478259225221,1.2944863763540075,0.9807808868713528,0.28517297094658467,0.7234622899932583
0.0635,1.7162068365094867,1.0,2939.8817735683388,0.5105089858066222,1.2940264728597863,0.9809603559827571,0.28513368713339843,0.7243253611531675
0.064,1.715271507624101,1.0,2944.1456730278596,0.5132546623306405,1.2935667350608195,0.9811359924910144,0.28509440332021224,0.7251867731687838
0.0645,1.7143361787387152,1.0,2948.3937911166877,0.5159849395470132,1.2931071623037629,0.9813079052672702,0.28505511950702606,0.7260465287188635
0.065,1.7134008498533295,1.0,2952.6261617930168,0.5186999015081765,1.292647753935273,0.9814761992915568,0.2850158356938398,0.7269046304739794
0.0655,1.7124655209679436,1.0,2956.8428194099333,0.5213996322665665,1.2921885093020058,0.9816409758202201,0.28497655188065363,0.7277610810965296
0.066,1.7115301920825579,1.0,2961.043798712564,0.5240842158746194,1.2917294277506177,0.9818023325449782,0.28493726806746744,0.7286158832407434
0.0665,1.7105948631971721,1.0,2965.229134835945,0.5267537363847714,1.2912705086277647,0.9819603637440921,0.28489798425428126,0.7294690395526889
0.067,1.7096595343117864,1.0,2969.398863302635,0.5294082778494585,1.290811751280103,0.9821151604260896,0.284858700441095,0.7303205526702792
0.0675,1.7087242054264007,1.0,2973.5530200205326,0.5320479243211171,1.2903531550542888,0.9822668104664579,0.28481941662790883,0.7311704252232785
0.068,1.7077888765410147,1.0,2977.691641280029,0.5346727598521833,1.2898947192969785,0.9824153987377008,0.2847801328147226,0.73201865983331
0.0685,1.706853547655629,1.0,2981.8147637523944,0.5372828684950931,1.289436443354828,0.9825610072331206,0.2847408490015364,0.7328652591138631
0.069,1.7059182187702433,1.0,2985.922424486843,0.5398783343022828,1.2889783265744938,0.9827037151846755,0.2847015651883502,0.7337102256702972
0.0695,1.7049828898848576,1.0,2990.014660908532,0.5424592413261886,1.2885203683026318,0.9828435991752266,0.28466228137516403,0.7345535620998522
0.07,1.7040475609994719,1.0,2994.0915108161553,0.5450256736192467,1.2880625678858983,0.9829807332454864,0.28462299756197784,0.7353952709916525
0.07050000000000001,1.703112232114086,1.0,2998.153012379656,0.547577715233893,1.2876049246709496,0.9831151889959485,0.2845837137487916,0.7362353549267138
0.07100000000000001,1.7021769032287002,1.0,3002.19923718132,0.5501153776882056,1.2871474377180576,0.983247031344974,0.2845444299356054,0.7370738170024052
0.07150000000000001,1.7012415743433145,1.0,3006.2305425903196,0.5526388243858508,1.2866901036161895,0.9833763320108582,0.2845051461224192,0.7379106648231458
