Time [s],Phi [rad],STIM [ ],Fsee [N],Gamma [ ],Lcerel [ ],q [ ],Lmtc [m],fisomrel [ ]
0.0,1.8,1.0,17.986245473175472,0.0001436249607979586,1.3793376083707911,0.005005383308899271,0.288653,0.5411447030469653
0.0005,1.79999375,1.0,18.339638554312756,0.005752028647176916,1.3792954074450796,0.01331564716475353,0.2886527375,0.5412467917444868
0.001,1.799975,1.0,21.780595805377178,0.011328973623158845,1.3789217652790955,0.036308290321720026,0.28865195,0.5421501779265755
0.0015,1.79994375,1.0,31.44462412324335,0.01687463634818587,1.3780143179744617,0.07155731086383764,0.2886506375,0.5443404828007097
0.002,1.7999,1.0,54.38245298707876,0.022389192289893237,1.376316419901286,0.11584817506503933,0.2886488,0.5484245921960427
0.0025,1.79984375,1.0,98.45600207531977,0.027872815932504763,1.373870957558834,0.16580351424376188,0.28864643749999996,0.5542745761927316
0.003,1.7997750000000001,1.0,162.69290333404638,0.03332568078336344,1.3711495849355466,0.21854741533285954,0.28864354999999997,0.5607397500069244
0.0035,1.79969375,1.0,239.6406014603839,0.038747959373507605,1.3685245687505472,0.2718726497434916,0.2886401375,0.5669312571021149
0.004,1.7996,1.0,323.547482323625,0.04413982326815029,1.3661010711978376,0.3241353328995717,0.2886362,0.5726084364406754
0.0045000000000000005,1.7994937500000001,1.0,411.421277056804,0.0495014430719575,1.363872329021396,0.37419198149626626,0.2886317375,0.5777963270808191
0.005,1.799375,1.0,501.61007656795687,0.05483298842081926,1.3618117165780341,0.4213302412246754,0.28862675,0.5825646739376795
0.0055,1.79924375,1.0,593.0056059035285,0.06013462802212011,1.3598955961150043,0.46517610739701726,0.2886212375,0.586974361916536
0.006,1.7991000000000001,1.0,684.7345589225089,0.06540652961543614,1.358106158231592,0.505601127386519,0.2886152,0.591071362999394
0.006500000000000001,1.79894375,1.0,776.084247844895,0.07064886000020537,1.356429673858193,0.5426429836001315,0.2886086375,0.5948912231930557
0.007,1.798775,1.0,866.4614667149298,0.07586178508495177,1.3548552732773398,0.5764442982164333,0.28860155,0.5984621652655118
0.0075,1.79859375,1.0,955.3757642497739,0.08104546964664404,1.353373996710715,0.6072080265722244,0.2885939375,0.6018074567879323
0.008,1.7984,1.0,1042.4522098656535,0.0862000780571961,1.351977835510695,0.6351663218234382,0.2885858,0.604947714633948
0.0085,1.79819375,1.0,1127.3661969639506,0.09132577317476302,1.3506602063855966,0.6605605458345124,0.2885771375,0.6078999351326876
0.009000000000000001,1.797975,1.0,1209.869219786756,0.09642271702043086,1.3494151414260673,0.6836279479579594,0.28856795,0.6106793971371217
0.0095,1.79774375,1.0,1289.798589806524,0.10149107100076507,1.3482369065722801,0.7045938552105202,0.2885582375,0.6133005640974778
0.01,1.7975,1.0,1367.031644702574,0.10653099588747347,1.3471204283649987,0.7236678438237334,0.288548,0.615776174144451
0.0105,1.79724375,1.0,1441.464274367979,0.11154265051152863,1.3460613653158464,0.7410419794235296,0.2885372375,0.6181171283027178
0.011,1.796975,1.0,1513.0480273515886,0.11652619331177284,1.3450554781039004,0.7568901804495946,0.28852595000000003,0.6203339191023238
0.0115,1.79669375,1.0,1581.7844103813795,0.12148178283835703,1.3440986164330997,0.7713688137977668,0.2885141375,0.6224366778342683
0.012,1.7964,1.0,1647.676376940533,0.12640957593504853,1.3431872152186963,0.7846180012842531,0.28850180000000003,0.624434104943993
0.0125,1.79609375,1.0,1710.728509001225,0.13130972761757936,1.342318182425379,0.7967628630996169,0.2884889375,0.6263337435618144
0.013000000000000001,1.7957750000000001,1.0,1770.9814396728823,0.13618239290168158,1.3414884260178361,0.8079147190806277,0.28847555,0.6281430321934339
0.0135,1.79544375,1.0,1828.4932192070328,0.14102772605783295,1.340695025523696,0.81817256950631,0.2884616375,0.6298689399981127
0.014,1.7951000000000001,1.0,1883.345043609416,0.14584588161263534,1.339935124219009,0.8276243884881495,0.2884472,0.6315182121243844
0.0145,1.79474375,1.0,1935.595905838315,0.15063701140020008,1.3392063859470975,0.8363485217644919,0.2884322375,0.6330963894537907
0.015,1.794375,1.0,1985.3077896683722,0.15540126625674067,1.338506668304365,0.8444146741254325,0.28841675,0.6346085316118579
0.0155,1.79399375,1.0,2032.5611421325236,0.16013879701847059,1.337833828887214,0.8518848544134041,0.2884007375,0.6360596430465708
0.016,1.7936,1.0,2077.439408880082,0.16484975356769968,1.3371858697908046,0.8588143291045969,0.2883842,0.6374543661142176
0.0165,1.7931937500000001,1.0,2120.0428871094423,0.16953428643979954,1.3365607720266488,0.8652523703662952,0.2883671375,0.6387973428980425
0.017,1.792775,1.0,2160.446717055552,0.17419254311635154,1.3359569123423851,0.8712430844931889,0.28834955,0.6400923247747798
0.0175,1.7923437500000001,1.0,2198.72502554017,0.1788246701552238,1.3353727889192828,0.8768259404993902,0.2883314375,0.6413427693000708
0.018000000000000002,1.7919,1.0,2234.961584360772,0.18343081411428433,1.3348068999386116,0.882036281356736,0.2883128,0.6425521038057926
0.0185,1.79144375,1.0,2269.241725760831,0.1880111206950754,1.3342578159995524,0.8869058239213524,0.2882936375,0.6437235728418667
0.019,1.790975,1.0,2301.6568108220386,0.19256573617036019,1.333724125706447,0.8914630654704293,0.28827395,0.6448603568924349
0.0195,1.79049375,1.0,2332.286226397921,0.19709480487221215,1.3332046053298439,0.8957336917932595,0.2882537375,0.6459652136064509
0.02,1.79,1.0,2361.196714926857,0.20159846881951388,1.3326982133682006,0.8997408924479839,0.288233,0.6470404936913497
0.0205,1.78949375,1.0,2388.460069985688,0.20607687003114805,1.3322039083199746,0.9035055992703641,0.2882117375,0.6480885309213454
0.021,1.788975,1.0,2414.1527148019086,0.2105301505259973,1.331720648683623,0.9070467369137314,0.28818995000000003,0.6491116429748608
0.021500000000000002,1.78844375,1.0,2438.3452154219626,0.21495845060361027,1.331247489987237,0.9103814623690408,0.2881676375,0.6501119272230718
0.022,1.7879,1.0,2461.119075250899,0.21936191292778226,1.3307834181997429,0.9135253238478753,0.2881448,0.6510916142987693
0.0225,1.78734375,1.0,2482.538376030488,0.2237406766688772,1.330327618476737,0.9164924832094263,0.28812143749999997,0.6520525015034672
0.023,1.786775,1.0,2502.6583140168127,0.22809487885681287,1.3298793870757744,0.9192958443702881,0.28809755,0.6529961415258656
0.0235,1.78619375,1.0,2521.5364835378273,0.23242465652150712,1.3294380202544096,0.9219471637845431,0.28807313749999996,0.6539240778407374
0.024,1.7856,1.0,2539.2326763133424,0.23673014669287767,1.3290028142701975,0.9244571683290167,0.2880482,0.6548378450328123
0.0245,1.78499375,1.0,2555.808691755301,0.2410114864008424,1.3285730653806933,0.9268356596576828,0.2880227375,0.6557389690890774
0.025,1.784375,1.0,2571.318058389653,0.2452688092808713,1.3281481644289077,0.9290916212954853,0.28799675,0.6566287697128144
0.025500000000000002,1.78374375,1.0,2585.8240084378554,0.2495022548909314,1.3277274260881882,0.9312332748840468,0.2879702375,0.6575087187168723
0.026000000000000002,1.7831000000000001,1.0,2599.3705013937006,0.25371195565904325,1.3273103584713695,0.9332681922800442,0.2879432,0.6583798763945907
0.0265,1.78244375,1.0,2612.0004581936446,0.2578980431704081,1.3268964900200326,0.9352033324700678,0.2879156375,0.6592432551421643
0.027,1.781775,1.0,2623.7578304340004,0.2620606490102272,1.3264853491757582,0.9370450967734654,0.28788755,0.6600998621606609
0.0275,1.7810937500000001,1.0,2634.687510366764,0.26619990476370164,1.3260764643801268,0.9387993809610437,0.2878589375,0.66095069954514
0.028,1.7804,1.0,2644.8352458261434,0.27031594201603265,1.3256693640747192,0.9404716218695253,0.2878298,0.6617967643595918
0.0285,1.77969375,1.0,2654.239670503326,0.27440888975779376,1.3252636494239816,0.9420668485903978,0.2878001375,0.6626388978424529
0.029,1.778975,1.0,2662.9400586539837,0.27847887878878463,1.3248589216651576,0.9435897103164584,0.28776995,0.6634779369086448
0.029500000000000002,1.7782437500000001,1.0,2670.98709250222,0.282526043021795,1.3244546826147092,0.9450444967728472,0.2877392375,0.6643149200554475
0.03,1.7775,1.0,2678.4085355764505,0.2865505078415091,1.3240506498140556,0.9464352080134825,0.287708,0.6651504348057662
0.0305,1.77674375,1.0,2685.232557356059,0.29055239863261095,1.3236465408046163,0.9477655535528132,0.2876762375,0.6659850657691513
0.031,1.775975,1.0,2691.4876975111315,0.2945318407797847,1.3232420731278105,0.9490389771229781,0.28764395,0.6668193946429695
0.0315,1.7751937500000001,1.0,2697.2028319110645,0.29848895966771455,1.322836964325057,0.9502586790309508,0.2876111375,0.6676540002084881
0.032,1.7744,1.0,2702.407140402141,0.30242388068108444,1.3224309319377756,0.951427636374274,0.2875778,0.668489458321867
0.0325,1.77359375,1.0,2707.130076354344,0.3063367292045786,1.3220236935073852,0.9525486213435521,0.2875439375,0.669326341900069
0.033,1.772775,1.0,2711.4013890424317,0.3102276303844157,1.3216149661095884,0.9536242176911736,0.28750955,0.6701652218569143
0.0335,1.7719438510043908,1.0,2715.2583077605705,0.31409670299376985,1.3212044462536539,0.954656831821477,0.2874746417421844,0.6710067082489911
0.034,1.771107940063789,1.0,2719.076041513212,0.31794407837959504,1.320792157663678,0.9556487510158964,0.28743953348267914,0.6718507384613581
0.0345,1.770272029123187,1.0,2723.0740664983346,0.3217698755482956,1.3203782527431702,0.9566021233765731,0.2874044252231739,0.67269698714679
0.035,1.7694361181825853,1.0,2727.236014185072,0.325574213506276,1.3199628838956396,0.9575189577574189,0.2873693169636686,0.6735451305139841
0.035500000000000004,1.7686002072419833,1.0,2731.545480165456,0.3293572112599406,1.319546203524595,0.9584011344078196,0.28733420870416326,0.6743948463425322
0.036000000000000004,1.7677642963013815,1.0,2735.9860194650087,0.3331189878156939,1.3191283640335458,0.9592504146869396,0.287299100444658,0.6752458139964052
0.0365,1.7669283853607796,1.0,2740.5411423685005,0.33685966217994007,1.3187095178260007,0.960068449939296,0.28726399218515275,0.6760977144359636
0.037,1.7660924744201778,1.0,2745.1943107609222,0.3405793533590838,1.3182898173054691,0.960856789612558,0.2872288839256475,0.6769502302284793
0.0375,1.7652565634795758,1.0,2749.9289349832898,0.3442781803595293,1.3178694148754597,0.9616168886899416,0.2871937756661422,0.677803045557184
0.038,1.764420652538974,1.0,2754.737558992387,0.34795625466508767,1.317448379809318,0.9623501049577191,0.2871586674066369,0.6786560145294611
0.0385,1.763584741598372,1.0,2759.6006651734097,0.3516137022596645,1.3170268902000084,0.9630577287310543,0.2871235591471316,0.6795087719710198
0.039,1.7627488306577703,1.0,2764.5088171582506,0.35525063903735193,1.316605032476637,0.963740963821838,0.28708845088762636,0.6803611397017464
0.0395,1.7619129197171683,1.0,2769.4561505630877,0.3588671774717388,1.3161828605381751,0.9644009405078944,0.2870533426281211,0.6812130060647223
0.04,1.7610770087765666,1.0,2774.4367803926084,0.36246343003641357,1.315760428283594,0.9650387242327807,0.2870182343686158,0.6820642599813818
0.0405,1.7602410978359646,1.0,2779.4448006971215,0.36603950920496503,1.3153377896118645,0.9656553200154421,0.28698312610911053,0.6829147909524983
0.041,1.7594051868953626,1.0,2784.4742842929827,0.3695955274509818,1.314914998421958,0.9662516765154273,0.2869480178496052,0.6837644890589868
0.0415,1.7585692759547609,1.0,2789.5192825487566,0.37313159724805245,1.3144921086128452,0.9668286897838833,0.28691290959009996,0.6846132449625204
0.042,1.7577333650141589,1.0,2794.5738252346277,0.37664783106976574,1.3140691740834973,0.9673872067276227,0.28687780133059465,0.6854609499059625
0.0425,1.7568974540735571,1.0,2799.6319204373867,0.3801443413897103,1.3136462487328857,0.9679280283109394,0.2868426930710894,0.6863074957136123
0.043000000000000003,1.7560615431329551,1.0,2804.6884969573625,0.3836212384973938,1.3132233780093512,0.9684519114847002,0.2868075848115841,0.6871527916722293
0.043500000000000004,1.7552256321923534,1.0,2809.7410989244286,0.38707863025812766,1.3128005837670969,0.9689595707749948,0.2867724765520788,0.6879967946267966
0.044,1.7543897212517514,1.0,2814.7835351303856,0.39051663467574327,1.3123779212165383,0.9694516873884237,0.28673736829257357,0.6888393952054662
0.0445,1.7535538103111497,1.0,2819.814154205057,0.39393535774466953,1.311955404771956,0.9699289021539039,0.2867022600330683,0.6896805657958072
0.045,1.7527178993705477,1.0,2824.831299157761,0.3973349054593353,1.3115330488476296,0.9703918230056924,0.286667151773563,0.6905202789403714
0.0455,1.751881988429946,1.0,2829.833307426446,0.4007153838141694,1.3111108678578396,0.9708410269935346,0.28663204351405774,0.6913585073365494
0.046,1.751046077489344,1.0,2834.8185109309584,0.40407689880360065,1.3106888762168658,0.9712770621512216,0.28659693525455243,0.6921952238364192
0.0465,1.7502101665487422,1.0,2839.7852361315854,0.40741955642205796,1.3102670883389889,0.9717004492347996,0.2865618269950472,0.6930304014465756
0.047,1.7493742556081402,1.0,2844.7318040917726,0.4107434626639701,1.3098455186384885,0.9721116833406858,0.2865267187355419,0.693864013327953
0.0475,1.7485383446675384,1.0,2849.656530545246,0.414048723523766,1.3094241815296452,0.9725112354130497,0.2864916104760366,0.6946960327956286
0.048,1.7477024337269365,1.0,2854.5577259687107,0.41733544499587444,1.3090030914267388,0.9728995536490107,0.2864565022165313,0.6955264333186177
0.0485,1.7468665227863345,1.0,2859.43524483328,0.4206037224589725,1.3085822489862837,0.9732770625478261,0.28642139395702604,0.6963552155949209
0.049,1.7460306118457327,1.0,2864.287129531835,0.4238536710307495,1.3081616709450565,0.9736441700365048,0.2863862856975208,0.6971823487256081
0.0495,1.7451947009051307,1.0,2869.1123611552794,0.4270853972937442,1.3077413656648822,0.9740012632919618,0.28635117743801547,0.6980078184270193
0.05,1.744358789964529,1.0,2873.9108483117193,0.430299000404262,1.3073213332675366,0.9743487100940506,0.2863160691785102,0.6988316266539021
0.0505,1.743522879023927,1.0,2878.682500058253,0.4334945795186085,1.3069015738747949,0.9746868613294932,0.2862809609190049,0.699653775360886
0.051000000000000004,1.7426869680833252,1.0,2883.427225902247,0.43667223379308906,1.3064820876084322,0.9750160519187878,0.28624585265949964,0.7004742665024786
0.051500000000000004,1.7418510571427233,1.0,2888.1449358015,0.4398320623840092,1.3060628745902243,0.975336601684324,0.2862107443999944,0.7012931020330633
0.052000000000000005,1.7410151462021215,1.0,2892.8355401653193,0.44297416444767446,1.3056439349419466,0.9756488161639176,0.28617563614048913,0.7021102839068977
0.0525,1.7401792352615195,1.0,2897.498949855223,0.4460986391403902,1.3052252687853743,0.975952987373651,0.2861405278809838,0.7029258140781124
0.053,1.7393433243209178,1.0,2902.1350761857466,0.449205585618462,1.3048068762422826,0.9762493945235869,0.28610541962147856,0.7037396945007073
0.0535,1.7385074133803158,1.0,2906.7438309247755,0.4522951030381954,1.3043887574344475,0.976538304689653,0.28607031136197325,0.7045519271285494
0.054,1.737671502439714,1.0,2911.325126294996,0.4553672905558957,1.3039709124836438,0.9768199734447326,0.286035203102468,0.705362513915373
0.0545,1.736835591499112,1.0,2915.8788749738537,0.4584222473278685,1.3035533415116474,0.9770946454517625,0.2860000948429627,0.7061714568147742
0.055,1.7359996805585103,1.0,2920.4057705993387,0.46146002256142893,1.3031360377815437,0.9773625498451313,0.2859649865834574,0.7069787710398804
0.0555,1.7351637696179083,1.0,2924.905451702087,0.4644807766228678,1.3027190038461658,0.9776239172593167,0.2859298783239521,0.7077844537958707
0.056,1.7343278586773065,1.0,2929.378186625971,0.4674846058389675,1.302302236728712,0.977878962348674,0.28589477006444686,0.7085885129745464
0.0565,1.7334919477367046,1.0,2933.8243176473948,0.47047160036010915,1.301885732817452,0.9781278903322187,0.2858596618049416,0.7093909576571109
0.057,1.7326560367961026,1.0,2938.244188757009,0.4734418503366739,1.3014694885006555,0.9783708980654944,0.2858245535454363,0.7101917968850547
0.0575,1.7318201258555008,1.0,2942.638145638681,0.47639544591904287,1.301053500166592,0.9786081744490731,0.28578944528593103,0.7109910396602164
0.058,1.7309842149148988,1.0,2947.0065356486807,0.4793324772575971,1.3006377642035312,0.9788399008139346,0.2857543370264257,0.7117886949448406
0.0585,1.730148303974297,1.0,2951.349707795766,0.4822530345027177,1.3002222769997427,0.9790662512852051,0.28571922876692046,0.7125847716616384
0.059000000000000004,1.729312393033695,1.0,2955.668012720407,0.48515720780478583,1.2998070349434965,0.9792873931256341,0.2856841205074152,0.7133792786938428
0.059500000000000004,1.7284764820930933,1.0,2959.9618026757253,0.4880450873141826,1.2993920344230618,0.9795034870600908,0.28564901224790995,0.7141722248852684
0.06,1.7276405711524914,1.0,2964.2314315074927,0.490916763181289,1.2989772718267085,0.9797146875822649,0.28561390398840464,0.714963619040365
0.0605,1.7268046602118896,1.0,2968.477254635315,0.4937723255564863,1.298562743542706,0.9799211432446825,0.2855787957288993,0.715753469924274
0.061,1.7259687492712876,1.0,2972.6996290335505,0.49661186459015555,1.2981484459593242,0.9801229969330646,0.28554368746939407,0.7165417862628825
0.0615,1.7251328383306859,1.0,2976.8989132124857,0.4994354704326778,1.2977343754648327,0.9803203861259887,0.2855085792098888,0.7173285767428763
0.062,1.7242969273900839,1.0,2981.07546720035,0.5022432332344342,1.2973205284475011,0.9805134431407444,0.2854734709503835,0.7181138500117943
0.0625,1.7234610164494821,1.0,2985.2296525252414,0.5050352431458058,1.2969069012955992,0.9807022953662187,0.28543836269087824,0.7188976146780783
0.063,1.7226251055088802,1.0,2989.36183219703,0.5078115903171739,1.2964934903973964,0.9808870654835847,0.28540325443137293,0.7196798793111258
0.0635,1.7217891945682784,1.0,2993.4723706904138,0.5105723648989194,1.2960802921411623,0.981067871675522,0.2853681461718677,0.7204606524413393
0.064,1.7209532836276764,1.0,2997.561633927266,0.5133176570414235,1.2956673029151669,0.9812448278246414,0.2853330379123624,0.7212399425601752
0.0645,1.7201173726870747,1.0,3001.629898183594,0.5160475497342879,1.2952545198971117,0.9814180432364096,0.28529792965285716,0.7220177566336928
0.065,1.7192814617464727,1.0,3005.6771711108418,0.5187620973014927,1.2948419426016333,0.9815876214346716,0.28526282139335185,0.7227940972031095
0.0655,1.7184455508058707,1.0,3009.704546356184,0.5214614392446918,1.29442956114656,0.9817536676880504,0.28522771313384654,0.7235689844484825
0.066,1.717609639865269,1.0,3013.712305844586,0.5241456562205148,1.294017372700167,0.9819162798464884,0.2851926048743413,0.7243424252247804
0.0665,1.716773728924667,1.0,3017.7007326218336,0.5268148288855914,1.2936053744307308,0.9820755523455423,0.285157496614836,0.7251144263564745
0.067,1.7159378179840652,1.0,3021.670110843159,0.5294690378965512,1.2931935635065268,0.9822315763498296,0.28512238835533077,0.7258849946375773
0.0675,1.7151019070434632,1.0,3025.62072576087,0.5321083639100239,1.2927819370958313,0.9823844398894742,0.28508728009582546,0.726654136831673
0.068,1.7142659961028615,1.0,3029.552863713095,0.5347328875826391,1.29237049236692,0.9825342279899407,0.28505217183632015,0.7274218596719542
0.0685,1.7134300851622595,1.0,3033.4668121120435,0.5373426895710266,1.2919592264880684,0.9826810227956188,0.2850170635768149,0.7281881698612526
0.069,1.7125941742216577,1.0,3037.3628594325496,0.5399378505318158,1.291548136627553,0.9828249036875023,0.28498195531730963,0.7289530740720718
0.0695,1.7117582632810557,1.0,3041.241295201175,0.5425184511216363,1.291137219953649,0.9829659473952835,0.2849468470578043,0.7297165789466218
0.07,1.710922352340454,1.0,3045.1024099853844,0.545084571997118,1.2907264736346329,0.9831042281041615,0.28491173879829906,0.7304786910968466
0.07050000000000001,1.710086441399852,1.0,3048.946495382174,0.5476362938148904,1.2903158948387803,0.9832398175566504,0.28487663053879375,0.7312394171044587
0.07100000000000001,1.7092505304592502,1.0,3052.7738440082608,0.5501736972315832,1.2899054807343668,0.9833727851496527,0.2848415222792885,0.7319987635209684
