Time [s],Phi [rad],STIM [ ],Fsee [N],Gamma [ ],Lcerel [ ],q [ ],Lmtc [m],fisomrel [ ]
0.0,1.8,1.0,20.45129386316106,0.0016113371001271405,1.3790704470060897,0.0056638871310181246,0.288653,0.5417908042302402
0.0005,1.79999375,1.0,21.19914108573681,0.0072115080819420314,1.3789897987328488,0.017975902125890127,0.2886527375,0.5419857540064885
0.001,1.799975,1.0,25.746414740515448,0.012780266532492014,1.378535092153778,0.0444313378741004,0.28865195,0.5430841326789886
0.0015,1.79994375,1.0,38.03378944235707,0.018317788651559818,1.377482824724939,0.08236081286265454,0.2886506375,0.5456209089211764
0.002,1.7999,1.0,65.98200431827772,0.023824249649730084,1.3756055332248478,0.12844121324963106,0.2886488,0.5501290925091766
0.0025,1.79984375,1.0,115.79214435479146,0.02929982375611188,1.3730748850677683,0.1793757307051041,0.28864643749999996,0.556170695572932
0.003,1.7997750000000001,1.0,183.93171281967773,0.03474468422054097,1.3703830941350843,0.23246483304273674,0.28864354999999997,0.5625521797797235
0.0035,1.79969375,1.0,262.9361329826822,0.040159003322839074,1.3678265123066882,0.28565533032074686,0.2886401375,0.5685703343249292
0.004,1.7996,1.0,347.92705997875464,0.04554295237381994,1.3654691173304387,0.3374382674416651,0.2886362,0.5740826667018815
0.0045000000000000005,1.7994937500000001,1.0,436.3985539958358,0.05089670173359433,1.3632961694088312,0.38679049951361405,0.2886317375,0.579132312796141
0.005,1.799375,1.0,526.8897373639038,0.056220420792210096,1.3612822917387841,0.43309734620960405,0.28862675,0.5837854135075641
0.0055,1.79924375,1.0,618.3607865333086,0.06151427799853175,1.3594063187646652,0.4760575971870636,0.2886212375,0.5880966136225505
0.006,1.7991000000000001,1.0,709.9800105533704,0.06677844081911072,1.3576521532270207,0.5155931743754137,0.2886152,0.5921075806507516
0.006500000000000001,1.79894375,1.0,801.0758972642403,0.07201307591810312,1.3560070314897996,0.5517742858034166,0.2886086375,0.5958513824292756
0.007,1.798775,1.0,891.0656583086377,0.07721834871989473,1.3544611145946215,0.5847632172780268,0.28860155,0.5993536933684267
0.0075,1.79859375,1.0,979.5092187324404,0.08239442423684065,1.3530055261998502,0.6147728898428327,0.2885939375,0.6026374313532108
0.008,1.7984,1.0,1066.0206339933225,0.08754146599053363,1.3516331240694772,0.6420397634015053,0.2885858,0.6057211290087361
0.0085,1.79819375,1.0,1150.3007962084835,0.09265963672888272,1.350337465547875,0.666805099761585,0.2885771375,0.6086213655404703
0.009000000000000001,1.797975,1.0,1232.144941573686,0.09774909888011246,1.3491124050629935,0.6893034740019716,0.28856795,0.6113537265023354
0.0095,1.79774375,1.0,1311.3755796399903,0.10281001311472765,1.3479527797383148,0.7097566185427782,0.2885582375,0.6139313235726396
0.01,1.7975,1.0,1387.8694472308207,0.10784253943601976,1.3468538012003566,0.7283696893896754,0.288548,0.6163662008701005
0.0105,1.79724375,1.0,1461.5637126598378,0.11284683721148542,1.345810833268489,0.7453298425674206,0.2885372375,0.6186698583997234
0.011,1.796975,1.0,1532.4252761845567,0.1178230652815195,1.3448196642633088,0.7608063552877892,0.28852595000000003,0.6208526758205963
0.0115,1.79669375,1.0,1600.4207842442947,0.12277138036463338,1.3438767449114508,0.7749514558262728,0.2885141375,0.6229234193530133
0.012,1.7964,1.0,1665.56023445699,0.12769193901175901,1.3429785553485183,0.7879011776255878,0.28850180000000003,0.6248906587086842
0.0125,1.79609375,1.0,1727.8832326255033,0.13258489716388308,1.3421217125897704,0.7997767802335239,0.2884889375,0.6267625439242428
0.013000000000000001,1.7957750000000001,1.0,1787.445112035261,0.13745041061801977,1.3413030723221435,0.8106862112850951,0.28847555,0.6285465970136024
0.0135,1.79544375,1.0,1844.2792515070848,0.14228863215008097,1.3405200894585705,0.8207256187299409,0.2884616375,0.6302489434793596
0.014,1.7951000000000001,1.0,1898.4451534676928,0.14709971453597878,1.3397702189119842,0.8299804115970066,0.2884472,0.6318756324633366
0.0145,1.79474375,1.0,1950.0220839722938,0.15188381023020647,1.339050959698771,0.8385264936672681,0.2884322375,0.6334325469621888
0.015,1.794375,1.0,1999.0946464591443,0.1566410710346316,1.3383599829711208,0.8464314072472662,0.28841675,0.634925133685532
0.0155,1.79399375,1.0,2045.751745220264,0.1613716485160096,1.3376951126418233,0.8537553052982252,0.2884007375,0.6363584531180686
0.016,1.7936,1.0,2090.0567555300727,0.16607569102723288,1.3370546095175082,0.8605519067340227,0.2883842,0.6377365759024237
0.0165,1.7931937500000001,1.0,2132.086418556572,0.17075334692119384,1.336436734404806,0.8668691230573378,0.2883671375,0.6390635323438456
0.017,1.792775,1.0,2171.9297176002974,0.17540476455078496,1.3358397481103466,0.8727497464625201,0.28834955,0.6403433150165146
0.0175,1.7923437500000001,1.0,2209.670592566078,0.18003009075741233,1.3352620753902469,0.87823209833194,0.2883314375,0.6415795306282667
0.018000000000000002,1.7919,1.0,2245.4095169508455,0.18462947406485825,1.3347020722429173,0.8833504922014455,0.2883128,0.6427759019014573
0.0185,1.79144375,1.0,2279.218167822522,0.18920305894662062,1.3341584709714462,0.8881358114243507,0.2882936375,0.6439353197641107
0.019,1.790975,1.0,2311.1682289057067,0.1937509891042458,1.3336300744964233,0.8926158267762269,0.28827395,0.6450605018861959
0.0195,1.79049375,1.0,2341.3377515544985,0.1982734082392799,1.3331156857384385,0.8968155352575243,0.2882537375,0.6461541451371489
0.02,1.79,1.0,2369.81061725889,0.20277046005326918,1.3326141076180815,0.9007574740948256,0.288233,0.6472189267009798
0.0205,1.78949375,1.0,2396.657288345322,0.20724228589605606,1.3321243248735868,0.9044620353324185,0.2882117375,0.6482571199848985
0.021,1.788975,1.0,2421.9698831061582,0.2116890305128669,1.3316451562667837,0.9079476294785043,0.28818995000000003,0.6492713339438159
0.021500000000000002,1.78844375,1.0,2445.807738818463,0.2161108329836293,1.3311757776990156,0.9112310078042624,0.2881676375,0.6502634064587123
0.022,1.7879,1.0,2468.231464463852,0.2205078320849882,1.330715384646788,0.9143273725953474,0.2881448,0.6512351223148183
0.0225,1.78734375,1.0,2489.304679243593,0.2248801665935886,1.3302631725866074,0.9172505383027392,0.28812143749999997,0.6521882552073621
0.023,1.786775,1.0,2509.093758779256,0.22922797528607539,1.3298183369949792,0.9200130774576748,0.28809755,0.6531245681819717
0.0235,1.78619375,1.0,2527.660141941898,0.2335513951731946,1.3293801437529882,0.922626461655319,0.28807313749999996,0.6540456661392247
0.024,1.7856,1.0,2545.069714708354,0.23785056534725296,1.3289478374887183,0.9251011593446616,0.2880482,0.6549531894499229
0.0245,1.78499375,1.0,2561.37956000335,0.24212562244180502,1.3285207644242991,0.9274467563756105,0.2880227375,0.6558485565754917
0.025,1.784375,1.0,2576.636630020124,0.2463766999865779,1.3280983815407408,0.9296720446085619,0.28799675,0.6567329465253395
0.025500000000000002,1.78374375,1.0,2590.889301405068,0.2506039315112988,1.3276801458190526,0.9317850824462904,0.2879702375,0.6576075320025652
0.026000000000000002,1.7831000000000001,1.0,2604.1872540932345,0.2548074505456949,1.3272655142402447,0.9337932659688656,0.2879432,0.6584734795569775
0.0265,1.78244375,1.0,2616.5813566820825,0.2589873906194934,1.3268539437853264,0.9357033923016321,0.2879156375,0.6593319497193199
0.027,1.781775,1.0,2628.116122849861,0.26314388318124937,1.326444960312364,0.9375217258539266,0.28788755,0.6601839537202139
0.0275,1.7810937500000001,1.0,2638.8373778233754,0.26727706146913066,1.3260380860445966,0.939254038393827,0.2878589375,0.6610305052563017
0.028,1.7804,1.0,2648.796107158672,0.27138705921564293,1.3256328033161795,0.9409056484053007,0.2878298,0.6618726958049947
0.0285,1.77969375,1.0,2658.0254607451498,0.27547400419559004,1.325228766002144,0.9424814900526355,0.2878001375,0.6627112556273045
0.029,1.778975,1.0,2666.5591763077737,0.2795380241837759,1.3248256279775212,0.9439861253301484,0.28776995,0.6635469113807684
0.029500000000000002,1.7782437500000001,1.0,2674.431527856178,0.28357924695500436,1.3244230431173418,0.9454237769274274,0.2877392375,0.664380386143123
0.03,1.7775,1.0,2681.677276789499,0.28759780028407933,1.3240206652966373,0.9467983578003796,0.287708,0.6652123994283308
0.0305,1.77674375,1.0,2688.3316256584044,0.2915938119458048,1.3236181483904383,0.9481134978141089,0.2876762375,0.6660436671949752
0.031,1.775975,1.0,2694.4298467327803,0.2955674094737247,1.3232151492731372,0.9493725680819132,0.28764395,0.6668748956643611
0.0315,1.7751937500000001,1.0,2700.0004969600814,0.29951871598650587,1.322811389438382,0.9505787089920695,0.2876111375,0.6677066544925425
0.032,1.7744,1.0,2705.0794428245445,0.3034478627631369,1.3224065262939326,0.9517348373822786,0.2875778,0.6685396422292084
0.0325,1.77359375,1.0,2709.689128958582,0.3073549717443241,1.3220003422951487,0.952843682151307,0.2875439375,0.6693742970720888
0.033,1.772775,1.0,2713.852209819145,0.31124016487077377,1.3215926198973893,0.9539077873849422,0.28750955,0.6702110549347363
0.0335,1.7719437500000002,1.0,2717.5915293551584,0.3151035640831923,1.3211831415560138,0.9549295270884557,0.2874746375,0.6710503494266888
0.034,1.7711000000000001,1.0,2720.930101723651,0.31894529132228605,1.320771689726382,0.9559111185779615,0.2874392,0.6718926118306179
0.0345,1.7702437500000001,1.0,2723.8910930561537,0.3227654685287613,1.3203580468638527,0.9568546346669028,0.2874032375,0.672738271076459
0.035,1.7693750000000001,1.0,2726.4978042731595,0.3265642176433245,1.3199419954237859,0.9577620147687432,0.28736675,0.6735877537125197
0.035500000000000004,1.76849375,1.0,2728.7611696568542,0.3303416497190576,1.3195234313633613,0.9586350843344593,0.2873297375,0.6744412525822174
0.036000000000000004,1.7676,1.0,2730.7150921932675,0.3340978986764266,1.3191020426880027,0.9594755380825543,0.2872922,0.6752993825010973
0.0365,1.76669375,1.0,2732.379116085684,0.3378330849464914,1.31867764881466,0.9602849758246689,0.2872541375,0.6761624877103323
0.037,1.765775,1.0,2733.7669060102176,0.34154732347346206,1.3182501232220303,0.9610649034655538,0.28721555,0.6770308006031969
0.0375,1.76484375,1.0,2734.8921842536033,0.3452407292015486,1.3178193393888107,0.9618167356912105,0.2871764375,0.6779045520103953
0.038,1.7639,1.0,2735.7687238397625,0.348913417074961,1.3173851707936979,0.9625418024994485,0.28713679999999997,0.6787839711742834
0.0385,1.76294375,1.0,2736.4103420118095,0.3525655020379093,1.316947490915389,0.9632413551940938,0.28709663750000003,0.6796692857220643
0.039,1.761975,1.0,2736.8308940684424,0.35619709903460356,1.3165061732325811,0.9639165718922438,0.28705595,0.6805607216379699
0.0395,1.7609937500000001,1.0,2737.0442675557792,0.3598083230092538,1.3160610912239707,0.964568562588955,0.2870147375,0.681458503234416
0.04,1.76,1.0,2737.0643768135774,0.36339928890607,1.3156121183682554,0.9651983738192761,0.286973,0.6823628531221375
0.0405,1.7589937500000001,1.0,2736.9051578769563,0.3669701116692622,1.3151591281441317,0.9658069929535805,0.2869307375,0.6832739921793074
0.041,1.757975,1.0,2736.5805637322856,0.3705209062430404,1.3147019940302969,0.9663953521585908,0.28688795,0.6841921395196269
0.0415,1.75694375,1.0,2736.096138236868,0.3740517765509292,1.3142406659630572,0.9669643366667929,0.2868446375,0.6851173592318058
0.042,1.7559,1.0,2735.4665989239566,0.37756284666042145,1.313775010696826,0.967514779712445,0.28680079999999997,0.6860498809381592
0.0425,1.75484375,1.0,2734.7021203990416,0.3810542288584379,1.3133049362912168,0.968047470865747,0.2867564375,0.6869898497945044
0.043000000000000003,1.753775,1.0,2733.8100394652565,0.3845260305927053,1.3128303766241505,0.9685631587484452,0.28671155,0.6879373579757404
0.043500000000000004,1.75269375,1.0,2732.7976974736844,0.3879783593109504,1.3123512655735483,0.9690625523387065,0.28666613750000003,0.6888924964751362
0.044,1.7516,1.0,2731.6724386705932,0.3914113224609,1.3118675370173314,0.9695463234614362,0.2866202,0.6898553550852788
0.0445,1.75049375,1.0,2730.4416086431193,0.3948250274902809,1.311379124833421,0.9700151090983656,0.2865737375,0.6908260223787399
0.045,1.7493750000000001,1.0,2729.1125528606744,0.3982195818468199,1.3108859628997382,0.9704695135326027,0.28652675,0.6918045856884649
0.0455,1.74824375,1.0,2727.69261531401,0.4015950929782437,1.3103879850942042,0.9709101103410034,0.2864792375,0.6927911310878829
0.046,1.7471,1.0,2726.189137250822,0.4049516683322792,1.30988512529474,0.9713374442465352,0.2864312,0.6937857433707373
0.0465,1.7459437500000001,1.0,2724.6094560087604,0.4082894153566531,1.3093773173792669,0.9717520328417246,0.28638263750000004,0.6947885060306389
0.047,1.744775,1.0,2722.9609039444763,0.4116084414990922,1.3088644952257062,0.9721543681933007,0.28633355,0.6957995012403371
0.0475,1.74359375,1.0,2721.2458195468994,0.4149088332457892,1.3083466381189222,0.9725449188836995,0.28628393750000003,0.6968187205381329
0.048,1.7424,1.0,2719.472516707005,0.41819071948500075,1.307823670926512,0.9729241324127814,0.2862338,0.6978462615348419
0.0485,1.74119375,1.0,2717.6460455939714,0.4214542083284785,1.3072955481677782,0.9732924342520306,0.2861831375,0.698882162232987
0.049,1.739975,1.0,2715.7697907163056,0.4246993991301504,1.306762239494794,0.9736502296602083,0.28613195,0.6999264299111565
0.0495,1.73874375,1.0,2713.8471334484425,0.42792639124394444,1.3062237145596338,0.9739979048740015,0.2860802375,0.7009790709225125
0.05,1.7375,1.0,2711.881451731813,0.43113528402378853,1.3056799430143717,0.9743358281696259,0.286028,0.7020400906847273
0.0505,1.73624375,1.0,2709.8761197965314,0.43432617682361063,1.3051308945110816,0.9746643508559696,0.2859752375,0.7031094936698572
0.051000000000000004,1.734975,1.0,2707.8345079031765,0.4374991689973387,1.3045765387018375,0.9749838082042577,0.28592195,0.7041872833941584
0.051500000000000004,1.73369375,1.0,2705.7599821057074,0.4406543598989007,1.3040168452387133,0.9752945203188271,0.2858681375,0.7052734624078452
0.052000000000000005,1.7324,1.0,2703.6559040338234,0.44379184888222467,1.3034517837737833,0.9755967929532213,0.2858138,0.7063680322847865
0.0525,1.73109375,1.0,2701.5256306966876,0.44691173530123834,1.3028813239591215,0.9758909182754893,0.28575893750000003,0.7074709936121484
0.053,1.729775,1.0,2699.372514306422,0.45001411850986994,1.3023054354468018,0.9761771755862618,0.28570355000000003,0.7085823459799732
0.0535,1.72844375,1.0,2697.1999021222778,0.4530990978620473,1.3017240878888983,0.9764558319928967,0.2856476375,0.7097020879707028
0.054,1.7271,1.0,2695.0111363153924,0.4561667727116983,1.301137250937485,0.9767271430427374,0.2855912,0.7108302171486423
0.0545,1.7257437500000001,1.0,2692.809553853476,0.45921724241275097,1.3005448942446358,0.9769913533182855,0.2855342375,0.7119667300493644
0.055,1.724375,1.0,2690.5939641423583,0.46225058054215074,1.2999470288642059,0.9772486969957331,0.28547675,0.7131115429704569
0.0555,1.72299375,1.0,2688.3672875794164,0.4652668984483493,1.2993436282171806,0.9774993997760696,0.2854187375,0.7142646436408621
0.056,1.7216,1.0,2686.1349469887073,0.46826631570475,1.298734642752387,0.977743677307693,0.2853602,0.715426062562512
0.0565,1.72019375,1.0,2683.897886000915,0.4712489224615523,1.2981200638952552,0.9779817359341983,0.28530113749999997,0.7165957509664826
0.057,1.718775,1.0,2681.657046707829,0.4742148088689553,1.2974998830712166,0.9782137735327252,0.28524155,0.7177736593514429
0.0575,1.71734375,1.0,2679.4133696528284,0.4771640650771583,1.2968740917057018,0.9784399799275078,0.2851814375,0.7189597374805949
0.058,1.7159,1.0,2677.1677938239086,0.4800967812363607,1.2962426812241417,0.9786605372800187,0.2851208,0.7201539343786084
0.0585,1.71444375,1.0,2674.9212566479173,0.4830130474967617,1.2956056430519667,0.9788756204572018,0.2850596375,0.7213561983285499
0.059000000000000004,1.7129750000000001,1.0,2672.674693986057,0.4859129540085606,1.294962968614608,0.9790853973791914,0.28499795,0.7225664768688067
0.059500000000000004,1.71149375,1.0,2670.4290401318344,0.48879659092195665,1.2943146493374962,0.9792900293478092,0.2849357375,0.7237847167900084
0.06,1.71,1.0,2668.1852278097,0.49166404838714917,1.293660676646062,0.9794896713570449,0.284873,0.7250108641319418
0.0605,1.7084937500000001,1.0,2665.9441881763482,0.4945154165543375,1.2930010419657367,0.9796844723866405,0.2848097375,0.7262448641804611
0.061,1.7069750000000001,1.0,2663.7068508226535,0.49735078557372087,1.2923357367219506,0.9798745756798156,0.28474595,0.7274866614643954
0.0615,1.7054437500000001,1.0,2661.474143777647,0.5001702455954985,1.2916647523401346,0.9800601190061129,0.2846816375,0.7287361997524489
0.062,1.7039,1.0,2659.246993514878,0.5029738867698699,1.2909880802457194,0.9802412349102568,0.2846168,0.7299934220500981
0.0625,1.70234375,1.0,2657.0263249586797,0.505761799247034,1.290305711864136,0.9804180509478809,0.2845514375,0.7312582705964839
0.063,1.7007750000000001,1.0,2654.8130614936927,0.5085340731771903,1.2896176386208151,0.9805906899088984,0.28448555,0.7325306868612976
0.0635,1.69919375,1.0,2652.6081249754634,0.5112907987105382,1.2889238519411874,0.9807592700292586,0.28441913750000003,0.7338106115416672
0.064,1.6976,1.0,2650.4124357421547,0.5140320659972768,1.288224343250684,0.9809239051917695,0.2843522,0.7350979845590304
0.0645,1.69599375,1.0,2648.2272106246064,0.5167579208776474,1.2875191012248155,0.9810847018090649,0.2842847375,0.7363927500984513
0.065,1.694375,1.0,2646.0523868251294,0.5194684983735339,1.2868081263341615,0.9812417693667328,0.28421675,0.7376948299384172
0.0655,1.69274375,1.0,2643.8880224709233,0.522163889483815,1.2860914179337315,0.9813952102319313,0.2841482375,0.739004147272535
0.066,1.6911,1.0,2641.7342589105165,0.5248441750359765,1.2853689746090438,0.9815451223736726,0.2840792,0.7403206260541548
0.0665,1.6894437500000001,1.0,2639.5912372959574,0.5275094358575042,1.284640794945617,0.9816916002925662,0.2840096375,0.7416441895814008
0.067,1.687775,1.0,2637.459098585396,0.530159752775884,1.2839068775289693,0.9818347351665673,0.28393955,0.7429747604966546
0.0675,1.68609375,1.0,2635.3379835463206,0.5327952066186017,1.2831672209446197,0.9819746149896018,0.2838689375,0.7443122607860362
0.068,1.6844000000000001,1.0,2633.228032758288,0.5354158782131431,1.282421823778086,0.9821113247034607,0.2837978,0.7456566117788894
0.0685,1.68269375,1.0,2631.1293866158016,0.5380218483869941,1.2816706846148873,0.9822449463233374,0.2837261375,0.7470077341472598
0.069,1.680975,1.0,2629.04218533174,0.5406131979676405,1.2809138020405417,0.9823755590573516,0.28365395,0.7483655479053806
0.0695,1.67924375,1.0,2626.9665689397416,0.5431900077825681,1.280151174640568,0.9825032394203936,0.28358123749999997,0.7497299724091516
0.07,1.6775,1.0,2624.902677298019,0.5457523586592627,1.2793828010004842,0.9826280613425875,0.283508,0.7511009263556245
0.07050000000000001,1.67574375,1.0,2622.8506500921167,0.5483003314252104,1.2786086797058092,0.9827500962726674,0.2834342375,0.7524783277824805
0.07100000000000001,1.673975,1.0,2620.8106268379747,0.5508340069078966,1.2778288093420611,0.982869413276536,0.28335995,0.7538620940675149
0.07150000000000001,1.67219375,1.0,2618.7827468855553,0.5533534659348075,1.2770431884947586,0.98298607913126,0.2832851375,0.7552521419281175
0.07200000000000001,1.6704,1.0,2616.7671494218607,0.5558587893334287,1.2762518157494203,0.9831001584147426,0.2832098,0.7566483874207537
0.0725,1.66859375,1.0,2614.7639734743275,0.558350057931246,1.2754546896915644,0.9832117135912994,0.2831339375,0.7580507459404464
0.073,1.6667750000000001,1.0,2612.7733579143214,0.5608273525557456,1.2746518089067094,0.9833208050933498,0.28305755,0.7594591322202564
0.0735,1.66494375,1.0,2610.7954414601686,0.5632907540344129,1.273843171980374,0.9834274913994225,0.2829806375,0.7608734603307631
0.074,1.6631,1.0,2608.8303626810603,0.565740343194734,1.2730287774980764,0.9835318291086687,0.2829032,0.7622936436795469
0.0745,1.6612437500000001,1.0,2606.8809177338458,0.5681761375885998,1.272208599325912,0.9836338683544061,0.2828252375,0.7637196379241872
0.075,1.659375,1.0,2604.9435405882796,0.5705982894565184,1.2713826704882123,0.9837336678093901,0.28274675,0.7651512951488725
