Time [s],Phi [rad],STIM [ ],Fsee [N],Gamma [ ],Lcerel [ ],q [ ],Lmtc [m],fisomrel [ ]
0.0,1.8,1.0,17.967450819016985,1.000383020293288e-05,1.3793397134331065,0.005000026672110052,0.288653,0.5411396103714563
0.0005,1.79999375,1.0,18.27675696583878,0.005619157025421195,1.3793023863654774,0.012940524557974602,0.2886527375,0.5412299097495348
0.001,1.799975,1.0,21.61836304943749,0.01119684730613675,1.3789383040040555,0.03560859635080619,0.28865195,0.5421102096891902
0.0015,1.79994375,1.0,31.06913011579926,0.016743251155283696,1.3780462127503172,0.07060173210320253,0.2886506375,0.5442635874526207
0.002,1.7999,1.0,53.58203036227422,0.022258544064146304,1.3763681548782787,0.11471786852162309,0.2886488,0.5483004208977043
0.0025,1.79984375,1.0,97.11821904306858,0.027742900539919877,1.373935201887409,0.16457470875705374,0.28864643749999996,0.5541213800683124
0.003,1.7997750000000001,1.0,160.95731256613115,0.033196494113430584,1.371214375731882,0.21728026349237764,0.28864354999999997,0.5605863751594042
0.0035,1.79969375,1.0,237.68240709748264,0.03861949733872494,1.3685847627085483,0.27061269843818586,0.2886401375,0.5667897726373825
0.004,1.7996,1.0,321.4658320249458,0.04401208180385253,1.366156117275023,0.3229156172995124,0.2886362,0.5724799036418357
0.0045000000000000005,1.7994937500000001,1.0,409.2668305746334,0.049374418136050396,1.3639228357675355,0.3730343325967107,0.2886317375,0.5776791122669497
0.005,1.799375,1.0,499.4125971653296,0.054706675992831855,1.3618583616205484,0.4202472974591462,0.28862675,0.5824570348383049
0.0055,1.79924375,1.0,590.7895341044209,0.060009024109464064,1.359938852290336,0.464173547664686,0.2886212375,0.5868750721043232
0.006,1.7991000000000001,1.0,682.5172477207241,0.06528163024209557,1.3581464303909536,0.5046798245200474,0.2886152,0.5909793826473783
0.006500000000000001,1.79894375,1.0,773.8805041558799,0.07052466122338413,1.356467266483521,0.5418006346590426,0.2886086375,0.5948057650694085
0.007,1.798775,1.0,864.2850237275003,0.07573828294609082,1.3548904077166353,0.5756766682763638,0.28860155,0.5983826483122461
0.0075,1.79859375,1.0,953.2425349785375,0.08092266037281391,1.3534067896568958,0.6065098138941505,0.2885939375,0.6017335491849702
0.008,1.7984,1.0,1040.344197306625,0.08607795714036898,1.352008856255113,0.6345320852893499,0.2885858,0.6048780775445385
0.0085,1.79819375,1.0,1125.3143420455467,0.09120433734565624,1.3506892398771475,0.659984348542706,0.2885771375,0.6078350032984328
0.009000000000000001,1.797975,1.0,1207.8997811898846,0.09630196291663716,1.3494420405077872,0.6831041207131543,0.28856795,0.6106194525693688
0.0095,1.79774375,1.0,1287.8914661606277,0.10137099438992367,1.3482621335897769,0.7041174154293738,0.2885582375,0.6132445354193126
0.01,1.7975,1.0,1365.1663267248337,0.10641159230212774,1.3471443945658614,0.7232341711288206,0.288548,0.6157231164588697
0.0105,1.79724375,1.0,1439.6592715495647,0.11142391659182153,1.3460839492365737,0.7406466059729535,0.2885372375,0.6180672834209715
0.011,1.796975,1.0,1511.3222014737191,0.11640812601799795,1.3450765537983251,0.756529077938647,0.28852595000000003,0.6202875383248458
0.0115,1.79669375,1.0,1580.1206375812587,0.12136437775936683,1.3441184875372214,0.7710385660600225,0.2885141375,0.6223930693083393
0.012,1.7964,1.0,1646.0561335753484,0.12629282843610903,1.3432061752250049,0.7843155523679608,0.28850180000000003,0.6243926061461201
0.0125,1.79609375,1.0,1709.173330434189,0.1311936349746409,1.342336042194036,0.796485291637114,0.2884889375,0.626294751960852
0.013000000000000001,1.7957750000000001,1.0,1769.5064563011715,0.13606695220431597,1.3415050738601113,0.8076594591502276,0.28847555,0.6281067746422192
0.0135,1.79544375,1.0,1827.091698518899,0.14091293355498677,1.3407105931880094,0.8179374347221764,0.2884616375,0.629835113805723
0.014,1.7951000000000001,1.0,1881.9928785125735,0.14573173245650595,1.339949923142508,0.8274075013425949,0.2884472,0.6314861280465653
0.0145,1.79474375,1.0,1934.278639444223,0.15052350136213632,1.3392206068624517,0.8361481713818694,0.2884322375,0.6330656246169324
0.015,1.794375,1.0,1984.049500676474,0.15528839327635618,1.3385200812042297,0.8442291978944773,0.28841675,0.6345795746858474
0.0155,1.79399375,1.0,2031.3701034493604,0.1600265580062616,1.3378463763255946,0.8517128280599865,0.2884007375,0.6360326084300534
0.016,1.7936,1.0,2076.3112874090953,0.1647381448466429,1.3371976252075854,0.8586545243479283,0.2883842,0.6374290865891733
0.0165,1.7931937500000001,1.0,2118.958178536516,0.16942330309229045,1.3365719608312416,0.8651037359990694,0.2883671375,0.638773326473894
0.017,1.792775,1.0,2159.392920064526,0.17408218091950495,1.335967680106195,0.8711046586392076,0.28834955,0.6400692535843795
0.0175,1.7923437500000001,1.0,2197.720018540525,0.17871492728403676,1.3353829682831992,0.8766967766586684,0.2883314375,0.6413209967651485
0.018000000000000002,1.7919,1.0,2234.0125997272453,0.18332168778032018,1.3348164335541803,0.8819155602067352,0.2883128,0.6425317468815661
0.0185,1.79144375,1.0,2268.3447662842236,0.18790260745171417,1.334266758577668,0.8867928388544954,0.2882936375,0.6437045092792699
0.019,1.790975,1.0,2300.7981395319894,0.19245783134157782,1.333732626012192,0.8913572038513653,0.28827395,0.6448422650988724
0.0195,1.79049375,1.0,2331.4530193951255,0.19698750342134025,1.3332127991826623,0.8956343984339077,0.2882537375,0.6459478012144604
0.02,1.79,1.0,2360.398238233079,0.2014917687244784,1.3327060174220564,0.8996476173925929,0.288233,0.6470239348569972
0.0205,1.78949375,1.0,2387.7059077105846,0.20597076944824122,1.3322112370289507,0.9034178452706068,0.2882117375,0.6480730038000457
0.021,1.788975,1.0,2413.440983601169,0.21042464615147544,1.3317275281226524,0.9069640775497774,0.28818995000000003,0.6490970889210296
0.021500000000000002,1.78844375,1.0,2437.6724082724704,0.21485353939302781,1.3312539608224683,0.9103035145214613,0.2881676375,0.650098257141029
0.022,1.7879,1.0,2460.4727756269904,0.21925758973174503,1.3307896052477048,0.91345175569939,0.2881448,0.651078562053787
0.0225,1.78734375,1.0,2481.9063657248844,0.2236369354725669,1.3303336425631949,0.9164229917690936,0.28812143749999997,0.6520398105578171
0.023,1.786775,1.0,2502.051766310257,0.22799171861570355,1.3298851451582285,0.9192301133862157,0.28809755,0.6529840274360157
0.0235,1.78619375,1.0,2520.9654083386426,0.23232207613359568,1.3294434212353112,0.9218849070343044,0.28807313749999996,0.6539127302448129
0.024,1.7856,1.0,2538.6990619484495,0.236628143544157,1.3290078433260575,0.9243981375189957,0.2880482,0.6548272928250524
0.0245,1.78499375,1.0,2555.3063874464933,0.24091005636530122,1.328577783962081,0.9267796405008271,0.2880227375,0.6557290812709442
0.025,1.784375,1.0,2570.8427756347187,0.24516795011494202,1.3281526156749957,0.9290384154418406,0.28799675,0.6566194541634522
0.025500000000000002,1.78374375,1.0,2585.3651968662725,0.24940196031099313,1.327731710996416,0.9311827081236823,0.2879702375,0.6574997627785768
0.026000000000000002,1.7831000000000001,1.0,2598.920396307256,0.2536122189690656,1.327314551096252,0.933220100128381,0.2879432,0.6583711244918973
0.0265,1.78244375,1.0,2611.5709584958795,0.25779886427140974,1.3269004810176679,0.9351575375902069,0.2879156375,0.6592349346633207
0.027,1.781775,1.0,2623.358636729343,0.2619620277191774,1.3264890502321975,0.9370014390599122,0.28788755,0.6600921558624924
0.0275,1.7810937500000001,1.0,2634.3211672839875,0.2661018392272032,1.3260798538042409,0.9387577221498925,0.2878589375,0.6609436509662147
0.028,1.7804,1.0,2644.497078549823,0.27021842871032165,1.325672486798198,0.940431843501755,0.2878298,0.6617902785161913
0.0285,1.77969375,1.0,2653.925622106091,0.27431192608336724,1.3252665442784688,0.9420288407445204,0.2878001375,0.6626328927715016
0.029,1.778975,1.0,2662.6467074319753,0.27838246126117455,1.324861621309453,0.9435533701276554,0.28776995,0.6634723437506171
0.029500000000000002,1.7782437500000001,1.0,2670.7008402525084,0.2824301641585781,1.3244573129555508,0.9450097403218843,0.2877392375,0.6643094772629585
0.03,1.7775,1.0,2678.11741900731,0.2864551579319404,1.3240533211449919,0.9464019547413473,0.287708,0.6651449140781275
0.0305,1.77674375,1.0,2684.9467186920892,0.29045757970118613,1.3236491603682774,0.9477337062597705,0.2876762375,0.665979658778409
0.031,1.775975,1.0,2691.2160293559255,0.2944375543629817,1.3232445599278841,0.9490084467473372,0.28764395,0.6668142681027696
0.0315,1.7751937500000001,1.0,2696.950688111246,0.298395205501144,1.3228392699518916,0.9502293861656685,0.2876111375,0.6676492531152094
0.032,1.7744,1.0,2702.1763173160257,0.30233065669949005,1.3224330405683797,0.9513995104875529,0.2875778,0.6684851222889974
0.0325,1.77359375,1.0,2706.918797811946,0.3062440315418367,1.322025621905428,0.9525216000699073,0.2875439375,0.6693223814936935
0.033,1.772775,1.0,2711.204243546164,0.31013545361200096,1.3216167640911167,0.9535982463082782,0.28750955,0.6701615339781855
0.0335,1.7719437500000002,1.0,2715.058977578006,0.3140050464937997,1.321206217253525,0.954631866751973,0.2874746375,0.671003080349749
0.034,1.7711000000000001,1.0,2718.5095094692065,0.3178529337710499,1.3207937315207332,0.9556247188384803,0.2874392,0.6718475185491191
0.0345,1.7702437500000001,1.0,2721.5773454268283,0.321679235239001,1.3203791040700492,0.9565789165836077,0.2874032375,0.6726952476890069
0.035,1.7693750000000001,1.0,2724.2848718615855,0.3254840730111976,1.319962125299852,0.9574964373239756,0.28736675,0.6735466784872508
0.035500000000000004,1.76849375,1.0,2726.66147911386,0.3292675747727166,1.3195425230138407,0.958379126988453,0.2873297375,0.6744023468939704
0.036000000000000004,1.7676,1.0,2728.722377390207,0.33302985723970635,1.3191201549871336,0.9592287260960649,0.2872922,0.6752625213041703
0.0365,1.76669375,1.0,2730.4828575417723,0.336771037128315,1.3186948789948487,0.960046866802152,0.2872541375,0.6761274684389629
0.037,1.765775,1.0,2731.958282208805,0.34049123115469093,1.3182665528121038,0.9608350808650065,0.28721555,0.6769974533198353
0.0375,1.76484375,1.0,2733.1640774134257,0.34419055603498233,1.3178350342140173,0.9615948069413113,0.2871764375,0.6778727392416277
0.038,1.7639,1.0,2734.1157246012094,0.34786912848533746,1.3174001809757065,0.96232739727373,0.28713679999999997,0.6787535877442243
0.0385,1.76294375,1.0,2734.8287531311134,0.3515270652219046,1.3169618508722902,0.9630341238274097,0.28709663750000003,0.6796402585829466
0.039,1.761975,1.0,2735.318733213502,0.355164482960832,1.3165199016788858,0.9637161839263179,0.28705595,0.6805330096976674
0.0395,1.7609937500000001,1.0,2735.6012692974714,0.3587814984182679,1.3160741911706113,0.9643747054351505,0.2870147375,0.6814320971806246
0.04,1.76,1.0,2735.684396367991,0.3623782206425263,1.315624646103184,0.9650107562863922,0.286973,0.6823376363910711
0.0405,1.7589937500000001,1.0,2735.5873203597675,0.3659547724188095,1.315171092013423,0.9656253374159612,0.2869307375,0.6832499450225334
0.041,1.757975,1.0,2735.3219300482674,0.36951126707819276,1.3147134210388942,0.9662193977022443,0.28688795,0.684169204776772
0.0415,1.75694375,1.0,2734.8971571960287,0.37304781459543107,1.3142515522957627,0.9667938351139893,0.2868446375,0.6850955417082383
0.042,1.7559,1.0,2734.3219452668104,0.3765645249452795,1.3137854049001945,0.9673494983565291,0.28680079999999997,0.6860290805855263
0.0425,1.75484375,1.0,2733.6052469027522,0.38006150810249295,1.3133148979683547,0.9678871900750515,0.2867564375,0.6869699448695137
0.043000000000000003,1.753775,1.0,2732.756021545817,0.3835388740418266,1.3128399506164088,0.9684076698181417,0.28671155,0.6879182566910806
0.043500000000000004,1.75269375,1.0,2731.7832332054145,0.3869967327380355,1.3123604819605221,0.9689116567817768,0.28666613750000003,0.688874136828413
0.044,1.7516,1.0,2730.6958483697485,0.3904351941658746,1.3118764111168604,0.9693998323520817,0.2866202,0.6898377046838875
0.0445,1.75049375,1.0,2729.502834063637,0.39385436830009896,1.3113876572015888,0.9698728424634628,0.2865737375,0.6908090782605416
0.045,1.7493750000000001,1.0,2728.2106939996324,0.39725436110460427,1.3108941617152632,0.9703313009239202,0.28652675,0.6917883297556243
0.0455,1.74824375,1.0,2726.8205486162465,0.40063527234285845,1.3103959151105453,0.9707757930906532,0.2864792375,0.6927754332993851
0.046,1.7471,1.0,2725.351553705972,0.4039972305391398,1.3098927438195251,0.9712068665554455,0.2864312,0.6937706866326727
0.0465,1.7459437500000001,1.0,2723.8080015507553,0.4073403382216383,1.3093846093688253,0.9716250479089578,0.28638263750000004,0.69477411825797
0.047,1.744775,1.0,2722.1941828543754,0.41066469791854404,1.308871473285068,0.9720308377165059,0.28633355,0.6957857557101772
0.0475,1.74359375,1.0,2720.5143861773245,0.41397041215804725,1.3083532970948755,0.9724247120461349,0.28628393750000003,0.6968056255443861
0.048,1.7424,1.0,2718.772897403725,0.41725758346833797,1.3078300423248705,0.9728071238931576,0.2862338,0.69783375332356
0.0485,1.74119375,1.0,2716.9739992424684,0.42052631437760635,1.3073016705016751,0.9731785045090615,0.2861831375,0.6988701636061221
0.049,1.739975,1.0,2715.121970759377,0.42377670741404244,1.3067681431519118,0.9735392646420369,0.28613195,0.6999148799334444
0.0495,1.73874375,1.0,2713.221086943778,0.42700886510583635,1.3062294218022028,0.9738897956957545,0.2860802375,0.7009679248172467
0.05,1.7375,1.0,2711.2756183071588,0.4302228899811782,1.3056854679791707,0.9742304708124779,0.286028,0.7020293197268985
0.0505,1.73624375,1.0,2709.289830514362,0.4334188845682581,1.305136243209438,0.9745616458860886,0.2859752375,0.7030990850766285
0.051000000000000004,1.734975,1.0,2707.267984048527,0.43659695139526616,1.3045817090196266,0.9748836605101451,0.28592195,0.7041772402126389
0.051500000000000004,1.73369375,1.0,2705.214333907862,0.43975719299039245,1.3040218269363593,0.975196838865685,0.2858681375,0.7052638034001226
0.052000000000000005,1.7324,1.0,2703.1316666692437,0.44289971115176713,1.3034565718460291,0.9755014913288361,0.2858138,0.7063587659548971
0.0525,1.73109375,1.0,2701.0237018827715,0.44602460338589,1.3028859100761556,0.975797913448214,0.28575893750000003,0.7074621348129432
0.053,1.729775,1.0,2698.8937165654447,0.44913196757468515,1.3023098119506975,0.9760863880187055,0.28570355000000003,0.7085739081579525
0.0535,1.72844375,1.0,2696.7422821988557,0.452221901648133,1.3017282724908845,0.9763671869946727,0.2856476375,0.7096940356494469
0.054,1.7271,1.0,2694.570000008731,0.45529450350787243,1.301141286440461,0.9766405705157392,0.2855912,0.7108224668398732
0.0545,1.7257457617756784,1.0,2692.4792599207212,0.4583498704919962,1.300548825512339,0.9769067860889146,0.2855343219945785,0.7119591947804644
0.055,1.724390353629594,1.0,2690.902597271529,0.4613880996976485,1.299951137273979,0.977166087154402,0.28547739485244294,0.7131036838266793
0.0555,1.7230349454835094,1.0,2689.8558517936044,0.464409286669158,1.299348600912579,0.9774187240984609,0.2854204677103074,0.7142551502923518
0.056,1.721679537337425,1.0,2689.2973061520333,0.46741352695085353,1.2987415956153379,0.9776649368445418,0.2853635405681718,0.7154128158456695
0.0565,1.7203241291913405,1.0,2689.1932639479087,0.470400914059371,1.298130428563477,0.9779049510250273,0.2853066134260363,0.7165760445298393
0.057,1.718968721045256,1.0,2689.494338420855,0.47337154593605246,1.29751555174678,0.9781389917402901,0.28524968628390074,0.7177439300663555
0.0575,1.7176133128991715,1.0,2690.1682527364255,0.47632551646535554,1.2968972613083956,0.9783672657320301,0.28519275914176523,0.7189158680726222
0.058,1.716257904753087,1.0,2691.1896843701575,0.47926291776251667,1.29627579033502,0.9785899677233315,0.28513583199962966,0.7200913777466815
0.0585,1.7149024966070026,1.0,2692.53336216022,0.4821838419427722,1.2956513719133484,0.9788072846780816,0.2850789048574941,0.7212699817785553
0.059000000000000004,1.713547088460918,1.0,2694.1740504725394,0.48508838112135855,1.2950242391300772,0.9790193961779562,0.28502197771535853,0.7224512063957876
0.059500000000000004,1.7121916803148336,1.0,2696.0865345712386,0.487976627413512,1.294394625071902,0.9792264747782964,0.284965050573223,0.72363458140553
0.06,1.7108362721687491,1.0,2698.2456071931556,0.490848672934469,1.2937627628255188,0.9794286863442164,0.28490812343108746,0.7248196402331568
0.0605,1.7094808640226646,1.0,2700.632263586499,0.4937046073452529,1.2931288287552023,0.9796261871211177,0.2848511962889519,0.7260060259968217
0.061,1.7081254558765802,1.0,2703.2218150401923,0.4965445241190178,1.2924930511053196,0.9798191304686391,0.2847942691468164,0.7271932878032553
0.0615,1.7067700477304957,1.0,2705.998418614934,0.49936851256385195,1.2918555771543374,0.9800076593543244,0.2847373420046808,0.7283811290940964
0.062,1.7054146395844112,1.0,2708.9488308626983,0.5021766607818609,1.2912165303458842,0.9801919100497689,0.28468041486254525,0.7295692999148746
0.0625,1.7040592314383267,1.0,2712.05979620603,0.5049690568751499,1.2905760341235897,0.9803720137641259,0.2846234877204097,0.7307575522736175
0.063,1.7027038232922422,1.0,2715.318042802306,0.5077457889458249,1.2899342119310828,0.9805480968732678,0.2845665605782742,0.7319456401527487
0.0635,1.7013484151461578,1.0,2718.7102787457115,0.5105069450959909,1.2892911872119925,0.9807202811369671,0.2845096334361386,0.7331333195200125
0.064,1.6999930070000733,1.0,2722.2231886071804,0.5132526134277537,1.2886470834099484,0.9808886839048004,0.2844527062940031,0.7343203483384257
0.0645,1.6986375988539888,1.0,2725.8520171295568,0.5159828745003182,1.2880019458653789,0.9810534138467096,0.28439577915186753,0.7355066300311077
0.065,1.6972821907079043,1.0,2729.5759471594843,0.5186978254944321,1.2873559658588953,0.9812145842064424,0.28433885200973197,0.7366918012924151
0.0655,1.6959267825618198,1.0,2733.3866665686705,0.5213975519873552,1.2867092206142365,0.9813722977787017,0.2842819248675964,0.7378757105063043
0.066,1.6945713744157354,1.0,2737.2783263437586,0.524082137234208,1.2860617648207937,0.9815266524854608,0.2842249977254609,0.7390582484298881
0.0665,1.6932159662696509,1.0,2741.2450638696164,0.5267516644901117,1.285413653167959,0.9816777428380128,0.2841680705833253,0.740239306713393
0.067,1.6918605581235666,1.0,2745.2810021016435,0.5294062170101869,1.2847649403451238,0.9818256600814015,0.2841111434411898,0.741418777902545
0.0675,1.690505149977482,1.0,2749.380248802912,0.5320458780495544,1.2841156810416798,0.9819704923317678,0.28405421629905425,0.7425965554407604
0.068,1.6891497418313977,1.0,2753.536895848836,0.534670730863335,1.283465929947019,0.9821123247070112,0.2839972891569187,0.743772533671147
0.0685,1.687794333685313,1.0,2757.7450185975654,0.5372808587066498,1.2828157417505328,0.9822512394511312,0.2839403620147831,0.7449466078383161
0.069,1.6864389255392287,1.0,2761.9986753268877,0.5398763448346194,1.282165171141613,0.9823873160525994,0.2838834348726476,0.7461186740900005
0.0695,1.685083517393144,1.0,2766.291906737114,0.5424572725023646,1.2815142728096516,0.9825206313570845,0.28382650773051205,0.7472886294784855
0.07,1.6837281092470597,1.0,2770.6212416087656,0.5450237189867408,1.2808630788343203,0.9826512582558332,0.28376958058837654,0.7484564124607984
0.07050000000000001,1.6823727011009753,1.0,2774.983441308173,0.54757576475833,1.280211619103995,0.9827792673491902,0.28371265344624097,0.749621965941064
0.07100000000000001,1.6810172929548908,1.0,2779.3698348383555,0.5501135042741717,1.2795599723507987,0.9829047300204873,0.2836557263041054,0.7507851462347599
0.07150000000000001,1.6796618848088063,1.0,2783.7784416955305,0.5526370148676074,1.2789081568429534,0.9830277115748913,0.28359879916196984,0.7519459185155182
0.07200000000000001,1.6783064766627218,1.0,2788.207275148769,0.5551463738719791,1.278256190848682,0.9831482752229754,0.28354187201983433,0.7531042482601462
0.0725,1.6769510685166373,1.0,2792.6543421747456,0.557641658620628,1.2776040926362062,0.9832664821623485,0.28348494487769876,0.7542601012488158
0.073,1.6755956603705529,1.0,2797.117643401016,0.5601229464468963,1.2769518804737487,0.9833823916555909,0.2834280177355632,0.7554134435652244
