Time [s],Phi [rad],STIM [ ],Fsee [N],Gamma [ ],Lcerel [ ],q [ ],Lmtc [m],fisomrel [ ]
0.0,1.8,1.0,18.081295014217993,0.00034557274452999895,1.3793269793192475,0.005030948280703545,0.288653,0.5411704169659922
0.0005,1.79999375,1.0,18.498332141898963,0.005952843663562938,1.3792778478331922,0.013898347740608087,0.2886527375,0.5412892670376974
0.001,1.799975,1.0,22.08909592816284,0.01152866222610256,1.3788904844604495,0.037378667596289473,0.28865195,0.5422257678103505
0.0015,1.79994375,1.0,32.0830296115779,0.01707320485600665,1.3779605253092426,0.0730106775013832,0.2886506375,0.5444701572320196
0.002,1.7999,1.0,55.673881921506094,0.022586646985262665,1.3762337451607172,0.1175618135517784,0.2886488,0.5486229878901165
0.0025,1.79984375,1.0,100.5569210168941,0.028069163063265685,1.3737709398081561,0.16766296972045616,0.28864643749999996,0.5545130247287238
0.003,1.7997750000000001,1.0,165.38187181280594,0.033520926561927136,1.3710498826040556,0.22046258615390746,0.28864354999999997,0.5609757162612136
0.0035,1.79969375,1.0,242.65427395390097,0.038942109977554505,1.3684324083770614,0.27377530067150957,0.2886401375,0.5671478330914487
0.004,1.7996,1.0,326.73946245457137,0.04433288484078149,1.3660170069472575,0.325976054489338,0.2886362,0.5728046894941686
0.0045000000000000005,1.7994937500000001,1.0,414.7171777403948,0.049693421722073916,1.3637953183450802,0.3759382206915256,0.2886317375,0.577975020249368
0.005,1.799375,1.0,504.965289796674,0.05502389022313415,1.3617406934238667,0.4229632526369695,0.28862675,0.5827285418406252
0.0055,1.79924375,1.0,596.3856577437896,0.06032445901537708,1.3598297752169637,0.4666875338712714,0.2886212375,0.5871254236840223
0.006,1.7991000000000001,1.0,688.1136454437226,0.06559529580755982,1.358044910394479,0.5069898189168451,0.2886152,0.5912112313157192
0.006500000000000001,1.79894375,1.0,779.4378313783609,0.0708365673523651,1.3563725689198705,0.543912553092588,0.2886086375,0.5950210207954469
0.007,1.798775,1.0,869.7738269989933,0.07604843956449867,1.3548018862361515,0.577601153148231,0.28860155,0.5985829767961385
0.0075,1.79859375,1.0,958.6314693951126,0.08123107717297358,1.3533240190629978,0.6082601320123752,0.2885939375,0.6019200814833239
0.008,1.7984,1.0,1045.6372671878557,0.08638464445255306,1.3519310248034608,0.6361222807623003,0.2885858,0.6050527862907712
0.0085,1.79819375,1.0,1130.4711915957228,0.09150930423553505,1.3506163212947222,0.6614289859763987,0.2885771375,0.6079980715617224
0.009000000000000001,1.797975,1.0,1212.8898271710934,0.09660521851694787,1.3493739277239254,0.6844171644090188,0.28856795,0.6107712328659355
0.0095,1.79774375,1.0,1292.7317596904966,0.10167254905977303,1.348198143611106,0.7053116413550736,0.2885582375,0.6133866479138383
0.01,1.7975,1.0,1369.8613730013178,0.10671145589988805,1.3470841023079119,0.7243214776573833,0.288548,0.6158565877713998
0.0105,1.79724375,1.0,1444.1903963851191,0.11172209820889009,1.3460272832794462,0.7416379879887114,0.2885372375,0.6181923444714474
0.011,1.796975,1.0,1515.6760442358557,0.11670463453089103,1.3450234079744268,0.7574344295163888,0.28852595000000003,0.620404489635562
0.0115,1.79669375,1.0,1584.3167068312014,0.12165922347801211,1.34406839225037,0.771866591677534,0.2885141375,0.6225030020862421
0.012,1.7964,1.0,1650.0995717123258,0.12658602097485408,1.3431588765035787,0.7850741168730749,0.28850180000000003,0.6244961271581685
0.0125,1.79609375,1.0,1713.04570689914,0.13148518262794093,1.342291586630908,0.7971815223766657,0.2884889375,0.6263918039594887
0.013000000000000001,1.7957750000000001,1.0,1773.2020780721098,0.13635686349906231,1.341463375186566,0.8082996392716423,0.28847555,0.6281975873922143
0.0135,1.79544375,1.0,1830.6365693994433,0.14120121878613617,1.340671229377866,0.8185270197081251,0.2884616375,0.6299206424559102
0.014,1.7951000000000001,1.0,1885.4038341718879,0.14601840142999406,1.3399126017519303,0.8279513853062991,0.2884472,0.631567038170388
0.0145,1.79474375,1.0,1937.5594234547111,0.15080856305206947,1.3391851972264754,0.8366507600916618,0.2884322375,0.6331422257093016
0.015,1.794375,1.0,1987.1798473098968,0.15557185527379594,1.3384867207192184,0.8446944991285323,0.28841675,0.6346515940585136
0.0155,1.79399375,1.0,2034.3457020842236,0.16030842875950932,1.3378150356577483,0.8521443551224056,0.2884007375,0.6361001329194971
0.016,1.7936,1.0,2079.1575483630777,0.16501843488774284,1.3371679723124617,0.85905531487315,0.2883842,0.637492852189742
0.0165,1.7931937500000001,1.0,2121.6888845882477,0.1697020219159583,1.33654379897438,0.8654765402324882,0.2883671375,0.638833773507309
0.017,1.792775,1.0,2162.01320856949,0.1743593372153011,1.3359409106859432,0.871451961810542,0.28834955,0.6401266088249334
0.0175,1.7923437500000001,1.0,2200.2149289289105,0.17899052815691682,1.3353577024895915,0.8770208602267859,0.2883314375,0.6413750362911436
0.018000000000000002,1.7919,1.0,2236.3807771829233,0.1835957412628873,1.3347926463301358,0.8822184327352821,0.2883128,0.6425825381481651
0.0185,1.79144375,1.0,2270.6038603819643,0.18817512360731767,1.3342442390604037,0.8870762566119743,0.2882936375,0.6437525148435322
0.019,1.790975,1.0,2302.963639784918,0.19272882013146442,1.3337111919638853,0.8916227530028322,0.28827395,0.6448878837947796
0.0195,1.79049375,1.0,2333.5287666742415,0.19725697370711967,1.3331923887651929,0.8958835358176199,0.2882537375,0.6459911736892365
0.02,1.79,1.0,2362.373609129602,0.20175972720607574,1.3326867131889386,0.899881689349826,0.288233,0.6470648943480259
0.0205,1.78949375,1.0,2389.577773596718,0.2062372235001248,1.332193048959735,0.9036380521694746,0.2882117375,0.6481115377003673
0.021,1.788975,1.0,2415.2078524896983,0.21068960347044555,1.3317104518179497,0.9071715026461742,0.28818995000000003,0.6491332147791189
0.021500000000000002,1.78844375,1.0,2439.362364263893,0.21511701100867692,1.3312377090829985,0.9104990815667074,0.2881676375,0.65013258954543
0.022,1.7879,1.0,2462.102028088001,0.21951958529762278,1.330774009916399,0.9136363268508902,0.2881448,0.6511114616193432
0.0225,1.78734375,1.0,2483.479365539086,0.22389746428028345,1.3303186507363762,0.9165973737413551,0.28812143749999997,0.6520713934174104
0.023,1.786775,1.0,2503.549517693628,0.2282507858996594,1.329870927961156,0.9193950817544667,0.28809755,0.6530139377743809
0.0235,1.7861941508826036,1.0,2522.3891794833607,0.23257968809875088,1.329430138008964,0.9220411674589182,0.28807315433706937,0.6539406383016422
0.024,1.7856098166471386,1.0,2540.4707535906937,0.23688430843222893,1.3289955813534546,0.9245463223660447,0.28804861229917983,0.6548530212050461
0.0245,1.7850254824116736,1.0,2557.9898678329864,0.24116478281457,1.3285669118389645,0.9269203783312396,0.2880240702612903,0.6557518636626471
0.025,1.7844411481762086,1.0,2574.953017290247,0.2454212492775564,1.3281440082979872,0.9291723707843966,0.28799952822340075,0.656637467532304
0.025500000000000002,1.7838568139407434,1.0,2591.3759704960826,0.24965384071535573,1.3277266667396095,0.931310560123427,0.2879749861855112,0.6575103058282683
0.026000000000000002,1.7832724797052784,1.0,2607.2749844808677,0.2538626900221355,1.327314683172918,0.9333425241900346,0.2879504441476217,0.6583708487863915
0.0265,1.7826881454698134,1.0,2622.6667800768437,0.25804793009206334,1.3269078536069998,0.9352752238633489,0.2879259021097321,0.6592195639351544
0.027,1.7821038112343484,1.0,2637.5685181474296,0.26220969381930676,1.3265059740509415,0.9371150615547676,0.28790136007184264,0.6600569161640495
0.0275,1.7815194769988831,1.0,2651.986661847291,0.2663480995393978,1.3261089430097095,0.938867942702902,0.2878768180339531,0.6608831546208229
0.028,1.7809351427634181,1.0,2665.9471430058884,0.27046328926537144,1.325716482488805,0.9405392964099374,0.28785227599606356,0.6616988936068877
0.0285,1.7803508085279531,1.0,2679.4792072901964,0.274555410055178,1.3253282883282398,0.9421341328534755,0.287827733958174,0.6625047985121737
0.029,1.7797664742924881,1.0,2692.594878602842,0.2786245865845501,1.3249442182072975,0.9436570968029039,0.2878031919202845,0.6633011959618886
0.029500000000000002,1.779182140057023,1.0,2705.3064483060734,0.28267094352922045,1.3245641298052624,0.9451124862367621,0.287778649882395,0.6640884108538035
0.03,1.778597805821558,1.0,2717.6264624327114,0.2866946055649219,1.3241878808014187,0.9465042826782486,0.28775410784450545,0.6648667663950419
0.0305,1.778013471586093,1.0,2729.5677093469126,0.290695697367387,1.3238153288750505,0.9478361785179087,0.2877295658066159,0.6656365841375731
0.031,1.7774291373506277,1.0,2741.1432078534317,0.29467434361234857,1.3234463317054423,0.9491116016554214,0.28770502376872636,0.6663981840124138
0.0315,1.7768448031151627,1.0,2752.36619575623,0.29863066897553925,1.323080746971878,0.9503337377525866,0.2876804817308368,0.6671518843625428
0.032,1.7762604688796977,1.0,2763.2501188660117,0.3025647981326918,1.3227184323536416,0.9515055503549088,0.2876559396929473,0.6678980019745155
0.0325,1.7756761346442327,1.0,2773.8086204570445,0.3064768557595389,1.3223592455300175,0.9526297991089088,0.28763139765505774,0.6686368521087944
0.033,1.7750918004087675,1.0,2784.0555311730022,0.3103669665318133,1.32200304418029,0.9537090562758296,0.28760685561716826,0.6693687485287827
0.0335,1.7745074661733025,1.0,2794.0048593815964,0.31423525512524764,1.321649685983743,0.9547457217192924,0.2875823135792787,0.6700940035285698
0.034,1.7739231319378375,1.0,2803.6707819789594,0.31808184621557467,1.3212990286196606,0.9557420365241791,0.2875577715413892,0.670812927959383
0.0345,1.7733387977023725,1.0,2813.067635642455,0.32190686447852707,1.3209509297673274,0.9567000953862692,0.28753322950349963,0.6715258312547452
0.035,1.7727544634669072,1.0,2822.1996353808318,0.32571041955811325,1.3206053389386179,0.9576218640242818,0.2875086874656101,0.6722328336863965
0.035500000000000004,1.7721701292314422,1.0,2831.0860080734565,0.3294926480950655,1.3202620723684395,0.9585091754934314,0.2874841454277206,0.6729343271756136
0.036000000000000004,1.7715857949959772,1.0,2839.7352832287356,0.3332536672301348,1.3199210431112354,0.9593637528652851,0.287459603389831,0.6736305043833517
0.0365,1.7710014607605122,1.0,2848.1553710485596,0.33699359291934705,1.319582170565552,0.9601872125343319,0.2874350613519415,0.6743215441856201
0.037,1.770417126525047,1.0,2856.354267055257,0.34071254111872845,1.3192453741299361,0.9609810716907822,0.287410519314052,0.6750076246703989
0.0375,1.769832792289582,1.0,2864.3400483102178,0.344410627784305,1.3189105732029351,0.9617467555227245,0.28738597727616244,0.6756889231485184
0.038,1.769248458054117,1.0,2872.1208697756247,0.34808796887210264,1.3185776871830952,0.9624856038187337,0.2873614352382729,0.676365616164126
0.0385,1.768664123818652,1.0,2879.7049608202165,0.3517446803381475,1.3182466354689637,0.9631988770268842,0.28733689320038336,0.6770378795047338
0.039,1.7680797895831868,1.0,2887.1006218694997,0.35538087813846553,1.3179173374590871,0.9638877618203747,0.2873123511624939,0.6777058882108575
0.0395,1.7674954553477218,1.0,2894.3162211993213,0.3589966782290828,1.3175897125520122,0.9645533762148433,0.28728780912460433,0.6783698165852369
0.04,1.7669111211122568,1.0,2901.3601918744957,0.36259219656602537,1.3172636801462863,0.9651967742779263,0.2872632670867148,0.6790298382016422
0.0405,1.7663267868767916,1.0,2908.239441294895,0.36616754481141,1.3169391736200875,0.9658189509202576,0.28723872504882525,0.6796860976563012
0.041,1.7657424526413266,1.0,2914.9570658717776,0.3697228262234254,1.3166161603272342,0.9664208468971838,0.2872141830109357,0.6803386703432371
0.0415,1.7651581184058616,1.0,2921.528097664157,0.37325817780131193,1.3162945030395827,0.9670033478950575,0.28718964097304617,0.6809878423053042
0.042,1.7645737841703966,1.0,2927.957013447266,0.37677370723823855,1.3159741578957853,0.9675672939457152,0.2871650989351566,0.681633710274392
0.0425,1.7639894499349313,1.0,2934.248323666958,0.38026952222737403,1.315655081034494,0.9681134796712242,0.28714055689726714,0.6822763705902648
0.043000000000000003,1.7634051156994663,1.0,2940.406571184977,0.3837457304618873,1.315337228594361,0.9686426572003979,0.2871160148593776,0.68291591920417
0.043500000000000004,1.7628207814640013,1.0,2946.436330067255,0.3872024396349474,1.3150205567140383,0.9691555388696267,0.28709147282148806,0.6835524516823259
0.044,1.7622364472285363,1.0,2952.3422044142512,0.3906397574397229,1.3147050215321778,0.9696527997259836,0.2870669307835985,0.6841860632092841
0.0445,1.7616521129930711,1.0,2958.128827234286,0.39405779156938303,1.3143905791874317,0.9701350798489096,0.287042388745709,0.684816848591171
0.045,1.7610677787576061,1.0,2963.800859359459,0.3974566497170965,1.3140771858184523,0.9706029865052929,0.28701784670781944,0.6854449022588054
0.0455,1.7604834445221411,1.0,2969.3629884041547,0.40083643957603227,1.3137647975638915,0.971057096151415,0.2869933046699299,0.6860703182706958
0.046,1.7598991102866761,1.0,2974.8199277666117,0.40419726883935914,1.3134533705624014,0.971497956294034,0.2869687626320404,0.6866931903159116
0.0465,1.759314776051211,1.0,2980.1764156720174,0.4075392452002461,1.313142860952634,0.9719260872217799,0.28694422059415087,0.6873136117168344
0.047,1.758730441815746,1.0,2985.437214260101,0.41086247635186196,1.3128332248732415,0.9723419836170544,0.2869196785562613,0.6879316754317855
0.0475,1.758146107580281,1.0,2990.6064340826592,0.414167066545092,1.312524424321206,0.9727461160319162,0.2868951365183718,0.6885474623810549
0.048,1.757561773344816,1.0,2995.6833260910707,0.4174530983547874,1.3122164636301765,0.9731389325696609,0.28687059448048224,0.6891609688720238
0.0485,1.7569774391093507,1.0,3000.6784886233727,0.4207207145241183,1.3119092487871067,0.9735208606186417,0.28684605244259276,0.6897723868656339
0.049,1.7563931048738857,1.0,3005.5942005131424,0.4239700138339007,1.3116027581909049,0.9738923068509627,0.28682151040470316,0.6903817636728969
0.0495,1.7558087706384207,1.0,3010.432752314264,0.42720109506495063,1.3112969702404793,0.974253658912165,0.2867969683668137,0.6909891464256956
0.05,1.7552244364029554,1.0,3015.1964459581727,0.43041405699808405,1.3109918633347388,0.9746052864833933,0.28677242632892413,0.6915945820777651
0.0505,1.7546401021674904,1.0,3019.8875944234405,0.43360899841411693,1.3106874158725919,0.974947542275038,0.2867478842910346,0.6921981174056479
0.051000000000000004,1.7540557679320254,1.0,3024.508521414361,0.4367860180938652,1.3103836062529466,0.975280762956845,0.28672334225314505,0.6927997990096167
0.051500000000000004,1.7534714336965604,1.0,3029.0615610504015,0.4399452148181449,1.3100804128747117,0.9756052700290893,0.2866988002152555,0.6933996733145674
0.052000000000000005,1.7528870994610952,1.0,3033.549057565825,0.44308668736777207,1.3097778141367957,0.9759213706390321,0.286674258177366,0.6939977865708828
0.0525,1.7523027652256302,1.0,3037.9733650196918,0.44621053452356246,1.3094757884381067,0.976229358346546,0.2866497161394765,0.6945941848552686
0.053,1.7517184309901652,1.0,3042.3368470163114,0.44931685506633234,1.3091743141775538,0.9765295138424943,0.28662517410158694,0.6951889140715537
0.0535,1.7511340967547002,1.0,3046.641876436212,0.4524057477768975,1.308873369754045,0.9768221056231534,0.2866006320636974,0.6957820199514703
0.054,1.750549762519235,1.0,3050.890835176626,0.455477311436074,1.3085729335664886,0.9771073906237301,0.28657609002580786,0.6963735480553934
0.0545,1.74996542828377,1.0,3055.086113903531,0.4585316448246778,1.3082729840137937,0.9773856148137764,0.2865515479879183,0.696963543773059
0.055,1.749381094048305,1.0,3059.2301118130335,0.4615688467235249,1.307973499494868,0.9776570137570983,0.2865270059500288,0.6975520523242493
0.0555,1.74879675981284,1.0,3063.325236403581,0.4645890159134312,1.3076744584086206,0.9779218131385552,0.2865024639121393,0.6981391187594451
0.056,1.7482124255773748,1.0,3067.3697327034247,0.4675922092122951,1.3073758749140005,0.9781802274814634,0.28647792187424975,0.6987247178598619
0.0565,1.7476280913419098,1.0,3071.3694877443404,0.470578570811481,1.3070776976612812,0.9784324666855944,0.2864533798363602,0.6993089528030828
0.057,1.7470437571064448,1.0,3075.3263328367543,0.47354819846496027,1.3067799101750746,0.9786787298248454,0.28642883779847067,0.6998918581408584
0.0575,1.7464594228709798,1.0,3079.241330539136,0.476501181537821,1.3064825026101468,0.9789192075493683,0.28640429576058113,0.7004734553374408
0.058,1.7458750886355145,1.0,3083.1155473131785,0.47943760939515145,1.3061854651212637,0.9791540828689019,0.2863797537226916,0.7010537657795772
0.0585,1.7452907544000495,1.0,3086.9500534419476,0.4823575714020399,1.3058887878631917,0.9793835315196842,0.28635521168480205,0.7016328107767452
0.059000000000000004,1.7447064201645845,1.0,3090.7459229499264,0.48526115692357447,1.3055924609906975,0.9796077223109426,0.28633066964691256,0.7022106115613809
0.059500000000000004,1.7441220859291193,1.0,3094.5042335257026,0.4881484553248435,1.3052964746585467,0.9798268174522458,0.286306127609023,0.7027871892891051
0.06,1.7435377516936543,1.0,3098.2260664465275,0.4910195559709351,1.3050008190215057,0.9800409728629196,0.2862815855711335,0.7033625650389373
0.0605,1.7429534174581893,1.0,3101.912506504947,0.4938745482269376,1.304705484234341,0.9802503384646395,0.28625704353324394,0.7039367598135068
0.061,1.7423690832227243,1.0,3105.564641937938,0.4967135214579392,1.3044104604518185,0.9804550584582366,0.2862325014953544,0.7045097945392597
0.0615,1.741784748987259,1.0,3109.1835643575623,0.49953656502902805,1.3041157378287047,0.9806552715856852,0.2862079594574649,0.7050816900666536
0.062,1.741200414751794,1.0,3112.7703686844666,0.5023437683052924,1.3038213065197657,0.980851111378169,0.28618341741957537,0.7056524671703526
0.0625,1.740616080516329,1.0,3116.3261530830114,0.5051352206518205,1.3035271566797677,0.9810427063910683,0.28615887538168583,0.7062221465494125
0.063,1.740031746280864,1.0,3119.8520188990337,0.5079110114337007,1.303233278463477,0.9812301804266477,0.2861343333437963,0.7067907488274598
0.0635,1.7394474120453989,1.0,3123.34907059924,0.5106712300160209,1.3029396620256597,0.9814136527451779,0.28610979130590675,0.7073582945528669
0.064,1.7388630778099339,1.0,3126.8184157129144,0.5134159657638696,1.3026462975210824,0.9815932382651695,0.2860852492680172,0.7079248041989173
0.0645,1.7382787435744689,1.0,3130.261164776244,0.5161453080423349,1.3023531751045108,0.9817690477533627,0.28606070723012766,0.7084902981639702
0.065,1.7376944093390039,1.0,3133.678431278043,0.5188593462165052,1.3020602849307115,0.9819411880050584,0.2860361651922382,0.7090547967716117
0.0655,1.7371100751035387,1.0,3137.0681826467403,0.5215580962654504,1.3017676438533032,0.9821097583473735,0.28601162315434864,0.7096182688878379
0.066,1.7365257408680737,1.0,3140.4345777618078,0.5242417345449331,1.3014752162259686,0.9822748628646657,0.2859870811164591,0.7101807844435761
0.0665,1.7359414066326087,1.0,3143.7781744992826,0.5269103430168375,1.3011829969806146,0.9824365971261236,0.28596253907856956,0.7107423543679054
0.067,1.7353570723971437,1.0,3147.099428228059,0.5295640010321641,1.3008909819301442,0.9825950532585048,0.28593799704068,0.711302987860694
0.0675,1.7347727381616784,1.0,3150.3987956425126,0.5322027879419133,1.3005991668874608,0.9827503202198905,0.2859134550027905,0.7118626940898103
0.068,1.7341884039262134,1.0,3153.6767347435643,0.5348267830970861,1.3003075476654677,0.9829024839308583,0.28588891296490093,0.7124214821911761
0.0685,1.7336040696907484,1.0,3156.9337048207267,0.5374360658486829,1.300016120077068,0.9830516273993486,0.28586437092701145,0.7129793612688213
0.069,1.7330197354552834,1.0,3160.1701664334155,0.5400307155477041,1.2997248799351644,0.983197830839566,0.2858398288891219,0.713536340394934
0.0695,1.7324354012198182,1.0,3163.3865813941675,0.5426108115451506,1.2994338230526603,0.9833411717852427,0.28581528685123236,0.7140924286099111
0.07,1.7318510669843532,1.0,3166.5834127508297,0.5451764331920227,1.2991429452424592,0.9834817251975634,0.2857907448133428,0.7146476349224077
