Time [s],Phi [rad],STIM [ ],Fsee [N],Gamma [ ],Lcerel [ ],q [ ],Lmtc [m],fisomrel [ ]
0.0,1.8,1.0,17.966461157987432,1.0702115538422593e-05,1.3793398243088628,0.005000030509346371,0.288653,0.5411393421343147
0.0005,1.79999375,1.0,18.276094011103112,0.005619851393928796,1.379302460007486,0.012942465253556232,0.2886527375,0.5412297316080025
0.001,1.799975,1.0,21.61827439534514,0.011197537779785709,1.3789383130587796,0.03561224163282996,0.28865195,0.542110187806653
0.0015,1.79994375,1.0,31.07015219463501,0.016743937755922096,1.3780461256732777,0.07060672437429709,0.2886506375,0.5442637973961236
0.002,1.7999,1.0,53.58524178291006,0.022259226813497065,1.3763679465402832,0.11472378179004256,0.2886488,0.5483009209727379
0.0025,1.79984375,1.0,97.12425690420025,0.027743579459587234,1.373934910940737,0.16458114101597537,0.28864643749999996,0.554122073914997
0.003,1.7997750000000001,1.0,160.96551086148585,0.03319716922489525,1.3712140688649777,0.21728689779464203,0.28864354999999997,0.5605871016476647
0.0035,1.79969375,1.0,237.69186662049913,0.03862016866334736,1.3685844713325486,0.2706192956279985,0.2886401375,0.5667904575653882
0.004,1.7996,1.0,321.47602616538893,0.04401274936287423,1.3661558472729254,0.32292200415909267,0.2886362,0.5724805341449175
0.0045000000000000005,1.7994937500000001,1.0,409.27748172972014,0.04937508195059566,1.363922585745673,0.3730403946464669,0.2886317375,0.577679692551605
0.005,1.799375,1.0,499.42354223590695,0.054707336083915974,1.3618581290397707,0.42025296833115183,0.28862675,0.5824575715811119
0.0055,1.79924375,1.0,590.8006334647259,0.060009680497936764,1.3599386354366085,0.464178797558819,0.2886212375,0.5868755698980619
0.006,1.7991000000000001,1.0,682.5284152848077,0.06528228294873903,1.358146227395066,0.5046846486628485,0.2886152,0.5909798463095718
0.006500000000000001,1.79894375,1.0,773.8718347069573,0.07052530997850649,1.3564674144771887,0.5418052591186303,0.2886086375,0.5948054286222838
0.007,1.798775,1.0,864.3008076425231,0.07573892840520159,1.3548901527568786,0.5756806395275501,0.28860155,0.5983832253705337
0.0075,1.79859375,1.0,953.2673272895048,0.08092330237549247,1.3534064083278747,0.6065133386173517,0.2885939375,0.601734408650483
0.008,1.7984,1.0,1040.3679858466264,0.0860785957605438,1.352008506016391,0.6345352929511279,0.2885858,0.604878863814121
0.0085,1.79819375,1.0,1125.3279391242036,0.09120497217586375,1.350689047393097,0.6599873403822857,0.2885771375,0.6078354337963079
0.009000000000000001,1.797975,1.0,1207.890355166999,0.09630259367230756,1.3494421693034575,0.6831070108077175,0.28856795,0.6106191655372888
0.0095,1.79774375,1.0,1287.8803085691445,0.10137162162966065,1.3482622812349123,0.7041200577301165,0.2885582375,0.6132442074906086
0.01,1.7975,1.0,1365.1635895724921,0.10641221627353631,1.347144429745695,0.7232365230800794,0.288548,0.6157230385731387
0.0105,1.79724375,1.0,1439.6611085765928,0.11142453716004308,1.3460839262447761,0.7406487219580047,0.2885372375,0.6180673341677307
0.011,1.796975,1.0,1511.318855380356,0.11640874300269231,1.345076594672325,0.7565310391562954,0.28852595000000003,0.6202874483716577
0.0115,1.79669375,1.0,1580.1117330319473,0.12136499123805164,1.3441185939159537,0.7710403899434445,0.2885141375,0.6223928358460045
0.012,1.7964,1.0,1646.0560435305802,0.1262934388172837,1.3432061762789633,0.7843171792880993,0.28850180000000003,0.6243926038392001
0.0125,1.79609375,1.0,1709.175160314248,0.13119424200282376,1.3423360211748046,0.7964867749482873,0.2884889375,0.6262947978514151
0.013000000000000001,1.7957750000000001,1.0,1769.4973083252007,0.13606755530110326,1.3415051771331314,0.8076608709704243,0.28847555,0.6281065497170553
0.0135,1.79544375,1.0,1827.0743365311232,0.14091353275445834,1.3407107860771081,0.817938769669089,0.2884616375,0.6298346946770379
0.014,1.7951000000000001,1.0,1881.9850657840752,0.14573232870733954,1.3399500086652412,0.8274086959187905,0.2884472,0.6314859426291533
0.0145,1.79474375,1.0,1934.2938128317637,0.15052409537546674,1.339220443026368,0.836149188777886,0.2884322375,0.6330659790592943
0.015,1.794375,1.0,1984.062305022822,0.15528898359954887,1.3385199446931701,0.8442301459645609,0.28841675,0.6345798694034854
0.0155,1.79399375,1.0,2031.3707798905991,0.1600271442202951,1.33784636919833,0.8517137465640857,0.2884007375,0.6360326237866891
0.016,1.7936,1.0,2076.310781347058,0.1647387277207608,1.3371976304816438,0.8586553807589817,0.2883842,0.6374290752473368
0.0165,1.7931937500000001,1.0,2118.959718967165,0.16942388307952094,1.3365719449396183,0.8651045263624247,0.2883671375,0.6387733605853398
0.017,1.792775,1.0,2159.4013193998076,0.17408275820601926,1.3359675942708737,0.8711053746141211,0.28834955,0.6400694374994949
0.0175,1.7923437500000001,1.0,2197.726582858561,0.17871550082572368,1.3353829017879704,0.8766974484492215,0.2883314375,0.6413211389932418
0.018000000000000002,1.7919,1.0,2234.0184972489,0.18332225782191616,1.334816374300705,0.8819161887062141,0.2883128,0.6425318734060272
0.0185,1.79144375,1.0,2268.350256141228,0.18790317424523262,1.3342667038390768,0.8867934273222261,0.2882936375,0.6437046259711702
0.019,1.790975,1.0,2300.8025413330815,0.19245839514630902,1.3337325824330855,0.8913577575851231,0.28827395,0.6448423578524995
0.0195,1.79049375,1.0,2331.462169543314,0.1969880648815568,1.3332127091911097,0.8956349068039909,0.2882537375,0.6459479924538296
0.02,1.79,1.0,2360.408605370953,0.20149232714926646,1.3327059160885353,0.8996480915628222,0.288233,0.6470241498714557
0.0205,1.78949375,1.0,2387.710204130197,0.2059713238326261,1.3322111952744344,0.9034183033049008,0.2882117375,0.648073092265088
0.021,1.788975,1.0,2413.4396370519876,0.21042519669120446,1.3317275411390657,0.9069645199950989,0.28818995000000003,0.6490970613833849
0.021500000000000002,1.78844375,1.0,2437.6742201580955,0.21485408699730318,1.3312539433951562,0.9103039251495015,0.2881676375,0.6500982939577762
0.022,1.7879,1.0,2460.4808073118593,0.21925813498737975,1.3307895283551303,0.9134521311982545,0.2881448,0.6510787242684644
0.0225,1.78734375,1.0,2481.9224199369114,0.22363747948525148,1.3303334895309413,0.9164233319609778,0.28812143749999997,0.6520401329537994
0.023,1.786775,1.0,2502.061255997254,0.22799225844465598,1.329885055065299,0.9192304458557065,0.28809755,0.6529842169788415
0.0235,1.78619375,1.0,2520.9646627872844,0.23232261085021375,1.3294434282868117,0.9218852384132072,0.28807313749999996,0.6539127154293123
0.024,1.7856,1.0,2538.6964222372076,0.23662867506478258,1.3290078682053657,0.9243984546841912,0.2880482,0.6548272406216861
0.0245,1.78499375,1.0,2555.3063205377202,0.2409105857378489,1.3285777845906441,0.9267799375430782,0.2880227375,0.6557290799537764
0.025,1.784375,1.0,2570.845814602292,0.24516847751889922,1.3281525872123305,0.9290386929150679,0.28799675,0.6566195137304012
0.025500000000000002,1.78374375,1.0,2585.3678903886516,0.24940248505741996,1.3277316858401078,0.93118297237308,0.2879702375,0.6574998153584212
0.026000000000000002,1.7831000000000001,1.0,2598.9269289434405,0.2536127430028976,1.3273144902436593,0.9332203465763744,0.2879432,0.6583712515195581
0.0265,1.78244375,1.0,2611.570460490086,0.25779938410404607,1.3269004856454285,0.9351577818227709,0.2879156375,0.6592349250152519
0.027,1.781775,1.0,2623.3508590263564,0.26196254317062506,1.326489122344643,0.9370016815798075,0.28788755,0.6600920057099006
0.0275,1.7810937500000001,1.0,2634.3084004097277,0.2661023508004468,1.3260799719282355,0.9387579601537451,0.2878589375,0.6609434053165855
0.028,1.7804,1.0,2644.4819032949986,0.27021893692033677,1.325672626935079,0.9404320740140405,0.2878298,0.6617899874528218
0.0285,1.77969375,1.0,2653.9109092157996,0.27431243145712014,1.325266679904047,0.9420290606388779,0.2878001375,0.6626326114292038
0.029,1.778975,1.0,2662.635617116316,0.2783829643376224,1.324861723374012,0.9435535761455924,0.28776995,0.6634721322910295
0.029500000000000002,1.7782437500000001,1.0,2670.693150160428,0.28243066419502766,1.3244573836209164,0.9450099332404535,0.2877392375,0.6643093310391248
0.03,1.7775,1.0,2678.1220920977125,0.2864556608707818,1.3240532782628407,0.9464021263675313,0.287708,0.6651450027012307
0.0305,1.77674375,1.0,2684.954881028248,0.29045808142206325,1.32364908556275,0.947733866882297,0.2876762375,0.6659798131836597
0.031,1.775975,1.0,2691.2203883354287,0.29443805129366857,1.323244520025601,0.949008604303255,0.28764395,0.6668143503616675
0.0315,1.7751937500000001,1.0,2696.9478224543573,0.2983956959303944,1.3228392961563493,0.9502295442433724,0.2876111375,0.6676491991622225
0.032,1.7744,1.0,2702.166696402558,0.3023311407770373,1.3224331284599515,0.9513996686713334,0.2875778,0.6684849415546186
0.0325,1.77359375,1.0,2706.901823739517,0.3062445081048352,1.3220257768357762,0.9525217587464005,0.2875439375,0.6693220633077643
0.033,1.772775,1.0,2711.1823559579907,0.3101359233246246,1.321616963711574,0.9535984031274671,0.28750955,0.6701611245310846
0.0335,1.7719437500000002,1.0,2715.043373534575,0.3140055162956718,1.3212063594652872,0.9546320120917396,0.2874746375,0.6710027890276044
0.034,1.7711000000000001,1.0,2718.5039386396174,0.31785340658748995,1.32079378225975,0.9556248501626864,0.2874392,0.6718474147432529
0.0345,1.7702437500000001,1.0,2721.5832570177245,0.32167971376959226,1.3203790502577963,0.9565790337317133,0.2874032375,0.6726953576400269
0.035,1.7693750000000001,1.0,2724.3006635493825,0.32548455741149185,1.3199619816222605,0.9574965424797179,0.28736675,0.6735469716720544
0.035500000000000004,1.76849375,1.0,2726.6756085459265,0.32926805708270185,1.3195423945159765,0.9583792297914417,0.2873297375,0.6744026087595536
0.036000000000000004,1.7676,1.0,2728.727644777125,0.33303033235273544,1.3191201071017784,0.9592288322618986,0.2872922,0.6752626187606807
0.0365,1.76669375,1.0,2730.476415232437,0.33677150279110574,1.3186949375425006,0.960046978383425,0.2872541375,0.6761273494412681
0.037,1.765775,1.0,2731.9416416148847,0.34049168796732593,1.3182667040009768,0.9608351964923884,0.28721555,0.6769971464424573
0.0375,1.76484375,1.0,2733.1406559171787,0.344191004298279,1.3178352469642736,0.9615949235572986,0.2871764375,0.6778723079947679
0.038,1.7639,1.0,2734.088404886547,0.34786956757842485,1.3174004290925092,0.9623275122596354,0.28713679999999997,0.6787530854971016
0.0385,1.76294375,1.0,2734.8060274618956,0.3515275037766061,1.31696205723912,0.9630342317653767,0.28709663750000003,0.6796398414245688
0.039,1.761975,1.0,2735.304647699372,0.35516492554325,1.3165200295747996,0.9637162825757266,0.28705595,0.6805327515241326
0.0395,1.7609937500000001,1.0,2735.595420988799,0.358781945528784,1.3160742442702418,0.9643747955501637,0.2870147375,0.6814319901434807
0.04,1.76,1.0,2735.689529676596,0.3623786763836354,1.3156245994961406,0.9650108366875737,0.286973,0.6823377302069542
0.0405,1.7589937500000001,1.0,2735.598178919844,0.3659552307582316,1.3151709934231897,0.9656254115302729,0.2869307375,0.6832501431908156
0.041,1.757975,1.0,2735.3325927692035,0.36951172130299986,1.3147133242220832,0.9662194692243241,0.28688795,0.6841693990978506
0.0415,1.75694375,1.0,2734.904010482458,0.37304826066836755,1.3142514900635147,0.9667939062662876,0.2868446375,0.6850956664313161
0.042,1.7559,1.0,2734.323683067658,0.376564961504762,1.313785389118178,0.967349569963622,0.28680079999999997,0.6860291121682193
0.0425,1.75484375,1.0,2733.6028700562365,0.38006193646261055,1.3133149195567673,0.9678872616333445,0.2867564375,0.6869699017319403
0.043000000000000003,1.7537760631889685,1.0,2732.808007625271,0.38353929706824175,1.312839958516285,0.9684077376715873,0.2867115946539367,0.6879182409296206
0.043500000000000004,1.7527062187417237,1.0,2732.382097851448,0.38699715319168426,1.3123606721253145,0.9689117372002422,0.2866666611871524,0.6888737580019828
0.044,1.751636374294479,1.0,2732.388497449408,0.3904356154675505,1.3118774584292878,0.9693999787648045,0.2866217277203681,0.6898356215678823
0.0445,1.7505665298472342,1.0,2732.797512797823,0.3938547911091884,1.3113905871821778,0.9698731327957489,0.28657679425358384,0.6908032596120488
0.045,1.7494966853999894,1.0,2733.579534903528,0.39725478732994574,1.3109003281379568,0.9703318350657955,0.28653186078679954,0.6917761032006084
0.0455,1.7484268409527446,1.0,2734.705018333026,0.4006357113431703,1.3104069510505973,0.9707766888262674,0.28648692732001524,0.6927535865416838
0.046,1.7473569965054998,1.0,2736.1444617572874,0.4039976703622099,1.3099107256740719,0.9712082667921013,0.286441993853231,0.6937351470413591
0.0465,1.746287152058255,1.0,2737.8683901094737,0.40734077160041243,1.3094119217623532,0.9716271129875601,0.2863970603864467,0.6947202253549982
0.047,1.7452173076110102,1.0,2739.855324700938,0.4106651194108226,1.308910736613826,0.9720337388357535,0.28635212691966244,0.6957084081782636
0.0475,1.7441474631637652,1.0,2742.0756181812994,0.4139708226244057,1.3084074416820215,0.9724286365791388,0.28630719345287814,0.6966991387600463
0.048,1.7430776187165204,1.0,2744.5126292022996,0.4172579843023828,1.3079021903778514,0.9728122654815164,0.28626225998609384,0.6976920955373769
0.0485,1.7420077742692757,1.0,2747.150136023852,0.4205267073239127,1.307395132281234,0.9731850624822579,0.2862173265193096,0.698686966357789
0.049,1.7409379298220309,1.0,2749.971908159049,0.42377709456815393,1.3068864169720873,0.973547443765233,0.2861723930525253,0.6996834409376089
0.0495,1.739868085374786,1.0,2752.9617006305525,0.42700924891426517,1.30637619403033,0.9738998059382545,0.28612745958574104,0.7006812108784745
0.05,1.7387982409275413,1.0,2756.1032487222037,0.4302232732414052,1.30586461303588,0.9742425271352564,0.28608252611895674,0.7016799696824343
0.0505,1.7377283964802965,1.0,2759.383096436677,0.43341926857220636,1.3053517979556752,0.9745759661397145,0.28603759265217243,0.702679462644249
0.051000000000000004,1.7366585520330518,1.0,2762.7860586778274,0.4365973383678656,1.3048378881818943,0.9749004666359876,0.2859926591853882,0.7036794066607236
0.051500000000000004,1.735588707585807,1.0,2766.301138033541,0.4397575830032195,1.304322985031471,0.9752163539564864,0.2859477257186039,0.7046795943288746
0.052000000000000005,1.7345188631385622,1.0,2769.9195197305303,0.4429001011984508,1.3038071699333174,0.9755239374183361,0.2859027922518196,0.7056798580902692
0.0525,1.7334490186913174,1.0,2773.6323712858625,0.4460249916737421,1.3032905243163455,0.9758235126255849,0.28585785878503533,0.7066800314410595
0.053,1.7323791742440726,1.0,2777.430840933535,0.44913235314927624,1.3027731296094676,0.976115362197941,0.28581292531825103,0.7076799489365069
0.0535,1.7313093297968278,1.0,2781.3060561993557,0.4522222843452359,1.3022550672415956,0.9763997564547707,0.2857679918514668,0.7086794461950847
0.054,1.7302394853495828,1.0,2785.2520023835605,0.4552948795044162,1.3017363927289882,0.9766769520302455,0.2857230583846825,0.7096784097668934
0.0545,1.729169640902338,1.0,2789.2616833141833,0.4583502355570639,1.30121717027961,0.9769471953930277,0.2856781249178982,0.7106767102319655
0.055,1.7280997964550933,1.0,2793.3213618171453,0.46138846131245775,1.300697524505419,0.9772107273258441,0.28563319145111393,0.7116741031770182
0.0555,1.7270299520078485,1.0,2797.4273747242814,0.4644096498437658,1.3001774892189926,0.9774677716260577,0.28558825798432963,0.7126705196625689
0.056,1.7259601075606037,1.0,2801.576048878583,0.46741389422415625,1.2996570982329076,0.9777185427969385,0.2855433245175454,0.7136658911946223
0.0565,1.724890263113359,1.0,2805.76370085443,0.470401287526797,1.2991363853597417,0.9779632465108661,0.2854983910507611,0.7146601497254723
0.057,1.7238204186661141,1.0,2809.986636704073,0.47337192282485624,1.298615384412072,0.9782020800458079,0.2854534575839768,0.7156532276544338
0.0575,1.7227505742188693,1.0,2814.2411517286973,0.47632589319150204,1.298094129202476,0.9784352326968223,0.28540852411719253,0.7166450578285
0.058,1.7216807297716246,1.0,2818.5235302750652,0.47926329169990245,1.2975726535435306,0.9786628861642045,0.2853635906504082,0.7176355735429271
0.0585,1.7206108853243798,1.0,2822.8300455578474,0.4821842114232256,1.2970509912478134,0.9788852149197754,0.2853186571836239,0.7186247085417459
0.059000000000000004,1.719541040877135,1.0,2827.1569595069946,0.4850887454346395,1.2965291761279014,0.9791023865527105,0.2852737237168397,0.7196123970182016
0.059500000000000004,1.7184711964298902,1.0,2831.500522640063,0.4879769868073123,1.2960072419963722,0.9793145620962035,0.2852287902500554,0.7205985736151186
0.06,1.7174013519826454,1.0,2835.8569739609184,0.49084902861441193,1.295485222665803,0.9795218963361674,0.2851838567832711,0.7215831734251941
0.0605,1.7163315075354006,1.0,2840.226920486448,0.4937049451683552,1.2949631129235093,0.9797245345139048,0.2851389233164868,0.7225662054032944
0.061,1.7152616630881559,1.0,2844.6045681057526,0.49654484679298705,1.2944409645677708,0.9799226222208424,0.2850939898497025,0.7235475713788289
0.0615,1.714191818640911,1.0,2848.9867231188346,0.4993688297785662,1.2939188061019369,0.9801162971942166,0.2850490563829183,0.7245272175370282
0.062,1.713121974193666,1.0,2853.37238048301,0.5021769799198484,1.2933966464842834,0.9803056901741133,0.285004122916134,0.7255051270145931
0.0625,1.7120521297464213,1.0,2857.7605320574603,0.5049693830115894,1.2928744946730855,0.9804909270415402,0.2849591894493497,0.7264812830675538
0.063,1.7109822852991765,1.0,2862.1501666031854,0.5077461248485448,1.2923523596266187,0.9806721290357714,0.2849142559825654,0.7274556690712635
0.0635,1.7099124408519317,1.0,2866.5402697859176,0.5105072912254703,1.2918302503031582,0.980849412960414,0.2848693225157811,0.7284282685203955
0.064,1.708842596404687,1.0,2870.9298241801694,0.5132529679371216,1.2913081756609797,0.9810228913788588,0.2848243890489969,0.7293990650289279
0.0645,1.7077727519574422,1.0,2875.3178092751004,0.5159832407782543,1.2907861446583582,0.9811926727997368,0.28477945558221257,0.7303680423301289
0.065,1.7067029075101974,1.0,2879.703201482598,0.5186981955436243,1.2902641662535694,0.9813588618529625,0.28473452211542827,0.7313351842765312
0.0655,1.7056330630629526,1.0,2884.0849741465636,0.5213979180279871,1.2897422494048887,0.9815215594569028,0.284689588648644,0.7323004748399085
0.066,1.7045632186157078,1.0,2888.462097554283,0.5240824940260985,1.2892204030705914,0.9816808629771864,0.2846446551818597,0.7332638981112394
0.0665,1.703493374168463,1.0,2892.8335389498134,0.5267520093327142,1.2886986362089528,0.9818368663776221,0.2845997217150754,0.7342254383006721
0.067,1.7024235297212182,1.0,2897.198262548541,0.5294065497425896,1.2881769577782485,0.9819896603636739,0.28455478824829117,0.7351850797374796
0.0675,1.7013536852739735,1.0,2901.55522955399,0.5320462010504808,1.2876553767367536,0.9821393325189127,0.28450985478150687,0.736142806870014
0.068,1.7002838408267285,1.0,2905.9033981762063,0.5346710490511433,1.287133902042744,0.982285967434829,0.28446492131472256,0.7370986042656503
0.0685,1.6992139963794837,1.0,2910.2445688971434,0.5372811290671734,1.286612517608264,0.9824296424348586,0.2844199878479383,0.7380525023923872
0.069,1.6981441519322389,1.0,2914.575582080275,0.5398765870225881,1.2860912510245115,0.9825704413028571,0.284375054381154,0.7390044518087691
0.0695,1.697074307484994,1.0,2918.896108488669,0.5424575045648073,1.2855701049228188,0.9827084398025054,0.28433012091436977,0.7399544488978644
0.07,1.6960044630377493,1.0,2923.206030921901,0.5450239589549266,1.2850490800651846,0.982843710831957,0.28428518744758546,0.7409024934757398
0.07050000000000001,1.6949346185905045,1.0,2927.5052320212044,0.5475760274540417,1.2845281772136081,0.982976324895687,0.2842402539808012,0.7418485853683088
0.07100000000000001,1.6938647741432598,1.0,2931.793594270946,0.5501137873232481,1.284007397130089,0.9831063501994223,0.2841953205140169,0.7427927244113264
0.07150000000000001,1.692794929696015,1.0,2936.0710000015115,0.5526373158236415,1.2834867405766257,0.9832338527406969,0.2841503870472326,0.7437349104503856
0.07200000000000001,1.6917250852487702,1.0,2940.3373313907036,0.5551466902163176,1.282966208315218,0.9833588963952582,0.28410545358044836,0.7446751433409077
