Time [s],Phi [rad],STIM [ ],Fsee [N],Gamma [ ],Lcerel [ ],q [ ],Lmtc [m],fisomrel [ ]
0.0,1.8,1.0,18.074283516728556,0.00033440661598504014,1.3793277624341764,0.005028988221464395,0.288653,0.5411685224702838
0.0005,1.79999375,1.0,18.487863725019217,0.005941740168168299,1.3792790038484246,0.013865634325608788,0.2886527375,0.5412864707900087
0.001,1.799975,1.0,22.07033092451045,0.011517621012536923,1.3788923809014013,0.03731907875587951,0.28865195,0.5422211852514905
0.0015,1.79994375,1.0,32.045776600507956,0.01706222557491705,1.3779636494975163,0.07293002863459083,0.2886506375,0.5444626264621131
0.002,1.7999,1.0,55.6001910630571,0.022575729289264632,1.3762384367396026,0.11746689193762949,0.2886488,0.5486117306114161
0.0025,1.79984375,1.0,100.43856130796937,0.02805830660690499,1.3737765465832452,0.16756008079026283,0.28864643749999996,0.5544996595162728
0.003,1.7997750000000001,1.0,165.23139585441837,0.03351013100170479,1.371055440486621,0.22035668702051653,0.28864354999999997,0.5609625640474477
0.0035,1.79969375,1.0,242.48618635169547,0.0389313749718917,1.3684375335003414,0.2736701454893422,0.2886401375,0.5671357905235486
0.004,1.7996,1.0,326.56174649288295,0.04432221005001363,1.3660216764655924,0.32587435898661454,0.2886362,0.5727937894047106
0.0045000000000000005,1.7994937500000001,1.0,414.53387862593064,0.049682806808429895,1.3637995931837437,0.37584177095409,0.2886317375,0.5779651020387201
0.005,1.799375,1.0,504.7788789261709,0.05501333485079026,1.361744633167255,0.4228730737686607,0.28862675,0.5827194527254087
0.0055,1.79924375,1.0,596.1979234060824,0.060313962850316295,1.3598334261316045,0.4666040814045873,0.2886212375,0.587117045403033
0.006,1.7991000000000001,1.0,687.9261275396021,0.06558485851770669,1.3580483053150962,0.5069131496147559,0.2886152,0.5912034791485575
0.006500000000000001,1.79894375,1.0,779.2516708908873,0.07082618860655836,1.3563757356428894,0.5438424662444397,0.2886086375,0.595013823485298
0.007,1.798775,1.0,869.5901738166424,0.07603811903692943,1.3548048436056954,0.5775372895337073,0.28860155,0.5985762849296493
0.0075,1.79859375,1.0,958.45101715466,0.08122081453502086,1.3533267869238619,0.6082020520284885,0.2885939375,0.6019138445218748
0.008,1.7984,1.0,1045.4607219438042,0.08637443937684658,1.3519336176165273,0.6360695090537567,0.2885858,0.6050469668091325
0.0085,1.79819375,1.0,1130.29917627116,0.09149915640773425,1.350618750931144,0.6613810447956467,0.2885771375,0.6079926386973356
0.009000000000000001,1.797975,1.0,1212.722846201257,0.09659512760925766,1.3493762047008466,0.684373593508979,0.28856795,0.6107661594031637
0.0095,1.79774375,1.0,1292.5696943135006,0.10166251473981062,1.348200284218517,0.705272012771606,0.2885582375,0.6133818943563265
0.01,1.7975,1.0,1369.7043856673058,0.10670147788239717,1.3470861166170622,0.7242853944585746,0.288548,0.6158521289913491
0.0105,1.79724375,1.0,1444.0383541734836,0.11171217616256607,1.3460291832670215,0.741605090112332,0.2885372375,0.6181881515547132
0.011,1.796975,1.0,1515.525956780673,0.11669476808608564,1.3450252387677946,0.7574044080799949,0.28852595000000003,0.6204004611391147
0.0115,1.79669375,1.0,1584.1725562666768,0.1216494123694523,1.3440701121084204,0.7718391300587817,0.2885141375,0.6224992281686831
0.012,1.7964,1.0,1649.9654391438357,0.12657626497363078,1.3431604446094076,0.7850489331963675,0.28850180000000003,0.6244926953299543
0.0125,1.79609375,1.0,1712.919890524436,0.13147548138463067,1.3422930302348002,0.7971583943110147,0.2884889375,0.6263886525914484
0.013000000000000001,1.7957750000000001,1.0,1773.0830077841981,0.13634721679010128,1.34146471801014,0.808278368003531,0.28847555,0.6281946631194375
0.0135,1.79544375,1.0,1830.5201071924887,0.1411916260072503,1.3406725220197817,0.8185074381593157,0.2884616375,0.6299178339945196
0.014,1.7951000000000001,1.0,1885.2912630654237,0.14600886239587274,1.3399138329235691,0.8279333227782806,0.2884472,0.6315643692194131
0.0145,1.79474375,1.0,1937.4515487847277,0.15079907753581928,1.3391863610453276,0.8366340667416705,0.2884322375,0.6331397081659078
0.015,1.794375,1.0,1987.0769670514314,0.15556242300694048,1.3384878167088832,0.844679043490777,0.28841675,0.6346492281238951
0.0155,1.79399375,1.0,2034.246150890772,0.16029904931528902,1.3378160838158226,0.8521300266761449,0.2884007375,0.6360978747300419
0.016,1.7936,1.0,2079.0625750585436,0.16500910809884628,1.3371689614352036,0.859042005610195,0.2883842,0.6374907252701091
0.0165,1.7931937500000001,1.0,2121.5984019383186,0.1696927475198049,1.336544731834375,0.8654641579097642,0.2883671375,0.6388317712835733
0.017,1.792775,1.0,2161.9266208831164,0.17435011489961783,1.3359417950247647,0.8714404253987171,0.28834955,0.640124714143938
0.0175,1.7923437500000001,1.0,2200.131116712789,0.178981357559738,1.3353585510178,0.8770100985542405,0.2883314375,0.6413732214899286
0.018000000000000002,1.7919,1.0,2236.3002316525385,0.1835866221884738,1.3347934551649927,0.8822083776758436,0.2883128,0.6425808111565243
0.0185,1.79144375,1.0,2270.524590301707,0.18816605541654424,1.3342450290652954,0.8870668530275481,0.2882936375,0.6437508308199612
0.019,1.790975,1.0,2302.8884296519163,0.192719802790502,1.3337119362222767,0.8916139398247672,0.28827395,0.6448862998175355
0.0195,1.79049375,1.0,2333.4590401986843,0.19724800705617102,1.3331930742246245,0.8958752613224683,0.2882537375,0.645989717119719
0.02,1.79,1.0,2362.3093879360235,0.20175081095937533,1.332687340661026,0.8998739100531574,0.288233,0.6470635630226226
0.0205,1.78949375,1.0,2389.517642016993,0.2062283572459389,1.3321936331201691,0.9036307318537341,0.2882117375,0.6481103001097656
0.021,1.788975,1.0,2415.1566137165273,0.21068078707248397,1.3317109469387232,0.9071645954103237,0.28818995000000003,0.6491321673501773
0.021500000000000002,1.78844375,1.0,2439.3106143225236,0.21510824368091525,1.3312382066612434,0.910492574699205,0.2881676375,0.6501315384178681
0.022,1.7879,1.0,2462.046616209733,0.21951086709441414,1.3307745402384308,0.9136301967272694,0.2881448,0.6511103428892051
0.0225,1.78734375,1.0,2483.4213814184895,0.2238887951140813,1.330319203282721,0.9165915905580543,0.28812143749999997,0.6520702294090195
0.023,1.786775,1.0,2503.4943658918937,0.22824216554101717,1.329871451406549,0.9193896103170239,0.28809755,0.653012836565487
0.0235,1.78619375,1.0,2522.327494978789,0.2325711161763223,1.3294305402223507,0.9220359678752535,0.28807313749999996,0.6539397932678895
0.024,1.7856,1.0,2539.984951222109,0.23687578482109722,1.328995725342561,0.9245413501394616,0.2880482,0.6548527190890374
0.0245,1.78499375,1.0,2556.5211063099837,0.24115630589487844,1.3285663738460731,0.926915540857237,0.2880227375,0.6557529910001356
0.025,1.784375,1.0,2572.0057134594535,0.24541281960328892,1.3281417249445275,0.9291674737438101,0.28799675,0.656642246015402
0.025500000000000002,1.78374375,1.0,2586.483304571066,0.2496454587896282,1.327721269490923,0.9313053739898504,0.2879702375,0.6575215864899802
0.026000000000000002,1.7831000000000001,1.0,2599.998345590942,0.2538543558959849,1.3273045108539985,0.9333367902065999,0.2879432,0.6583920828272474
0.0265,1.78244375,1.0,2612.596459176433,0.2580396433644475,1.3268909524024926,0.9352686575004521,0.2879156375,0.6592547998641306
0.027,1.781775,1.0,2624.3243245654803,0.26220145363710473,1.326480097505144,0.9371073555631602,0.28788755,0.6601107969803305
0.0275,1.7810937500000001,1.0,2635.229582913925,0.26633991915604516,1.3260714495306918,0.9388587605542227,0.2878589375,0.6609611281918161
0.028,1.7804,1.0,2645.350646907123,0.27045516870157565,1.3256646051127412,0.9405283037493529,0.2878298,0.6618066485228391
0.0285,1.77969375,1.0,2654.7366990414844,0.27454733713007656,1.3252590682339631,0.9421209888159856,0.2878001375,0.6626484009297644
0.029,1.778975,1.0,2663.4276349442152,0.278616554878822,1.3248544349408642,0.9436414522848083,0.28776995,0.663487232459349
0.029500000000000002,1.7782437500000001,1.0,2671.454414960747,0.2826629484554382,1.3244503887422432,0.945093995375602,0.2877392375,0.664323804990457
0.03,1.7775,1.0,2678.848473910333,0.28668664436755154,1.3240466131468993,0.9464826027736463,0.287708,0.6651587771301779
0.0305,1.77674375,1.0,2685.64167846464,0.2906877691227884,1.3236427916636317,0.947810969939961,0.2876762375,0.6659928042224843
0.031,1.775975,1.0,2691.8662867466696,0.29466644922877505,1.3232386078012393,0.949082527742749,0.28764395,0.6668265383504994
0.0315,1.7751937500000001,1.0,2697.5549101501056,0.2986228111931378,1.3228337450685215,0.9503004647018369,0.2876111375,0.6676606283323753
0.032,1.7744,1.0,2702.7404773806397,0.3025569815235031,1.322427886974277,0.9514677471032531,0.2875778,0.6684957197107873
0.0325,1.77359375,1.0,2707.4489699398855,0.3064690814447402,1.322020783019402,0.9525871435366746,0.2875439375,0.6693323192078164
0.033,1.772775,1.0,2711.7128007586257,0.31035924154753575,1.321612126144839,0.9536612306669919,0.28750955,0.6701710469279214
0.0335,1.7719437500000002,1.0,2715.553245024104,0.31422758320207067,1.321201712822019,0.95469242171884,0.2874746375,0.6710123076537029
0.034,1.7711000000000001,1.0,2718.9907224750827,0.3180742268794227,1.320789348837436,0.9556829709670807,0.2874392,0.6718564849249165
0.0345,1.7702437500000001,1.0,2722.045800841707,0.3218992930506696,1.320374839977584,0.9566349853381622,0.2874032375,0.6727039601700809
0.035,1.7693750000000001,1.0,2724.739180354882,0.3257029021868892,1.3199579920289575,0.9575504357632697,0.28736675,0.6735551126811148
0.035500000000000004,1.76849375,1.0,2727.091679092386,0.32948517475915917,1.31953861077805,0.9584311675308793,0.2873297375,0.6744103195855672
0.036000000000000004,1.7676,1.0,2729.124219160718,0.3332462312385573,1.319116502011356,0.9592789097372985,0.2872922,0.6752699558164421
0.0365,1.76669375,1.0,2730.857869617813,0.3369861919104405,1.3186914710073512,0.9600952838295083,0.2872541375,0.6761343951121513
0.037,1.765775,1.0,2732.3118547872423,0.3407051751023775,1.3182633405211766,0.9608818129186062,0.28721555,0.6770039734703496
0.0375,1.76484375,1.0,2733.5004387962194,0.3444032980650387,1.317831978960209,0.9616399318598498,0.2871764375,0.6778789322392769
0.038,1.7639,1.0,2734.4376209432457,0.3480806772230985,1.3173972576164414,0.9623709894671629,0.28713679999999997,0.6787595052855941
0.0385,1.76294375,1.0,2735.137446324116,0.3517374290012309,1.3169590477818667,0.9630762545221007,0.28709663750000003,0.6796459248380496
0.039,1.761975,1.0,2735.615852388153,0.355373669393703,1.3165172039251969,0.9637569197473694,0.28705595,0.6805384554189264
0.0395,1.7609954797405518,1.0,2735.974258326334,0.3589895135123019,1.3160715859127372,0.9644141090532966,0.2870148101491032,0.6814373487838239
0.04,1.7600145557206155,1.0,2736.6562796498083,0.36258507546072766,1.3156223963771807,0.9650489124386676,0.28697361134026583,0.682342164876039
0.0405,1.759033631700679,1.0,2737.7067071947495,0.3661604691064192,1.3151698638501232,0.9656623600792341,0.28693241253142854,0.6832524136501748
0.041,1.7580527076807426,1.0,2739.0925814081447,0.3697158078128878,1.314714289319178,0.9662554303215077,0.2868912137225912,0.6841674620482292
0.0415,1.757071783660806,1.0,2740.7856188472474,0.3732512037590393,1.3142559316479185,0.9668290431881207,0.28685001491375384,0.6850867647452128
0.042,1.7560908596408698,1.0,2742.758816984846,0.3767667688394223,1.3137950382628019,0.9673840670219828,0.28680881610491654,0.6860098021736184
0.0425,1.7551099356209332,1.0,2744.9866757068417,0.38026261457532007,1.3133318430306575,0.9679213216942782,0.2867676172960792,0.6869360846397048
0.043000000000000003,1.7541290116009969,1.0,2747.447317366565,0.38373885130801016,1.3128665469616625,0.9684415800644551,0.2867264184872419,0.6878651906641768
0.043500000000000004,1.7531480875810603,1.0,2750.123578021986,0.38719558681549476,1.3123993083047807,0.9689455700273789,0.28668521967840455,0.6887967862585924
0.044,1.752167163561124,1.0,2752.995205317926,0.39063293073874705,1.311930313193534,0.969433983661142,0.2866440208695672,0.6897304837722698
0.0445,1.7511862395411875,1.0,2756.0330742793844,0.3940509988394942,1.3114598278322256,0.9699074841123952,0.28660282206072984,0.6906657386693891
0.045,1.7502053155212511,1.0,2759.2257396347577,0.39744989672089054,1.3109879581552555,0.9703666865341457,0.28656162325189255,0.6916023274312024
0.0455,1.7492243915013146,1.0,2762.561742408869,0.40082972998609073,1.310514810097024,0.9708121747646107,0.2865204244430552,0.6925400277755391
0.046,1.7482434674813783,1.0,2766.0296067966915,0.40419060423824915,1.3100404895919322,0.9712445032266582,0.2864792256342179,0.6934786186658004
0.0465,1.7472625434614417,1.0,2769.617837284756,0.40753262508052035,1.3095651025743797,0.9716641986945563,0.28643802682538055,0.6944178803192402
0.047,1.7462816194415054,1.0,2773.314916021937,0.41085589811605877,1.3090887549787675,0.9720717619384768,0.2863968280165432,0.6953575942145263
0.0475,1.7453006954215688,1.0,2777.1093004391037,0.4141605289480189,1.3086115527394957,0.9724676692562839,0.2863556292077059,0.6962975430985889
0.048,1.7443197714016325,1.0,2780.9894211168707,0.4174466231795552,1.3081336017909648,0.9728523739013215,0.28631443039886856,0.6972375109927523
0.0485,1.743338847381696,1.0,2784.9454539044737,0.4207142842758525,1.307654992103895,0.9732263060405921,0.2862732315900312,0.6981773145202563
0.049,1.7423579233617597,1.0,2788.970212639597,0.42396361499711976,1.3071757897006737,0.9735898737218809,0.2862320327811939,0.6991168183092076
0.0495,1.741376999341823,1.0,2793.052143430791,0.42719472425057037,1.306696099682569,0.9739434692231843,0.28619083397235656,0.7000558113504456
0.05,1.7403960753218868,1.0,2797.186480677402,0.4304077118587879,1.3062159659083055,0.974287461409172,0.2861496351635192,0.7009942035167204
0.0505,1.7394151513019502,1.0,2801.3684457346153,0.433602677644356,1.3057354322366088,0.97462220218606,0.2861084363546819,0.7019319052139477
0.051000000000000004,1.738434227282014,1.0,2805.593246502933,0.4367797214298582,1.305254542526204,0.9749480274337551,0.28606723754584457,0.7028688273823911
0.051500000000000004,1.7374533032620774,1.0,2809.856077061267,0.4399389430378781,1.3047733406358168,0.9752652578788069,0.28602603873700727,0.703804881497718
0.052000000000000005,1.736472379242141,1.0,2814.1521173414762,0.44308044229099935,1.304291870424172,0.9755741999124155,0.2859848399281699,0.7047399795719355
0.0525,1.7354914552222045,1.0,2818.4765328464923,0.4462043190118054,1.3038101757499947,0.9758751463574076,0.28594364111933257,0.7056740341542007
0.053,1.7345105312022682,1.0,2822.824474410623,0.44931067302288,1.3033283004720106,0.9761683771877745,0.2859024423104953,0.7066069583315103
0.0535,1.7335296071823316,1.0,2827.1928962157363,0.4523995982026258,1.3028462722101208,0.9764541586030829,0.2858612435016579,0.7075386970932187
0.054,1.7325486831623953,1.0,2831.5799152352433,0.45547118759377786,1.302364108123407,0.9767327446330574,0.28582004469282063,0.7084692159398491
0.0545,1.7315677591424588,1.0,2835.9766490896222,0.4585255591358121,1.301881887734668,0.9770043846637224,0.2857788458839833,0.7093983605157949
0.055,1.7305868351225224,1.0,2840.38162245267,0.46156280576648684,1.3013996243205843,0.9772693111316592,0.28573764707514593,0.7103261047812839
0.0555,1.7296059111025859,1.0,2844.7933553902535,0.46458302042356026,1.3009173311578357,0.9775277467444872,0.2856964482663086,0.7112524228598388
0.056,1.7286249870826496,1.0,2849.2103633492934,0.46758629604479063,1.3004350215231022,0.9777799049689526,0.2856552494574713,0.7121772890383071
0.0565,1.727644063062713,1.0,2853.6311571510296,0.47057272556793617,1.2999527086930642,0.9780259904906592,0.28561405064863393,0.7131006777668807
0.057,1.7266631390427767,1.0,2858.0542429883617,0.4735424019307551,1.2994704059444018,0.9782661996473134,0.28557285183979664,0.7140225636591047
0.0575,1.7256822150228401,1.0,2862.478122426526,0.4764954180710057,1.2989881265537948,0.978500720837209,0.2855316530309593,0.714942921491875
0.058,1.7247012910029038,1.0,2866.901292408254,0.4794318669264462,1.2985058837979235,0.9787297349045521,0.28549045422212194,0.7158617262054228
0.0585,1.7237203669829673,1.0,2871.3222452627,0.48235184143483484,1.2980236909534684,0.9789534155031229,0.28544925541328464,0.7167789529032895
0.059000000000000004,1.722739442963031,1.0,2875.7394687176784,0.48525543453392983,1.2975415612971088,0.9791719294396445,0.2854080566044473,0.7176945768522922
0.059500000000000004,1.7217585189430944,1.0,2880.1514459169803,0.4881427391614895,1.2970595081055256,0.9793854369981503,0.28536685779561,0.7186085734824719
0.06,1.720777594923158,1.0,2884.5566554402544,0.49101384825527195,1.2965775446553984,0.9795940922465386,0.28532565898677265,0.7195209183870381
0.0605,1.7197966709032215,1.0,2888.9535713281125,0.4938688547530355,1.2960956842234077,0.9797980433264228,0.2852844601779353,0.7204315873222961
0.061,1.7188157468832852,1.0,2893.343033669411,0.49670782490198057,1.2956139191577218,0.9799974295259037,0.28524326136909794,0.721340595663941
0.0615,1.7178348228633487,1.0,2897.722698597038,0.4995308757742852,1.2951322699186114,0.9801923903114348,0.28520206256026065,0.7222479057802549
0.062,1.7168538988434123,1.0,2902.0913152136773,0.5023381058214681,1.29465074727048,0.9803830579487008,0.2851608637514233,0.7231534985106751
0.0625,1.7158729748234758,1.0,2906.4486733343647,0.505129599814074,1.294169352779026,0.9805695582680641,0.285119664942586,0.7240573720840848
0.063,1.7148920508035395,1.0,2910.794562348932,0.5079054425226475,1.2936880880099464,0.9807520124630317,0.28507846613374865,0.7249595247482845
0.0635,1.713911126783603,1.0,2915.128771227227,0.510665718717733,1.2932069545289393,0.9809305372957869,0.2850372673249113,0.7258599547699762
0.064,1.7129302027636666,1.0,2919.4510885231734,0.5134105131698753,1.2927259539017026,0.981105245292149,0.284996068516074,0.7267586604347521
0.0645,1.71194927874373,1.0,2923.7613023793183,0.516139910649619,1.292245087693934,0.9812762449265728,0.28495486970723666,0.7276556400470817
0.065,1.7109683547237937,1.0,2928.0592005320145,0.5188539959275086,1.2917643574713311,0.9814436407977724,0.28491367089839936,0.7285508919302977
0.0655,1.7099874307038572,1.0,2932.3445703153334,0.5215528537740889,1.2912837647995918,0.9816075337955031,0.284872472089562,0.7294444144265818
0.066,1.7090065066839206,1.0,2936.6171986665604,0.5242365689599042,1.2908033112444137,0.9817680212590117,0.28483127328072466,0.7303362058969536
0.0665,1.7080255826639843,1.0,2940.8768721304186,0.5269052262554994,1.2903229983714948,0.9819251971276249,0.2847900744718873,0.7312262647212533
0.067,1.707044658644048,1.0,2945.123376864403,0.529558910431419,1.2898428277465326,0.9820791520839196,0.28474887566305,0.7321145892981309
0.0675,1.7060637346241114,1.0,2949.3564986431106,0.5321977062582077,1.289362800935225,0.982229973689892,0.28470767685421267,0.73300117804503
0.068,1.7050828106041749,1.0,2953.576022863955,0.5348216985064099,1.2888829195032694,0.9823777465165119,0.28466647804537537,0.7338860293981747
0.0685,1.7041018865842386,1.0,2957.78173455137,0.5374309719465704,1.288403185016364,0.9825225522670301,0.284625279236538,0.734769141812554
0.069,1.7031209625643022,1.0,2961.973418362598,0.5400256113492337,1.2879235990402063,0.9826644698943793,0.28458408042770067,0.7356505137619087
0.0695,1.7021400385443657,1.0,2966.150949580579,0.5426056920272511,1.2874441623471247,0.9828035750899524,0.2845428816188634,0.7365301451931117
0.07,1.7011591145244291,1.0,2970.314899986134,0.5451712444435205,1.2869648696397142,0.9829399380202738,0.284501682810026,0.7374080471704778
0.07050000000000001,1.7001781905044928,1.0,2974.464638141332,0.5477224339022317,1.2864857261134235,0.9830736352258935,0.28446048400118873,0.7382842115218894
0.07100000000000001,1.6991972664845563,1.0,2978.600247165018,0.5502593357765331,1.2860067307329335,0.9832047350100993,0.2844192851923514,0.7391586415033778
0.07150000000000001,1.69821634246462,1.0,2982.7218106534283,0.5527820254395728,1.285527882462925,0.9833333034670342,0.28437808638351403,0.740031340357902
