Time [s],Phi [rad],STIM [ ],Fsee [N],Gamma [ ],Lcerel [ ],q [ ],Lmtc [m],fisomrel [ ]
0.0,1.8,1.0,18.517576924820496,0.0007557742264108332,1.3792785460876766,0.005147080699371888,0.288653,0.5412875780536294
0.0005,1.79999375,1.0,19.053652122102935,0.006360744239517581,1.3792169865502424,0.015139925819509514,0.2886527375,0.5414364703818664
0.001,1.799975,1.0,22.94927230572092,0.01193427480240024,1.378804401267282,0.03960001376825484,0.28865195,0.5424337550399746
0.0015,1.79994375,1.0,33.64074602914874,0.017476542266242547,1.3778314747110154,0.07599608802589912,0.2886506375,0.5447811757579698
0.002,1.7999,1.0,58.59877807941398,0.022987721991575914,1.3760499740526988,0.12106190673144299,0.2886488,0.5490638297671064
0.0025,1.79984375,1.0,105.11223928138422,0.028467988356111782,1.3735576042984874,0.17144813684768537,0.28864643749999996,0.5550214166797663
0.003,1.7997750000000001,1.0,171.08076137518114,0.033917514760232595,1.3708412223302937,0.22435275674983496,0.28864354999999997,0.5614693489176457
0.0035,1.79969375,1.0,248.97069083003814,0.03933647362959213,1.3682410862684304,0.27763404176142475,0.2886401375,0.5675972652546122
0.004,1.7996,1.0,333.3883737459009,0.04472503642469498,1.3658432090975436,0.32970492083322184,0.2886362,0.5732102881288615
0.0045000000000000005,1.7994937500000001,1.0,421.5565446607979,0.050083373645489065,1.3636364828045568,0.3794726947744843,0.2886317375,0.5783434578237603
0.005,1.799375,1.0,511.89517660963725,0.05541165477249147,1.3615947446815364,0.42626670150595963,0.28862675,0.5830651805443064
0.0055,1.79924375,1.0,603.3666957480776,0.060710048589332745,1.3596944189367075,0.4697435254454286,0.2886212375,0.5874359852863023
0.006,1.7991000000000001,1.0,695.0771991501317,0.06597872251820355,1.3579191645538822,0.5097968568623412,0.2886152,0.591498315194678
0.006500000000000001,1.79894375,1.0,786.3412047083689,0.07121784334321418,1.3562554034726668,0.546478285653889,0.2886086375,0.5952872688027022
0.007,1.798775,1.0,876.5832596087628,0.07642757687198103,1.3546924534133213,0.5799388379795847,0.28860155,0.5988305596034402
0.0075,1.79859375,1.0,965.317684730748,0.08160808783508455,1.3532216457882902,0.6103860307340987,0.2885939375,0.6021507300593485
0.008,1.7984,1.0,1052.175057381596,0.08675954041784827,1.3518351619027236,0.6380538664029219,0.2885858,0.6052679172477178
0.0085,1.79819375,1.0,1136.835447957371,0.09188209726133402,1.350526558712185,0.6631838122798116,0.2885771375,0.60819876159883
0.009000000000000001,1.797975,1.0,1219.070460233721,0.09697592047289044,1.349289757700535,0.6860120356455982,0.28856795,0.610958753716523
0.0095,1.79774375,1.0,1298.7268065961725,0.10204117178369539,1.348119053330373,0.7067622830972841,0.2885582375,0.6135622599118777
0.01,1.7975,1.0,1375.6598419837037,0.10707801084748218,1.3470097826752472,0.7256424576410044,0.288548,0.6160210801265233
0.0105,1.79724375,1.0,1449.7864437768314,0.11208659700104805,1.3459574220157708,0.7428425419512564,0.2885372375,0.6183464992098273
0.011,1.796975,1.0,1521.0754827820524,0.11706708899096932,1.3449576048491176,0.7585344433513904,0.28852595000000003,0.6205492693136481
0.0115,1.79669375,1.0,1589.5172554608814,0.12201964483360976,1.3440063968338947,0.7728727827238419,0.2885141375,0.6226390272237277
0.012,1.7964,1.0,1655.097975693364,0.12694442045084167,1.3431004869516048,0.7859960718787551,0.28850180000000003,0.6246239025942975
0.0125,1.79609375,1.0,1717.8445973524772,0.13184157176453742,1.3422365641837508,0.7980277617814486,0.2884889375,0.6265119073204765
0.013000000000000001,1.7957750000000001,1.0,1777.8031006228885,0.13671125356798797,1.3414115213163864,0.8090777537034176,0.28847555,0.6283105009962712
0.0135,1.79544375,1.0,1835.0502582804522,0.14155362137648156,1.3406222710595357,0.8192437249156869,0.2884616375,0.6300270040122583
0.014,1.7951000000000001,1.0,1889.6260845570234,0.14636882719335897,1.3398664502085795,0.8286127137324953,0.2884472,0.63166707915376
0.0145,1.79474375,1.0,1941.592819046874,0.1511570229665706,1.3391417056808894,0.8372620521804753,0.2884322375,0.6332362993235235
0.015,1.794375,1.0,1991.032532093825,0.1559183605326809,1.3384456982382453,0.8452604892277857,0.28841675,0.6347401445919215
0.0155,1.79399375,1.0,2038.0294062790329,0.16065299048735884,1.337776268560666,0.8526692498618575,0.2884007375,0.6361836492258701
0.016,1.7936,1.0,2082.68213380574,0.16536106421599442,1.3371312806166318,0.8595428739482883,0.2883842,0.6375717462684627
0.0165,1.7931937500000001,1.0,2125.0552875868584,0.17004272929355013,1.336509106085487,0.86593014896501,0.2883671375,0.6389082318926864
0.017,1.792775,1.0,2165.225374180095,0.1746981332949885,1.3359081166465758,0.8718746386262419,0.28834955,0.640196865978796
0.0175,1.7923437500000001,1.0,2203.2798357603174,0.179327423795272,1.3353266839792424,0.8774153000451558,0.2883314375,0.641441374398869
0.018000000000000002,1.7919,1.0,2239.2857812822754,0.18393074692240524,1.3347634841299763,0.8825871060215663,0.2883128,0.6426448013174717
0.0185,1.79144375,1.0,2273.381906795897,0.18850825052408987,1.334216561780083,0.8874212635026573,0.2882936375,0.6438115109435587
0.019,1.7909762952535422,1.0,2305.6808198561266,0.19306007860543722,1.3336848966108186,0.8919460489092581,0.28827400440064876,0.6449438449420515
0.0195,1.7905069857138531,1.0,2336.6450031980094,0.1975863740664699,1.3331677418756938,0.8961869720290195,0.2882542933999818,0.6460435451959539
0.02,1.7900376761741643,1.0,2366.405597016466,0.20208727980721042,1.3326643508282188,0.900167022787217,0.2882345823993149,0.6471123395664534
0.0205,1.7895683666344755,1.0,2395.0128748670563,0.2065629387276814,1.3321739767219039,0.9039069539892505,0.288214871398648,0.6481519425661865
0.021,1.7890990570947864,1.0,2422.5147897136853,0.211013492915847,1.3316959242927413,0.9074255401237499,0.28819516039798104,0.6491639470905104
0.021500000000000002,1.7886297475550976,1.0,2448.9508180306593,0.21543908368271408,1.3312296054293444,0.9107398055324917,0.2881754493973141,0.650149708185972
0.022,1.7881604380154088,1.0,2474.358854609821,0.21983985031429393,1.330774468828192,0.9138651972957202,0.28815573839664715,0.6511104935313377
0.0225,1.7876911284757198,1.0,2498.7780002908157,0.2242159317526835,1.330329971191496,0.916815748939997,0.2881360273959802,0.6520475450657699
0.023,1.787221818936031,1.0,2522.241530011912,0.2285674640286654,1.329895642271948,0.9196042404178087,0.2881163163953133,0.6529619426338615
0.0235,1.7867525093963421,1.0,2544.796271629379,0.23289458777424193,1.3294708996482116,0.922242297838043,0.2880966053946464,0.6538549945312438
0.024,1.786283199856653,1.0,2566.4903859805704,0.23719744415266292,1.3290551646759297,0.9247405313055168,0.28807689439397943,0.6547279929850026
0.0245,1.7858138903169642,1.0,2587.352566448445,0.24147616662426902,1.3286480554826758,0.927108667472492,0.2880571833933125,0.6555818100365307
0.025,1.7853445807772754,1.0,2607.4126771944125,0.24573088864940099,1.328249190196024,0.9293556070190058,0.28803747239264554,0.6564173122948165
0.025500000000000002,1.7848752712375864,1.0,2626.7016817429926,0.24996174368839952,1.3278581869435482,0.9314895060720483,0.28801776139197866,0.6572353611418668
0.026000000000000002,1.7844059616978976,1.0,2645.251574799573,0.2541688652016053,1.327474663852822,0.9335178486080805,0.2879980503913117,0.6580368129288303
0.0265,1.7839366521582087,1.0,2663.0953173022253,0.2583523866493591,1.3270982390514194,0.9354475109324344,0.28797833939064477,0.6588225191628204
0.027,1.7834673426185197,1.0,2680.2667747054666,0.2625124414920016,1.3267285306669145,0.9372848191870908,0.2879586283899778,0.6595933266844358
0.0275,1.7829980330788309,1.0,2696.7953639618067,0.2666491604215357,1.3263652052431278,0.939035606834937,0.2879389173893109,0.6603499770618975
0.028,1.782528723539142,1.0,2712.711085119595,0.27076267556424777,1.3260079306482793,0.9407052547173771,0.287919206388644,0.66109320521182
0.0285,1.782059413999453,1.0,2728.048674616515,0.2748531216787861,1.3256563378765733,0.9422987271158073,0.287899495387977,0.6618238188801631
0.029,1.7815901044597642,1.0,2742.828895797121,0.2789206255274706,1.3253101908011726,0.9438206288862745,0.2878797843873101,0.6625423461763542
0.029500000000000002,1.7811207949200754,1.0,2757.0729961159054,0.2829653138726213,1.3249692532952397,0.9452752217654157,0.28786007338664316,0.6632493125406069
0.03,1.7806514853803863,1.0,2770.802679246528,0.28698731347655804,1.3246332892319372,0.9466664543397291,0.2878403623859762,0.6639452408241499
0.0305,1.7801821758406975,1.0,2784.0400784257563,0.2909867511016009,1.3243020624844277,0.9479979890414464,0.2878206513853093,0.6646306513659004
0.031,1.7797128663010087,1.0,2796.807731034248,0.2949637535100697,1.3239753369258735,0.9492732264983773,0.2878009403846424,0.6653060620655826
0.0315,1.7792435567613196,1.0,2809.1285544136394,0.2989184474642845,1.3236528764294377,0.9504953275258238,0.28778122938397543,0.665971988453288
0.032,1.7787742472216308,1.0,2821.0243957162884,0.3028509585340165,1.3233344576288408,0.9516672342034418,0.2877615183833085,0.6666289174421662
0.0325,1.778304937681942,1.0,2832.5093621392675,0.3067614067664282,1.3230199291080826,0.9527916935421479,0.28774180738264155,0.6672771855835755
0.033,1.777835628142253,1.0,2843.614141717806,0.3106499270410268,1.322708993939337,0.9538712536370193,0.2877220963819746,0.6679174273936892
0.0335,1.777366318602564,1.0,2854.3522043018247,0.3145166392826691,1.3224015113643712,0.9549083058244761,0.28770238538130766,0.6685499536669937
0.034,1.7768970090628753,1.0,2864.7372204891976,0.31836166341621197,1.3220973406249519,0.9559050834948861,0.28768267438064077,0.6691750738594826
0.0345,1.7764276995231862,1.0,2874.7830510698222,0.32218511936651223,1.3217963409628455,0.9568636743962147,0.2876629633799738,0.6697930961190182
0.035,1.7759583899834974,1.0,2884.5037369102174,0.3259871270584268,1.3214983716198192,0.957786031841946,0.2876432523793069,0.670404327314428
0.035500000000000004,1.7754890804438086,1.0,2893.913489276622,0.32976780641681247,1.3212032918376395,0.9586739849323296,0.28762354137864,0.6710090730633425
0.036000000000000004,1.7750197709041196,1.0,2903.026680597183,0.3335272773665261,1.3209109608580734,0.9595292478860948,0.287603830377973,0.6716076377587632
0.0365,1.7745504613644307,1.0,2911.857835664527,0.33726565983242446,1.3206212379228872,0.9603534285692552,0.2875841193773061,0.672200324594373
0.037,1.774081151824742,1.0,2920.4216232759345,0.34098307373936454,1.3203339822738485,0.9611480362983518,0.28756440837663916,0.672787435588577
0.0375,1.7736118422850529,1.0,2928.724145726572,0.3446796275732798,1.3200491295180565,0.9619144939688582,0.2875446973759722,0.6733691157357599
0.038,1.773142532745364,1.0,2936.786527437087,0.34835545308197297,1.3197664843315287,0.9626541316829124,0.28752498637530527,0.67394577646127
0.0385,1.7726732232056752,1.0,2944.619113713415,0.3520106662040193,1.3194859470944176,0.9633682065984256,0.2875052753746383,0.6745176326823439
0.039,1.7722039136659862,1.0,2952.2300040267014,0.3556453795679923,1.3192074386117911,0.9640579036134185,0.28748556437397144,0.6750848569352667
0.0395,1.7717346041262974,1.0,2959.6273727006046,0.35925970580246563,1.3189308796887167,0.9647243391646664,0.2874658533733045,0.6756476211128231
0.04,1.7712652945866085,1.0,2966.8194654188364,0.3628537575360129,1.3186561911302621,0.9653685659169657,0.28744614237263755,0.6762060964743427
0.0405,1.7707959850469195,1.0,2973.8145958712057,0.3664276473972077,1.3183832937414948,0.9659915770833083,0.2874264313719706,0.6767604536553478
0.041,1.7703266755072307,1.0,2980.6211425392294,0.36998148801462355,1.3181121083274825,0.9665943104086009,0.28740672037130366,0.6773108626767986
0.0415,1.7698573659675418,1.0,2987.2475456205348,0.3735153920168341,1.3178425556932927,0.9671776518463894,0.28738700937063677,0.6778574929539418
0.042,1.7693880564278528,1.0,2993.7023040923054,0.3770294720324129,1.3175745566439931,0.967742438955188,0.2873672983699698,0.678400513304755
0.0425,1.768918746888164,1.0,2999.9939729140015,0.38052384068993356,1.3173080319846513,0.9682894640384679,0.2873475873693029,0.678940091957996
0.043000000000000003,1.7684494373484752,1.0,3006.130530876579,0.3839986090103768,1.317042907972561,0.9688194772349074,0.28732787636863594,0.6794763855366781
0.043500000000000004,1.767980127808786,1.0,3012.1133471108683,0.3874538730875895,1.3167791684742998,0.9693331912820429,0.287308165367969,0.6800094337395766
0.044,1.7675108182690973,1.0,3017.9581735260067,0.39088976759112465,1.3165166732021154,0.9698312778045636,0.2872884543673021,0.6805395267380908
0.0445,1.7670415087294085,1.0,3023.66940014283,0.3943063972681798,1.3162553806302657,0.9703143767422947,0.28726874336663516,0.6810667545357327
0.045,1.7665721991897194,1.0,3029.2514450021226,0.3977038668659525,1.3159952492330085,0.9707830952688029,0.2872490323659682,0.6815912068308956
0.0455,1.7661028896500306,1.0,3034.7087530759036,0.4010822811316402,1.3157362374846013,0.9712380097878157,0.28722932136530127,0.6821129730199855
0.046,1.7656335801103418,1.0,3040.045795217531,0.40444174481244044,1.315478303859302,0.9716796677893768,0.2872096103646343,0.6826321422004397
0.0465,1.7651642705706527,1.0,3045.267067150318,0.4077823626555508,1.3152214068313683,0.9721085895768459,0.28718989936396744,0.6831488031736384
0.047,1.764694961030964,1.0,3050.3770884933047,0.41110423940816876,1.3149655048750584,0.9725252698748827,0.2871701883633005,0.6836630444477028
0.0475,1.764225651491275,1.0,3055.3804018267892,0.4144074798174919,1.3147105564646293,0.9729301793276627,0.28715047736263355,0.6841749542401894
0.048,1.763756341951586,1.0,3060.281571794807,0.41769218863071766,1.3144565200743394,0.9733237658957898,0.2871307663619666,0.684684620480665
0.0485,1.7632870324118972,1.0,3065.0851842465363,0.42095847059504365,1.3142033541784461,0.9737064561596313,0.28711105536129966,0.6851921308131823
0.049,1.7628177228722084,1.0,3069.7958454157297,0.4242064304576673,1.3139510172512074,0.9740786565361531,0.28709134436063277,0.6856975725986354
0.0495,1.7623484133325193,1.0,3074.4181811379926,0.4274361729657863,1.3136994677668807,0.9744407544157457,0.2870716333599658,0.6862010329170145
0.05,1.7618791037928305,1.0,3078.954073870971,0.4306477891606886,1.3134486878396718,0.9747931192112238,0.2870519223592989,0.6867025513124616
0.0505,1.7614097942531415,1.0,3083.4072160388664,0.4338413836199671,1.313198644191693,0.9751361039274379,0.28703221135863194,0.6872021979479761
0.051000000000000004,1.7609404847134527,1.0,3087.7848501529465,0.43701707893532576,1.3129492733337889,0.9754700455434899,0.287012500357965,0.6877001030607575
0.051500000000000004,1.7604711751737638,1.0,3092.0891604941,0.4401749712999131,1.312700555181787,0.9757952656892337,0.2869927893572981,0.6881963099139101
0.052000000000000005,1.7600018656340748,1.0,3096.32234078554,0.4433151569068779,1.3124524696515152,0.9761120716510452,0.2869730783566311,0.6886908616347863
0.0525,1.759532556094386,1.0,3100.4865939071606,0.4464377319493686,1.312204996658801,0.9764207571359527,0.2869533673559642,0.6891838012158102
0.053,1.7590632465546971,1.0,3104.5841316175647,0.449542792620534,1.3119581161194716,0.9767216029886772,0.2869336563552973,0.6896751715152752
0.0535,1.758593937015008,1.0,3108.61717428616,0.4526304351135227,1.311711807949355,0.9770148778648645,0.28691394535463033,0.6901650152581136
0.054,1.7581246274753193,1.0,3112.5879506340625,0.4557007556214834,1.3114660520642785,0.9773008388635384,0.28689423435396344,0.6906533750366459
0.0545,1.7576553179356305,1.0,3116.498697482918,0.4587538503375646,1.31122082838007,0.9775797321215707,0.2868745233532965,0.691140293311298
0.055,1.7571860083959416,1.0,3120.351659514428,0.46178981545491504,1.3109761168125567,0.9778517933727461,0.28685481235262955,0.6916258124112982
0.0555,1.7567166988562526,1.0,3124.149089037097,0.46480874716668336,1.3107318972775663,0.9781172484738161,0.2868351013519626,0.6921099745353443
0.056,1.7562473893165638,1.0,3127.8932457629426,0.4678107416660182,1.3104881496909264,0.9783763138997406,0.28681539035129566,0.6925928217522477
0.0565,1.7557780797768747,1.0,3131.5863965927942,0.4707958951460682,1.3102448539684648,0.9786291972101683,0.2867956793506287,0.6930743960015496
0.057,1.755308770237186,1.0,3135.230815410715,0.4737643037999819,1.3100019900260087,0.9788760974890427,0.2867759683499618,0.6935547390941148
0.0575,1.754839460697497,1.0,3138.8287828872944,0.47671606382090814,1.3097595377793858,0.9791172057590913,0.2867562573492949,0.6940338927126953
0.058,1.754370151157808,1.0,3142.3811676243317,0.47965125533794284,1.309517489162595,0.9793527046714801,0.28673654634862794,0.69451187468904
0.0585,1.7539008416181192,1.0,3145.8878083433406,0.4825699526164897,1.3092758448568858,0.9795827696216695,0.286716835347961,0.6949886855486592
0.059000000000000004,1.7534315320784304,1.0,3149.3547098456306,0.4854723015676128,1.309034553373359,0.9798075721877509,0.2866971243472941,0.6954644286394406
0.059500000000000004,1.7529622225387413,1.0,3152.782833805271,0.48835838880323446,1.308793605996246,0.9800272746189908,0.2866774133466271,0.6959391227545766
0.06,1.7524929129990525,1.0,3156.1731449393665,0.491228300935277,1.3085529940097795,0.9802420328803513,0.2866577023459602,0.6964127866313806
0.0605,1.7520236034593637,1.0,3159.5266109416966,0.49408212457566286,1.3083127086981916,0.9804519969443591,0.2866379913452933,0.6968854389514798
0.061,1.7515542939196747,1.0,3162.844202419595,0.49691994633631437,1.3080727413457143,0.9806573110672518,0.28661828034462633,0.6973570983409969
0.0615,1.7510849843799858,1.0,3166.126892830957,0.49974185282915384,1.3078330832365799,0.9808581140503692,0.2865985693439594,0.6978277833707298
0.062,1.750615674840297,1.0,3169.375658423991,0.5025479306661036,1.3075937256550205,0.9810545394876734,0.28657885834329244,0.6982975125563264
0.0625,1.750146365300608,1.0,3172.5914781784113,0.5053382664590862,1.3073546598852681,0.9812467160002438,0.28655914734262555,0.698766304358454
0.063,1.7496770557609191,1.0,3175.775333747672,0.5081129468200237,1.307115877211555,0.9814347674585159,0.2865394363419586,0.6992341771829627
0.0635,1.7492077462212303,1.0,3178.9282094040923,0.5108720583608387,1.3068773689181135,0.9816188131929955,0.28651972534129166,0.6997011493810463
0.064,1.7487384366815413,1.0,3182.051091984497,0.5136156876934534,1.3066391262891754,0.9817989681941257,0.2865000143406247,0.7001672392493977
0.0645,1.7482691271418525,1.0,3185.1449708383207,0.5163439214297904,1.3064011406089733,0.9819753433019398,0.2864803033399578,0.7006324650303577
0.065,1.7477998176021636,1.0,3188.210837777007,0.5190568461817717,1.3061634031617388,0.9821480453860915,0.2864605923392909,0.7010968449120618
0.0655,1.7473305080624746,1.0,3191.2496870249456,0.5217545485613199,1.3059259052317047,0.9823171775168212,0.28644088133862394,0.701560397028578
0.066,1.7468611985227858,1.0,3194.262515173024,0.5244371151803573,1.3056886381031025,0.9824828391273714,0.286421170337957,0.702023139460046
0.0665,1.746391888983097,1.0,3197.2503211324,0.5271046326508062,1.305451593060165,0.9826451261683389,0.28640145933729005,0.7024850902328044
0.067,1.745922579443408,1.0,3200.214106091245,0.5297571875845889,1.3052147613871237,0.9828041312544196,0.2863817483366231,0.702946267319519
0.0675,1.745453269903719,1.0,3203.1548734725943,0.532394866593628,1.3049781343682114,0.9829599438039706,0.2863620373359562,0.7034066886393022
0.068,1.7449839603640303,1.0,3206.0736288937114,0.5350177562898456,1.3047417032876598,0.9831126501717885,0.2863423263352893,0.7038663720578313
0.0685,1.7445146508243412,1.0,3208.9691145253787,0.5376258874525535,1.3045054784224668,0.9832623312067561,0.28632261533462233,0.7043252985035224
0.069,1.7440453412846524,1.0,3211.844030978723,0.5402194053427523,1.3042694368642278,0.9834090705341383,0.2863029043339554,0.704783513362008
0.0695,1.7435760317449636,1.0,3214.699113571629,0.5427983958181543,1.304033572208133,0.9835529460927568,0.28628319333328844,0.7052410298799807
0.07,1.7431067222052745,1.0,3217.5347739396157,0.5453629358354275,1.3037978807723802,0.9836940328233372,0.28626348233262155,0.7056978559891922
