Time [s],Phi [rad],STIM [ ],Fsee [N],Gamma [ ],Lcerel [ ],q [ ],Lmtc [m],fisomrel [ ]
0.0,1.8,1.0,20.219139525779582,0.0015337285988796735,1.3790948949053123,0.005601785565912634,0.288653,0.5417316985227366
0.0005,1.79999375,1.0,20.94952814655158,0.007134334903040707,1.3790156201123391,0.017705082912870634,0.2886527375,0.541923340914729
0.001,1.799975,1.0,25.436400566307718,0.01270352623423391,1.3785641942205629,0.043982268953715445,0.28865195,0.5430138738971173
0.0015,1.79994375,1.0,37.57119856956691,0.01824147880553325,1.3775185541677362,0.0817760071928504,0.2886506375,0.5455348892190754
0.002,1.7999,1.0,65.24270842463953,0.0237483678417781,1.3756488757866925,0.12776758462110288,0.2886488,0.5500252618628638
0.0025,1.79984375,1.0,114.76168131508379,0.029224367584758375,1.3731204624852156,0.1786548759935011,0.28864643749999996,0.5560622464120499
0.003,1.7997750000000001,1.0,182.71515326395007,0.034669651298929224,1.3704257631247234,0.23172915213752496,0.28864354999999997,0.5624513839715124
0.0035,1.79969375,1.0,261.6281866819613,0.0400843912765631,1.3678648647691722,0.28492925779876055,0.2886401375,0.5684803611873681
0.004,1.7996,1.0,346.5735026850311,0.04546875884256661,1.365503611280046,0.3367392412272317,0.2886362,0.5740022644810109
0.0045000000000000005,1.7994937500000001,1.0,435.0218636006857,0.05082292436878433,1.3633274896377874,0.3861297195241128,0.2886317375,0.579059742581325
0.005,1.799375,1.0,525.505162372381,0.056147057262392566,1.3613109552629445,0.4324809848449403,0.28862675,0.5837193673691916
0.0055,1.79924375,1.0,616.9777855868388,0.06144132597773822,1.3594327447944565,0.47548816621161555,0.2886212375,0.5880360394436324
0.006,1.7991000000000001,1.0,708.6080770467628,0.06670589800244428,1.3576766160929612,0.5150706222267889,0.2886152,0.5920517802942873
0.006500000000000001,1.79894375,1.0,799.7222727100863,0.07194094000822351,1.3560297527465273,0.5512969406077785,0.2886086375,0.5957997932373937
0.007,1.798775,1.0,889.7360950435035,0.07714661743522577,1.354482274008148,0.5843284473684632,0.28860155,0.5993058591008047
0.0075,1.79859375,1.0,978.20861315922,0.08232309530988406,1.3530252673732042,0.6143775658858335,0.2885939375,0.6025929865946356
0.008,1.7984,1.0,1064.7526313241087,0.08747053715959129,1.3516515722671452,0.6416805773585532,0.2885858,0.6056797567667245
0.0085,1.79819375,1.0,1149.0682028682,0.09258910575609271,1.3503547286115531,0.6664787624388716,0.2885771375,0.6085827938122608
0.009000000000000001,1.797975,1.0,1230.9500198082123,0.09767896353325344,1.3491285747376836,0.6890068346873514,0.28856795,0.611317724176128
0.0095,1.79774375,1.0,1310.219797035139,0.1027402711618375,1.34796793961641,0.7094867353799419,0.2885582375,0.6138976817573677
0.01,1.7975,1.0,1386.7539182811688,0.10777318865316327,1.3468680238728765,0.7281238583271553,0.288548,0.616334738566727
0.0105,1.79724375,1.0,1460.490180556707,0.11277787548484054,1.3458241707339755,0.7451056011920957,0.2885372375,0.6186404430362186
0.011,1.796975,1.0,1531.3915645403572,0.11775449036075632,1.3448322063671156,0.7606015050428288,0.28852595000000003,0.6208250939157748
0.0115,1.79669375,1.0,1599.4265424220205,0.1227031900711783,1.3438885489271917,0.7747640138606073,0.2885141375,0.6228975316222911
0.012,1.7964,1.0,1664.6055864456991,0.12762413112326948,1.3429896653143416,0.7877293692923416,0.28850180000000003,0.6248663567842982
0.0125,1.79609375,1.0,1726.970887097061,0.13251746977679613,1.3421321368890275,0.7996190119916595,0.2884889375,0.626739798812971
0.013000000000000001,1.7957750000000001,1.0,1786.5698216291933,0.1373833614504988,1.3413129051031327,0.8105411002891806,0.28847555,0.6285251939096299
0.0135,1.79544375,1.0,1843.438369225557,0.14222195901739104,1.340529388940416,0.8205919228539353,0.2884616375,0.630228747665392
0.014,1.7951000000000001,1.0,1897.638886371612,0.1470334153504866,1.3397790073846356,0.8298570142731121,0.2884472,0.6318565884589022
0.0145,1.79474375,1.0,1949.2507994500072,0.15181788280214592,1.3390592548666447,0.8384124007439391,0.2884322375,0.6334146099785577
0.015,1.794375,1.0,1998.3609426010805,0.1565755136089734,1.3383677764498911,0.8463257264051411,0.28841675,0.634908315881239
0.0155,1.79399375,1.0,2045.0514632870718,0.16130645885946576,1.3377024657508514,0.853657264164498,0.2884007375,0.6363426167914383
0.016,1.7936,1.0,2089.386905857536,0.16601086699128173,1.337061568095337,0.8604608121338041,0.2883842,0.637721617707629
0.0165,1.7931937500000001,1.0,2131.4452710700543,0.17068888644207997,1.336443328809159,0.8667843517346371,0.2883671375,0.6390493829713395
0.017,1.792775,1.0,2171.3168808439777,0.17534066564951917,1.3358459932181288,0.8726707369226567,0.28834955,0.6403299389009203
0.0175,1.7923437500000001,1.0,2209.083780047394,0.17996635141354872,1.3352680039857003,0.8781583529090097,0.2883314375,0.6415668542839428
0.018000000000000002,1.7919,1.0,2244.850086258789,0.18456609233469318,1.3347076790155,0.8832815544654952,0.2883128,0.6427639336991616
0.0185,1.79144375,1.0,2278.685449134358,0.18914003271128915,1.3341637702621032,0.888071276471436,0.2882936375,0.6439240262889552
0.019,1.790975,1.0,2310.6612419297344,0.1936883163261388,1.3336350828181633,0.8925553310752826,0.28827395,0.6450498453855781
0.0195,1.79049375,1.0,2340.8552069701705,0.19821108696204429,1.3331204217763322,0.8967587519187107,0.2882537375,0.6461440835317557
0.02,1.79,1.0,2369.350693816332,0.20270848836358604,1.3326185944228943,0.9007041092050843,0.288233,0.647209408941767
0.0205,1.78949375,1.0,2396.2203750853905,0.20718066201951904,1.3321285632490791,0.9044118183200108,0.2882117375,0.6482481424556839
0.021,1.788975,1.0,2421.5526366983,0.2116277524016014,1.331649182642713,0.9079003229971013,0.28818995000000003,0.6492628177691977
0.021500000000000002,1.78844375,1.0,2445.406550999404,0.2160498984574677,1.3311796301912289,0.9111863969276205,0.2881676375,0.6502552695994926
0.022,1.7879,1.0,2467.844515638977,0.22044723913475253,1.330719083482059,0.9142852585975982,0.2881448,0.6512273208571011
0.0225,1.78734375,1.0,2488.931978928889,0.22481991338109059,1.3302667201026364,0.9172107369902471,0.28812143749999997,0.6521807831398179
0.023,1.786775,1.0,2508.737180193964,0.22916806014411645,1.329821717640393,0.9199754176981835,0.28809755,0.6531174571834849
0.0235,1.78619375,1.0,2527.319753577719,0.23349181556518533,1.3293833590223754,0.9225907900095927,0.28807313749999996,0.654038911987044
0.024,1.7856,1.0,2544.7482520224817,0.23779132060562513,1.3289508635785756,0.9250673321398084,0.2880482,0.6549468410424405
0.0245,1.78499375,1.0,2561.0734797238847,0.24206671031698632,1.3285236365188462,0.9274146517211755,0.2880227375,0.6558425390575033
0.025,1.784375,1.0,2576.3434201055725,0.246318118350518,1.328101124704894,0.929641549191883,0.28799675,0.6567272065286469
0.025500000000000002,1.78374375,1.0,2590.6074985054474,0.2505456783574693,1.3276827749984257,0.9317560907076357,0.2879702375,0.6576020375297549
0.026000000000000002,1.7831000000000001,1.0,2603.916458508351,0.25474952398908934,1.327268034261148,0.9337656793679486,0.2879432,0.6584682198687629
0.0265,1.78244375,1.0,2616.322245062163,0.2589297888966272,1.3268563493547683,0.9356771186641731,0.2879156375,0.6593269352247249
0.027,1.781775,1.0,2627.867274415047,0.2630866039622779,1.3264472655213144,0.9374966830414942,0.28788755,0.6601791544440576
0.0275,1.7810937500000001,1.0,2638.5996665014463,0.2672201033557639,1.3260402836044505,0.9392301478701152,0.2878589375,0.6610259358007956
0.028,1.7804,1.0,2648.5710816072856,0.271330420748282,1.3256348796834376,0.9408828367197885,0.2878298,0.6618683837166872
0.0285,1.77969375,1.0,2657.8141044621557,0.2754176837926477,1.3252307128481744,0.9424596900180194,0.2878001375,0.662707217539121
0.029,1.778975,1.0,2666.36190314502,0.27948202014167667,1.3248274421885597,0.9439652754639545,0.28776995,0.6635431530651719
0.029500000000000002,1.7782437500000001,1.0,2674.248178352767,0.2835235574481844,1.3244247267944922,0.9454038209495693,0.2877392375,0.6643769025647931
0.03,1.7775,1.0,2681.5071152462506,0.2875424233649865,1.3240222257558705,0.946779244180522,0.287708,0.6652091747965935
0.0305,1.77674375,1.0,2688.1733378726703,0.29153874554489856,1.3236195981625936,0.9480951793634195,0.2876762375,0.6660406750162037
0.031,1.775975,1.0,2694.281866165105,0.29551265164073615,1.3232165031045597,0.9493550012819064,0.28764395,0.6668721049772326
0.0315,1.7751937500000001,1.0,2699.8605411584317,0.2994642649833583,1.3228126685309933,0.9505618542414637,0.2876111375,0.6677040211603924
0.032,1.7744,1.0,2704.9443283855476,0.30339371582288666,1.3224077599796917,0.9517186584936501,0.2875778,0.6685371055640226
0.0325,1.77359375,1.0,2709.559188765133,0.30730112832403034,1.3220015277263644,0.9528281422485418,0.2875439375,0.669371862697345
0.033,1.772775,1.0,2713.7273523153426,0.3111866240321563,1.3215937580851858,0.9538928523917802,0.28750955,0.6702087205377776
0.0335,1.7719437500000002,1.0,2717.4712373190478,0.31505032449263143,1.32118423737033,0.9549151655117772,0.2874746375,0.6710481047985954
0.034,1.7711000000000001,1.0,2720.8134313678947,0.31889235125082266,1.3207727518959713,0.9558973013101981,0.2874392,0.671890438906523
0.0345,1.7702437500000001,1.0,2723.776673419854,0.322712825852097,1.3203590879762839,0.9568413348057202,0.2874032375,0.6727361439764146
0.035,1.7693750000000001,1.0,2726.3838368680513,0.3265118698418213,1.3199430319254422,0.9577492074523198,0.28736675,0.6735856387830215
0.035500000000000004,1.76849375,1.0,2728.657913623292,0.33028960476536245,1.3195243700576198,0.9586227372799874,0.2873297375,0.6744393397298509
0.036000000000000004,1.7676,1.0,2730.6180009609275,0.3340461494820266,1.3191029250220878,0.9594636312729571,0.2872922,0.6752975868697315
0.0365,1.76669375,1.0,2732.2825744174556,0.33778162462245354,1.3186785258872422,0.9602734915535199,0.2872541375,0.6761607051605047
0.037,1.765775,1.0,2733.667764579253,0.34149614698199576,1.3182510236847929,0.9610538233409445,0.28721555,0.677028972970604
0.0375,1.76484375,1.0,2734.7897068018206,0.34518983328807606,1.317820269960121,0.9618060407024643,0.2871764375,0.6779026658242215
0.038,1.7639,1.0,2735.6645895896186,0.3488628002681173,1.3173861162586074,0.9625314730448753,0.28713679999999997,0.6787820574179777
0.0385,1.76294375,1.0,2736.3086469620034,0.3525151646495423,1.3169484141256333,0.9632313711074011,0.28709663750000003,0.6796674195894326
0.039,1.761975,1.0,2736.7266997718166,0.35614702709510077,1.3165071190590796,0.9639069189345922,0.28705595,0.6805588124519184
0.0395,1.7609937500000001,1.0,2736.9548910704384,0.359758525697549,1.3160619025086697,0.964559213477652,0.2870147375,0.6814568679292097
0.04,1.760003317189574,1.0,2737.140412309602,0.363349775571029,1.3156129262804348,0.9651893284207695,0.2869731393219621,0.6823612269282552
0.0405,1.7590124237662825,1.0,2737.6930400833658,0.36692088671431283,1.3151604101159942,0.965798280648667,0.2869315217981839,0.6832714154831581
0.041,1.7580215303429911,1.0,2738.61159370148,0.3704719691261725,1.3147045737569676,0.9663870299519144,0.28688990427440564,0.6841869619146854
0.0415,1.7570306369196995,1.0,2739.8720363166094,0.37400313280538,1.314245636944975,0.9669564828311035,0.28684828675062735,0.6851073968783383
0.042,1.7560397434964081,1.0,2741.4503758614555,0.3775144877507074,1.313783819421636,0.9675074960102065,0.28680666922684916,0.6860322534093435
0.0425,1.7550488500731167,1.0,2743.3226504776753,0.38100614396092675,1.3133193409285704,0.9680408796840818,0.2867650517030709,0.6869610669645608
0.043000000000000003,1.7540579566498251,1.0,2745.4649150175883,0.38447821143481004,1.3128524212073978,0.9685574005227136,0.28672343417929264,0.6878933754613169
0.043500000000000004,1.7530670632265337,1.0,2747.8532286142577,0.38793080017112935,1.312383279999738,0.9690577844526538,0.2866818166555144,0.6888287193131548
0.044,1.7520761698032423,1.0,2750.4636433234755,0.3913640201686567,1.3119121370472107,0.9695427192342364,0.28664019913173616,0.6897666414625067
0.0445,1.751085276379951,1.0,2753.272193835995,0.39477798142616405,1.3114392120914358,0.9700128568514138,0.2865985816079579,0.6907066874102861
0.045,1.7500943829566593,1.0,2756.2548882602478,0.39817279394242355,1.3109647248740326,0.9704688157295376,0.2865569640841797,0.6916484052424019
0.0455,1.749103489533368,1.0,2759.3893908233645,0.401548566895563,1.310488879850917,0.9709111815303721,0.28651534656040145,0.6925913759213098
0.046,1.7481125961100765,1.0,2762.6664405955803,0.4049054058250433,1.310011763006416,0.9713405011218004,0.2864737290366232,0.693535417084355
0.0465,1.747121702686785,1.0,2766.074749097171,0.40824341673351666,1.3095334785300154,0.9717572955594861,0.286432111512845,0.6944803114448612
0.047,1.7461308092634935,1.0,2769.603585648978,0.41156270405336853,1.3090541254080854,0.9721620596484848,0.28639049398906674,0.6954258532150619
0.0475,1.7451399158402021,1.0,2773.2421996958433,0.4148633722169845,1.3085738026269953,0.9725552640712687,0.2863488764652885,0.6963718377943755
0.048,1.7441490224169105,1.0,2776.9798185698337,0.4181455256567501,1.3080926091731153,0.9729373567916487,0.2863072589415102,0.6973180617758356
0.0485,1.743158128993619,1.0,2780.8056454713706,0.4214092688050509,1.307610644032815,0.973308764364486,0.28626564141773203,0.698264322951903
0.049,1.7421672355703277,1.0,2784.7156980943296,0.4246546982496332,1.3071279446350286,0.9736698880029822,0.28622402389395374,0.6992105408936953
0.0495,1.741176342147036,1.0,2788.6915091596316,0.4278819293855343,1.3066446785949548,0.9740211211770691,0.2861824063701755,0.7001563810248626
0.05,1.7401854487237447,1.0,2792.7276864605783,0.4310910620202164,1.3061608955790223,0.9743628293639732,0.28614078884639726,0.701101741129627
0.0505,1.7391945553004533,1.0,2796.8192439262994,0.43428219545479363,1.305676641480266,0.9746953609640935,0.28609917132261903,0.7020465269558192
0.051000000000000004,1.738203661877162,1.0,2800.961182103334,0.4374554289903798,1.3051919621917216,0.9750190485437659,0.2860575537988408,0.7029906448136696
0.051500000000000004,1.7372127684538703,1.0,2805.1484876999125,0.44061086192808896,1.304706903606424,0.9753342096960569,0.28601593627506255,0.7039340015771218
0.052000000000000005,1.736221875030579,1.0,2809.3761331763676,0.4437485935690352,1.3042215116174087,0.9756411478474865,0.2859743187512843,0.7048765046850091
0.0525,1.7352309816072875,1.0,2813.6390763828726,0.44686872321433224,1.3037358321177108,0.9759401530145174,0.2859327012275061,0.7058180621420975
0.053,1.7342400881839959,1.0,2817.932260243248,0.4499713501650944,1.3032499110003657,0.9762315025133488,0.28589108370372784,0.7067585825199946
0.0535,1.7332491947607045,1.0,2822.250612485928,0.4530565737224354,1.3027637941584085,0.976515461626274,0.28584946617994955,0.7076979749579237
0.054,1.732258301337413,1.0,2826.590805399777,0.45612448757298396,1.302277511764487,0.9767922827176206,0.28580784865617137,0.7086361794689748
0.0545,1.7312674079141215,1.0,2830.9511835147664,0.45917518356697407,1.3017910789752642,0.9770622063341066,0.2857662311323931,0.7095731653410262
0.055,1.73027651449083,1.0,2835.3228216464086,0.4622087787227981,1.3013045757362292,0.9773254691345319,0.28572461360861484,0.7105087775523309
0.0555,1.7292856210675387,1.0,2839.7041914970846,0.4652253653652393,1.300818015829675,0.9775822916149755,0.2856829960848366,0.7114429890060505
0.056,1.728294727644247,1.0,2844.09376002027,0.46822503581908104,1.3003314130378953,0.977832885141138,0.28564137856105837,0.7123757727763429
0.0565,1.7273038342209557,1.0,2848.4899894051578,0.47120788240910655,1.299844781143184,0.978077452401678,0.28559976103728013,0.7133071021084061
0.057,1.7263129407976643,1.0,2852.891337065825,0.4741739974600992,1.2993581339278344,0.9783161878354764,0.2855581435135019,0.7142369504185102
0.0575,1.725322047374373,1.0,2857.2962556342145,0.4771234732968423,1.2988714851741405,0.9785492780345315,0.28551652598972366,0.7151652912940163
0.058,1.7243311539510813,1.0,2861.7031929578225,0.4800564022441191,1.2983848486643956,0.9787769021240587,0.2854749084659454,0.7160920984933856
0.0585,1.7233402605277899,1.0,2866.110592101206,0.482972876626713,1.2978982381808932,0.9789992321212576,0.2854332909421672,0.7170173459461728
0.059000000000000004,1.7223493671044985,1.0,2870.516891351622,0.4858729887694072,1.2974116675059273,0.9792164332740989,0.28539167341838895,0.7179410077530095
0.059500000000000004,1.7213584736812069,1.0,2874.920524229528,0.48875683099698514,1.2969251504217914,0.979428664381401,0.2853500558946107,0.7188630581855758
0.06,1.7203675802579155,1.0,2879.3199195024463,0.49162449563423,1.296438700710779,0.9796360780953586,0.2853084383708324,0.7197834716865601
0.0605,1.719376686834624,1.0,2883.7135012038843,0.49447607500592516,1.2959523321551836,0.9798388212076203,0.28526682084705424,0.7207022228696043
0.061,1.7183857934113325,1.0,2888.0996886553535,0.49731166143685396,1.295466058537299,0.9800370349199292,0.28522520332327594,0.7216192865192392
0.0615,1.717394899988041,1.0,2892.479559882047,0.5001313188082255,1.2949798701221558,0.9802308516789485,0.2851835857994977,0.7225346818326407
0.062,1.7164040065647497,1.0,2896.850267321734,0.502935168086316,1.294493791840805,0.9804204051466032,0.28514196827571947,0.7234483627781396
0.0625,1.7154131131414583,1.0,2901.2107540903517,0.5057233037483796,1.2940078327621383,0.9806058211712914,0.28510035075194123,0.7243603133753524
0.063,1.7144222197181667,1.0,2905.5607818551093,0.5084958100381758,1.2935219947172114,0.9807872198335709,0.285058733228163,0.7252705313049405
0.0635,1.7134313262948753,1.0,2909.90011175681,0.5112527711994644,1.2930362795370804,0.9809647168317799,0.28501711570438476,0.7261790142699811
0.064,1.7124404328715839,1.0,2914.228504415344,0.5139942714760051,1.2925506890528018,0.9811384236744781,0.2849754981806065,0.727085759995953
0.0645,1.7114495394482923,1.0,2918.545719934341,0.5167203951115575,1.2920652250954314,0.9813084478630749,0.2849338806568283,0.7279907662307238
0.065,1.7104586460250009,1.0,2922.8515179064716,0.5194312263498815,1.2915798894960253,0.9814748930652183,0.28489226313305005,0.7288940307445334
0.0655,1.7094677526017095,1.0,2927.1456574185577,0.5221268494347365,1.2910946840856399,0.9816378592794711,0.2848506456092718,0.7297955513299794
0.066,1.7084768591784179,1.0,2931.427897056712,0.5248073486098825,1.290609610695331,0.9817974429917744,0.2848090280854936,0.7306953258020029
0.0665,1.7074859657551265,1.0,2935.6979949118368,0.5274728081190789,1.2901246711561551,0.9819537373241621,0.2847674105617153,0.7315933519978726
0.067,1.706495072331835,1.0,2939.9557085851534,0.5301233122060857,1.289639867299168,0.9821068321761637,0.2847257930379371,0.7324896277771695
0.0675,1.7055041789085434,1.0,2944.200795193027,0.5327589451146623,1.289155200955426,0.982256814359303,0.2846841755141588,0.7333841510217707
0.068,1.704513285485252,1.0,2948.4330113733645,0.5353797910885685,1.2886706739559848,0.9824037677250762,0.2846425579903806,0.7342769196358341
0.0685,1.7035223920619607,1.0,2952.65211329062,0.5379859343715641,1.288186288131901,0.9825477732867681,0.28460094046660234,0.735167931545781
0.069,1.702531498638669,1.0,2956.857856641763,0.5405774592074086,1.2877020453142307,0.9826889093354446,0.2845593229428241,0.7360571847002817
0.0695,1.7015406052153776,1.0,2961.0499966619086,0.5431544498398618,1.28721794733403,0.9828272515504375,0.28451770541904586,0.7369446770702373
0.07,1.7005497117920862,1.0,2965.2285136264704,0.545716970394137,1.2867339940558387,0.9829628717857308,0.2844760878952676,0.7378304102448543
0.07050000000000001,1.6995588183687949,1.0,2969.3938122701547,0.548265075501302,1.2862501816467489,0.9830958388127475,0.2844344703714894,0.738714392561235
0.07100000000000001,1.6985679249455032,1.0,2973.5452701523004,0.5507989145998302,1.2857665152310669,0.9832262252390885,0.28439285284771115,0.7395966159843508
0.07150000000000001,1.6975770315222118,1.0,2977.682959230561,0.5533185626101857,1.2852829938769423,0.9833540965972692,0.2843512353239329,0.7404770835606138
