Time [s],Phi [rad],STIM [ ],Fsee [N],Gamma [ ],Lcerel [ ],q [ ],Lmtc [m],fisomrel [ ]
0.0,1.8,1.0,19.91679568710621,0.0014263356025550997,1.3791269457799704,0.0055208440600065,0.288653,0.541654205942447
0.0005,1.79999375,1.0,20.622423139068758,0.007027544296532843,1.3790496917277313,0.017334760501373486,0.2886527375,0.5418409795953822
0.001,1.799975,1.0,25.025906923633542,0.012597334638707033,1.3786030028987513,0.043364374426760104,0.28865195,0.5429201728190312
0.0015,1.79994375,1.0,36.95246367474495,0.01813588286074951,1.3775666894622414,0.08096917390616251,0.2886506375,0.5454189891853425
0.002,1.7999,1.0,64.2422135556288,0.02364336420685104,1.375707924560422,0.12683680027740826,0.2886488,0.5498837864237891
0.0025,1.79984375,1.0,113.35387285047769,0.029119952937007938,1.3731830619422398,0.17765795148049507,0.28864643749999996,0.5559132725746633
0.003,1.7997750000000001,1.0,181.0479375970255,0.034565822334887884,1.3704844695969025,0.23071106261110702,0.28864354999999997,0.5623126842713706
0.0035,1.79969375,1.0,259.83001420747854,0.039981144711385246,1.367917748808057,0.2839240382514167,0.2886401375,0.5683562822449347
0.004,1.7996,1.0,344.71082071887423,0.045366091411216565,1.365551190040764,0.3357711369589583,0.2886362,0.5738913503181802
0.0045000000000000005,1.7994937500000001,1.0,433.1247071384592,0.05072083282172554,1.3633707319847992,0.3852143756216253,0.2886317375,0.5789595380638752
0.005,1.799375,1.0,523.5896400562763,0.05604553835953696,1.3613506728087543,0.4316271044784472,0.28862675,0.5836278420301677
0.0055,1.79924375,1.0,615.0634523069359,0.06134037651345087,1.359469372307711,0.4746992057551523,0.2886212375,0.5879520738925393
0.006,1.7991000000000001,1.0,706.7109932128599,0.06660551481058478,1.3577104819302457,0.514346522914477,0.2886152,0.5919745252462736
0.006500000000000001,1.79894375,1.0,797.8380674357829,0.0718411197532612,1.3560614120992391,0.5506355744901941,0.2886086375,0.5957279043810453
0.007,1.798775,1.0,887.900047254409,0.07704735730693658,1.3545115199073563,0.5837259012808135,0.28860155,0.5992397393270923
0.0075,1.79859375,1.0,976.4104969299763,0.08222439187841211,1.3530525816126617,0.6138296945072524,0.2885939375,0.6025314879356978
0.008,1.7984,1.0,1062.9908673064524,0.08737238722593499,1.3516772224527909,0.641182859552943,0.2885858,0.605622229616997
0.0085,1.79819375,1.0,1147.366024669624,0.09249150663519363,1.350378583666646,0.6660264808724886,0.2885771375,0.6085294901395255
0.009000000000000001,1.797975,1.0,1229.298474105193,0.09758191176290802,1.3491509363703686,0.6885957268672731,0.28856795,0.6112679324990268
0.0095,1.79774375,1.0,1308.6150052532967,0.10264376351095524,1.347989000036806,0.7091127651006622,0.2885582375,0.613850943410025
0.01,1.7975,1.0,1385.212967701391,0.10767722253219182,1.346887679960718,0.7277831716962327,0.288548,0.6162912547559648
0.0105,1.79724375,1.0,1459.0102317369758,0.11268244797015993,1.345842565523209,0.7447948246709504,0.2885372375,0.6185998720418525
0.011,1.796975,1.0,1529.9547337972213,0.11765959775502952,1.3448496465795179,0.7603176770161066,0.28852595000000003,0.6207867386925434
0.0115,1.79669375,1.0,1598.0343306483799,0.1226088292752418,1.343905083960305,0.7745043662901893,0.2885141375,0.6228612666653557
0.012,1.7964,1.0,1663.2816626603235,0.12753030023804923,1.3430050780974625,0.787491319845671,0.28850180000000003,0.6248326415795716
0.0125,1.79609375,1.0,1725.7135743717374,0.13242416585760655,1.3421465072358258,0.7994003848556346,0.2884889375,0.6267084425584343
0.013000000000000001,1.7957750000000001,1.0,1785.3572121468712,0.13729058030429905,1.3413265312182232,0.8103400463526546,0.28847555,0.6284955328014519
0.0135,1.79544375,1.0,1842.270343332091,0.14212969774851203,1.340542309887482,0.8204067021125586,0.2884616375,0.6302006861495477
0.014,1.7951000000000001,1.0,1896.5196910731627,0.14694167132651353,1.3397912099324634,0.8296860621289543,0.2884472,0.6318301455759969
0.0145,1.79474375,1.0,1948.197103261058,0.15172665450802428,1.339070590025994,0.8382542806563892,0.2884322375,0.6333900987864294
0.015,1.794375,1.0,1997.360708973011,0.15648479764574835,1.3383784033406785,0.8461792626388587,0.28841675,0.6348853831397102
0.0155,1.79399375,1.0,2044.0819090004147,0.16121625084981264,1.3377126483552593,0.8535214427059646,0.2884007375,0.6363206860359598
0.016,1.7936,1.0,2088.4469248961605,0.16592116412261781,1.3370713347505165,0.8603346571939497,0.2883842,0.6377006227343917
0.0165,1.7931937500000001,1.0,2130.5437982870635,0.17059968628298428,1.3364526024192431,0.8666669609497706,0.2883671375,0.6390294844557357
0.017,1.792775,1.0,2170.471065145833,0.17525196689674483,1.335854613943597,0.8725612811433985,0.28834955,0.6403114741479512
0.0175,1.7923437500000001,1.0,2208.2964813836325,0.17987815180580138,1.3352759593394996,0.8780561302251757,0.2883314375,0.6415498440337315
0.018000000000000002,1.7919,1.0,2244.0969141522924,0.18447838685205592,1.3347152286228727,0.8831860061103382,0.2883128,0.6427478180100066
0.0185,1.79144375,1.0,2277.957583001922,0.18905281787741038,1.334171011809638,0.887981860137514,0.2882936375,0.6439085933230957
0.019,1.790975,1.0,2309.9571406350565,0.19360158904492053,1.3336420392649806,0.8924715405571609,0.28827395,0.6450350434792893
0.0195,1.79049375,1.0,2340.193895499518,0.1981248468864542,1.3331269131533612,0.896680084431142,0.2882537375,0.6461302925156663
0.02,1.79,1.0,2368.7370901699287,0.20262273360375427,1.3326245811402837,0.9006301426298342,0.288233,0.6471967092514377
0.0205,1.78949375,1.0,2395.652202959368,0.20709539029711962,1.332134075508774,0.9043421867070778,0.2882117375,0.6482364664729974
0.021,1.788975,1.0,2421.0090671211196,0.21154295806684917,1.331654428541859,0.9078347315019913,0.28818995000000003,0.6492517220298882
0.021500000000000002,1.78844375,1.0,2444.881506365338,0.2159655780132418,1.3311846725225644,0.9111245490479261,0.2881676375,0.650244619534827
0.022,1.7879,1.0,2467.339300988338,0.22036338967274766,1.3307239132542434,0.9142268707342597,0.2881448,0.6512171339343102
0.0225,1.78734375,1.0,2488.4562201917524,0.2247365343126642,1.3302712489573867,0.9171555369373874,0.28812143749999997,0.6521712439799997
0.023,1.786775,1.0,2508.295213166521,0.22908515065281493,1.3298259081688497,0.9199231671756745,0.28809755,0.653108642540158
0.0235,1.78619375,1.0,2526.9095391846145,0.23340937467672251,1.3293872341481263,0.9225412828650399,0.28807313749999996,0.6540307716206869
0.024,1.7856,1.0,2544.3545286830386,0.23770934236790955,1.3289545701547107,0.9250203997302131,0.2880482,0.6549390649691629
0.0245,1.78499375,1.0,2560.6874087717792,0.2419851897098987,1.328527259448097,0.9273701294302147,0.2880227375,0.655834948340315
0.025,1.784375,1.0,2575.967138305103,0.24623705268621263,1.328104645287779,0.9295992696818366,0.28799675,0.6567198397339948
0.025500000000000002,1.78374375,1.0,2590.241990765615,0.2504650640089105,1.3276861853446076,0.9317159018070107,0.2879702375,0.6575949105047816
0.026000000000000002,1.7831000000000001,1.0,2603.5749439139245,0.2546693620879461,1.3272712125792623,0.9337274250667275,0.2879432,0.658461586150827
0.0265,1.78244375,1.0,2616.0110815262033,0.2588500795275611,1.3268592383270341,0.9356406651188541,0.2879156375,0.6593209130110687
0.027,1.781775,1.0,2627.589163910294,0.26300734670864223,1.326449841928781,0.9374619119975697,0.28788755,0.6601737905123533
0.0275,1.7810937500000001,1.0,2638.348817461658,0.2671412940120759,1.3260426027253611,0.9391969604705072,0.2878589375,0.661021113546149
0.028,1.7804,1.0,2648.3304599323346,0.2712520518187488,1.3256371000576326,0.9408511555719733,0.2878298,0.6618637725320644
0.0285,1.77969375,1.0,2657.5752296226456,0.27533975050954745,1.3252329132664535,0.9424294333992357,0.2878001375,0.6627026534700751
0.029,1.778975,1.0,2666.1249184963817,0.27940452046535846,1.3248296216926823,0.943936357716191,0.28776995,0.6635386379814698
0.029500000000000002,1.7782437500000001,1.0,2674.012555001288,0.2834464874784561,1.3244268905810546,0.945376162879764,0.2877392375,0.6643724255991978
0.03,1.7775,1.0,2681.2838590169226,0.2874657855625741,1.3240242731927725,0.9467527605122006,0.287708,0.66520494381982
0.0305,1.77674375,1.0,2687.9694871492507,0.29146254129471044,1.3236214653127012,0.9480697952385694,0.2876762375,0.666036821393049
0.031,1.775975,1.0,2694.09619509557,0.2954368790276288,1.3232182018080747,0.9493306556252732,0.28764395,0.6668686033799576
0.0315,1.7751937500000001,1.0,2699.6910558209042,0.299388923114093,1.3228142175461268,0.9505384914274062,0.2876111375,0.6677008321112305
0.032,1.7744,1.0,2704.7814298310727,0.3033187979068668,1.322409247394092,0.9516962333640748,0.2875778,0.6685340471772168
0.0325,1.77359375,1.0,2709.394937004516,0.3072266277587139,1.3220030262192042,0.9528066110274175,0.2875439375,0.6693687854135029
0.033,1.772775,1.0,2713.559429982381,0.31111253702239827,1.3215952888886975,0.9538721691214614,0.28750955,0.670205580882
0.0335,1.7719437500000002,1.0,2717.3028847137057,0.31497664995312896,1.3211857710387258,0.9548952822654045,0.2874746375,0.6710449632725102
0.034,1.7711000000000001,1.0,2720.644257697284,0.3188190801577128,1.3207742920973937,0.9558781748696361,0.2874392,0.6718872880402293
0.0345,1.7702437500000001,1.0,2723.619303977964,0.3226399652660735,1.3203605199277804,0.9568229159544731,0.2874032375,0.6727332183405683
0.035,1.7693750000000001,1.0,2726.244430926449,0.32643942278835014,1.3199442998129263,0.9577314553027975,0.28736675,0.6735830517130623
0.035500000000000004,1.76849375,1.0,2728.53614892088,0.33021757023468173,1.3195254770358718,0.9586056186844651,0.2873297375,0.6744370839445109
0.036000000000000004,1.7676,1.0,2730.5110606442076,0.33397452511520753,1.3191038968796578,0.95944711716315,0.2872922,0.6752956090440585
0.0365,1.76669375,1.0,2732.185850913501,0.3377104049400665,1.3186794046273247,0.9602575556034552,0.2872541375,0.6761589192167534
0.037,1.765775,1.0,2733.5772770386684,0.34142532721939783,1.3182518455619132,0.9610384404552044,0.28721555,0.6770273048355744
0.0375,1.76484375,1.0,2734.7021597131916,0.34511940946334063,1.3178210649664641,0.9617911868836881,0.2871764375,0.6779010544119344
0.038,1.7639,1.0,2735.5773744343996,0.348792769182034,1.3173869081240177,0.9625171253074403,0.28713679999999997,0.6787804545646567
0.0385,1.76294375,1.0,2736.2198434556867,0.35244552388561706,1.3169492203176147,0.9632175073987206,0.28709663750000003,0.6796657899874239
0.039,1.761975,1.0,2736.645607409657,0.3560777898548853,1.3165078551896128,0.9638935121285868,0.28705595,0.6805573265410432
0.0395,1.7609937500000001,1.0,2736.856882831689,0.3596896665928445,1.316062792160407,0.9645462585122105,0.2870147375,0.6814550746548707
0.04,1.76,1.0,2736.8859705725295,0.3632812959143595,1.3156137377975532,0.9651767850717061,0.286973,0.682359593474035
0.0405,1.7589937500000001,1.0,2736.741327163318,0.36685278729955756,1.3151606153097155,0.9657860846986505,0.2869307375,0.6832710030535762
0.041,1.757975,1.0,2736.4314253334037,0.37040425022856616,1.3147033479055577,0.9663750947605815,0.28688795,0.6841894222481937
0.0415,1.75694375,1.0,2735.9647513906834,0.3739357941815127,1.3142418587937439,0.9669447007793628,0.2868446375,0.6851149686921325
0.042,1.7559,1.0,2735.349802732922,0.3774475286385245,1.3137760711829383,0.9674957398292856,0.28680079999999997,0.686047758778698
0.0425,1.75484375,1.0,2734.5950854896746,0.380939563079729,1.3133059082818048,0.9680290036789211,0.2867564375,0.6869879076393919
0.043000000000000003,1.753775,1.0,2733.7091122943034,0.3844120069852536,1.3128312932990072,0.9685452416984519,0.28671155,0.687935529122674
0.043500000000000004,1.75269375,1.0,2732.700400187979,0.3878649698352256,1.3123521494432098,0.9690451635521844,0.28666613750000003,0.6888907357723429
0.044,1.7516,1.0,2731.5774686530854,0.3912985611097725,1.3118683999230765,0.9695294416941059,0.2866202,0.6898536388055486
0.0445,1.75049375,1.0,2730.348837778677,0.39471289028902173,1.3113799679472713,0.969998713682705,0.2865737375,0.6908243480904219
0.045,1.7493750000000001,1.0,2729.023026555531,0.39810806685310063,1.310886776724458,0.9704535843298027,0.28652675,0.6918029721233321
0.0455,1.74824375,1.0,2727.6085513025664,0.40148420028213655,1.310388749463301,0.9708946276967971,0.2864792375,0.6927896180057657
0.046,1.7471,1.0,2726.1099199384216,0.40484139194228086,1.3098858457925178,0.9713223905412661,0.2864312,0.6937843194434181
0.0465,1.7459437500000001,1.0,2724.5325563304764,0.40817974896926024,1.3093780170002647,0.9717373925656656,0.28638263750000004,0.6947871256281376
0.047,1.744775,1.0,2722.8883260918183,0.41149939054169316,1.3088651557270168,0.9721401251737599,0.28633355,0.6957982001840742
0.0475,1.74359375,1.0,2721.1810730160214,0.41480041804635004,1.308347227535814,0.9725310586321035,0.28628393750000003,0.6968175614508196
0.048,1.7424,1.0,2719.414638465214,0.4180829328700012,1.3078241979896965,0.9729106404758724,0.2862338,0.6978452268239801
0.0485,1.74119375,1.0,2717.5928609426774,0.42134703639941695,1.307296032651704,0.9732792968147489,0.2861831375,0.6988812127440143
0.049,1.739975,1.0,2715.719575689995,0.4245928300213676,1.306762697084877,0.9736374335521829,0.28613195,0.6999255346849874
0.0495,1.73874375,1.0,2713.798614311682,0.4278204151226236,1.3062241568522548,0.9739854375245112,0.2860802375,0.7009782071432579
0.05,1.7375,1.0,2711.8338044258417,0.4310298930899552,1.305680377516878,0.9743236775658858,0.286028,0.7020392436260809
0.0505,1.73624375,1.0,2709.828969340528,0.4342213653101327,1.3051313246417862,0.9746525055044635,0.2859752375,0.7031086566401432
0.051000000000000004,1.734975,1.0,2707.7879277572497,0.43739493316992656,1.3045769637900195,0.9749722570948715,0.28592195,0.7041864576800164
0.051500000000000004,1.73369375,1.0,2705.714493500312,0.440550698056107,1.304017260524618,0.9752832528915532,0.2858681375,0.7052726572165386
0.052000000000000005,1.7324,1.0,2703.6124752722876,0.44368876135544444,1.3034521804086217,0.9755857990672293,0.2858138,0.7063672646851191
0.0525,1.73109375,1.0,2701.485676436304,0.44680922445470916,1.3028816890050705,0.9758801881803715,0.28575893750000003,0.7074702884739661
0.053,1.729775,1.0,2699.334558873181,0.44991216820371877,1.3023057823684865,0.9761666996793383,0.28570355000000003,0.7085816771255653
0.0535,1.72844375,1.0,2697.165210880609,0.45299771311026527,1.3017244051026828,0.976445601705078,0.2856476375,0.7097014775683423
0.054,1.7271,1.0,2694.9806486953225,0.456065961767484,1.3011375298267824,0.976717150656822,0.2855912,0.7108296815364277
0.0545,1.7257437500000001,1.0,2692.7824238721714,0.4591170075011338,1.3005451425208683,0.9769815918223316,0.2855342375,0.7119662541680836
0.055,1.724375,1.0,2690.572085591983,0.4621509436369739,1.2999472291650236,0.9772391600686453,0.28547675,0.7131111598093904
0.0555,1.72299375,1.0,2688.351180622164,0.4651678635007632,1.299343775739331,0.9774900803690381,0.2854187375,0.714264362009315
0.056,1.7216,1.0,2686.121253281922,0.4681678604182608,1.2987347682238732,0.9777345682991179,0.2853602,0.71542582351476
0.0565,1.72019375,1.0,2683.883845411772,0.4711510277152257,1.2981201925987333,0.9779728305041104,0.28530113749999997,0.7165955062656063
0.057,1.718775,1.0,2681.6404963475443,0.474117458717417,1.2975000348439945,0.978205065139221,0.28524155,0.7177733713897388
0.0575,1.71734375,1.0,2679.392742898246,0.47706724675059364,1.296874280939739,0.9784314622848327,0.2851814375,0.718959379198064
0.058,1.7159,1.0,2677.1421193290125,0.4800004851405147,1.2962429168660503,0.9786522043381686,0.2851208,0.7201534891795103
0.0585,1.71444375,1.0,2674.890157347917,0.48291726721293926,1.295605928603011,0.9788674663829262,0.2850596375,0.7213556599960189
0.059000000000000004,1.7129750000000001,1.0,2672.6383860973065,0.48581768629362626,1.2949633021307039,0.9790774165382922,0.28499795,0.7225658494775227
0.059500000000000004,1.71149375,1.0,2670.3883321493636,0.4887018357083348,1.294315023429212,0.9792822162886352,0.2849357375,0.7237840146169081
0.06,1.71,1.0,2668.1415195060936,0.49156980878282386,1.2936610784786184,0.9794820207950918,0.284873,0.7250101115649703
0.0605,1.7084937500000001,1.0,2665.8979200995473,0.4944216841522232,1.2930014675104347,0.979676978776158,0.2848097375,0.7262440689946802
0.061,1.7069750000000001,1.0,2663.6566541045504,0.49725753784406185,1.2923361985938429,0.97986723345413,0.28474595,0.7274858003561904
0.0615,1.7054437500000001,1.0,2661.4231348165313,0.5000775054552676,1.2916652218825306,0.9800529241886337,0.2846816375,0.7287353263527239
0.062,1.7039,1.0,2659.197637424116,0.5028816713456312,1.2909885347634285,0.9802341835093327,0.2846168,0.7299925785594165
0.0625,1.70234375,1.0,2656.980436668398,0.505670119874943,1.2903061346234663,0.9804111389671932,0.2845514375,0.7312574878825953
0.063,1.7007750000000001,1.0,2654.7718068471518,0.5084429354029938,1.2896180188495747,0.9805839133569548,0.28448555,0.7325299845588246
0.0635,1.69919375,1.0,2652.5720218188703,0.5112002022895741,1.288924184828684,0.9807526249280557,0.28441913750000003,0.7338099981539554
0.064,1.6976,1.0,2650.381355006537,0.5139420048944744,1.2882246299477247,0.980917387584697,0.2843522,0.735097457562172
0.0645,1.69599375,1.0,2648.2000794023884,0.5166684275774853,1.287519351593627,0.9810783110756746,0.2842847375,0.7363922910050393
0.065,1.694375,1.0,2646.0284675721473,0.5193795546983974,1.2868083471533212,0.9812355011745749,0.28421675,0.7376944260305485
0.0655,1.69274375,1.0,2643.866791659606,0.5220754706170013,1.2860916140137377,0.9813890598508911,0.2841482375,0.7390037895121636
0.066,1.6911,1.0,2641.7153233914855,0.5247562596930875,1.285369149561807,0.9815390854325752,0.2840792,0.7403203076478669
0.0665,1.6894437500000001,1.0,2639.574334082448,0.5274220062864466,1.284640951184459,0.9816856727605141,0.2840096375,0.7416439059592042
0.067,1.687775,1.0,2637.4440946397453,0.5300727947568693,1.2839070162686246,0.9818289133353862,0.28393955,0.7429745092903283
0.0675,1.68609375,1.0,2635.324875569049,0.5327087094641461,1.2831673422012337,0.9819688954573225,0.2838689375,0.7443120418070452
0.068,1.6844000000000001,1.0,2633.2169469792398,0.5353298347680675,1.2824219263692171,0.9821057043587728,0.2837978,0.7456564269958561
0.0685,1.68269375,1.0,2631.120578588316,0.5379362550284241,1.2816707661595048,0.9822394223309547,0.2837261375,0.7470075876630025
0.069,1.680975,1.0,2629.036039729035,0.5405280546050065,1.2809138589590272,0.9823701288442347,0.28365395,0.748365445933507
0.0695,1.67924375,1.0,2626.963599354314,0.5431053178576053,1.2801512021547148,0.982497900662772,0.28358123749999997,0.7497299232502173
0.07,1.6775,1.0,2624.903526043886,0.545668129146011,1.2793827931334978,0.982622811953737,0.283508,0.7511009403728481
0.07050000000000001,1.67574375,1.0,2622.855595953912,0.5482165352616248,1.2786086338449305,0.9827449322870252,0.2834342375,0.7524784092699663
0.07100000000000001,1.673975,1.0,2620.819679088671,0.5507506439119296,1.277828725371751,0.9828643326097141,0.28335995,0.7538622428517479
0.07150000000000001,1.67219375,1.0,2618.7958978927018,0.5532705587516225,1.2770430664564694,0.9829810811474782,0.2832851375,0.7552523575522841
0.07200000000000001,1.6704,1.0,2616.78414138237,0.5557763549069366,1.2762516580073184,0.983095242261968,0.2832098,0.7566486653322946
0.0725,1.66859375,1.0,2614.7842987973527,0.558268107504105,1.2754545009325313,0.9832068782133366,0.2831339375,0.7580510775382976
0.073,1.6667750000000001,1.0,2612.796259598582,0.5607458916693614,1.2746515961403413,0.9833160492411857,0.28305755,0.7594595049029428
0.0735,1.66494375,1.0,2610.8199134660686,0.5632097825289386,1.2738429445389814,0.9834228136418756,0.2829806375,0.7608738575453455
0.074,1.6631,1.0,2608.8551502967543,0.5656598552090698,1.2730285470366847,0.9835272278423837,0.2829032,0.7622940449714186
0.0745,1.6612437500000001,1.0,2606.9018602027613,0.5680961848359884,1.272208404541684,0.9836293464708828,0.2828252375,0.7637199760742058
0.075,1.659375,1.0,2604.959933509149,0.5705188465359274,1.2713825179622127,0.9837292224242088,0.28274675,0.7651515591342134
0.0755,1.65749375,1.0,2603.029260752038,0.5729279154351202,1.2705508882065037,0.9838269069323695,0.2826677375,0.7665887018197446
