Time [s],Phi [rad],STIM [ ],Fsee [N],Gamma [ ],Lcerel [ ],q [ ],Lmtc [m],fisomrel [ ]
0.0,1.8,1.0,17.968074851910465,1.000740798119977e-05,1.3793396435217293,0.005000026691111475,0.288653,0.5411397795051254
0.0005,1.79999375,1.0,18.277324496469276,0.0056191605831307275,1.3793023233243829,0.012940533230504349,0.2886527375,0.5412300622472108
0.001,1.799975,1.0,21.618899238068295,0.01119685084389053,1.378938249240595,0.03560861089151097,0.28865195,0.5421103420359461
0.0015,1.79994375,1.0,31.069668004148316,0.016743254673193254,1.378046166924197,0.0706017506041616,0.2886506375,0.5442636979398028
0.002,1.7999,1.0,53.582589762405625,0.022258547562323375,1.3763681185872543,0.11471789005734973,0.2886488,0.5483005080073039
0.0025,1.79984375,1.0,97.11878327917375,0.02774290401847482,1.3739351746981565,0.16457473292549507,0.28864643749999996,0.5541214449089897
0.003,1.7997750000000001,1.0,160.9578476187444,0.033196497572473636,1.3712143557043168,0.2172802896035792,0.28864354999999997,0.5605864225734342
0.0035,1.79969375,1.0,237.68289691267796,0.038619500778365665,1.368584747620923,0.27061272545911425,0.2886401375,0.5667898081033818
0.004,1.7996,1.0,321.4662763754103,0.044012085224199686,1.366156105505863,0.32291564425839886,0.2886362,0.5724799311249339
0.0045000000000000005,1.7994937500000001,1.0,409.2672343208167,0.049374421537211756,1.3639228262900656,0.3730343587718945,0.2886317375,0.5776791342635548
0.005,1.799375,1.0,499.4129627078382,0.0547066793749108,1.3618583538527949,0.42024732242019114,0.28862675,0.5824570527644946
0.0055,1.79924375,1.0,590.7898699065372,0.06000902747257949,1.359938845729573,0.46417357109103724,0.2886212375,0.5868750871647408
0.006,1.7991000000000001,1.0,682.5175519654086,0.06528163358634945,1.3581464248605921,0.504679846355798,0.2886152,0.590979395279261
0.006500000000000001,1.79894375,1.0,773.8807771193399,0.07052466454887954,1.3564672618238536,0.5418006549044224,0.2886086375,0.594805775662641
0.007,1.798775,1.0,864.2852868150965,0.07573828625292645,1.3548904034669258,0.5756766867698351,0.28860155,0.5983826579307482
0.0075,1.79859375,1.0,953.2427880862363,0.08092266366108912,1.3534067857638366,0.6065098307531309,0.2885939375,0.6017335579594189
0.008,1.7984,1.0,1040.3431846123076,0.08607796035380795,1.3520088711651024,0.6345321114176224,0.2885858,0.6048780440722907
0.0085,1.79819375,1.0,1125.3128962572873,0.0912043405250147,1.3506892603441991,0.6599843759648938,0.2885771375,0.6078349575230821
0.009000000000000001,1.797975,1.0,1207.9002710618272,0.09630196615635983,1.3494420338142687,0.6831041314350681,0.28856795,0.6106194674864396
0.0095,1.79774375,1.0,1287.8938598097714,0.10137099768337048,1.3482621019154033,0.7041174117815113,0.2885582375,0.6132446057699785
0.01,1.7975,1.0,1365.167849997082,0.10641159554157378,1.3471443749876955,0.723234173077895,0.288548,0.6157231598035787
0.0105,1.79724375,1.0,1439.6568927805847,0.11142391975711141,1.3460839790087078,0.7406466316737923,0.2885372375,0.6180672177088657
0.011,1.796975,1.0,1511.3184777142528,0.11640812915380816,1.3450765992856852,0.7565291095800261,0.28852595000000003,0.6202874382188349
0.0115,1.79669375,1.0,1580.1184192490775,0.12136438091733424,1.3441185140386318,0.7710385873646729,0.2885141375,0.6223930111474616
0.012,1.7964,1.0,1646.056871157436,0.12629283173787056,1.3432061665917336,0.7843155573651628,0.28850180000000003,0.6243926250427525
0.0125,1.79609375,1.0,1709.1727167551735,0.13119363816281326,1.342336049243168,0.7964853024500795,0.2884889375,0.6262947365707248
0.013000000000000001,1.7957750000000001,1.0,1769.5040296100892,0.1360669552342357,1.3415051012554042,0.8076594771236753,0.28847555,0.6281067149761994
0.0135,1.79544375,1.0,1827.0879943663106,0.14091293649546502,1.3407106343405164,0.8179374568858404,0.2884616375,0.6298350243854686
0.014,1.7951000000000001,1.0,1881.9881079053525,0.1457317353770771,1.3399499753643669,0.827407526495467,0.2884472,0.6314860148270611
0.0145,1.79474375,1.0,1934.2818717799053,0.15052350444844503,1.3392205719609482,0.8361481644895424,0.2884322375,0.6330657001227269
0.015,1.794375,1.0,1984.0572912511254,0.15528839649735218,1.338519998146474,0.8442291747939948,0.28841675,0.6345797540016305
0.0155,1.79399375,1.0,2031.374605513995,0.16002656107674815,1.3378463288900015,0.8517128172271504,0.2884007375,0.6360327106363167
0.016,1.7936,1.0,2076.3099485758394,0.16473814773958245,1.337197639160589,0.8586545330177325,0.2883842,0.6374290565833073
0.0165,1.7931937500000001,1.0,2118.9524808328174,0.16942330588805535,1.3365720196108026,0.8651037577750441,0.2883671375,0.6387732003032701
0.017,1.792775,1.0,2159.38803631398,0.17408218354306357,1.3359677300147803,0.8711046766722631,0.28834955,0.6400691466476903
0.0175,1.7923437500000001,1.0,2197.720414255025,0.17871493021056212,1.3353829642746877,0.8766967790481149,0.2883314375,0.6413210053390419
0.018000000000000002,1.7919,1.0,2234.0156222780342,0.18332169090120526,1.3348164031860519,0.8819155554531314,0.2883128,0.6425318117268979
0.0185,1.79144375,1.0,2268.3478786799765,0.18790261062564723,1.3342667275444,0.8867928340674679,0.2882936375,0.6437045754360902
0.019,1.790975,1.0,2300.798934148098,0.19245783439454234,1.3337326181452591,0.8913572049128328,0.28827395,0.6448422818428274
0.0195,1.79049375,1.0,2331.45202466253,0.19698750648563298,1.3332128089658515,0.895634403726697,0.2882537375,0.6459477804243845
0.02,1.79,1.0,2360.391446030226,0.2014917710344676,1.3327060838125195,0.8996476351757074,0.288233,0.6470237939864054
0.0205,1.78949375,1.0,2387.7002500772055,0.20597077181855467,1.332211292012405,0.903417859858625,0.2882117375,0.6480728873069153
0.021,1.788975,1.0,2413.4395491148616,0.21042464897526245,1.3317275419891095,0.9069640828756522,0.28818995000000003,0.6490970595850243
0.021500000000000002,1.78844375,1.0,2437.6743479268516,0.21485354264195927,1.3312539421662346,0.9103035129800081,0.2881676375,0.6500982965539825
0.022,1.7879,1.0,2460.473222720553,0.21925759295601335,1.330789600967382,0.9134517571254178,0.2881448,0.651078571083674
0.0225,1.78734375,1.0,2481.9080177032633,0.22363694005479307,1.3303336268161536,0.9164229917249231,0.28812143749999997,0.6520398437324175
0.023,1.786775,1.0,2502.0375650125247,0.22799172097971457,1.3298852799824379,0.9192301412292501,0.28809755,0.652983743784785
0.0235,1.78619375,1.0,2520.9465147782603,0.23232207777866318,1.3294435999328433,0.9218849418830892,0.28807313749999996,0.6539123547936501
0.024,1.7856,1.0,2538.6828827704317,0.2366281454527153,1.3290079958151964,0.9243981666685445,0.2880482,0.6548269728624609
0.0245,1.78499375,1.0,2555.296381494139,0.24091005897924522,1.3285778779614077,0.9267796587477621,0.2880227375,0.655728884293298
0.025,1.784375,1.0,2570.8383950236766,0.24516795333562735,1.3281526567033877,0.9290384242842794,0.28799675,0.6566193682988157
0.025500000000000002,1.78374375,1.0,2585.361837326863,0.24940196349923605,1.327731742373047,0.9311827150476324,0.2879702375,0.6574996971974705
0.026000000000000002,1.7831000000000001,1.0,2598.920304882553,0.2536122241751023,1.327314551947889,0.9332201028156843,0.2879432,0.6583711227141347
0.0265,1.78244375,1.0,2611.5604936070645,0.2577988668886239,1.326900578263616,0.935157554347137,0.2879156375,0.6592347319225556
0.027,1.781775,1.0,2623.3417565434215,0.2619620292110156,1.3264892067401717,0.9370014640690203,0.28788755,0.6600918299814205
0.0275,1.7810937500000001,1.0,2634.3010334190067,0.26610184063044634,1.3260800400905763,0.9387577509774365,0.2878589375,0.6609432635667352
0.028,1.7804,1.0,2644.4760456652853,0.27021843063508516,1.3256726810278505,0.9404318729783246,0.2878298,0.6617898751024616
0.0285,1.77969375,1.0,2653.9052290211125,0.27431192871310095,1.3252667322650145,0.9420288688563095,0.2878001375,0.6626325028113502
0.029,1.778975,1.0,2662.6276696350496,0.2783824643526627,1.3248617965150884,0.9435533959174692,0.28776995,0.6634719807557057
0.029500000000000002,1.7782437500000001,1.0,2670.6830436674786,0.28243016704193935,1.3244574764910928,0.9450097637990348,0.2877392375,0.6643091388680866
0.03,1.7775,1.0,2678.1036837948277,0.28645516252546127,1.3240534471850254,0.9464019732332677,0.287708,0.6651446535953507
0.0305,1.77674375,1.0,2684.9259401878157,0.2904575808663132,1.3236493507979692,0.9477337315552394,0.2876762375,0.665979265714455
0.031,1.775975,1.0,2691.191151070679,0.29443755409626515,1.323244787665382,0.9490084757588102,0.28764395,0.6668137986197773
0.0315,1.7751937500000001,1.0,2696.923960928135,0.2983952052885961,1.3228395143541083,0.9502294166265572,0.2876111375,0.6676487499094499
0.032,1.7744,1.0,2702.149294929472,0.302330657516585,1.3224332874309943,0.9513995408921853,0.2875778,0.6684846146570211
0.0325,1.77359375,1.0,2706.8923329506288,0.3062440338535109,1.3220258634628848,0.9525216296181785,0.2875439375,0.6693218853985443
0.033,1.772775,1.0,2711.178484908936,0.31013545737265275,1.3216169990166249,0.9535982748546519,0.28750955,0.6701610521158812
0.0335,1.7719437500000002,1.0,2715.033367412617,0.31400505114728955,1.3212064506590604,0.9546318947585041,0.2874746375,0.6710026022162264
0.034,1.7711000000000001,1.0,2718.4827817237747,0.31785293825070027,1.3207939749570363,0.9556247473315594,0.2874392,0.6718470205078583
0.0345,1.7702437500000001,1.0,2721.552693035454,0.3216792417561639,1.320379328477398,0.9565789429184541,0.2874032375,0.6726947891721032
0.035,1.7693750000000001,1.0,2724.262207851634,0.32548408032182186,1.3199623315046534,0.9574964613519296,0.28736675,0.6735462577107982
0.035500000000000004,1.76849375,1.0,2726.6328275349733,0.3292675774001918,1.3195427835820732,0.9583791551348438,0.2873297375,0.6744018158820801
0.036000000000000004,1.7676,1.0,2728.6900428595022,0.3330298572745058,1.3191204489385453,0.9592287565434869,0.2872922,0.6752619230524914
0.0365,1.76669375,1.0,2730.448716256669,0.3367710362158776,1.3186951892713408,0.9600468981160694,0.2872541375,0.676126837803904
0.037,1.765775,1.0,2731.923780690532,0.3404912304954212,1.3182668662777302,0.9608351119711289,0.28721555,0.6769968170591627
0.0375,1.76484375,1.0,2733.1302315289568,0.34419055638425017,1.3178353416549848,0.9615948371044629,0.2871764375,0.6778721160556731
0.038,1.7639,1.0,2734.083118838642,0.34786913015347853,1.3174004771003756,0.9623274260781202,0.28713679999999997,0.6787529883177742
0.0385,1.76294375,1.0,2734.79754010476,0.35152706807421996,1.316962134311173,0.9630341511582218,0.28709663750000003,0.6796396856278888
0.039,1.761975,1.0,2735.2886333735687,0.3551644864175884,1.3165201749846482,0.9637162099525358,0.28705595,0.680532457996453
0.0395,1.7609937500000001,1.0,2735.5715708205894,0.35878150145469756,1.3160744608180721,0.9643747305935471,0.2870147375,0.6814315536306282
0.04,1.76,1.0,2735.6599112714716,0.3623782272684768,1.3156248684122496,0.9650107774375866,0.286973,0.6823371889022645
0.0405,1.7589937500000001,1.0,2735.5650115173394,0.36595477611575306,1.3151712945670426,0.9656253559329807,0.2869307375,0.6832495378856328
0.041,1.757975,1.0,2735.303546893581,0.3695112689194497,1.3147135879571838,0.9662194124942279,0.28688795,0.6841688697548339
0.0415,1.75694375,1.0,2734.8838691585593,0.3730478154582491,1.3142516729599103,0.9667938455521606,0.2868446375,0.6850952998785
0.042,1.7559,1.0,2734.314341740213,0.37656452551083375,1.3137854739524588,0.967349504246395,0.28680079999999997,0.6860289423993329
0.0425,1.75484375,1.0,2733.603337390326,0.3800615088558859,1.3133149153120662,0.9678871916306577,0.2867564375,0.6869699102136249
0.043000000000000003,1.753775,1.0,2732.7592359653922,0.3835388752720881,1.3128399214159694,0.9684076676382257,0.28671155,0.6879183149504149
0.043500000000000004,1.75269375,1.0,2731.7904223352957,0.38699673453812256,1.3123604166414051,0.96891165182768,0.28666613750000003,0.68887426695028
0.044,1.7516,1.0,2730.7052844173395,0.3904351964326718,1.3118763253656103,0.9693998259272887,0.2866202,0.6898378752437628
0.0445,1.75049375,1.0,2729.512211338414,0.3938543707344182,1.311387571965822,0.9698728361946444,0.2865737375,0.6908092475294327
0.045,1.7493750000000001,1.0,2728.2195917231425,0.39725436722204416,1.3108940808192766,0.9703312956066659,0.28652675,0.6917884901515852
0.0455,1.74824375,1.0,2726.8315631694977,0.4006352732547497,1.3103958149433423,0.9707757856510245,0.2864792375,0.6927756315869209
0.046,1.7471,1.0,2725.3643928239444,0.4039972282141862,1.3098926270281452,0.9712068575340028,0.2864312,0.6937709174540653
0.0465,1.7459437500000001,1.0,2723.8223819430837,0.4073403344014419,1.3093844785201612,0.9716250377800025,0.28638263750000004,0.6947743764375254
0.047,1.744775,1.0,2722.2098049414453,0.4106646940203739,1.3088713310959834,0.9720308268969158,0.28633355,0.695786035800368
0.0475,1.74359375,1.0,2720.5309341371762,0.41397040927483963,1.3083531464322045,0.9724247009001542,0.28628393750000003,0.6968059218283147
0.048,1.7424,1.0,2718.7900392183597,0.41725758236869626,1.3078298862054174,0.972807112736778,0.2862338,0.6978340598174738
0.0485,1.74119375,1.0,2716.9913867436057,0.42052631550580105,1.3073015120922151,0.9731784936140371,0.2861831375,0.698870474061984
0.049,1.739975,1.0,2715.1392396736987,0.4237767108900113,1.3067679857691903,0.9735392542395596,0.28613195,0.6999151878415621
0.0495,1.73874375,1.0,2713.2378569368534,0.4270088707251842,1.306229268912936,0.9738897859798255,0.2860802375,0.7009682234089565
0.05,1.7375,1.0,2711.291493025975,0.4302228972151771,1.305685323200045,0.9742304619429965,0.286028,0.7020296019773089
0.0505,1.73624375,1.0,2709.3043976286526,0.43341889256384725,1.30513611030711,0.9745616379916858,0.2859752375,0.7030993437074211
0.051000000000000004,1.734975,1.0,2707.2808152898083,0.43659695897505185,1.3045815919107242,0.9748836536907841,0.28592195,0.7041774676949268
0.051500000000000004,1.73369375,1.0,2705.224985106747,0.43975719865264823,1.30402172968748,0.9751968331950477,0.2858681375,0.705263991957375
0.052000000000000005,1.7324,1.0,2703.1411404566707,0.4428997138004937,1.3034564853139707,0.9755014860807726,0.2858138,0.7063589334212114
0.0525,1.73109375,1.0,2701.025836675365,0.4460245813037238,1.3028858905696814,0.9757979098863306,0.28575893750000003,0.7074621724930197
0.053,1.729775,1.0,2698.8867653257553,0.4491319210022588,1.3023098754921343,0.9760863871687104,0.28570355000000003,0.7085737856502878
0.0535,1.72844375,1.0,2696.7312632637927,0.4522218472046874,1.3017283732554235,0.9763671876890538,0.2856476375,0.7096938417494767
0.054,1.7271,1.0,2694.5607504292816,0.45529445315673056,1.3011413710588986,0.976640570663001,0.2855912,0.7108223043264246
0.0545,1.7257437500000001,1.0,2692.376644657052,0.45834983210410934,1.3005488561019094,0.976906784175225,0.2855342375,0.7119591361474291
0.055,1.724375,1.0,2690.180361637634,0.46138807729254466,1.299950815583805,0.977166065748374,0.28547675,0.7131042992047518
0.0555,1.72299375,1.0,2687.9733148814626,0.4644092819677576,1.2993472367039358,0.9774186428783411,0.2854187375,0.7142577547121105
0.056,1.7216,1.0,2685.7569156868162,0.4674135393754691,1.298738106661651,0.977664733538126,0.2853602,0.7154194631001659
0.0565,1.72019375,1.0,2683.5325731112584,0.4704009427614002,1.2981234126563002,0.9779045466523687,0.28530113749999997,0.7165893840119941
0.057,1.718775,1.0,2681.301693947069,0.47337158537127183,1.297503141887233,0.97813828254449,0.28524155,0.717767476298549
0.0575,1.71734375,1.0,2679.0656826992977,0.47632556045080504,1.2968772815537992,0.9783661333582271,0.2851814375,0.7189536980141142
0.058,1.7159,1.0,2676.8259415688876,0.4792629612457208,1.2962458188553485,0.9785882834552253,0.2851208,0.7201480064117476
0.0585,1.71444375,1.0,2674.583870438517,0.4821838810017402,1.2956087409912302,0.9788049097902265,0.2850596375,0.721350357938711
0.059000000000000004,1.7129750000000001,1.0,2672.3408668620073,0.4850884129645841,1.2949660351607943,0.9790161822652816,0.28499795,0.722560708231891
0.059500000000000004,1.71149375,1.0,2670.098326058018,0.48797665037997356,1.2943176885633905,0.9792222640643194,0.2849357375,0.7237790121132115
0.06,1.71,1.0,2667.8576409065954,0.4908486864936295,1.2936636883983679,0.9794233119693009,0.284873,0.7250052235850328
0.0605,1.7084937500000001,1.0,2665.620201950127,0.49370461455127307,1.2930040218650767,0.9796194766591121,0.2848097375,0.726239295825541
0.061,1.7069750000000001,1.0,2663.3873973972886,0.4965445277986252,1.2923386761628661,0.9798109029922599,0.28474595,0.7274811811841291
0.0615,1.7054437500000001,1.0,2661.160388132156,0.49936848091937613,1.2916676405623317,0.9799977273686652,0.2846816375,0.7287308273239874
0.062,1.7039,1.0,2658.9415818998887,0.5021766111756695,1.2909908928333291,0.9801800868201365,0.2846168,0.7299882024491772
0.0625,1.70234375,1.0,2656.731209603271,0.5049690035491882,1.2903084307646473,0.9803581102034571,0.2845514375,0.7312532366931377
0.063,1.7007750000000001,1.0,2654.52948832875,0.507745742426954,1.2896202522690308,0.9805319215225727,0.28448555,0.7325258592972672
0.0635,1.69919375,1.0,2652.3366348205254,0.5105069121959886,1.2889263552592236,0.9807016401830009,0.28441913750000003,0.7338059988412657
0.064,1.6976,1.0,2650.152865483243,0.513252597243314,1.2882267376479708,0.9808673811946251,0.2843522,0.735093583242372
0.0645,1.69599375,1.0,2647.978396386222,0.5159828819559518,1.2875213973480164,0.9810292553641012,0.2842847375,0.7363885397546048
0.065,1.694375,1.0,2645.8134432666616,0.5186978507209237,1.286810332272105,0.9811873694774773,0.28421675,0.7376907949679998
0.0655,1.69274375,1.0,2643.658221533093,0.5213975879252517,1.286093540332981,0.981341826473595,0.2841482375,0.7390002748078476
0.066,1.6911,1.0,2641.512946269427,0.5240821779559575,1.2853710194433887,0.9814927256087977,0.2840792,0.740316904533932
0.0665,1.6894437500000001,1.0,2639.377832238789,0.5267517052000628,1.2846427675160728,0.9816401626134404,0.2840096375,0.7416406087397671
0.067,1.687775,1.0,2637.253093886988,0.5294062540445894,1.2839087824637774,0.9817842298406657,0.28393955,0.7429713113518353
0.0675,1.68609375,1.0,2635.138945347124,0.5320459088765591,1.2831690621992473,0.9819250164078772,0.2838689375,0.7443089356288227
0.068,1.6844000000000001,1.0,2633.0356004434148,0.5346707540829938,1.2824236046352266,0.9820626083313192,0.2837978,0.7456534041608585
0.0685,1.68269375,1.0,2630.943272695283,0.5372808740509151,1.2816724076844601,0.9821970886541443,0.2837261375,0.7470046388687477
0.069,1.680975,1.0,2628.862175322023,0.5398763531673448,1.280915469259692,0.9823285375683234,0.28365395,0.7483625610032112
0.0695,1.67924375,1.0,2626.7925212469518,0.5424572758193048,1.2801527872736667,0.9824570325307375,0.28358123749999997,0.749727091144119
0.07,1.6775,1.0,2624.7276737782404,0.5450237260855846,1.279384423127277,0.9825826513073609,0.283508,0.7510980360772915
0.07050000000000001,1.67574375,1.0,2622.6682826241376,0.5475757827483667,1.2786103707521725,0.9827054656246579,0.2834342375,0.7524753230527327
0.07100000000000001,1.673975,1.0,2620.6535465676634,0.5501135253823759,1.2778302664700658,0.9828255284407088,0.28335995,0.7538595122231257
0.07150000000000001,1.6721953969342727,1.0,2618.725802511894,0.5526370333585656,1.2770444607056133,0.9829429233935179,0.28328520667123946,0.755249894108214
0.07200000000000001,1.6704143135811238,1.0,2617.3031970118013,0.5551463860478894,1.2762533038834714,0.9830577314968698,0.2832104011704072,0.756645765604166
0.0725,1.6686332302279752,1.0,2616.4195812535518,0.5576416628213006,1.2754571464282962,0.9831700312499331,0.28313559566957497,0.7580464301070796
0.073,1.6668521468748265,1.0,2616.0369398907696,0.5601229430497525,1.2746563387647438,0.9832798987416888,0.2830607901687427,0.7594511976286552
0.0735,1.6650710635216777,1.0,2616.1186713253437,0.5625903048223079,1.2738512196990706,0.9833874071586287,0.2829859846679105,0.760859405195572
0.074,1.663289980168529,1.0,2616.6143066722598,0.5650438277458691,1.273042257965168,0.9834926333293209,0.2829111791670782,0.7622701701699066
0.0745,1.6615088968153804,1.0,2617.4939302334155,0.5674835885456652,1.2722297323333256,0.9835956433064534,0.282836373666246,0.7636829490871362
0.075,1.6597278134622315,1.0,2618.728080275651,0.5699096638795352,1.2714139180002244,0.9836965010226203,0.2827615681654137,0.7650972101905851
