Time [s],Phi [rad],STIM [ ],Fsee [N],Gamma [ ],Lcerel [ ],q [ ],Lmtc [m],fisomrel [ ]
0.0,1.8,1.0,18.001324138651853,0.0001879513294893776,1.3793359203063065,0.005009199302778224,0.288653,0.5411487868793607
0.0005,1.79999375,1.0,18.36889346221421,0.00579610637999979,1.3792921646639513,0.01344192212303294,0.2886527375,0.5412546359200703
0.001,1.799975,1.0,21.842698061293547,0.01137280411475655,1.3789154506094514,0.036541899196837174,0.28865195,0.5421654377851925
0.0015,1.79994375,1.0,31.578337371921062,0.016918220985394566,1.3780030062802284,0.07187536480643746,0.2886506375,0.5443677526884872
0.002,1.7999,1.0,54.65841066072846,0.022432532451717335,1.3762986718548056,0.11622374560560617,0.2886488,0.5484671860979253
0.0025,1.79984375,1.0,98.90991664912504,0.02791591299031589,1.373849258509381,0.16621140394318562,0.28864643749999996,0.5543263134948532
0.003,1.7997750000000001,1.0,163.2771900534305,0.033368536100747505,1.371127850934335,0.21896776583733948,0.28864354999999997,0.5607911934338713
0.0035,1.79969375,1.0,240.29727998147956,0.038790574306424665,1.3685044378699032,0.272290422270081,0.2886401375,0.5669785691013607
0.004,1.7996,1.0,324.24406138867533,0.04418219916497736,1.366082690786787,0.32453962897541594,0.2886362,0.5726513504665363
0.0045000000000000005,1.7994937500000001,1.0,412.1412116997301,0.04954358127357281,1.3638554810657382,0.37457561035897136,0.2886317375,0.5778354237832279
0.005,1.799375,1.0,502.34358259699957,0.05487489026078687,1.3617961694827851,0.4216890511217933,0.28862675,0.5826005476644892
0.0055,1.79924375,1.0,593.7447958907329,0.060176294825369,1.3598811856239983,0.46550824159768994,0.2886212375,0.5870074369702338
0.006,1.7991000000000001,1.0,685.4736660990791,0.06544796270110922,1.3580927486099008,0.5059063166437524,0.2886152,0.5911019878603521
0.006500000000000001,1.79894375,1.0,776.8172589285145,0.0706900606772522,1.3564171815993646,0.5429220163354729,0.2886086375,0.5949196194539716
0.007,1.798775,1.0,867.1852548164843,0.07590275465982235,1.3548435989054584,0.5766985700619738,0.28860155,0.5984885851907595
0.0075,1.79859375,1.0,956.0884707826755,0.0810862094661674,1.3533630488305517,0.6074392681083475,0.2885939375,0.6018321292129374
0.008,1.7984,1.0,1043.1479344229895,0.08624058934207547,1.3519676043668432,0.6353764466324688,0.2885858,0.6049706807278871
0.0085,1.79819375,1.0,1128.0413429389823,0.09136605711234044,1.3506506589321443,0.6607514583514257,0.2885771375,0.6079212863215977
0.009000000000000001,1.797975,1.0,1210.5291626106057,0.09646277497353127,1.3494061326609534,0.6838014190056937,0.28856795,0.6106994721266461
0.0095,1.79774375,1.0,1290.4463724315237,0.10153090455071333,1.3482283420882284,0.704751575142487,0.2885582375,0.613319584714553
0.01,1.7975,1.0,1367.6500624249848,0.10657060574186426,1.3471124863461605,0.7238115079321085,0.288548,0.6157937558118193
0.0105,1.79724375,1.0,1442.0541419419008,0.11158203790983809,1.3460539880482612,0.7411730110982441,0.2885372375,0.6181334099358863
0.011,1.796975,1.0,1513.6295966416901,0.1165653604142756,1.3450483787183822,0.7570097562774758,0.28852595000000003,0.6203495419126781
0.0115,1.79669375,1.0,1582.3470379826606,0.12152073048334944,1.3440918991113184,0.7714781655578068,0.2885141375,0.6224514188965762
0.012,1.7964,1.0,1648.2014468917478,0.12644830447383573,1.3431810728767481,0.7847182659245433,0.28850180000000003,0.6244475485304977
0.0125,1.79609375,1.0,1711.222020338128,0.1313482383472834,1.3423125166070193,0.7968549314866377,0.2884889375,0.6263461128002842
0.013000000000000001,1.7957750000000001,1.0,1771.4648443075964,0.13622068799744558,1.341482971434893,0.8079993178683714,0.28847555,0.6281549114158036
0.0135,1.79544375,1.0,1828.9771599588187,0.14106580740631608,1.340689651443254,0.8182503965471181,0.2884616375,0.6298806167075066
0.014,1.7951000000000001,1.0,1883.806168759118,0.1458837491233269,1.3399300785976151,0.8276962012619303,0.2884472,0.6315291507162601
0.0145,1.79474375,1.0,1936.0231212665728,0.15067466569791005,1.3392017748634886,0.8364149436603747,0.2884322375,0.6331063645709797
0.015,1.794375,1.0,1985.7005763095788,0.155438708610166,1.33850248221318,0.8444762205894146,0.28841675,0.6346175686719255
0.0155,1.79399375,1.0,2032.944803908116,0.16017603013879306,1.3378297878429415,0.85194189717856,0.2884007375,0.6360683496364578
0.016,1.7936,1.0,2077.8227601582553,0.16488677913053795,1.3371818758642249,0.8588672558321083,0.2883842,0.6374629546832986
0.0165,1.7931937500000001,1.0,2120.407441743882,0.16957110399275083,1.3365570122762878,0.8653016111247379,0.2883671375,0.6388054129070749
0.017,1.792775,1.0,2160.7843367739415,0.17422915313278195,1.3359534630783882,0.8712889921928209,0.28834955,0.6400997150689989
0.0175,1.7923437500000001,1.0,2199.037355135705,0.17886107387963335,1.335369625916056,0.8768688033573759,0.2883314375,0.6413495344799895
0.018000000000000002,1.7919,1.0,2235.2660504988075,0.18346701436823437,1.3348038416634667,0.88207631655065,0.2883128,0.6425586339521185
0.0185,1.79144375,1.0,2269.5447350911195,0.18804711948822672,1.334254795432351,0.886943255641665,0.2882936375,0.6437300118956545
0.019,1.790975,1.0,2301.9462973449313,0.19260153332608926,1.3337212603293271,0.8914981399148864,0.28827395,0.6448664553705532
0.0195,1.79049375,1.0,2332.5502231467967,0.19713039996830067,1.3332020094610135,0.8957666296989281,0.2882537375,0.6459707298824702
0.02,1.79,1.0,2361.4359997887896,0.20163386264507097,1.3326958749320585,0.899771864093473,0.288233,0.6470454553673217
0.0205,1.78949375,1.0,2388.687342281517,0.20611206506928947,1.3322016999870188,0.90353473353804,0.2882117375,0.6480932095846135
0.021,1.788975,1.0,2414.380977470599,0.21056514965641415,1.331718442561075,0.9070741505823396,0.28818995000000003,0.6491163101557869
0.021500000000000002,1.78844375,1.0,2438.577450108441,0.21499325585192444,1.33124525663858,0.9104072816958422,0.2881676375,0.6501166452628868
0.022,1.7879,1.0,2461.340758687826,0.2193965231012997,1.3307812962038865,0.913549695997095,0.2881448,0.6510960908216732
0.0225,1.78734375,1.0,2482.7380685723233,0.22377509085001937,1.3303257152413477,0.9165155359753345,0.28812143749999997,0.652056511002207
0.023,1.786775,1.0,2502.835013002242,0.22812909774967202,1.3298777097671173,0.9193176756592147,0.28809755,0.6529996702767906
0.0235,1.78619375,1.0,2521.694809585575,0.23245868185865826,1.3294365229837868,0.9219678534542435,0.28807313749999996,0.6539272236108193
0.024,1.7856,1.0,2539.391702625036,0.23676398284333536,1.3290013156267615,0.9244767659253413,0.2880482,0.654840989527615
0.0245,1.78499375,1.0,2555.9726719407295,0.2410451349985803,1.3285715250725412,0.9268542340274146,0.2880227375,0.6557421967841341
0.025,1.784375,1.0,2571.4863179629597,0.24530227261927012,1.3281465886976258,0.9291092439040126,0.28799675,0.6566320673664261
0.025500000000000002,1.78374375,1.0,2585.982727252316,0.24953553000028178,1.3277259438785154,0.9312500292436465,0.2879702375,0.6575118166739037
0.026000000000000002,1.7831000000000001,1.0,2599.513345037781,0.25374504143649235,1.3273090279917092,0.9332841445080937,0.2879432,0.6583826536834263
0.0265,1.78244375,1.0,2612.128407756415,0.25793094055398,1.3268953011503797,0.9352185334556522,0.2879156375,0.6592457336919726
0.027,1.781775,1.0,2623.871773042409,0.2620933591684988,1.3264842928279235,0.9370595936154534,0.28788755,0.6601020616602383
0.0275,1.7810937500000001,1.0,2634.8022560993036,0.2662324329487922,1.3260754027954627,0.9388131993332692,0.2878589375,0.6609529071804108
0.028,1.7804,1.0,2644.9549787162264,0.27034829072872685,1.3256682584783175,0.9404847988214462,0.2878298,0.661799060649553
0.0285,1.77969375,1.0,2654.365748597426,0.27444106134216956,1.3252624873018075,0.9420794220406091,0.2878001375,0.6626413085275559
0.029,1.778975,1.0,2663.0709998481952,0.27851087362298704,1.3248577166912534,0.9436017182512333,0.28776995,0.6634804333741879
0.029500000000000002,1.7782437500000001,1.0,2671.1077365390124,0.28255785640504594,1.324453574071975,0.9450559897430713,0.2877392375,0.6643172138773006
0.03,1.7775,1.0,2678.513479346477,0.2865821385222129,1.3240496868692926,0.9464462221730657,0.287708,0.665152424872173
0.0305,1.77674375,1.0,2685.315303381037,0.2905838448144077,1.3236457825060757,0.947776123600087,0.2876762375,0.6659866309503507
0.031,1.775975,1.0,2691.554998187089,0.2945631066282086,1.3232414570892606,0.9490491217838033,0.28764395,0.6668206646008028
0.0315,1.7751937500000001,1.0,2697.2681967315093,0.29852005167813134,1.3228363666405258,0.9502684087015745,0.2876111375,0.6676552307855357
0.032,1.7744,1.0,2702.4785669055236,0.30245480275178827,1.3224302794558156,0.9514369660209729,0.2875778,0.6684908000320302
0.0325,1.77359375,1.0,2707.210023071919,0.3063674826367919,1.3220229638310743,0.9525575701515804,0.2875439375,0.6693278404510543
0.033,1.772775,1.0,2711.486702780015,0.3102582141207549,1.321614188062246,0.9536328088649105,0.28750955,0.6701668177202239
0.0335,1.7719437500000002,1.0,2715.3329446712164,0.3141271199912896,1.3212037204452751,0.9546650963788124,0.2874746375,0.6710081950641376
0.034,1.7711000000000001,1.0,2718.773267574681,0.31797432303600864,1.320791329276106,0.9556566870645461,0.2874392,0.6718524332310872
0.0345,1.7702437500000001,1.0,2721.8323507936016,0.3217999460425245,1.3203767828506827,0.9566096879168633,0.2874032375,0.6726999904663473
0.035,1.7693750000000001,1.0,2724.5300326642873,0.3256041087735415,1.3199598947990536,0.9575260740382833,0.28736675,0.6735512299750592
0.035500000000000004,1.76849375,1.0,2726.8878926690513,0.32938693318138074,1.3195404639719823,0.958407693548648,0.2873297375,0.6744065429992674
0.036000000000000004,1.7676,1.0,2728.9325997241654,0.3331485434732068,1.3191182439101106,0.9592562739869104,0.2872922,0.6752664107261709
0.0365,1.76669375,1.0,2730.6791566011793,0.3368890561070133,1.3186930950638005,0.9600734445198846,0.2872541375,0.6761310942559166
0.037,1.765775,1.0,2732.142636521526,0.34060858754079404,1.3182648778834134,0.9608607341389813,0.28721555,0.6770008530161223
0.0375,1.76484375,1.0,2733.33817496773,0.3443072542325426,1.3178334528193112,0.9616195789368246,0.2871764375,0.6778759447351872
0.038,1.7639,1.0,2734.2809619266595,0.34798517264025275,1.3173986803218556,0.9623513287778168,0.28713679999999997,0.678756625414364
0.0385,1.76294375,1.0,2734.986234564438,0.35164245922191806,1.3169604208414079,0.9630572534192307,0.28709663750000003,0.6796431492985895
0.039,1.761975,1.0,2735.4692703326755,0.35527923043553233,1.31651853482833,0.9637385481335784,0.28705595,0.6805357688460691
0.0395,1.7609937500000001,1.0,2735.745380507519,0.35889560273908916,1.3160728827329835,0.9643963388778439,0.2870147375,0.6814347346966252
0.04,1.76,1.0,2735.8173732135265,0.36249168194425463,1.3156234387755796,0.9650316952658105,0.286973,0.6823400666309883
0.0405,1.7589937500000001,1.0,2735.7118048400134,0.36606759585877796,1.3151699617690416,0.9656456112654226,0.2869307375,0.6832522168319544
0.041,1.757975,1.0,2735.4408950570487,0.36962345769749083,1.3147123408550603,0.9662390338247309,0.28688795,0.684171372810996
0.0415,1.75694375,1.0,2735.012891089677,0.3731593770190648,1.3142505013680412,0.9668128598437469,0.2868446375,0.6850976479270878
0.042,1.7559,1.0,2734.4360516109855,0.37667546338217134,1.3137843686423898,0.9673679370329923,0.28680079999999997,0.6860311543230129
0.0425,1.75484375,1.0,2733.7186444422673,0.38017182634548186,1.3133138680125114,0.9679050671110729,0.2867564375,0.6869720029050976
0.043000000000000003,1.753775,1.0,2732.868944376452,0.3836485754676679,1.3128389248128114,0.9684250087630347,0.28671155,0.6879203033225898
0.043500000000000004,1.75269375,1.0,2731.895231126132,0.3871058203074009,1.312359464377695,0.9689284803796345,0.28666613750000003,0.688876163946682
0.044,1.7516,1.0,2730.8057873937178,0.3905436704233524,1.3118754120415679,0.9694161625957862,0.2866202,0.6898396918491781
0.0445,1.75049375,1.0,2729.608897066772,0.39396223537419384,1.3113866931388352,0.9698887006447579,0.2865737375,0.6908109927808065
0.045,1.7493750000000001,1.0,2728.312843535795,0.3973616247185967,1.3108932330039023,0.9703467065431791,0.28652675,0.6917901711491752
0.0455,1.74824375,1.0,2726.925624724311,0.4007419470018206,1.3103949595484947,0.9707907611723678,0.2864792375,0.6927773248944143
0.046,1.7471,1.0,2725.4522879039173,0.404103299551777,1.3098918274955873,0.9712214165660608,0.2864312,0.6937724976130266
0.0465,1.7459437500000001,1.0,2723.904054590417,0.40744580646462336,1.3093837353789197,0.9716391967205328,0.28638263750000004,0.6947758427391153
0.047,1.744775,1.0,2722.2853097893253,0.41076957011103643,1.3088706438718432,0.9720446012910566,0.28633355,0.6957873895222992
0.0475,1.74359375,1.0,2720.6004362583276,0.4140746928616929,1.3083525136477092,0.9724381054892157,0.28628393750000003,0.6968071662217452
0.048,1.7424,1.0,2718.853813960995,0.41736127708726944,1.307829305379869,0.9728201615037728,0.2862338,0.6978352000935819
0.0485,1.74119375,1.0,2717.049819555712,0.4206294251584428,1.3073009797416744,0.9731911998261932,0.2861831375,0.6988715173782112
0.049,1.739975,1.0,2715.192825917608,0.4238792394458897,1.3067674974064762,0.9735516304880417,0.28613195,0.6999161432875243
0.0495,1.73874375,1.0,2713.2872016961996,0.4271108223202868,1.3062288190476263,0.9739018442168681,0.2860802375,0.7009691019920157
0.05,1.7375,1.0,2711.3373109062622,0.4303242761523108,1.3056849053384758,0.9742422135166388,0.286028,0.7020304166078033
0.0505,1.73624375,1.0,2709.347512553362,0.43351970331263845,1.305135716952376,0.9745730936782814,0.2859752375,0.7031001091835442
0.051000000000000004,1.734975,1.0,2707.322160293736,0.4366972061719464,1.3045812145626787,0.974894823725446,0.28592195,0.7041782006872559
0.051500000000000004,1.73369375,1.0,2705.265602128602,0.4398568871009114,1.3040213588427347,0.9752077273001726,0.2858681375,0.7052647109930393
0.052000000000000005,1.7324,1.0,2703.1730977854777,0.44299881212338665,1.3034561934219628,0.9755121148906755,0.2858138,0.706359498322233
0.0525,1.73109375,1.0,2701.0564249626414,0.44612312278358773,1.3028856110728173,0.975808281689872,0.28575893750000003,0.7074627123885397
0.053,1.729775,1.0,2698.920259142987,0.4492299259030716,1.302309569325158,0.9760965101840149,0.28570355000000003,0.7085743759388949
0.0535,1.72844375,1.0,2696.7662312057387,0.45231931506730105,1.3017280534857982,0.9763770708505407,0.2856476375,0.7096944570780335
0.054,1.7271,1.0,2694.5959696703276,0.4553913838617391,1.3011410488615502,0.9766502224535056,0.2855912,0.7108229231204255
0.0545,1.7257437500000001,1.0,2692.4111006425687,0.4584462258718486,1.3005485407592272,0.9769162126473141,0.2855342375,0.7119597405851376
0.055,1.724375,1.0,2690.2132477665004,0.46148393468309246,1.2999505144856418,0.9771752785444265,0.28547675,0.713104875190685
0.0555,1.72299375,1.0,2688.0040321806573,0.4645046038809336,1.299346955347607,0.9774276472494796,0.2854187375,0.7142582918498656
0.056,1.7216,1.0,2685.7850724787636,0.46750832705083506,1.2987378486519352,0.9776735363620669,0.2853602,0.7154199546645837
0.0565,1.72019375,1.0,2683.557984675874,0.4704951977782596,1.2981231797054391,0.9779131544502622,0.28530113749999997,0.7165898269206583
0.057,1.718775,1.0,2681.3243821789033,0.47346530964867023,1.297502933814932,0.9781467014968096,0.28524155,0.7177678710826154
0.0575,1.71734375,1.0,2679.085875761747,0.47641875624752983,1.2968770962872265,0.9783743693197696,0.2851814375,0.7189540487884722
0.058,1.7159,1.0,2676.844073545718,0.47935563116030133,1.296245652429135,0.9785963419692743,0.2851208,0.720148320844503
0.0585,1.71444375,1.0,2674.6005809845606,0.4822760279724477,1.2956085875474708,0.9788127961019306,0.2850596375,0.7213506472199914
0.059000000000000004,1.7129750000000001,1.0,2672.357000853877,0.4851800402694318,1.2949658869490464,0.9790239013342938,0.28499795,0.722560987041972
0.059500000000000004,1.71149375,1.0,2670.1149332460077,0.4880677616367165,1.2943175359406744,0.9792298205767425,0.2849357375,0.7237792985899547
0.06,1.71,1.0,2667.87597556906,0.4909392856597648,1.2936635198291682,0.9794307103489797,0.284873,0.7250055392906369
0.0605,1.7084937500000001,1.0,2665.6417225513005,0.4937947059240396,1.29300382392134,0.9796267210783107,0.2848097375,0.7262396657126033
0.061,1.7069750000000001,1.0,2663.412705619868,0.49663410038062794,1.2923384432836016,0.9798179966618717,0.28474595,0.7274816153651801
0.0615,1.7054437500000001,1.0,2661.18862369813,0.4994575526895559,1.2916673806378431,0.9800046763588499,0.2846816375,0.7287313108158786
0.062,1.7039,1.0,2658.9719190961227,0.5022651856464798,1.2909906134456934,0.9801868958400279,0.2846168,0.7299887209390913
0.0625,1.70234375,1.0,2656.762898898335,0.5050570835731517,1.2903081388036404,0.9803647837062506,0.2845514375,0.731253777246066
0.063,1.7007750000000001,1.0,2654.5618696904803,0.5078333307913238,1.2896199538081718,0.9805384637553012,0.28448555,0.7325264105744655
0.0635,1.69919375,1.0,2652.3691375635017,0.5105940116227481,1.2889260555557758,0.9807080551952442,0.28441913750000003,0.7338065510873111
0.064,1.6976,1.0,2650.185008117539,0.5133392103891768,1.2882264411429405,0.9808736728467573,0.2843522,0.735094128271923
0.0645,1.69599375,1.0,2648.0097864669547,0.5160690114123622,1.2875211076661535,0.9810354273351052,0.2842847375,0.7363890709388654
0.065,1.694375,1.0,2645.8437772446136,0.5187834990140561,1.2868100522219028,0.9811934252723509,0.28421675,0.7376913072208846
0.0655,1.69274375,1.0,2643.687284606633,0.5214827575160108,1.2860932719066769,0.9813477694303717,0.2841482375,0.7390007645718504
0.066,1.6911,1.0,2641.5406122379386,0.5241668712399783,1.2853707638169634,0.9814985589052029,0.2840792,0.7403173697656982
0.0665,1.6894437500000001,1.0,2639.404063357005,0.5268359245077108,1.2846425250492501,0.9816458892732052,0.2840096375,0.7416410488953668
0.067,1.687775,1.0,2637.2779407213657,0.5294900016409605,1.2839085527000251,0.9817898527395151,0.28393955,0.742971727371738
0.0675,1.68609375,1.0,2635.1625466334026,0.5321291869614794,1.2831688438657767,0.9819305382792138,0.2838689375,0.7443093299225746
0.068,1.6844000000000001,1.0,2633.0581829459074,0.5347535647910195,1.2824233956429927,0.9820680317716157,0.2837978,0.7456537805914594
0.0685,1.68269375,1.0,2630.9651510682156,0.5373632194513333,1.2816722051281608,0.9822024161280617,0.2837261375,0.7470050027367324
0.069,1.680975,1.0,2628.8837519723,0.5399582352641724,1.2809152694177692,0.9823337714135713,0.28365395,0.7483629190304277
0.0695,1.67924375,1.0,2626.8142861989895,0.5425386965512894,1.2801525856083058,0.9824621749626883,0.28358123749999997,0.7497274514572094
0.07,1.6775,1.0,2624.7570538648883,0.5451046876344362,1.2793841507962587,0.9825877014898363,0.283508,0.7510985213133081
0.07050000000000001,1.67574375,1.0,2622.711107497908,0.5476562441983722,1.2786099736429124,0.9827104207230718,0.2834342375,0.752476028656555
0.07100000000000001,1.673975,1.0,2620.6777092726434,0.5501934946899588,1.2778300423260631,0.9828304048261365,0.28335995,0.7538599093785012
0.07150000000000001,1.67219375,1.0,2618.657164179209,0.5527165344884994,1.2770443538885154,0.9829477219349062,0.2832851375,0.7552500828395887
0.07200000000000001,1.6704,1.0,2616.649259559583,0.5552254387203919,1.2762529101748872,0.9830624369353425,0.2832098,0.7566464592471484
0.0725,1.66859375,1.0,2614.6537831421265,0.5577202825120334,1.2754557130297965,0.9831746125921736,0.2831339375,0.7580489482118826
0.073,1.6667750000000001,1.0,2612.670523037305,0.560201140989822,1.2746527642978613,0.9832843096307416,0.28305755,0.7594574587485441
0.0735,1.66494375,1.0,2610.6992677331077,0.5626680892801549,1.2738440658236996,0.9833915868151668,0.2829806375,0.7608718992766113
0.074,1.6631,1.0,2608.739806090766,0.5651212025094297,1.273029619451929,0.9834965010230149,0.2829032,0.7622921776209656
0.0745,1.6612437500000001,1.0,2606.7919273405105,0.567560555804044,1.272209427027168,0.9835991073166468,0.2828252375,0.7637182010125667
0.075,1.659375,1.0,2604.8554210776365,0.5699862242903952,1.2713834903940342,0.9836994590114178,0.28274675,0.76514987608913
