Time [s],Phi [rad],STIM [ ],Fsee [N],Gamma [ ],Lcerel [ ],q [ ],Lmtc [m],fisomrel [ ]
0.0,1.8,1.0,18.008607231140285,0.00020773626040896713,1.3793351052135072,0.00501122907376995,0.288653,0.5411507587776065
0.0005,1.79999375,1.0,18.382511205717293,0.005815780333105411,1.379290656076254,0.01349858090439967,0.2886527375,0.5412582851187657
0.001,1.799975,1.0,21.871008202931982,0.011392367712543101,1.3789125749621016,0.03664641566995561,0.28865195,0.542172386911957
0.0015,1.79994375,1.0,31.6387576814131,0.016937674846871708,1.3779979027804135,0.07201750624841366,0.2886506375,0.5443800557831924
0.002,1.7999,1.0,54.78251203024014,0.022451877192399713,1.3762907049588242,0.11639149007185873,0.2886488,0.5484863053622165
0.0025,1.79984375,1.0,99.11340896011654,0.027935149222310322,1.3738395468763787,0.16639351694199894,0.28864643749999996,0.5543494680843875
0.003,1.7997750000000001,1.0,163.53867199825618,0.033387664432685975,1.3711181370583718,0.21915539777483498,0.28864354999999997,0.5608141847778175
0.0035,1.79969375,1.0,240.5909121382225,0.03880959534353632,1.3684954452972664,0.2724768716873722,0.2886401375,0.5669997027907185
0.004,1.7996,1.0,324.555402633954,0.044201113509105765,1.36607448190871,0.3247200411720241,0.2886362,0.5726705156099157
0.0045000000000000005,1.7994937500000001,1.0,412.46291050182447,0.049562389523213304,1.3638479574071949,0.37474678417075763,0.2886317375,0.5778528823042478
0.005,1.799375,1.0,502.67126471316067,0.05489359301112477,1.361789227734168,0.4218491403181895,0.28862675,0.5826165647178387
0.0055,1.79924375,1.0,594.074994904633,0.060194892667941445,1.3598747513007752,0.4656564215956517,0.2886212375,0.5870222046435116
0.006,1.7991000000000001,1.0,685.804008593152,0.06546645622461293,1.3580867575436844,0.5060424682493369,0.2886152,0.5911156698719726
0.006500000000000001,1.79894375,1.0,777.1450991743436,0.07070845046331375,1.3564115963264667,0.5430464934185105,0.2886086375,0.5949323150638386
0.007,1.798775,1.0,867.5091566276575,0.07592104129960314,1.3548383760950058,0.5768119975754429,0.28860155,0.5985004044970001
0.0075,1.79859375,1.0,956.4066416258869,0.08110439352456487,1.3533581627278712,0.6075424282214429,0.2885939375,0.601843140413212
0.008,1.7984,1.0,1043.459742259234,0.08625867140260493,1.351963020109364,0.6354701752448926,0.2885858,0.6049809709040034
0.0085,1.79819375,1.0,1128.3468604443328,0.09138403776171394,1.3506463394511659,0.6608365934329277,0.2885771375,0.6079309458848781
0.009000000000000001,1.797975,1.0,1210.8231862941554,0.09648065473021335,1.3494021197853683,0.6838788115638317,0.28856795,0.6107084141884285
0.0095,1.79774375,1.0,1290.7302901908658,0.10154868402273544,1.3482245890233626,0.7048219737913242,0.2885582375,0.6133279196412953
0.01,1.7975,1.0,1367.926493465008,0.10658828553285019,1.347108936866045,0.7238755972116635,0.288548,0.6158016133537119
0.0105,1.79724375,1.0,1442.3236547464348,0.11159961862016635,1.346050617848001,0.7412314298264103,0.2885372375,0.6181408478540077
0.011,1.796975,1.0,1513.8881287007378,0.11658284236249791,1.3450452231802394,0.7570631081985502,0.28852595000000003,0.6203564858434272
0.0115,1.79669375,1.0,1582.596881711755,0.12153811435101408,1.34408891656072,0.7715269572494121,0.2885141375,0.6224579639670598
0.012,1.7964,1.0,1648.4432843833729,0.1264655908659313,1.3431782441569358,0.7847629594335211,0.28850180000000003,0.6244537395961818
0.0125,1.79609375,1.0,1711.453933119511,0.13136542771638524,1.3423098543856273,0.7968959513360397,0.2884889375,0.6263519247145747
0.013000000000000001,1.7957750000000001,1.0,1771.687004918742,0.13623778093771552,1.3414804648953818,0.8080370322775318,0.28847555,0.6281603702003634
0.0135,1.79544375,1.0,1829.1905117821887,0.14108280456373276,1.3406872824330511,0.8182851299040216,0.2884616375,0.6298857639935665
0.014,1.7951000000000001,1.0,1884.0108402573228,0.1459006510263041,1.3399278392843976,0.8277282453396434,0.2884472,0.6315340053553595
0.0145,1.79474375,1.0,1936.2183617262756,0.15069147275729652,1.3391996677351838,0.8364445612174193,0.2884322375,0.6331109228582299
0.015,1.794375,1.0,1985.89214247191,0.1554554213389341,1.3385004407628287,0.8445036217804176,0.28841675,0.6346219757760545
0.0155,1.79399375,1.0,2033.1275847503205,0.1601926489138224,1.3378278627775029,0.851967307633415,0.2884007375,0.6360724972295431
0.016,1.7936,1.0,2077.997917333325,0.1649033048007178,1.3371800511203753,0.8588908560674352,0.2883842,0.6374668785920317
0.0165,1.7931937500000001,1.0,2120.57481922606,0.16958753715815078,1.3365552861753893,0.8653235662160961,0.2883671375,0.6388091178169701
0.017,1.792775,1.0,2160.942400450596,0.17424549414465187,1.3359518483264885,0.8713094535230722,0.28834955,0.640103174764082
0.0175,1.7923437500000001,1.0,2199.1892169675284,0.17887732318899344,1.3353680880723084,0.8768878931714369,0.2883314375,0.6413528236694017
0.018000000000000002,1.7919,1.0,2235.408685882437,0.18348317199081926,1.3348024090035393,0.8820941610393039,0.2883128,0.6425616930019987
0.0185,1.79144375,1.0,2269.684129161775,0.18806318664730684,1.3342534059416755,0.8869599456445681,0.2882936375,0.6437329739043032
0.019,1.790975,1.0,2302.0843839941585,0.192617510792808,1.3337198935922927,0.8915137671885641,0.28827395,0.6448693642243266
0.0195,1.79049375,1.0,2332.6847560726465,0.19714628806167453,1.3332006866609665,0.8957812866406367,0.2882537375,0.6459735408439428
0.02,1.79,1.0,2361.566479723651,0.20164966208825824,1.3326945998532722,0.8997856302999759,0.288233,0.6470481608050737
0.0205,1.78949375,1.0,2388.8038185235096,0.2061277747854846,1.3322005682649627,0.903547700401019,0.2882117375,0.6480956072845532
0.021,1.788975,1.0,2414.4862269671357,0.2105807704408937,1.331717425376486,0.9070863747909363,0.28818995000000003,0.6491184620586588
0.021500000000000002,1.78844375,1.0,2438.679997265118,0.21500878937745022,1.3312442704995249,0.9104188035522495,0.2881676375,0.6501187285115995
0.022,1.7879,1.0,2461.444310890057,0.21941197032763712,1.3307803050153333,0.9135605613678786,0.2881448,0.6510981818047292
0.0225,1.78734375,1.0,2482.841413861501,0.22379045202393746,1.3303247303051657,0.916525795599315,0.28812143749999997,0.6520585859337358
0.023,1.786775,1.0,2502.9363611472213,0.22814437319883424,1.3298767477502769,0.9193273768508688,0.28809755,0.6530016941763399
0.0235,1.78619375,1.0,2521.7931446238704,0.23247387194856775,1.3294355930646755,0.921977037974077,0.28807313749999996,0.6539291773664717
0.024,1.7856,1.0,2539.469959622986,0.23677908508686402,1.329000578160141,0.9244854979973958,0.2880482,0.6548425368950668
0.0245,1.78499375,1.0,2556.042380367414,0.24106015196372416,1.3285708702982864,0.9268625271174191,0.2880227375,0.6557435688502127
0.025,1.784375,1.0,2571.554922933352,0.24531720605422844,1.3281459462348737,0.9291171166461782,0.28799675,0.656633411892919
0.025500000000000002,1.78374375,1.0,2586.0535267667274,0.2495503808334571,1.327725282725665,0.9312575049006894,0.2879702375,0.6575131985407621
0.026000000000000002,1.7831000000000001,1.0,2599.58543673075,0.2537598097764904,1.327308356526422,0.9332912504859643,0.2879432,0.6583840553187901
0.0265,1.78244375,1.0,2612.1990912234955,0.25794562635840845,1.3268946443929073,0.935225297552591,0.2879156375,0.6592471028929678
0.027,1.781775,1.0,2623.943769067386,0.26210796394140745,1.3264836253735024,0.9370660342987344,0.28788755,0.6601034514125463
0.0275,1.7810937500000001,1.0,2634.8626910392245,0.26624695231280654,1.326074843683262,0.9388193529393243,0.2878589375,0.6609540698881898
0.028,1.7804,1.0,2645.009354180981,0.27036272749671697,1.3256677563913066,0.9404906768302598,0.2878298,0.6618001034663665
0.0285,1.77969375,1.0,2654.4176666607596,0.2744554175353,1.3252620087561757,0.9420850372476397,0.2878001375,0.6626423012114078
0.029,1.778975,1.0,2663.1221454877827,0.2785251504707169,1.324857246036408,0.9436070846556559,0.28776995,0.6634814084746193
0.029500000000000002,1.7782437500000001,1.0,2671.1578629704527,0.2825720543451288,1.3244531134905426,0.9450611224450886,0.2877392375,0.6643181669205773
0.03,1.7775,1.0,2678.5603959648897,0.2865962572006969,1.3240492563771187,0.9464511372797462,0.287708,0.6651533145453967
0.0305,1.77674375,1.0,2685.3657779137034,0.29059788707958256,1.3236453199546752,0.9477808264287976,0.2876762375,0.6659875856869769
0.031,1.775975,1.0,2691.5989128355955,0.2945770669330117,1.3232410551194953,0.9490536342393728,0.28764395,0.6668214932564904
0.0315,1.7751937500000001,1.0,2697.298443738423,0.2985339275703161,1.3228360900696146,0.9502727487671677,0.2876111375,0.6676558002186344
0.032,1.7744,1.0,2702.503478436929,0.3024685990409265,1.3224300518907073,0.9514411354634704,0.2875778,0.6684912679775377
0.0325,1.77359375,1.0,2707.235492170162,0.3063812028748498,1.322022731376043,0.9525615728496047,0.2875439375,0.6693283178479362
0.033,1.772775,1.0,2711.516171093104,0.31027186060209283,1.3216139193188914,0.9536366506525293,0.28750955,0.6701673689424159
0.0335,1.7719437500000002,1.0,2715.367392525372,0.3141406937526625,1.3212034065125213,0.95466878490176,0.2874746375,0.6710088381529081
0.034,1.7711000000000001,1.0,2718.811206169725,0.3179878238565657,1.3207909837502028,0.9556602316480207,0.2874392,0.6718531401293915
0.0345,1.7702437500000001,1.0,2721.869816301841,0.32181337244380925,1.3203764418252049,0.9566130994440124,0.2874032375,0.6727006872558072
0.035,1.7693750000000001,1.0,2724.5655649297646,0.3256174610444001,1.3199595715307972,0.9575293607120274,0.28736675,0.673551889623178
0.035500000000000004,1.76849375,1.0,2726.9209159241104,0.329400211188345,1.3195401636602493,0.9584108621093282,0.2873297375,0.6744071549999398
0.036000000000000004,1.7676,1.0,2728.958284867206,0.33316174418428407,1.3191180104181455,0.9592593340844069,0.2872922,0.6752668859271824
0.0365,1.76669375,1.0,2730.694922781374,0.3369021730402281,1.318692951786332,0.9600764023937612,0.2872541375,0.6761313854646516
0.037,1.765775,1.0,2732.1561877046893,0.3406216272440805,1.3182647547680162,0.9608635892571351,0.28721555,0.6770011029096127
0.0375,1.76484375,1.0,2733.354915505416,0.3443202215403501,1.317833300761256,0.9616223324053379,0.2871764375,0.6778762529566487
0.038,1.7639,1.0,2734.30399272858,0.34799807067354555,1.317398471164109,0.9623539832417813,0.28713679999999997,0.6787570487968314
0.0385,1.76294375,1.0,2735.016350472198,0.35165528938817586,1.3169601473746333,0.963059812970565,0.28709663750000003,0.6796437020926364
0.039,1.761975,1.0,2735.5049585747274,0.3552919924287498,1.3165182107908864,0.9637410182253768,0.28705595,0.6805364229519644
0.0395,1.7609937500000001,1.0,2735.782820115411,0.35890829453977624,1.3160725428109263,0.9643987262448228,0.2870147375,0.68143541990126
0.04,1.76,1.0,2735.8629662254716,0.362504310465764,1.3156230248328107,0.9650339996352031,0.286973,0.6823408998577392
0.0405,1.7589937500000001,1.0,2735.7584512120707,0.3660801549512219,1.3151695382545976,0.9656478407576584,0.2869307375,0.6832530681007135
0.041,1.757975,1.0,2735.4823479933184,0.36963594274065886,1.3147119644743444,0.9662411957729613,0.28688795,0.684172128242025
0.0415,1.75694375,1.0,2735.0381191070514,0.3731717657860161,1.3142502722866514,0.966814961919521,0.2868446375,0.6850981070400686
0.042,1.7559,1.0,2734.4524718777766,0.3766877684726431,1.3137842195233669,0.9673699783947985,0.28680079999999997,0.6860314527363249
0.0425,1.75484375,1.0,2733.7327106284206,0.3801840589100274,1.31331374025505,0.9679070473617896,0.2867564375,0.6869722581868336
0.043000000000000003,1.753775,1.0,2732.8855520582683,0.3836607439544357,1.3128387739485639,0.9684269281742358,0.28671155,0.687920604318748
0.043500000000000004,1.75269375,1.0,2731.9177179760054,0.38711793046213483,1.3123592600707712,0.9689303398693271,0.28666613750000003,0.6888765709440061
0.044,1.7516,1.0,2730.8359337856177,0.3905557252893915,1.311875138088535,0.9694179637068172,0.2866202,0.6898402367418918
0.0445,1.75049375,1.0,2729.6469270543785,0.3939742352924726,1.3113863474687182,0.9698904455239353,0.2865737375,0.6908116792413607
0.045,1.7493750000000001,1.0,2728.3574261613367,0.3973735673276449,1.3108928276781837,0.9703483979211448,0.28652675,0.6917909748031351
0.0455,1.74824375,1.0,2726.9741590272292,0.40075382825117517,1.3103945181837948,0.9707924022924319,0.2864792375,0.6927781986015622
0.046,1.7471,1.0,2725.503851926204,0.4041151249193302,1.309891358452414,0.9712230107125897,0.2864312,0.6937734246062421
0.0465,1.7459437500000001,1.0,2723.953228377765,0.4074575641883768,1.3093832879509044,0.9716407476928437,0.28638263750000004,0.6947767255634176
0.047,1.744775,1.0,2722.3290081208092,0.4107812529145818,1.308870246146129,0.9720461118151803,0.28633355,0.6957881729771355
0.0475,1.74359375,1.0,2720.637906168846,0.41408629795421187,1.3083521725049507,0.9724395772548218,0.28628393750000003,0.6968078370901694
0.048,1.7424,1.0,2718.8866319455674,0.4173728061635339,1.3078290064942324,0.9728215951994904,0.2862338,0.6978357868647125
0.0485,1.74119375,1.0,2717.0746539861134,0.42064086840537684,1.307300753490007,0.9731925977863429,0.2861831375,0.6988719607923277
0.049,1.739975,1.0,2715.209929821515,0.4238905992427994,1.3067673415296326,0.9735529942057215,0.28613195,0.6999164482488577
0.0495,1.73874375,1.0,2713.3022234247182,0.42712211400189176,1.3062286820986462,0.9739031733064649,0.2860802375,0.7009693694519334
0.05,1.7375,1.0,2711.354225711152,0.4303355109133428,1.3056847510754244,0.9742435080910014,0.286028,0.702030717346798
0.0505,1.73624375,1.0,2709.3686247657806,0.4335308882078416,1.305135524338344,0.9745743543408258,0.2859752375,0.7031004840139154
0.051000000000000004,1.734975,1.0,2707.3481056500586,0.43670834411607695,1.3045809777657815,0.9748960515621294,0.28592195,0.7041786606608434
0.051500000000000004,1.73369375,1.0,2705.2953502211326,0.43986797686873796,1.3040210872361135,0.9752089238714082,0.2858681375,0.7052652376140671
0.052000000000000005,1.7324,1.0,2703.213036964532,0.4430098846965135,1.303455828627717,0.9755132808253562,0.2858138,0.7063602043107963
0.0525,1.73109375,1.0,2701.103840839466,0.44613416583009247,1.302885177818968,0.9758094181990014,0.28575893750000003,0.7074635492907273
0.053,1.729775,1.0,2698.970433137022,0.4492409185001639,1.3023091106882438,0.9760976187157372,0.28570355000000003,0.7085752601877651
0.0535,1.72844375,1.0,2696.815481351459,0.4523302409374168,1.3017276031139207,0.9763781527326075,0.2856476375,0.7096953237217104
0.054,1.7271,1.0,2694.6416490642373,0.4554022313725401,1.3011406309743754,0.9766512788839484,0.2855912,0.7108237256899077
0.0545,1.7257437500000001,1.0,2692.4515958409224,0.4584569880362227,1.3005481701479846,0.9769172446862486,0.2855342375,0.7119604509588586
0.055,1.724375,1.0,2690.247977141013,0.4614946091591535,1.299950196513125,0.9771762871068694,0.28547675,0.7131054834557962
0.0555,1.72299375,1.0,2688.0334442408725,0.46451519297202165,1.299346685948173,0.9774286330990728,0.2854187375,0.7142588061602229
0.056,1.7216,1.0,2685.81008169738,0.46751883083529955,1.2987376194855775,0.977674499768629,0.2853602,0.7154203912757982
0.0565,1.72019375,1.0,2683.579089408457,0.4705056067607472,1.2981229862366623,0.9779140950122449,0.28530113749999997,0.7165901947619095
0.057,1.718775,1.0,2681.3441866953144,0.473475643288716,1.2975027521897178,0.9781476203283517,0.28524155,0.7177682156873194
0.0575,1.71734375,1.0,2679.106340533585,0.4764290303159442,1.2968769085284966,0.9783752674674567,0.2851814375,0.7189544042811311
0.058,1.7159,1.0,2676.86651630398,0.4793658577391701,1.296245446436752,0.9785972204247751,0.2851208,0.7201487100302597
0.0585,1.71444375,1.0,2674.6256777860744,0.48228621545513206,1.2956083570982373,0.9788136558136034,0.2850596375,0.7213510816762787
0.059000000000000004,1.7129750000000001,1.0,2672.38478715404,0.4851901933605682,1.2949656316967049,0.9790247432178482,0.28499795,0.7225614672122572
0.059500000000000004,1.71149375,1.0,2670.1448049739397,0.4880778813522168,1.294317261415908,0.9792306455250414,0.2849357375,0.7237798138795921
0.06,1.71,1.0,2667.906690202714,0.49094936932681615,1.2936632374395998,0.9794315192410492,0.284873,0.7250060681648383
0.0605,1.7084937500000001,1.0,2665.6714001892465,0.49380474718110456,1.293003550951533,0.9796275147876277,0.2848097375,0.726240175796532
0.061,1.7069750000000001,1.0,2663.439890676538,0.4966441048118203,1.292338193135461,0.979818776783879,0.28474595,0.7274820817420087
0.0615,1.7054437500000001,1.0,2661.213115806186,0.4994675321157016,1.2916671551751364,0.9800054443125957,0.2846816375,0.7287317302042184
0.062,1.7039,1.0,2658.9920281246204,0.5022751189894867,1.2909904282543123,0.9801876511724126,0.2846168,0.729989064618533
0.0625,1.70234375,1.0,2656.7775785900576,0.5050669553299139,1.290308003556742,0.9803655261166254,0.2845514375,0.7312540276495494
0.063,1.7007750000000001,1.0,2654.5707165826693,0.5078431310337215,1.2896198722661782,0.9805391930794746,0.28448555,0.7325265611878911
0.0635,1.69919375,1.0,2652.3723899154706,0.5106037359976476,1.2889260255663741,0.9807087713906367,0.28441913750000003,0.7338066063469991
0.064,1.6976,1.0,2650.182587007168,0.5133488497127471,1.2882264634768097,0.980874375669078,0.2843522,0.7350940872182758
0.0645,1.69599375,1.0,2647.998511963482,0.5160785245081619,1.2875212117121733,0.9810361156944631,0.2842847375,0.7363888801516698
0.065,1.694375,1.0,2645.826487513234,0.5187929121868461,1.286810211844449,0.9811941001589836,0.28421675,0.7376910152479026
0.0655,1.69274375,1.0,2643.666461010673,0.5214920934887206,1.286093464233085,0.9813484316860026,0.2841482375,0.7390004136578843
0.066,1.6911,1.0,2641.518379944016,0.5241761491537068,1.285370969237529,0.9814992092343876,0.2840792,0.7403169959069938
0.0665,1.6894437500000001,1.0,2639.382191934405,0.5268451599217258,1.2846427272172294,0.9816465282539283,0.2840096375,0.7416406818952104
0.067,1.687775,1.0,2637.257844734772,0.5294992065326986,1.283908738531634,0.9817904808330952,0.28393955,0.742971390897246
0.0675,1.68609375,1.0,2635.145286229803,0.5321383697265465,1.2831690035401906,0.9819311558395597,0.2838689375,0.7443090415626772
0.068,1.6844000000000001,1.0,2633.0444644344198,0.5347627302431905,1.2824235226023475,0.9820686390538842,0.2837978,0.7456535519160756
0.0685,1.68269375,1.0,2630.9553274932337,0.537372368822552,1.2816722960775526,0.9822030132967523,0.2837261375,0.7470048393571413
0.069,1.680975,1.0,2628.87782367981,0.539967366204552,1.2809153243252542,0.9823343585500995,0.28365395,0.748362820660833
0.0695,1.67924375,1.0,2626.8119013957694,0.5425478031291117,1.2801526077049001,0.9824627520724736,0.28358123749999997,0.749727411977501
0.07,1.6775,1.0,2624.7575091700905,0.5451137603361521,1.2793841465759384,0.9825882685089363,0.283508,0.7510985288330185
0.07050000000000001,1.67574375,1.0,2622.7145956581876,0.5476653185655946,1.2786099412978167,0.9827109799958004,0.2834342375,0.752476086128913
0.07100000000000001,1.673975,1.0,2620.68310964112,0.5502025585573602,1.2778299922299836,0.9828309562604782,0.28335995,0.7538599981424976
0.07150000000000001,1.67219375,1.0,2618.663000024966,0.55272556105137,1.277044299731887,0.9829482647166995,0.2832851375,0.7552501785270038
0.07200000000000001,1.6704,1.0,2616.6542158400052,0.5552344067875453,1.2762528641629745,0.983062970555344,0.2832098,0.756646540311713
0.0725,1.66859375,1.0,2614.6567062397125,0.5577291765058071,1.2754556858826944,0.983175136831115,0.2831339375,0.7580489959020867
0.073,1.6667750000000001,1.0,2612.6704205002366,0.5602099509460767,1.274652765250495,0.9832848245452762,0.28305755,0.7594574570798994
0.0735,1.66494375,1.0,2610.695308019559,0.5626768108482754,1.273844102625824,0.9833920927246472,0.2829806375,0.760871835003371
0.074,1.6631,1.0,2608.7313183165593,0.5651298369523239,1.2730296983681293,0.9834969984970563,0.2829032,0.762292040207297
0.0745,1.6612437500000001,1.0,2606.7784010304417,0.5675691099981437,1.2722095528368593,0.9835995971634284,0.2828252375,0.7637179826031795
0.075,1.659375,1.0,2604.843216631031,0.5699946514154202,1.2713836039511013,0.9836999362082587,0.28274675,0.765149679548826
0.0755,1.65749375,1.0,2602.9190322673835,0.5724066088469498,1.270551914203969,0.9837980740452072,0.2826677375,0.766586931506914
