Time [s],Phi [rad],STIM [ ],Fsee [N],Gamma [ ],Lcerel [ ],q [ ],Lmtc [m],fisomrel [ ]
0.0,1.8,1.0,17.96717948112318,1.9650305817680448e-05,1.3793397438318922,0.005000102364566581,0.288653,0.5411395368289363
0.0005,1.79999375,1.0,18.279763788244026,0.005628749391940045,1.3793020523798896,0.012967327603298873,0.2886527375,0.5412307176671031
0.001,1.799975,1.0,21.628577125279225,0.011206385867063264,1.378937260909294,0.03565888318382756,0.28865195,0.5421127305311276
0.0015,1.79994375,1.0,31.094613311210505,0.01675273621242976,1.3780440421108766,0.07067055993449338,0.2886506375,0.5442688208688449
0.002,1.7999,1.0,53.637990123636946,0.022267975917612984,1.3763645254325936,0.11479937897415118,0.2886488,0.5483091326399829
0.0025,1.79984375,1.0,97.21301791461713,0.027752279488152266,1.3739306348533649,0.16466338433176728,0.28864643749999996,0.5541322714227026
0.003,1.7997750000000001,1.0,161.08108834898954,0.033205820453177944,1.371209743564597,0.21737174652736221,0.28864354999999997,0.5605973414627112
0.0035,1.79969375,1.0,237.8224969881774,0.03862877136507424,1.368580448196592,0.2707036899546028,0.2886401375,0.5667999145637735
0.004,1.7996,1.0,321.61501762607094,0.0440213038102433,1.3661521663708254,0.32300372326002286,0.2886362,0.5724891296618349
0.0045000000000000005,1.7994937500000001,1.0,409.42141257322726,0.04938358841429477,1.3639192074773088,0.3731179692284868,0.2886317375,0.5776875332560188
0.005,1.799375,1.0,499.570392465878,0.05471579483315535,1.361855008745294,0.42032554645061876,0.28862675,0.5824647724679309
0.0055,1.79924375,1.0,590.9488080817447,0.06001809180015172,1.3599357406704469,0.46424599411990886,0.2886212375,0.5868822148852577
0.006,1.7991000000000001,1.0,682.6767819739667,0.06529064707014737,1.3581435306504803,0.5047464020515945,0.2886152,0.5909860059094658
0.006500000000000001,1.79894375,1.0,774.0411505202632,0.07053362747198857,1.356464524285646,0.5418614868258685,0.2886086375,0.5948119991256638
0.007,1.798775,1.0,864.4465947590555,0.07574719890742117,1.3548877979475247,0.5757320945867546,0.28860155,0.5983885550636381
0.0075,1.79859375,1.0,953.4024568066611,0.08093152631654431,1.353404329996188,0.6065602139344136,0.2885939375,0.6017390929207445
0.008,1.7984,1.0,1040.516433277678,0.08608677375812233,1.35200632051502,0.6345777436184199,0.2885858,0.6048837701450163
0.0085,1.79819375,1.0,1125.4751994331775,0.09121310433439639,1.3506869628094458,0.6600258839307349,0.2885771375,0.6078400960315256
0.009000000000000001,1.797975,1.0,1208.0372170277396,0.09631068024778192,1.3494401626635395,0.6831420101965775,0.28856795,0.6106236374925991
0.0095,1.79774375,1.0,1288.0140717297857,0.10137966246411925,1.3482605112283674,0.7041519501874856,0.2885582375,0.6132481387721817
0.01,1.7975,1.0,1365.3056745542565,0.10642021242896862,1.3471426036147927,0.723265478582646,0.288548,0.6157270814908895
0.0105,1.79724375,1.0,1439.7996726195602,0.11143248867750578,1.3460821920521364,0.7406751146665361,0.2885372375,0.6180711618124624
0.011,1.796975,1.0,1511.4439168867557,0.11641664963213219,1.3450750670218514,0.7565551883390041,0.28852595000000003,0.6202908103312015
0.0115,1.79669375,1.0,1580.2253189446471,0.12137285310533762,1.3441172369775103,0.7710625129173792,0.2885141375,0.6223958138232272
0.012,1.7964,1.0,1646.1707838318061,0.1263012569600653,1.343204833286774,0.7843374192478662,0.28850180000000003,0.6243955433947628
0.0125,1.79609375,1.0,1709.2899780270445,0.1312020164998,1.3423347023239363,0.7965053280140219,0.2884889375,0.6262976772473914
0.013000000000000001,1.7957750000000001,1.0,1769.6074208645452,0.1360752861923032,1.341503934072115,0.8076779282894482,0.28847555,0.6281092570576163
0.0135,1.79544375,1.0,1827.1794303515505,0.14092122050533618,1.3407096185144292,0.8179544816680059,0.2884616375,0.6298372316701281
0.014,1.7951000000000001,1.0,1882.0765314673693,0.14573997276558015,1.3399490074390585,0.827423228115577,0.2884472,0.6314881133329048
0.0145,1.79474375,1.0,1934.3777082404958,0.150531696540422,1.3392195371693734,0.8361626326601489,0.2884322375,0.6330679387837888
0.015,1.794375,1.0,1984.1414887148117,0.15529654234393275,1.338519100501351,0.8442425951063101,0.28841675,0.6345816919507532
0.0155,1.79399375,1.0,2031.4442910729572,0.1600346606536899,1.337845594661174,0.8517252974455451,0.2884007375,0.6360342926276712
0.016,1.7936,1.0,2076.371236556781,0.16474620125026845,1.3371970004363536,0.8586661395219675,0.2883842,0.6374304301553755
0.0165,1.7931937500000001,1.0,2119.0166756088843,0.16943131423659352,1.3365713573589708,0.8651145352031036,0.2883671375,0.6387746218288902
0.017,1.792775,1.0,2159.4718439777635,0.17409014878674922,1.3359668735656884,0.8711146513191111,0.28834955,0.6400709817171453
0.0175,1.7923437500000001,1.0,2197.803520144459,0.17872285083686343,1.335382122436053,0.8767060776575052,0.2883314375,0.64132280596393
0.018000000000000002,1.7919,1.0,2234.0878656493587,0.18332956632306394,1.3348156773496103,0.8819242633723674,0.2883128,0.6425333616100819
0.0185,1.79144375,1.0,2268.4096449454155,0.18791044118147854,1.3342661116859067,0.8868010005915992,0.2882936375,0.6437058883239316
0.019,1.790975,1.0,2300.854701119977,0.19246562049594632,1.3337320660392478,0.8913648641885108,0.28827395,0.644843456942523
0.0195,1.79049375,1.0,2331.511341838684,0.1969952495055517,1.3332122255854406,0.8956415754490424,0.2882537375,0.6459490201543285
0.02,1.79,1.0,2360.4606645288695,0.20149947221442466,1.332705407240001,0.8996543448243002,0.288233,0.6470252295703605
0.0205,1.78949375,1.0,2387.766366440805,0.2059784296809508,1.3322106494675823,0.9034241714676658,0.2882117375,0.6480742486617577
0.021,1.788975,1.0,2413.496576957739,0.2104322629635157,1.3317269907328368,0.9069700396825051,0.28818995000000003,0.6490982258269655
0.021500000000000002,1.78844375,1.0,2437.723490381964,0.21486111312050493,1.3312534695004177,0.9103091398743863,0.2881676375,0.6500992951018363
0.022,1.7879,1.0,2460.5186505790016,0.2192651203913365,1.3307891660584614,0.9134570709106464,0.2881448,0.6510794885789146
0.0225,1.78734375,1.0,2481.9518433165163,0.22364442469634252,1.3303332090621487,0.9164280115908497,0.28812143749999997,0.652040723822394
0.023,1.786775,1.0,2502.097040906524,0.22799916669641132,1.329884715333048,0.9192348590037781,0.28809755,0.652984931727149
0.0235,1.78619375,1.0,2521.006349028494,0.23232948236329037,1.329443034015715,0.9218894049001308,0.28807313749999996,0.6539135438090574
0.024,1.7856,1.0,2538.733976768073,0.23663550766872718,1.329007514254705,0.9244024077849601,0.2880482,0.6548279833033802
0.0245,1.78499375,1.0,2555.3360615444267,0.24091737858446918,1.3285775051945732,0.9267836976831624,0.2880227375,0.655729665434025
0.025,1.784375,1.0,2570.8705034301865,0.24517523108226388,1.3281523559798747,0.9290422690135695,0.28799675,0.656619997655796
0.025500000000000002,1.78374375,1.0,2585.3886990125134,0.2494091992263693,1.3277314914972036,0.9311863748422118,0.2879702375,0.6575002215593698
0.026000000000000002,1.7831000000000001,1.0,2598.9473385733572,0.25361941910474156,1.3273143001250536,0.9332235821731079,0.2879432,0.6583716483853519
0.0265,1.78244375,1.0,2611.600396611984,0.25780602545659836,1.3269002074622926,0.9351608481375205,0.2879156375,0.6592355049780294
0.027,1.781775,1.0,2623.386530607259,0.26196914877323524,1.3264887916097095,0.9370045942542334,0.28788755,0.6600926943661726
0.0275,1.7810937500000001,1.0,2634.345283985549,0.2661089195459476,1.3260796306680924,0.9387607345878446,0.2878589375,0.6609441149979607
0.028,1.7804,1.0,2644.5170102491657,0.27022546826603094,1.3256723027382302,0.9404347225595707,0.2878298,0.6617906608073295
0.0285,1.77969375,1.0,2653.9428010512556,0.27431892542478076,1.325266385920911,0.9420315928732881,0.2878001375,0.6626332212689698
0.029,1.778975,1.0,2662.664418217188,0.27838942151349244,1.3248614583169238,0.943555999119645,0.28776995,0.6634726814419694
0.029500000000000002,1.7782437500000001,1.0,2670.717934875488,0.28243708380795784,1.3244571558709588,0.9450122543026623,0.2877392375,0.6643098023090828
0.03,1.7775,1.0,2678.145661357924,0.2864620445027526,1.3240530619824287,0.946404348594314,0.287708,0.6651454496805238
0.0305,1.77674375,1.0,2684.9779208971017,0.2904644299849742,1.3236488744094113,0.9477359954201563,0.2876762375,0.6659802490227078
0.031,1.775975,1.0,2691.2428303019065,0.29444436525042766,1.3232443145913986,0.9490106446604717,0.28764395,0.6668147738658704
0.0315,1.7751937500000001,1.0,2696.9688397610785,0.29840197529491813,1.3228391039678828,0.9502315022638868,0.2876111375,0.6676495948635668
0.032,1.7744,1.0,2702.1847011371688,0.30233738511425073,1.322432963978356,0.9514015505104627,0.2875778,0.6684852797835846
0.0325,1.77359375,1.0,2706.919437981368,0.3062507197042306,1.32202561606231,0.9525235663566469,0.2875439375,0.6693223934939084
0.033,1.772775,1.0,2711.2007752047875,0.3101421027789856,1.3216167957232323,0.9536001393449982,0.28750955,0.6701614690966857
0.0335,1.7719437500000002,1.0,2715.051387829703,0.3140116536243701,1.3212062864247427,0.9546336896015024,0.2874746375,0.6710029386518692
0.034,1.7711000000000001,1.0,2718.508049900083,0.3178595058006913,1.3207937448144578,0.9556264665569778,0.2874392,0.6718474913517747
0.0345,1.7702437500000001,1.0,2721.5883557056854,0.3216857779881124,1.3203790038453143,0.9565805880908572,0.2874032375,0.6726954524715694
0.035,1.7693750000000001,1.0,2724.310022678322,0.3254905888667965,1.319961896470248,0.9574980352682888,0.28736675,0.6735471454310022
0.035500000000000004,1.76849375,1.0,2726.690878939361,0.3292740571169068,1.3195422556421954,0.9583806627625838,0.2873297375,0.6744028917700824
0.036000000000000004,1.7676,1.0,2728.748851465265,0.3330363014186066,1.319119914314093,0.9592302083691221,0.2872922,0.675263011122978
0.0365,1.76669375,1.0,2730.501954872578,0.33677744045205876,1.3186947054388767,0.9600483016993091,0.2872541375,0.6761278211901391
0.037,1.765775,1.0,2731.9682808205766,0.34049759289742676,1.3182664619694828,0.9608364721336603,0.28721555,0.6769976377086344
0.0375,1.76484375,1.0,2733.1659880337966,0.3441968774348736,1.3178350168588477,0.9615961561047106,0.2871764375,0.6778727744207143
0.038,1.7639,1.0,2734.1132929422333,0.3478754127445625,1.3174002030599077,0.9623287037730202,0.28713679999999997,0.6787535430405911
0.0385,1.76294375,1.0,2734.8098919310546,0.35153331528015413,1.3169620221466607,0.9630354006205216,0.28709663750000003,0.6796399123619253
0.039,1.761975,1.0,2735.311971210582,0.35517070107472093,1.316519963077565,0.963717408922754,0.28705595,0.6805328857569416
0.0395,1.7609937500000001,1.0,2735.615075398419,0.358787684217881,1.316074065818551,0.9643758737642765,0.2870147375,0.6814323498626603
0.04,1.7600011331115728,1.0,2735.7636851317693,0.3623843784860617,1.3156244379463937,0.9650118803979438,0.28697304759068604,0.6823380553922929
0.0405,1.759006455497252,1.0,2736.208859052671,0.36596089765569045,1.3151711870378677,0.965626452330415,0.28693127113088457,0.6832497540214968
0.041,1.7580117778829312,1.0,2737.041886746166,0.36951735516368905,1.314714415749662,0.9662205550004337,0.2868894946710831,0.6841672082887402
0.0415,1.7570171002686104,1.0,2738.2301047908395,0.3730538639631114,1.3142544221123063,0.9667951167187354,0.28684771821128163,0.6850897901239172
0.042,1.7560224226542895,1.0,2739.7355321352234,0.3765705366704727,1.313791552809598,0.9673510186126516,0.28680594175148016,0.686016777376726
0.0425,1.7550277450399687,1.0,2741.5339428186057,0.3800674835148263,1.3133260299317706,0.9678890830254028,0.2867641652916787,0.68694770078825
0.043000000000000003,1.754033067425648,1.0,2743.601128306804,0.38354481472522545,1.3128580755690573,0.9684100879937503,0.28672238883187723,0.6878820935944707
0.043500000000000004,1.7530383898113269,1.0,2745.9128849729173,0.38700264053072353,1.312387911811691,0.9689147700873358,0.2866806123720757,0.6888194915622805
0.044,1.7520437121970063,1.0,2748.448404782603,0.3904410695713377,1.311915729932771,0.9694038243666994,0.28663883591227424,0.6897594943255951
0.0445,1.7510490345826852,1.0,2751.183169414232,0.3938602130550318,1.3114417547060138,0.9698779126438982,0.28659705945247277,0.6907016371991045
0.045,1.7500543569683644,1.0,2754.0992953041555,0.3972601791565984,1.3109661506316108,0.9703376575059028,0.2865552829926713,0.6916455776829029
0.0455,1.7490596793540436,1.0,2757.1827356209656,0.40064107413784256,1.3104890473334463,0.9707836468739273,0.28651350653286983,0.6925910442792378
0.046,1.7480650017397228,1.0,2760.4194273158755,0.4040030042605696,1.3100105744354045,0.9712164390118131,0.28647173007306836,0.6935377670224188
0.0465,1.747070324125402,1.0,2763.79528700048,0.40734607578658477,1.3095308615613694,0.971636564309874,0.2864299536132669,0.6944854774906771
0.047,1.7460756465110812,1.0,2767.2962071968827,0.4106703949776932,1.3090500383352255,0.972044526945166,0.28638817715346543,0.6954339088169504
0.0475,1.7450809688967603,1.0,2770.913405708631,0.4139760628889311,1.3085681860913285,0.9724408023056669,0.2863464006936639,0.6963828907280206
0.048,1.7440862912824395,1.0,2774.6310156357586,0.4172631890044028,1.3080854498900942,0.9728258483512531,0.28630462423386244,0.6973321287181704
0.0485,1.7430916136681187,1.0,2778.434122508748,0.4205318826659268,1.3076019658750593,0.973200100420493,0.28626284777406097,0.6982813475440015
0.049,1.742096936053798,1.0,2782.3164852887285,0.4237822445788206,1.307117791768717,0.9735639667324599,0.2862210713142595,0.6992304272292955
0.0495,1.741102258439477,1.0,2786.271848389307,0.42701437544840154,1.3066329852935603,0.9739178363541313,0.28617929485445803,0.7001792485011455
0.05,1.7401075808251563,1.0,2790.2939408304624,0.4302283759799871,1.306147604172083,0.9742620802740598,0.28613751839465656,0.7011276927923904
0.0505,1.7391129032108354,1.0,2794.3764754657836,0.4334243468788946,1.3056617061267781,0.9745970524065602,0.2860957419348551,0.7020756422438366
0.051000000000000004,1.7381182255965146,1.0,2798.5131482845054,0.4366023888504415,1.3051753488801388,0.974923090531482,0.28605396547505363,0.7030229797062679
0.051500000000000004,1.7371235479821938,1.0,2802.697637786424,0.43976260259994526,1.3046885901546588,0.9752405171742388,0.28601218901525216,0.7039695887422397
0.052000000000000005,1.736128870367873,1.0,2806.923604431416,0.4429050888327232,1.304201487672831,0.9755496404303868,0.28597041255545064,0.7049153536276673
0.0525,1.7351341927535522,1.0,2811.184690162667,0.44602994825409287,1.3037140991571488,0.9758507547387004,0.28592863609564917,0.7058601593531939
0.053,1.7341395151392314,1.0,2815.476759997897,0.44913727586750213,1.3032264622647867,0.9761441397672173,0.2858868596358477,0.7068039304285137
0.0535,1.7331448375249106,1.0,2819.7969586048343,0.45222716747060515,1.302738603098434,0.9764300624021719,0.28584508317604623,0.7077466141390588
0.054,1.7321501599105897,1.0,2824.135847294364,0.4552997370934729,1.3022506065130437,0.9767087834309924,0.28580330671624476,0.7086880448421469
0.0545,1.731155482296269,1.0,2828.4914337956243,0.4583550784918566,1.301762490614455,0.9769805464506247,0.2857615302564433,0.7096281864099522
0.055,1.730160804681948,1.0,2832.861719695502,0.4613932854215075,1.3012742735085074,0.9772455847631918,0.28571975379664183,0.7105670029397992
0.0555,1.7291661270676273,1.0,2837.244700394239,0.46441445163817685,1.3007859733010403,0.9775041218974001,0.28567797733684036,0.7115044587542918
0.056,1.7281714494533065,1.0,2841.6383650684015,0.46741867089761585,1.300297608097893,0.9777563720993785,0.2856362008770389,0.7124405184014168
0.0565,1.7271767718389857,1.0,2846.0406966411256,0.4704060369555758,1.2998091960049045,0.9780025407949743,0.28559442441723737,0.7133751466546325
0.057,1.7261820942246646,1.0,2850.449671759957,0.47337664356780795,1.2993207551279147,0.9782428250253881,0.2855526479574359,0.7143083085129303
0.0575,1.725187416610344,1.0,2854.8632607811605,0.47633058449006355,1.2988323035727625,0.9784774138578879,0.28551087149763443,0.7152399692008813
0.058,1.724192738996023,1.0,2859.279427762237,0.47926795347809376,1.2983438594452874,0.9787064887732199,0.28546909503783297,0.7161700941686562
0.0585,1.7231980613817022,1.0,2863.6961304609335,0.4821888442876499,1.297855440851329,0.9789302240312122,0.2854273185780315,0.7170986490920296
0.059000000000000004,1.7222033837673814,1.0,2868.111320342264,0.4850933506744832,1.297367065896726,0.9791487870159629,0.28538554211823003,0.7180255998723604
0.059500000000000004,1.7212087061530605,1.0,2872.5229425919533,0.48798156639434487,1.2968787526873182,0.9793623385619057,0.28534376565842856,0.7189509126365502
0.06,1.7202140285387397,1.0,2876.931365696325,0.49085356373901284,1.296390497818466,0.979571030361889,0.28530198919862704,0.7198745943970726
0.0605,1.719219350924419,1.0,2881.334463884226,0.4937094480683988,1.2959023199625825,0.9797750121304957,0.2852602127388256,0.7207966104616117
0.061,1.718224673310098,1.0,2885.7294542518734,0.496549328766023,1.2954142435444798,0.979974428464229,0.2852184362790241,0.7217169155326619
0.0615,1.7172299956957773,1.0,2890.115977579701,0.49937329144056275,1.2949262715056544,0.9801694154889746,0.28517665981922263,0.7226355050247864
0.062,1.7162353180814565,1.0,2894.493673707861,0.5021814217006952,1.2944384067876036,0.980360104230729,0.28513488335942117,0.7235523743889595
0.0625,1.7152406404671356,1.0,2898.862181543263,0.5049738051550979,1.2939506523318243,0.980546620845326,0.2850931068996197,0.7244675191125478
0.063,1.7142459628528148,1.0,2903.2211390668726,0.5077505274124479,1.2934630110798133,0.9807290868361568,0.28505133043981823,0.7253809347192901
0.0635,1.713251285238494,1.0,2907.570183340828,0.5105116740814224,1.2929754859730676,0.9809076192605941,0.28500955398001676,0.7262926167692758
0.064,1.7122566076241732,1.0,2911.9089505159527,0.5132573307706987,1.292488079953084,0.9810823309257869,0.2849677775202153,0.7272025608589233
0.0645,1.7112619300098524,1.0,2916.237075839293,0.5159875830889542,1.2920007959613595,0.9812533305744462,0.28492600106041377,0.7281107626209582
0.065,1.7102672523955316,1.0,2920.554193662451,0.518702516644866,1.2915136369393911,0.9814207230612031,0.28488422460061236,0.7290172177243905
0.0655,1.7092725747812108,1.0,2924.859937448861,0.5214022170471114,1.2910266058286755,0.9815846095200839,0.28484244814081083,0.7299219218744923
0.066,1.70827789716689,1.0,2929.1539397828856,0.5240867699043678,1.29053970557071,0.981745087523608,0.28480067168100937,0.7308248708127716
0.0665,1.7072832195525691,1.0,2933.435832377571,0.5267562608253122,1.290052939106991,0.9819022512339862,0.2847588952212079,0.731726060316952
0.067,1.7062885419382483,1.0,2937.70524608362,0.5294107754186221,1.289566309379016,0.9820561915468647,0.28471711876140643,0.732625486200944
0.0675,1.7052938643239275,1.0,2941.9618108982104,0.5320503992929747,1.2890798193282815,0.9822069962280329,0.28467534230160496,0.7335231443148218
0.068,1.7042991867096067,1.0,2946.205155973875,0.5346752180570472,1.2885934718962846,0.9823547500434847,0.2846335658418035,0.7344190305447972
0.0685,1.7033045090952859,1.0,2950.434909627843,0.5372853173195168,1.288107270024522,0.9824995348832027,0.284591789382002,0.7353131408131925
0.069,1.702309831480965,1.0,2954.6515748540382,0.5398807392127879,1.2876212090057166,0.9826414267901816,0.2845500129222005,0.736205485108705
0.0695,1.701315153866644,1.0,2958.854696268188,0.5424616077241138,1.287135292514062,0.98278050478011,0.28450823646239903,0.7370960580129594
0.07,1.7003204762523234,1.0,2963.044010543223,0.5450280197166588,1.2866495225389891,0.9829168434636533,0.28446646000259757,0.7379848572326836
0.07050000000000001,1.6993257986380024,1.0,2967.2195712308044,0.5475800517833249,1.2861638983030186,0.98305051362756,0.2844246835427961,0.7388718855485321
0.07100000000000001,1.6983311210236816,1.0,2971.3814322754256,0.5501177805170141,1.2856784190286705,0.9831815837506274,0.28438290708299463,0.7397571457311204
0.07150000000000001,1.6973364434093607,1.0,2975.5296480120114,0.5526412825106285,1.2851930839384655,0.9833101200945633,0.28434113062319316,0.7406406405410311
