Time [s],Phi [rad],STIM [ ],Fsee [N],Gamma [ ],Lcerel [ ],q [ ],Lmtc [m],fisomrel [ ]
0.0,1.8,1.0,19.180923416326507,0.001125542521635427,1.379205986035616,0.005325066758303899,0.288653,0.5414630744730745
0.0005,1.79999375,1.0,19.814154203782945,0.006728438426983168,1.3791350592668634,0.01632508467715007,0.2886527375,0.5416345881208928
0.001,1.799975,1.0,23.988067427296663,0.012299906516393627,1.37870256566497,0.041655683544020036,0.28865195,0.5426797409399523
0.0015,1.79994375,1.0,35.346342495301364,0.01784012307522132,1.3776935544897129,0.07872448731171791,0.2886506375,0.5451134531151987
0.002,1.7999,1.0,61.57490078744934,0.023349263399472582,1.3758676341016838,0.12423848460671427,0.2886488,0.5495010256211823
0.0025,1.79984375,1.0,109.53263061012727,0.028827501803166802,1.3733549639773726,0.1748692486634778,0.28864643749999996,0.5555040525301493
0.003,1.7997750000000001,1.0,176.4763607933413,0.03427501162073574,1.3706468465886654,0.22785923522145587,0.28864354999999997,0.5619289385008874
0.0035,1.79969375,1.0,254.87784842754874,0.039691965214949276,1.3680643448264707,0.28110538345683844,0.2886401375,0.568012238735526
0.004,1.7996,1.0,339.5625767558964,0.045078533981968316,1.3656833651687696,0.3330545968234459,0.2886362,0.57358315190958
0.0045000000000000005,1.7994937500000001,1.0,427.874736238856,0.05043488836282163,1.3634908919669342,0.38264444187417884,0.2886317375,0.5786810314320235
0.005,1.799375,1.0,518.2978161759833,0.0557611978235928,1.3614607757075987,0.4292285826448853,0.28862675,0.583374067681317
0.0055,1.79924375,1.0,609.7692346505283,0.061057630900032536,1.3595709660126005,0.47248242408312596,0.2886212375,0.5877191339310117
0.006,1.7991000000000001,1.0,701.4515010267386,0.06632435517999943,1.357804610305191,0.5123116940868967,0.2886152,0.5917597603455049
0.006500000000000001,1.79894375,1.0,792.6495397390313,0.07156153729979947,1.3561487860449162,0.548776387500372,0.2886086375,0.5955294712969788
0.007,1.798775,1.0,882.7846621639387,0.0767693428701417,1.3545931613262194,0.582032506255844,0.28860155,0.599055133739406
0.0075,1.79859375,1.0,971.4085723889548,0.08194793701744557,1.3531286957909017,0.6122898104479695,0.2885939375,0.6023600899522221
0.008,1.7984,1.0,1058.1177399061512,0.08709748317607784,1.3517482830699126,0.6397836760469975,0.2885858,0.605462835960997
0.0085,1.79819375,1.0,1142.6149255720006,0.09221814433045321,1.3504452613901374,0.6647553793606842,0.2885771375,0.6083804807691271
0.009000000000000001,1.797975,1.0,1224.6907307936683,0.09731008290532384,1.349213403927217,0.687440353287946,0.28856795,0.6111288218034643
0.0095,1.79774375,1.0,1304.1628722584828,0.10237345961151874,1.3480474951273538,0.708061626296896,0.2885582375,0.6137211133149703
0.01,1.7975,1.0,1380.9065469571065,0.10740843455794452,1.3469426699323983,0.726825835154958,0.288548,0.6161695911357746
0.0105,1.79724375,1.0,1454.8559706612652,0.11241516757943393,1.3458942501601097,0.7439216911808569,0.2885372375,0.6184858664099984
0.011,1.796975,1.0,1525.9603760932257,0.11739381685471456,1.3448981730584404,0.7595200804448498,0.28852595000000003,0.6206800070821114
0.0115,1.79669375,1.0,1594.199501519999,0.12234453957066493,1.3439506667734016,0.7737745773212824,0.2885141375,0.6227612845221061
0.012,1.7964,1.0,1659.5810716950261,0.1272674922319294,1.3430481919991264,0.7868225529537465,0.28850180000000003,0.6247383225960794
0.0125,1.79609375,1.0,1722.1587738773476,0.1321628318884575,1.342187164867416,0.7987864102444082,0.2884889375,0.6266197200255099
0.013000000000000001,1.7957750000000001,1.0,1781.9592234817687,0.13703071266607433,1.3413647391503483,0.8097753242479959,0.28847555,0.6284123560740265
0.0135,1.79544375,1.0,1839.022540076417,0.14187128798734627,1.3405782593122315,0.8198863811205432,0.2884616375,0.630122606134727
0.014,1.7951000000000001,1.0,1893.415853563021,0.14668471127483979,1.3398250698173744,0.829205824883893,0.2884472,0.6317567663380633
0.0145,1.79474375,1.0,1945.214027844389,0.15147113484702832,1.3391026971575704,0.8378103475736594,0.2884322375,0.6333206657540215
0.015,1.794375,1.0,1994.509618172117,0.15623071133250532,1.3384087091048837,0.8457681445559142,0.28841675,0.6348199795981064
0.0155,1.79399375,1.0,2041.365142458343,0.1609635902470138,1.3377411936759789,0.8531400619778003,0.2884007375,0.6362592031069034
0.016,1.7936,1.0,2085.856256002112,0.16566992094522986,1.3370982638799043,0.8599803024105279,0.2883842,0.6376427311516404
0.0165,1.7931937500000001,1.0,2128.070375138799,0.1703498525409822,1.3364780570421457,0.8663372118632394,0.2883671375,0.6389748632944596
0.017,1.792775,1.0,2168.0964872620207,0.17500353324154405,1.3358788251053264,0.872253998874597,0.28834955,0.6402596136666632
0.0175,1.7923437500000001,1.0,2206.0322981001004,0.17963111184779657,1.33529884595807,0.8777693161433463,0.2883314375,0.6415009052907733
0.018000000000000002,1.7919,1.0,2241.945309079822,0.184232733341372,1.3347368027517827,0.8829178927658418,0.2883128,0.6427017630214098
0.0185,1.79144375,1.0,2275.9110852842236,0.1888085427039026,1.334191378637871,0.8877308839611201,0.2882936375,0.6438651863651759
0.019,1.790975,1.0,2308.012586189875,0.1933586849170207,1.3336612567677406,0.8922362842894573,0.28827395,0.6449941509316706
0.0195,1.79049375,1.0,2338.329474863473,0.1978833036553833,1.3331452190870188,0.8964593123938578,0.2882537375,0.6460913998707343
0.02,1.79,1.0,2366.952672572886,0.20238254404658318,1.3326419954898934,0.9004226913408664,0.288233,0.6471597666980285
0.0205,1.78949375,1.0,2393.9560006181023,0.2068565484355624,1.3321505355169476,0.9041469869183086,0.2882117375,0.6482015999866229
0.021,1.788975,1.0,2419.4016774410384,0.2113054569742967,1.3316699446375542,0.9076508306904741,0.28818995000000003,0.6492189025003883
0.021500000000000002,1.78844375,1.0,2443.355756840248,0.21572940981476177,1.331199328321086,0.910951098535313,0.2881676375,0.65021366364688
0.022,1.7879,1.0,2465.8878093131852,0.22012854710893331,1.3307377920369154,0.914063100307481,0.2881448,0.6511878600718943
0.0225,1.78734375,1.0,2487.0664898737573,0.2245030082525547,1.3302844805937146,0.9170007541962557,0.28812143749999997,0.6521433733384572
0.023,1.786775,1.0,2506.9573323810114,0.22885293196636333,1.3298385955910672,0.9197767363388576,0.28809755,0.6530819542682157
0.0235,1.78619375,1.0,2525.6345221623637,0.23317845834023193,1.329399280715323,0.9224025890461937,0.28807313749999996,0.6540054651282776
0.024,1.7856,1.0,2543.147186959092,0.23747972236017148,1.328965938056268,0.9248888913776543,0.2880482,0.6549152155572694
0.0245,1.78499375,1.0,2559.546259790473,0.2417568590121929,1.3285379697036872,0.9272453118912707,0.2880227375,0.6558125078538874
0.025,1.784375,1.0,2574.884328910203,0.24601000328230718,1.3281147777473665,0.9294806994852108,0.28799675,0.656698637193228
0.025500000000000002,1.78374375,1.0,2589.215495689472,0.25023929015652524,1.3276957642770915,0.9316031640709976,0.2879702375,0.6575748918203218
0.026000000000000002,1.7831000000000001,1.0,2602.5898205483445,0.2544448533361633,1.3272803818341097,0.9336201559321238,0.2879432,0.658442447916197
0.0265,1.78244375,1.0,2615.056746079677,0.2586268266630701,1.3268680998477493,0.9355385239974191,0.2879156375,0.6593024403760261
0.027,1.781775,1.0,2626.6735738814323,0.2627853451885907,1.3264583248911226,0.9373645607011823,0.28788755,0.6601561291750072
0.0275,1.7810937500000001,1.0,2637.4767806784193,0.26692053843803093,1.326050665638222,0.9391040912054232,0.2878589375,0.6610043476941083
0.028,1.7804,1.0,2647.503604670112,0.27103253593669646,1.325644730763041,0.9407624881573533,0.2878298,0.6618479251475337
0.0285,1.77969375,1.0,2656.791979893163,0.2751214672098931,1.3252401289395719,0.9423447127702484,0.2878001375,0.6626876866306463
0.029,1.778975,1.0,2665.3804739786638,0.2791874617829266,1.3248364688418077,0.9438553516799346,0.28776995,0.6635244531581164
0.029500000000000002,1.7782437500000001,1.0,2673.3082293046546,0.2832306491811027,1.3244333591437416,0.945298650057288,0.2877392375,0.6643590416923086
0.03,1.7775,1.0,2680.6086934986724,0.2872511561893267,1.324030465515427,0.9466785480313797,0.287708,0.6651921473783665
0.0305,1.77674375,1.0,2687.322039554044,0.2912491134459922,1.3236273960131268,0.9479986941327102,0.2876762375,0.6660245808347027
0.031,1.775975,1.0,2693.478525532326,0.2952246471430644,1.3232238532845557,0.9492624868294434,0.28764395,0.6668569536603444
0.0315,1.7751937500000001,1.0,2699.1042031995116,0.2991778813724638,1.3228195814748283,0.9504730894439156,0.2876111375,0.6676897889554105
0.032,1.7744,1.0,2704.225407537505,0.30310894022611096,1.3224143247290594,0.9516334451466977,0.2875778,0.6685236071731653
0.0325,1.77359375,1.0,2708.8687295827444,0.30701794779592634,1.3220078271923645,0.9527462949698405,0.2875439375,0.6693589261060342
0.033,1.772775,1.0,2713.060990715531,0.31090502817383037,1.3215998330098582,0.9538141941391859,0.28750955,0.670196260867447
0.0335,1.7719437500000002,1.0,2716.8288977615066,0.31477030507233233,1.3211900892479411,0.9548395271301064,0.2874746375,0.6710361178855218
0.034,1.7711000000000001,1.0,2720.1937452478232,0.3186138939219556,1.3207783939143436,0.9558245244019938,0.2874392,0.6718788966764484
0.0345,1.7702437500000001,1.0,2723.190440081476,0.3224359304791224,1.3203644224983082,0.9567712627650906,0.2874032375,0.6727252448894308
0.035,1.7693750000000001,1.0,2725.835687576865,0.32623653244766965,1.3199480174925506,0.957681698626103,0.28736675,0.6735754658883499
0.035500000000000004,1.76849375,1.0,2728.1462975684694,0.33001581753143433,1.3195290213897863,0.9585576638765217,0.2873297375,0.6744298612553746
0.036000000000000004,1.7676,1.0,2730.139173470142,0.3337739034342533,1.3191072766827308,0.9594008752430552,0.2872922,0.6752887307657243
0.0365,1.76669375,1.0,2731.8313018852327,0.3375109078599634,1.3186826258640996,0.9602129428340773,0.2872541375,0.6761523723608494
0.037,1.765775,1.0,2733.2397427658348,0.3412269485124017,1.3182549114266082,0.960995377959469,0.28721555,0.6770210821200311
0.0375,1.76484375,1.0,2734.3816201230948,0.34492214309540503,1.3178239758629724,0.9617496002930238,0.2871764375,0.6778951542303978
0.038,1.7639,1.0,2735.274113286511,0.3485966093128102,1.3173896616659075,0.9624769444393481,0.28713679999999997,0.6787748809553595
0.0385,1.76294375,1.0,2735.9344487144285,0.3522504648684543,1.316951811328129,0.9631786659607563,0.28709663750000003,0.6796605526014606
0.039,1.761975,1.0,2736.3738279789995,0.3558838190492904,1.316510322395913,0.9638559503600829,0.28705595,0.6805523463547043
0.0395,1.7609937500000001,1.0,2736.607807645205,0.3594967919171654,1.3160650531662241,0.9645099130351076,0.2870147375,0.68145051711426
0.04,1.76,1.0,2736.6550103505037,0.36308950795050016,1.3156158343482924,0.9651416038679338,0.286973,0.6823553734331353
0.0405,1.7589937500000001,1.0,2736.524541963815,0.36666207722119054,1.315162583235572,0.9657520182944707,0.2869307375,0.6832670476029374
0.041,1.757975,1.0,2736.225525394757,0.37021460980113263,1.314705217121517,0.966342096051162,0.28688795,0.684185670652101
0.0415,1.75694375,1.0,2735.767097711715,0.3737472157622224,1.3142436532995811,0.9669127248670968,0.2868446375,0.6851113723244026
0.042,1.7559,1.0,2735.1584074119432,0.37726000517635583,1.3137778090632186,0.9674647438746347,0.28680079999999997,0.6860442810570355
0.0425,1.75484375,1.0,2734.4086118433197,0.38075308811542885,1.3133076017058838,0.9679989467626717,0.2867564375,0.6869845239582504
0.043000000000000003,1.753775,1.0,2733.5268747769765,0.38422657465133747,1.3128329485210306,0.968516084694394,0.28671155,0.6879322267845607
0.043500000000000004,1.75269375,1.0,2732.5223641331695,0.3876805748559778,1.312353766802113,0.9690168690093054,0.28666613750000003,0.6888875139175102
0.044,1.7516,1.0,2731.4042498569056,0.3911151988012456,1.3118699738425852,0.9695019737274879,0.2866202,0.6898505083400039
0.0445,1.75049375,1.0,2730.1817019468017,0.39453055655903707,1.3113814869359013,0.9699720378723881,0.2865737375,0.6908213316122039
0.045,1.7493750000000001,1.0,2728.863888634824,0.3979267582012481,1.3108882233755152,0.9704276676269412,0.28652675,0.691800103846989
0.0455,1.74824375,1.0,2727.454058207347,0.4013038999553852,1.3103901542538618,0.9708694404453533,0.2864792375,0.6927868371883413
0.046,1.7471,1.0,2725.962374316848,0.4046621017703351,1.3098871877782525,0.9712979033392855,0.2864312,0.6937816672541011
0.0465,1.7459437500000001,1.0,2724.3970068291515,0.40800147629343975,1.3093792502320314,0.9717135763388797,0.28638263750000004,0.6947846923656444
0.047,1.744775,1.0,2722.762162826677,0.41132212558709785,1.3088663039081703,0.9721169549960516,0.28633355,0.6957959384888579
0.0475,1.74359375,1.0,2721.062047220782,0.4146241517137084,1.3083483110996406,0.9725085106601453,0.28628393750000003,0.6968154306186202
0.048,1.7424,1.0,2719.3008622345715,0.4179076567356703,1.3078252340994139,0.9728886918825119,0.2862338,0.6978431927667126
0.0485,1.74119375,1.0,2717.482806919171,0.42117274271538246,1.307297035200462,0.9732579257269847,0.2861831375,0.6988792479496365
0.049,1.739975,1.0,2715.6120766996855,0.42441951171524367,1.3067636766957562,0.9736166189933675,0.28613195,0.6999236181763442
0.0495,1.73874375,1.0,2713.6928629538975,0.4276480657976529,1.3062251208782683,0.9739651593604572,0.2860802375,0.7009763244358738
0.05,1.7375,1.0,2711.729352622125,0.4308585070250091,1.3056813300409698,0.9743039164545672,0.286028,0.702037386684897
0.0505,1.73624375,1.0,2709.725727848409,0.4340509374597111,1.3051322664768321,0.9746332428490428,0.2859752375,0.7031068238351771
0.051000000000000004,1.734975,1.0,2707.686165653455,0.4372254591641578,1.3045778924788272,0.9749534749997968,0.28592195,0.7041846537409311
0.051500000000000004,1.73369375,1.0,2705.614837639062,0.4403821742007481,1.3040181703399265,0.9752649341214954,0.2858681375,0.7052708931861078
0.052000000000000005,1.7324,1.0,2703.515909723917,0.44352118463188095,1.3034530623531015,0.9755679270086478,0.2858138,0.7063655578715711
0.0525,1.73109375,1.0,2701.388578717419,0.44664256785922124,1.3028825761589848,0.9758627470738752,0.28575893750000003,0.707468574806431
0.053,1.729775,1.0,2699.240730692763,0.4497464505356376,1.3023066399908336,0.9761496749928011,0.28570355000000003,0.708580023652591
0.0535,1.72844375,1.0,2697.075685536644,0.4528329353422513,1.301725223724294,0.9764289792370716,0.2856476375,0.7096999023231019
0.054,1.7271,1.0,2694.895042034786,0.4559021159611966,1.3011383129327927,0.9767009167043734,0.2855912,0.7108281775637482
0.0545,1.7257437500000001,1.0,2692.70039658229,0.4589540860746081,1.3005458931897564,0.9769657332783364,0.2855342375,0.7119648153277154
0.055,1.724375,1.0,2690.4933431376026,0.46198893936462,1.2999479500686115,0.9772236643905845,0.28547675,0.7131097807705284
0.0555,1.72299375,1.0,2688.275473181414,0.4650067695133668,1.2993444691427851,0.977474935549579,0.2854187375,0.7142630382449751
0.056,1.7216,1.0,2686.0483756799817,0.46800767020298284,1.2987354359857033,0.9777197628384718,0.2853602,0.7154245512960198
0.0565,1.72019375,1.0,2683.8136370529332,0.4709917351156026,1.2981208361707932,0.9779583533840281,0.28530113749999997,0.7165942826556986
0.057,1.718775,1.0,2681.5728411462105,0.4739590579333604,1.2975006552714814,0.9781909057985169,0.28524155,0.7177721942380076
0.0575,1.71734375,1.0,2679.327569208776,0.47690973233839073,1.2968748788611943,0.9784176105963351,0.2851814375,0.718958247133773
0.058,1.7159,1.0,2677.079399874816,0.47984385201282787,1.296243492513359,0.9786386505870034,0.2851208,0.7201524016055083
0.0585,1.71444375,1.0,2674.829909150101,0.4827615106388063,1.2956064818014017,0.9788542012460454,0.2850596375,0.7213546170822627
0.059000000000000004,1.7129750000000001,1.0,2672.5806704027673,0.4856628018984604,1.2949638322987491,0.9790644310651677,0.28499795,0.7225648521544497
0.059500000000000004,1.71149375,1.0,2670.333254359428,0.48854781947392456,1.2943155295788282,0.979269501883041,0.2849357375,0.7237830645686667
0.06,1.71,1.0,2668.089229104885,0.4914166570473331,1.2936615592150655,0.9794695691979065,0.284873,0.7250092112225018
0.0605,1.7084937500000001,1.0,2665.8477642837374,0.4942693784164001,1.293001928816284,0.9796647812464228,0.2848097375,0.7262432069832183
0.061,1.7069750000000001,1.0,2663.6110322599443,0.49710609731819067,1.292336618375016,0.9798552830817023,0.28474595,0.7274850177202177
0.0615,1.7054437500000001,1.0,2661.381131270851,0.4999269224126252,1.2916656085325893,0.9800412138075731,0.2846816375,0.7287346071406708
0.062,1.7039,1.0,2659.158426160676,0.5027319384035787,1.2909888958609494,0.9802227062112268,0.2846168,0.7299919084363059
0.0625,1.70234375,1.0,2656.943281172544,0.5055212299949259,1.2903064769320418,0.9803998880887214,0.2845514375,0.7312568541176846
0.063,1.7007750000000001,1.0,2654.736059953354,0.5082948818905417,1.2896183483178116,0.9805728824681192,0.28448555,0.7325293760129552
0.0635,1.69919375,1.0,2652.537125558262,0.5110529787943012,1.2889245065902049,0.9807418078210375,0.28441913750000003,0.7338094052666029
0.064,1.6976,1.0,2650.34684045581,0.513795605410079,1.2882249483211665,0.9809067782632984,0.2843522,0.7350968723382043
0.0645,1.69599375,1.0,2648.165566533453,0.51652284644175,1.2875196700826421,0.9810679037453142,0.2842847375,0.7363917070011755
0.065,1.694375,1.0,2645.993665102818,0.5192347865931891,1.286808668446577,0.9812252902328007,0.28421675,0.7376938383415227
0.0655,1.69274375,1.0,2643.83149690549,0.5219315105682713,1.2860919399849167,0.9813790398783808,0.2841482375,0.7390031947565907
0.066,1.6911,1.0,2641.679422119317,0.5246131030708712,1.2853694812696068,0.981529251184595,0.2840792,0.7403197039538123
0.0665,1.6894437500000001,1.0,2639.537800364904,0.5272796488048639,1.2846412888725924,0.9816760191588094,0.2840096375,0.741643292949456
0.067,1.687775,1.0,2637.406990711375,0.5299312324741241,1.2839073593658192,0.9818194354604773,0.28393955,0.7429738880673711
0.0675,1.68609375,1.0,2635.287351684391,0.5325679387825268,1.2831676893212325,0.981959588541183,0.2838689375,0.7443114149377359
0.068,1.6844000000000001,1.0,2633.179241272367,0.5351898524339469,1.2824222753107777,0.982096563777869,0.2837978,0.7456557984958013
0.0685,1.68269375,1.0,2631.0830169342385,0.5377970581322591,1.2816711139064003,0.9822304435996243,0.2837261375,0.7470069629806366
0.069,1.680975,1.0,2628.9990356070666,0.5403896405813383,1.2809142016800457,0.9823613076083839,0.28365395,0.7483648319338732
0.0695,1.67924375,1.0,2626.927653713911,0.5429676844850595,1.2801515352036592,0.9824892326938768,0.28358123749999997,0.7497293281984467
0.07,1.6775,1.0,2624.8656524968833,0.5455312411152105,1.2793831441829113,0.982614292596029,0.283508,0.7511003148803271
0.07050000000000001,1.67574375,1.0,2622.813710178248,0.5480804065705402,1.2786090222353281,0.9827365597123434,0.2834342375,0.7524777191615895
0.07100000000000001,1.673975,1.0,2620.7753899292156,0.5506152953113103,1.277829136207362,0.9828561039028584,0.28335995,0.7538615149052013
0.07150000000000001,1.67219375,1.0,2618.7504463723585,0.5531359827611305,1.2770434882373132,0.9829729919297989,0.2832851375,0.7552516123255795
0.07200000000000001,1.6704,1.0,2616.738634578518,0.5556425443436112,1.2762520804634818,0.9830872883613285,0.2832098,0.7566479210446364
0.0725,1.66859375,1.0,2614.7397100610947,0.5581350554823621,1.2754549150241679,0.983199055656714,0.2831339375,0.7580503500925653
0.073,1.6667750000000001,1.0,2612.7534287707304,0.5606135916009936,1.2746519940576715,0.9833083542476336,0.28305755,0.759458807908625
0.0735,1.66494375,1.0,2610.7795470899896,0.5630782281231154,1.2738433197022927,0.983415242615828,0.2829806375,0.7608732023419258
0.074,1.6631,1.0,2608.8178218282123,0.5655290404723377,1.2730288940963317,0.9835197773672834,0.2829032,0.7622934406522133
0.0745,1.6612437500000001,1.0,2606.868010216433,0.5679661040722704,1.2722087193780884,0.9836220133031167,0.2828252375,0.7637194295106541
0.075,1.659375,1.0,2604.9298699025294,0.5703894943465238,1.2713827976858632,0.9837220034873384,0.28274675,0.7651510750006183
0.0755,1.65749375,1.0,2603.003158946058,0.5727992867187077,1.2705511311579556,0.9838197993116382,0.2826677375,0.7665882826184653
