Time [s],Phi [rad],STIM [ ],Fsee [N],Gamma [ ],Lcerel [ ],q [ ],Lmtc [m],fisomrel [ ]
0.0,1.8,1.0,17.96698585349502,1.000793160543659e-05,1.3793397655247075,0.005000026693901961,0.288653,0.5411394843484054
0.0005,1.79999375,1.0,18.276336378007734,0.005619161103818247,1.379302433084851,0.012940536883225693,0.2886527375,0.541229796734414
0.001,1.799975,1.0,21.61797085612336,0.011196851361657082,1.378938344061029,0.03560862077963762,0.28865195,0.5421101128835626
0.0015,1.79994375,1.0,31.068747355930284,0.016743255188055937,1.3780462453602997,0.07060176659060109,0.2886506375,0.5442635088296559
0.002,1.7999,1.0,53.5816529479045,0.02225854807429772,1.3763681793631029,0.11471790964793642,0.2886488,0.5483003621266048
0.0025,1.79984375,1.0,97.11786527233515,0.027742904527577605,1.3739352189348548,0.16457475295111923,0.28864643749999996,0.5541213394137188
0.003,1.7997750000000001,1.0,160.9570008631101,0.03319649807872066,1.3712143873992593,0.21728030821093464,0.28864354999999997,0.5605863475376042
0.0035,1.79969375,1.0,237.6821405339569,0.038619501281772745,1.3685847709194285,0.270612742136158,0.2886401375,0.5667897533363278
0.004,1.7996,1.0,321.46560570600735,0.04401208572478288,1.3661561232693569,0.3229156590209316,0.2886362,0.5724798896439909
0.0045000000000000005,1.7994937500000001,1.0,409.26663828594474,0.04937442203498771,1.3639228402812897,0.37303437176772763,0.2886317375,0.5776791017908127
0.005,1.799375,1.0,499.4124355831816,0.054706679869902665,1.3618583650541591,0.4202473337559461,0.28862675,0.5824570269143206
0.0055,1.79924375,1.0,590.7893957116033,0.06000902796478209,1.3599388549941982,0.4641735810347126,0.2886212375,0.5868750658975306
0.006,1.7991000000000001,1.0,682.5171330050588,0.06528163407578613,1.3581464324761805,0.504679854958327,0.2886152,0.5909793778845175
0.006500000000000001,1.79894375,1.0,773.8806438115008,0.07052466503524349,1.3564672640995068,0.5418006597535009,0.2886086375,0.594805770489198
0.007,1.798775,1.0,864.2849491835634,0.07573828673666554,1.3548904089207592,0.5756766932983258,0.28860155,0.5983826455869143
0.0075,1.79859375,1.0,953.2416630167506,0.08092266414261358,1.3534068030685769,0.6065098442274248,0.2885939375,0.6017335189567862
0.008,1.7984,1.0,1040.35595737027,0.08607796126357145,1.352008683111172,0.6345320036306462,0.2885858,0.604878466244702
0.0085,1.79819375,1.0,1125.3172530692202,0.0912043413218327,1.350689198667784,0.6599843440640354,0.2885771375,0.6078350954647561
0.009000000000000001,1.797975,1.0,1207.876798423302,0.09630196622238509,1.349442354541518,0.6831043114946864,0.28856795,0.6106187527183676
0.0095,1.79774375,1.0,1287.870335604644,0.10137099767348576,1.3482624132047676,0.7041175798284409,0.2885582375,0.6132439143775247
0.01,1.7975,1.0,1365.1658610447557,0.10641159610651314,1.3471444005511113,0.7232341884655402,0.288548,0.6157231032079389
0.0105,1.79724375,1.0,1439.660680814148,0.11142392044255384,1.3460839315985489,0.7406466103769269,0.2885372375,0.6180673223510553
0.011,1.796975,1.0,1511.3092667480425,0.1164081292873218,1.345076711801931,0.7565291638570653,0.28852595000000003,0.620287190599385
0.0115,1.79669375,1.0,1580.1110026622373,0.12136438109176534,1.3441186026413725,0.77103862854863,0.2885141375,0.6223928166969043
0.012,1.7964,1.0,1646.0664731375302,0.12629283260471055,1.343206054202392,0.7843155101942147,0.28850180000000003,0.6243928710421708
0.0125,1.79609375,1.0,1709.1813489309593,0.131193639015878,1.3423359500882794,0.7964852626883555,0.2884889375,0.6262949530521527
0.013000000000000001,1.7957750000000001,1.0,1769.497594511339,0.1360669555149882,1.341505173902325,0.8076595071714249,0.28847555,0.6281065567536441
0.0135,1.79544375,1.0,1827.070245396178,0.14091293627724452,1.3407108315291416,0.8179375329983256,0.2884616375,0.6298345959142886
0.014,1.7951000000000001,1.0,1881.984645990798,0.1457317359036382,1.3399500132605513,0.8274075416422279,0.2884472,0.6314859326662978
0.0145,1.79474375,1.0,1934.2906237168013,0.15052350579959028,1.339220477461084,0.8361481331381673,0.2884322375,0.6330659045633742
0.015,1.794375,1.0,1984.0542922914342,0.15528839713610484,1.338520030119303,0.844229186852864,0.28841675,0.6345796849745734
0.0155,1.79399375,1.0,2031.359521085664,0.1600265609904732,1.3378464878259109,0.851712869548496,0.2884007375,0.6360323681878082
0.016,1.7936,1.0,2076.293365496376,0.16473814726039468,1.3371978119858952,0.8586545871554332,0.2883842,0.63742868492323
0.0165,1.7931937500000001,1.0,2118.953184594088,0.1694233064464409,1.3365720123505438,0.8651037563244187,0.2883671375,0.6387732158874535
0.017,1.792775,1.0,2159.4059088927074,0.17408218547457954,1.3359675473695427,0.871104625485784,0.28834955,0.640069537992647
0.0175,1.7923437500000001,1.0,2197.7291787064582,0.1787149312707784,1.3353828754925776,0.8766967551988298,0.2883314375,0.6413211952370224
0.018000000000000002,1.7919,1.0,2234.010448364436,0.18332169076100513,1.3348164551693342,0.8819155694732327,0.2883128,0.6425317007265345
0.0185,1.79144375,1.0,2268.3294374276775,0.18790260909436277,1.334266911419889,0.8867928808052138,0.2882936375,0.6437041834496431
0.019,1.790975,1.0,2300.788500355798,0.19245783388269994,1.3337327214429764,0.8913572306202692,0.28827395,0.6448420619842625
0.0195,1.79049375,1.0,2331.455994607895,0.19698750798392609,1.3332127699214757,0.8956343955724139,0.2882537375,0.6459478633968676
0.02,1.79,1.0,2360.4008098967533,0.20149177365162269,1.332705992285326,0.8996476158352853,0.288233,0.6470239881933566
0.0205,1.78949375,1.0,2387.6969623085065,0.20597077313937123,1.3322113239644662,0.903417868288274,0.2882117375,0.6480728196102568
0.021,1.788975,1.0,2413.4231626782266,0.21042464870075317,1.3317277003888355,0.9069641177405968,0.28818995000000003,0.649096724473007
0.021500000000000002,1.78844375,1.0,2437.648198651355,0.2148535404993478,1.3312541936791897,0.9103035652828748,0.2881676375,0.6500977652102993
0.022,1.7879,1.0,2460.4566745160682,0.2192575916630755,1.3307897593945526,0.9134517890957654,0.2881448,0.6510782368612693
0.0225,1.78734375,1.0,2481.9083962056993,0.2236369405786415,1.3303336232081813,0.9164229913560726,0.28812143749999997,0.6520398513334035
0.023,1.786775,1.0,2502.058858952938,0.22799172445974492,1.3298850778222764,0.9192301040355892,0.28809755,0.6529841691013732
0.0235,1.78619375,1.0,2520.965968310885,0.23232208052008493,1.3294434159390378,0.9218849087390297,0.28807313749999996,0.6539127413725068
0.024,1.7856,1.0,2538.689838134313,0.23662814597336074,1.3290079302606665,0.9243981549259926,0.2880482,0.654827110413241
0.0245,1.78499375,1.0,2555.290451879975,0.24091005756909065,1.328577933666311,0.9267796679012198,0.2880227375,0.6557287675624277
0.025,1.784375,1.0,2570.819515291578,0.2451679499623035,1.3281528335295876,0.9290384531547604,0.28799675,0.6566189982350217
0.025500000000000002,1.78374375,1.0,2585.3485879954974,0.24940196186090163,1.3277318661162147,0.931182735082478,0.2879702375,0.6574994385586208
0.026000000000000002,1.7831000000000001,1.0,2598.918964741192,0.25361222513714926,1.3273145644315387,0.9332201053349346,0.2879432,0.6583710966549493
0.0265,1.78244375,1.0,2611.573060900151,0.2577988716633106,1.3269004614809048,0.9351575379324503,0.2879156375,0.6592349753940417
0.027,1.781775,1.0,2623.354318479067,0.2619620333116499,1.326489090269659,0.9370014477960097,0.28788755,0.6600920724964617
0.0275,1.7810937500000001,1.0,2634.307116967634,0.26610184195443143,1.3260799838031472,0.9387577430191201,0.2878589375,0.6609433806216176
0.028,1.7804,1.0,2644.476689022168,0.2702184294639194,1.3256726750867147,0.9404318716174713,0.2878298,0.6617898874421657
0.0285,1.77969375,1.0,2653.9042723101747,0.27431192487104844,1.3252667410841383,0.942028868602964,0.2878001375,0.6626324845169136
0.029,1.778975,1.0,2662.632107733978,0.27838246136438793,1.3248617556710238,0.943553389041341,0.28776995,0.6634720653773598
0.029500000000000002,1.7782437500000001,1.0,2670.693686182595,0.2824301667835604,1.324457378695328,0.9450097502966398,0.2877392375,0.6643093412313665
0.03,1.7775,1.0,2678.121188820941,0.2864551676610223,1.3240532865516674,0.9464019535416833,0.287708,0.6651449855709914
0.0305,1.77674375,1.0,2684.9472351962067,0.29045759052923,1.3236491556346583,0.9477337093184526,0.2876762375,0.6659796685490201
0.031,1.775975,1.0,2691.2048418521326,0.29443756192063997,1.323244662338917,0.949008462306499,0.28764395,0.6668140569815038
0.0315,1.7751937500000001,1.0,2696.9273832648623,0.2983952083677086,1.3228394830590595,0.9502294136894597,0.2876111375,0.66764881434362
0.032,1.7744,1.0,2702.1394947381464,0.30233065117846153,1.322433376960803,0.9513995498982231,0.2875778,0.6684844305537396
0.0325,1.77359375,1.0,2706.872814110245,0.30624401882650026,1.3220260416214402,0.9525216464902214,0.2875439375,0.6693215195077374
0.033,1.772775,1.0,2711.1639689694844,0.31013544225347245,1.3216171314062806,0.9535982860432454,0.28750955,0.6701607805675869
0.0335,1.7719437500000002,1.0,2715.032420515439,0.31400504139468016,1.3212064592888986,0.9546318930676959,0.2874746375,0.6710025845379118
0.034,1.7711000000000001,1.0,2718.497792046811,0.3178529361854252,1.3207938382428681,0.9556247314495138,0.2874392,0.6718473002085732
0.0345,1.7702437500000001,1.0,2721.5798532468134,0.3216792465610096,1.3203790812417637,0.9565789169867631,0.2874032375,0.6726952943325362
0.035,1.7693750000000001,1.0,2724.2985052436975,0.3254840924567353,1.3199620012591593,0.9574964288077933,0.28736675,0.6735469316015107
0.035500000000000004,1.76849375,1.0,2726.673766447332,0.3292675938079042,1.3195424112686291,0.9583791197824554,0.2873297375,0.6744025746193567
0.036000000000000004,1.7676,1.0,2728.7257591606726,0.33302987054981825,1.3191201242437476,0.9592287260256372,0.2872922,0.6752625838732624
0.0365,1.76669375,1.0,2730.474696967572,0.33677104261777935,1.3186949531580887,0.9600468755816388,0.2872541375,0.6761273177026903
0.037,1.765775,1.0,2731.9408728950575,0.3404912299470896,1.3182667109852269,0.9608350963684044,0.28721555,0.6769971322660908
0.0375,1.76484375,1.0,2733.138993105081,0.3441905472002806,1.3178352620685396,0.961594827352897,0.2871764375,0.6778722773782613
0.038,1.7639,1.0,2734.0864985246744,0.34786911439037843,1.317400446406075,0.9623274198564299,0.28713679999999997,0.6787530504503329
0.0385,1.76294375,1.0,2734.8039848713984,0.3515270539565811,1.3169620757874796,0.9630341427862482,0.28709663750000003,0.6796398039301405
0.039,1.761975,1.0,2735.302639479322,0.3551644786473353,1.3165200478093857,0.9637161966336805,0.28705595,0.6805327147153832
0.0395,1.7609937500000001,1.0,2735.593681003378,0.35878150121108754,1.316074260068424,0.9643747122480796,0.2870147375,0.681431958297826
0.04,1.76,1.0,2735.688355021647,0.3623782343962843,1.3156246101612261,0.9650107556180305,0.286973,0.6823377087390754
0.0405,1.7589937500000001,1.0,2735.5979298711904,0.3659547909513723,1.315170995684423,0.9656253322754303,0.2869307375,0.6832501386456932
0.041,1.757975,1.0,2735.3336927162554,0.36951128362479807,1.3147133142346463,0.9662193913558539,0.28688795,0.6841694191436376
0.0415,1.75694375,1.0,2734.906945848517,0.3730478251650082,1.3142514634085272,0.9667938293453434,0.2868446375,0.685095719852038
0.042,1.7559,1.0,2734.3290032204795,0.3765645283204492,1.3137853408026967,0.9673494935408413,0.28680079999999997,0.6860292088562994
0.0425,1.75484375,1.0,2733.6111872109864,0.3800615058395677,1.3133148440137865,0.9678871852488762,0.2867564375,0.6869700526805378
0.043000000000000003,1.753775,1.0,2732.7603348263215,0.3835388615044997,1.3128399114336977,0.9684076646387828,0.28671155,0.6879183348665694
0.043500000000000004,1.75269375,1.0,2731.7869599838177,0.3869967104006802,1.3123604480996858,0.968911650605977,0.28666613750000003,0.6888742042824092
0.044,1.7516,1.0,2730.704087598914,0.3904351730507642,1.3118763362418375,0.9693998232473235,0.2866202,0.6898378536108684
0.0445,1.75049375,1.0,2729.51751832653,0.3938543546309591,1.3113875237274368,0.9698728300636981,0.2865737375,0.690809343325558
0.045,1.7493750000000001,1.0,2728.2330539932714,0.3972543603174721,1.310893958423768,0.9703312852290429,0.28652675,0.6917887328303585
0.0455,1.74824375,1.0,2726.856496536172,0.40063529528651026,1.3103955881981155,0.9707757716265094,0.2864792375,0.6927760804437051
0.046,1.7471,1.0,2725.3936470016306,0.40399726471428093,1.309892360917763,0.9712068427411796,0.2864312,0.6937714433827005
0.0465,1.7459437500000001,1.0,2723.850304603712,0.4073403737769913,1.3093842244499954,0.9716250244207533,0.28638263750000004,0.69477487774705
0.047,1.744775,1.0,2722.2322658438316,0.41066472765084855,1.3088711266620965,0.9720308165145817,0.28633355,0.695786438502829
0.0475,1.74359375,1.0,2720.5453236903286,0.4139704315120599,1.3083530154213505,0.9724246944005297,0.28628393750000003,0.6968061794660726
0.048,1.7424,1.0,2718.795266817448,0.4172575905368326,1.3078298385950418,0.9728071104083227,0.2862338,0.6978341532861942
0.0485,1.74119375,1.0,2716.987878906192,0.4205263099013738,1.3073015440504545,0.973178495147295,0.2861831375,0.6988704114292301
0.049,1.739975,1.0,2715.12893800378,0.42377669478189073,1.3067680796548728,0.9735392587457906,0.28613195,0.6999150041609107
0.0495,1.73874375,1.0,2713.2230859949264,0.42700884598906574,1.3062294035771578,0.9738897921905949,0.2860802375,0.7009679604106449
0.05,1.7375,1.0,2711.2711013399535,0.43022285213648837,1.3056855091744697,0.9742304691766316,0.286028,0.7020292394156417
0.0505,1.73624375,1.0,2709.283888216346,0.433418843937864,1.305136297423795,0.9745616448489137,0.2859752375,0.7030989795742899
0.051000000000000004,1.734975,1.0,2707.2637634109424,0.43659691835658637,1.3045817475408426,0.974883659341095,0.28592195,0.7041771653857349
0.051500000000000004,1.73369375,1.0,2705.213040968955,0.4397571723560491,1.3040218387413214,0.9751968373686856,0.2858681375,0.7052637805113073
0.052000000000000005,1.7324,1.0,2703.134032057174,0.44289970289964575,1.30345655024094,0.9755014890605126,0.2858138,0.7063588077674356
0.0525,1.73109375,1.0,2701.029044837111,0.44602460695077006,1.302885861255408,0.9757979107383301,0.28575893750000003,0.7074622291185261
0.053,1.729775,1.0,2698.900384347133,0.44913198147281563,1.3023097510004338,0.9760863856482371,0.28570355000000003,0.7085740256698205
0.0535,1.72844375,1.0,2696.750352394695,0.4522219234291761,1.3017281986917266,0.9763671846472655,0.2856476375,0.709694177660223
0.054,1.7271,1.0,2694.581247458151,0.45529452978324514,1.3011411835449949,0.9766405668482502,0.2855912,0.7108226644551012
0.0545,1.7257437500000001,1.0,2692.395364597427,0.4583498974984163,1.3005486847759482,0.9769067802258457,0.2855342375,0.7119594645390552
0.055,1.724375,1.0,2690.194995375212,0.46138812353808334,1.2999506816002948,0.9771660621863355,0.28547675,0.7131045555086689
0.0555,1.72299375,1.0,2687.9824277871467,0.4644093048656398,1.2993471532337442,0.9774186401036863,0.2854187375,0.714257914065221
0.056,1.7216,1.0,2685.7599462017824,0.46741353844447936,1.298738078892005,0.9776647318241027,0.2853602,0.7154195160073793
0.0565,1.72019375,1.0,2683.529831310116,0.4704009212379957,1.2981234377907862,0.9779045461411852,0.28530113749999997,0.7165893362238624
0.057,1.718775,1.0,2681.2943600847066,0.4733715502095824,1.2975032091457968,0.9781382832436214,0.28524155,0.7177673486860725
0.0575,1.71734375,1.0,2679.0500797648097,0.4763254857321977,1.2968774247075114,0.9783661348863631,0.2851814375,0.7189534269739665
0.058,1.7159,1.0,2676.805993027625,0.4792628662697119,1.2962460019557365,0.9785882854973298,0.2851208,0.7201476604758985
0.0585,1.71444375,1.0,2674.563496987644,0.4821837851392372,1.29560892807008,0.9788049120119521,0.2850596375,0.7213500052463593
0.059000000000000004,1.7129750000000001,1.0,2672.323162022367,0.48508833053841927,1.2949661978033418,0.9790161843012406,0.28499795,0.7225604022749996
0.059500000000000004,1.71149375,1.0,2670.0855575526066,0.48797659066490356,1.2943178059083218,0.9792222655308587,0.2849357375,0.7237787918536717
0.06,1.71,1.0,2667.851252043579,0.49084865371633557,1.2936637471378198,0.9794233124761983,0.284873,0.7250051135745363
0.0605,1.7084937500000001,1.0,2665.620813007708,0.4937046078903609,1.2930040162446363,0.9796194758202862,0.2848097375,0.726239306328166
0.061,1.7069750000000001,1.0,2663.3948070071683,0.4965445413846251,1.2923386079815709,0.9798109004355767,0.28474595,0.72748130830165
0.0615,1.7054437500000001,1.0,2661.1737996571596,0.49936854239677364,1.2916675171014231,0.9799977256506237,0.2846816375,0.7287310569766934
0.062,1.7039,1.0,2658.9583556304815,0.5021766991244521,1.2909907383569936,0.9801800855025475,0.2846168,0.7299884891277159
0.0625,1.70234375,1.0,2656.749038661515,0.5049690997653058,1.290308266501082,0.980358108976155,0.2845514375,0.7312535408199512
0.063,1.7007750000000001,1.0,2654.546411552142,0.5077458325169806,1.289620096286488,0.9805319202305157,0.28448555,0.7325261474075426
0.0635,1.69919375,1.0,2652.351036177211,0.5105069855771218,1.2889262224660123,0.9807016388137355,0.28441913750000003,0.7338062435316339
0.064,1.6976,1.0,2650.1634734911254,0.513252647143375,1.288226639792454,0.9808673798666293,0.2843522,0.7350937631184662
0.0645,1.69599375,1.0,2647.9842835350473,0.5159829054133858,1.2875213430186134,0.9810292543159413,0.2842847375,0.7363886393774643
0.065,1.694375,1.0,2645.8140254445775,0.5186978485847996,1.2868103268972906,0.9811873690577201,0.28421675,0.7376908047993282
0.0655,1.69274375,1.0,2643.6532574579223,0.521397564855262,1.2860935861812852,0.9813418271314209,0.2841482375,0.7390001911541184
0.066,1.6911,1.0,2641.502536925055,0.5240821424224186,1.2853711156233973,0.9814927278852646,0.2840792,0.7403167294893418
0.0665,1.6894437500000001,1.0,2639.363073867777,0.5267516200551688,1.2846429039353133,0.981640163469723,0.2840096375,0.7416403610946174
0.067,1.687775,1.0,2637.235497819535,0.5294061432943068,1.2839089451788617,0.9817842302737204,0.28393955,0.7429710167328639
0.0675,1.68609375,1.0,2635.1197869130165,0.5320457938526582,1.2831692394329937,0.9819250172926978,0.2838689375,0.7443086155578441
0.068,1.6844000000000001,1.0,2633.015925060338,0.5346706509167307,1.2824237867239372,0.982062610261002,0.2837978,0.7456530761878573
0.0685,1.68269375,1.0,2630.9238962470895,0.5372807936730322,1.2816725870779206,0.98219709195589,0.2837261375,0.7470043166097935
0.069,1.680975,1.0,2628.843684532308,0.5398763013080702,1.2809156405211721,0.982328542318438,0.28365395,0.7483622541791441
0.0695,1.67924375,1.0,2626.775274048352,0.5424572530083525,1.28015294707992,0.9824570385686932,0.28358123749999997,0.7497268056200113
0.07,1.6775,1.0,2624.7186490009412,0.5450237279603867,1.2793845067803924,0.9825826553153844,0.283508,0.7510978870251176
0.07050000000000001,1.67574375,1.0,2622.673793668965,0.5475758053506806,1.2786103196488177,0.9827054646604775,0.2834342375,0.7524754138558152
0.07100000000000001,1.673975,1.0,2620.6406924044936,0.5501135643657419,1.277830385711424,0.9828255362988565,0.28335995,0.7538593009420963
0.07150000000000001,1.67219375,1.0,2618.6193296327438,0.5526370841920781,1.2770447049944393,0.9829429376133828,0.2832851375,0.7552494624826023
0.07200000000000001,1.6704,1.0,2616.609689851994,0.5551464440161972,1.2762532775240922,0.9830577337655807,0.2832098,0.7566458120446329
0.0725,1.66859375,1.0,2614.6117576334896,0.5576417230246066,1.2754561033266107,0.9831699877821757,0.2831339375,0.7580482625641567
0.073,1.6667750000000001,1.0,2612.625517621481,0.560123000403814,1.2746531824282232,0.9832797606376983,0.28305755,0.75945672634582
0.0735,1.66494375,1.0,2610.650954533037,0.5625903553403274,1.273844514855158,0.9833871113333627,0.2829806375,0.7608711150629565
0.074,1.6631,1.0,2608.6880531580478,0.5650438670206542,1.2730301006336429,0.9834920969724057,0.2829032,0.7622913397575984
0.0745,1.6612437500000001,1.0,2606.73679835917,0.5674836146313023,1.2722099397899065,0.9835947728320679,0.2828252375,0.7637173108404831
0.075,1.659375,1.0,2604.797175071858,0.5699096773587791,1.2713840323501768,0.9836951924323881,0.28274675,0.7651489380910657
0.0755,1.65749375,1.0,2602.86916830415,0.5723221343895926,1.2705523783406822,0.9837934076019716,0.2826677375,0.7665861306575266
