Time [s],Phi [rad],STIM [ ],Fsee [N],Gamma [ ],Lcerel [ ],q [ ],Lmtc [m],fisomrel [ ]
0.0,1.8,1.0,17.967415102229804,1.0058245841775108e-05,1.3793397174345505,0.00500002696191013,0.288653,0.5411396006909291
0.0005,1.79999375,1.0,18.276742878843603,0.005619211135831371,1.379302387930268,0.012940675699648983,0.2886527375,0.5412299059642747
0.001,1.799975,1.0,21.6183914589938,0.011196901113030294,1.3789383011024374,0.035608880139331535,0.28865195,0.5421102167015257
0.0015,1.79994375,1.0,31.069244816360463,0.01674330466036315,1.3780462029782157,0.0706021206674008,0.2886506375,0.5442636110132455
0.002,1.7999,1.0,53.582316345108865,0.022258597269104504,1.3763681363251488,0.11471832874790638,0.2886488,0.5483004654309127
0.0025,1.79984375,1.0,97.1187246480158,0.027742953446440368,1.3739351775234547,0.16457520942685197,0.28864643749999996,0.5541214381712449
0.003,1.7997750000000001,1.0,160.95798388325775,0.033196546723187316,1.3712143506038024,0.2172807799678628,0.28864354999999997,0.5605864346485883
0.0035,1.79969375,1.0,237.68317329965961,0.03861954965338249,1.3685847391074677,0.27061321209489064,0.2886401375,0.5667898281156887
0.004,1.7996,1.0,321.4666522356514,0.0440121338250662,1.3661560955507561,0.32291611463318715,0.2886362,0.5724799543718928
0.0045000000000000005,1.7994937500000001,1.0,409.2676835735129,0.049374469865466314,1.3639228157443886,0.37303480467712075,0.2886317375,0.5776791587393999
0.005,1.799375,1.0,499.4134704551838,0.0547067274320874,1.361858343063203,0.4202477391082693,0.28862675,0.582457077664392
0.0055,1.79924375,1.0,590.7904174111245,0.060009075260184806,1.3599388350326587,0.46417395654905835,0.2886212375,0.5868751117198103
0.006,1.7991000000000001,1.0,682.5181342467865,0.06528168110590071,1.3581464142762645,0.5046802002655058,0.2886152,0.5909794194548927
0.006500000000000001,1.79894375,1.0,773.8813879592763,0.0705247118018835,1.356467251396414,0.5418009781946762,0.2886086375,0.5948057993682583
0.007,1.798775,1.0,864.2858961705774,0.07573833324088591,1.354890393623881,0.575676981355111,0.28860155,0.5983826802088228
0.0075,1.79859375,1.0,953.2433921310588,0.08092271038549699,1.3534067764730022,0.6065100986478618,0.2885939375,0.6017335788997495
0.008,1.7984,1.0,1040.3452215408124,0.08607800688088403,1.3520088411752285,0.6345323424354904,0.2885858,0.6048781113981914
0.0085,1.79819375,1.0,1125.315395468865,0.09120438680914447,1.3506892249645508,0.659984581705721,0.2885771375,0.607835036651029
0.009000000000000001,1.797975,1.0,1207.9004880904085,0.09630201209073294,1.3494420308488315,0.6831043349862187,0.28856795,0.6106194740951667
0.0095,1.79774375,1.0,1287.8918069824604,0.10137104327808161,1.3482621290797916,0.7041176127268562,0.2885582375,0.6132445454362583
0.01,1.7975,1.0,1365.1666890383722,0.1064116409236227,1.347144389909152,0.7232343505583001,0.288548,0.6157231267685035
0.0105,1.79724375,1.0,1439.6601540225672,0.11142396494825724,1.3460839381917478,0.7406467662421063,0.2885372375,0.618067307798758
0.011,1.796975,1.0,1511.323041577546,0.11640817410317156,1.3450765435360947,0.756529224351504,0.28852595000000003,0.6202875609093805
0.0115,1.79669375,1.0,1580.1211392148543,0.12136442556879448,1.3441184815444345,0.7710387016413881,0.2885141375,0.6223930824603084
0.012,1.7964,1.0,1646.0560035698104,0.1262928759405122,1.3432061767466972,0.7843156796214183,0.28850180000000003,0.6243926028154173
0.0125,1.79609375,1.0,1709.1734088351266,0.13119368222849936,1.34233604129347,0.7964854074159615,0.2884889375,0.6262947539270269
0.013000000000000001,1.7957750000000001,1.0,1769.506859943389,0.13606699922720883,1.3415050693033335,0.8076595641245224,0.28847555,0.6281067845667265
0.0135,1.79544375,1.0,1827.0923133302729,0.14091298033718636,1.3407105863575637,0.8179375304476691,0.2884616375,0.629835128647593
0.014,1.7951000000000001,1.0,1881.9933448749225,0.1457317789589777,1.3399499180374363,0.8274075901223878,0.2884472,0.6314861391146056
0.0145,1.79474375,1.0,1934.28081497387,0.15052354758627648,1.3392205833719255,0.8361482467108247,0.2884322375,0.633065675436258
0.015,1.794375,1.0,1984.051689380905,0.1552884391891648,1.33852005786975,0.8442292672633965,0.28841675,0.6345796250633325
0.0155,1.79399375,1.0,2031.372710863386,0.16002660369351332,1.3378463488528083,0.8517128907608588,0.2884007375,0.6360326676238093
0.016,1.7936,1.0,2076.314336289453,0.16473819032524115,1.3371975934328921,0.8586545809562136,0.2883842,0.6374291549204911
0.0165,1.7931937500000001,1.0,2118.961291018296,0.16942334831026729,1.3365719287217934,0.865103788195651,0.2883671375,0.6387733953969771
0.017,1.792775,1.0,2159.397933464275,0.17408222583018104,1.3359676288727422,0.8711047012477509,0.28834955,0.6400693633597812
0.0175,1.7923437500000001,1.0,2197.7249372954516,0.17871497186664406,1.3353829184571862,0.8766968162402886,0.2883314375,0.6413211033390958
0.018000000000000002,1.7919,1.0,2234.017304784279,0.18332173218461095,1.3348163862816083,0.8819155975300217,0.2883128,0.6425318478231024
0.0185,1.79144375,1.0,2268.348759070745,0.1879026517084671,1.3342667187661494,0.8867928754560604,0.2882936375,0.6437045941495918
0.019,1.790975,1.0,2300.800531506026,0.19245787536259792,1.3337326023309506,0.891357241938855,0.28827395,0.6448423155019503
0.0195,1.79049375,1.0,2331.4544778570003,0.196987547236038,1.3332127848387028,0.8956344363112967,0.2882537375,0.6459478316965446
0.02,1.79,1.0,2360.3968888663608,0.20149181187422616,1.3327060306114489,0.8996476590098371,0.288233,0.6470239068710895
0.0205,1.78949375,1.0,2387.706064448331,0.20597081240154658,1.3322112355057028,0.903417881150831,0.2882117375,0.6480730070273422
0.021,1.788975,1.0,2413.4446572825013,0.21042468912783482,1.3317274926110434,0.9069641039975977,0.28818995000000003,0.6490971640497135
0.021500000000000002,1.78844375,1.0,2437.6792499444564,0.21485358236292648,1.3312538950170503,0.9103035329276528,0.2881676375,0.6500983961608197
0.022,1.7879,1.0,2460.480028280433,0.21925763241665708,1.3307895358133024,0.9134517719265183,0.2881448,0.6510787085345023
0.0225,1.78734375,1.0,2481.9148458088653,0.22363697847820854,1.3303335617291214,0.9164230048293225,0.28812143749999997,0.6520399808525279
0.023,1.786775,1.0,2502.053288778183,0.22799176027976112,1.329885130704253,0.9192301375826277,0.28809755,0.6529840578451465
0.0235,1.78619375,1.0,2520.964044082913,0.232322117272632,1.3294434341385812,0.9218849348696951,0.28807313749999996,0.6539127031344971
0.024,1.7856,1.0,2538.697533590108,0.23662818466879046,1.3290078577308506,0.9243981643524237,0.2880482,0.6548272625999885
0.0245,1.78499375,1.0,2555.3060449288787,0.24091009768020577,1.3285777871798052,0.9267796642492364,0.2880227375,0.6557290745281334
0.025,1.784375,1.0,2570.8435754303036,0.24516799151884727,1.3281526081841888,0.9290384363130649,0.28799675,0.6566194698402879
0.025500000000000002,1.78374375,1.0,2585.365684434268,0.24940200139668423,1.3277317064427456,0.9311827283776044,0.2879702375,0.6574997722963203
0.026000000000000002,1.7831000000000001,1.0,2598.9220030223228,0.2536122607167732,1.327314536129427,0.9332201181015268,0.2879432,0.6583711557346239
0.0265,1.78244375,1.0,2611.564989956351,0.257798904424372,1.3269005364808504,0.9351575652561405,0.2879156375,0.6592348190323094
0.027,1.781775,1.0,2623.348738027667,0.2619620671200989,1.3264891420099019,0.9370014710138364,0.28788755,0.6600919647628767
0.0275,1.7810937500000001,1.0,2634.310190637105,0.26610187845991257,1.326079955364351,0.9387577544171481,0.2878589375,0.6609434397627005
0.028,1.7804,1.0,2644.487073334396,0.27021846809977174,1.3256725791919677,0.9404318734078214,0.2878298,0.6617900866149602
0.0285,1.77969375,1.0,2653.9178263848903,0.27431196569563504,1.3252666161405222,0.9420288667973864,0.2878001375,0.6626327437005555
0.029,1.778975,1.0,2662.6415408364223,0.2783825009034612,1.3248616688577843,0.9435533919113852,0.28776995,0.6634722452389519
0.029500000000000002,1.7782437500000001,1.0,2670.6978980867857,0.282430203379209,1.3244573399915243,0.945009758400305,0.2877392375,0.6643094213189555
0.03,1.7775,1.0,2678.1205347338228,0.28645520020352755,1.324053292553832,0.9464019658216137,0.287708,0.6651449731665198
0.0305,1.77674375,1.0,2684.9491158007363,0.2904576217396193,1.3236491383994353,0.9477337176651244,0.2876762375,0.6659797041240535
0.031,1.775975,1.0,2691.216356188464,0.2944375950535114,1.3232445569360443,0.9490084596838311,0.28764395,0.6668142742704735
0.0315,1.7751937500000001,1.0,2696.9483296865274,0.29839524423040337,1.3228392915180596,0.9502294010844323,0.2876111375,0.6676492087121089
0.032,1.7744,1.0,2702.1713989571786,0.3023306933554947,1.3224330854998827,0.9513995271414438,0.2875778,0.6684850298948513
0.0325,1.77359375,1.0,2706.912188035128,0.30624406651398467,1.3220256822359144,0.9525216175655719,0.2875439375,0.6693222575908606
0.033,1.772775,1.0,2711.19755628771,0.3101354877910729,1.3216168250805558,0.9535982631539835,0.28750955,0.6701614088810688
0.0335,1.7719437500000002,1.0,2715.054573835545,0.31400508127195886,1.3212062573882077,0.9546318809015368,0.2874746375,0.6710029981334835
0.034,1.7711000000000001,1.0,2718.4753697380083,0.3178529652254256,1.320794042465614,0.9556247620705771,0.2874392,0.671846882393399
0.0345,1.7702437500000001,1.0,2721.5421529919963,0.3216792694467633,1.3203794244222828,0.9565789605823464,0.2874032375,0.6726945931340778
0.035,1.7693750000000001,1.0,2724.278348162744,0.3254841147393811,1.3199621846545748,0.9574964541077349,0.28736675,0.6735465573694891
0.035500000000000004,1.76849375,1.0,2726.6888830408243,0.3292676191268968,1.3195422737935047,0.9583791113758705,0.2873297375,0.6744028547795818
0.036000000000000004,1.7676,1.0,2728.778754506334,0.33302990063292803,1.3191196424700864,0.9592286831730841,0.2872922,0.6752635643806257
0.0365,1.76669375,1.0,2730.553025300444,0.33677107728109246,1.3186942413153346,0.9600468111288802,0.2872541375,0.6761287645167195
0.037,1.765775,1.0,2732.0168208511495,0.3404912670950079,1.318266020960264,0.9608350357527589,0.28721555,0.6769985328511507
0.0375,1.7648480858991866,1.0,2733.390902172684,0.344190588098292,1.3178349320358886,0.9615948037933763,0.28717661960776586,0.6778729463575959
0.038,1.763920997310218,1.0,2735.07798832546,0.3478691583145625,1.317400925173223,0.9623274749840397,0.28713768188702915,0.6787520813111674
0.0385,1.7629939087212492,1.0,2737.094305138887,0.3515270948433445,1.3169639345175992,0.9630343264893099,0.28709874416629244,0.6796360466043466
0.039,1.7620668201322804,1.0,2739.411380582631,0.3551645102206851,1.316524221696011,0.9637165899391231,0.2870598064455558,0.6805242891573169
0.0395,1.7611397315433117,1.0,2741.963763399803,0.35878152775676536,1.316082383731243,0.964375457800896,0.2870208687248191,0.6814155825726252
0.04,1.760212642954343,1.0,2744.735089262891,0.3623782592434145,1.3156385719217343,0.9650120113416761,0.2869819310040824,0.6823096043214547
0.0405,1.7592855543653743,1.0,2747.70898741834,0.365954816472462,1.3151929375659244,0.9656272703514666,0.2869429932833457,0.6832060335094493
0.041,1.7583584657764055,1.0,2750.869074319881,0.3695113112357371,1.3147456319622521,0.9662221972890941,0.286904055562609,0.6841045508950336
0.0415,1.7574313771874368,1.0,2754.1989477680468,0.37304785532506923,1.314296806409157,0.9667977011071761,0.28686511784187235,0.6850048389062657
0.042,1.756504288598468,1.0,2757.682181557681,0.3765645605322878,1.3138466122050776,0.9673546407840684,0.28682618012113564,0.6859065816562362
0.0425,1.7555772000094994,1.0,2761.3023206334046,0.38006153864922215,1.3133952006484535,0.9678938285880164,0.286787242400399,0.6868094649570012
0.043000000000000003,1.7546501114205308,1.0,2765.042876751565,0.38353890146770164,1.312942723037724,0.9684160330963167,0.2867483046796623,0.6877131763320612
0.043500000000000004,1.7537230228315621,1.0,2768.8916697916493,0.3869967571804542,1.3124892914575768,0.9689219782919667,0.2867093669589256,0.6886174831771099
0.044,1.7527959342425934,1.0,2772.835103573452,0.3904352181263024,1.312035030510799,0.969412351707449,0.2866704292381889,0.6895221292542242
0.0445,1.7518688456536247,1.0,2776.8601980665226,0.39385439598083305,1.3115800589389657,0.9698878045208347,0.28663149151745226,0.6904268714017561
0.045,1.750941757064656,1.0,2780.9600594257668,0.397254396633133,1.3111244403665199,0.9703489493088387,0.28659255379671555,0.6913315771894766
0.0455,1.7500146684756872,1.0,2785.127775941962,0.4006353259722891,1.310668238417905,0.9707963674805038,0.28655361607597885,0.6922361149180989
0.046,1.7490875798867185,1.0,2789.3564171740045,0.4039972898873883,1.3102115167175645,0.9712306111662473,0.2865146783552422,0.6931403536217735
0.0465,1.7481604912977498,1.0,2793.639033170547,0.40734039426751756,1.3097543388899417,0.9716522049749724,0.2864757406345055,0.6940441630703289
0.047,1.747233402708781,1.0,2797.968653782155,0.41066474500176375,1.30929676855948,0.9720616476296372,0.28643680291376883,0.6949474137712481
0.0475,1.7463063141198123,1.0,2802.3382880621452,0.41397044797921384,1.3088388693506228,0.9724594134907545,0.2863978651930321,0.6958499769713934
0.048,1.7453792255308436,1.0,2806.7409237584116,0.4172576090889547,1.3083807048878136,0.9728459539764883,0.2863589274722954,0.696751724658467
0.0485,1.744452136941875,1.0,2811.1762290859547,0.42052632028481074,1.3079222787665845,0.9732216929938436,0.28631998975155876,0.6976526474464089
0.049,1.7435250483529063,1.0,2815.632061043257,0.423776703564781,1.3074637002797702,0.9735870453125919,0.28628105203082205,0.6985525287317336
0.0495,1.7425979597639376,1.0,2820.104330621835,0.42700886221014867,1.3070050063545071,0.9739423990215913,0.2862421143100854,0.6994512948764957
0.05,1.7416708711749689,1.0,2824.5907652507767,0.43022289534214897,1.3065462175714087,0.9742881226023258,0.2862031765893487,0.7003489046322149
0.0505,1.7407437825860002,1.0,2829.0890851089544,0.43341890208201705,1.3060873545110887,0.9746245675990655,0.286164238868612,0.7012453169910813
0.051000000000000004,1.7398166939970314,1.0,2833.597003086299,0.4365969815509881,1.3056284377541607,0.9749520695491941,0.2861253011478753,0.7021404911860687
0.051500000000000004,1.7388896054080627,1.0,2838.1122247545054,0.43975723287029733,1.3051694878812383,0.9752709488544808,0.2860863634271386,0.7030343866910165
0.052000000000000005,1.737962516819094,1.0,2842.632448347624,0.44289975516117985,1.304710525472935,0.9755815115975325,0.28604742570640196,0.7039269632206884
0.0525,1.7370354282301252,1.0,2847.1553647510123,0.44602464754487087,1.3042515711098648,0.9758840503073284,0.28600848798566525,0.7048181807308
0.053,1.7361083396411565,1.0,2851.678657501045,0.4491320091426056,1.3037926453726407,0.9761788446774263,0.28596955026492854,0.705707999418026
0.0535,1.7351812510521878,1.0,2856.200002792946,0.45222193907561925,1.303333768841877,0.9764661622401513,0.2859306125441919,0.7065963797199707
0.054,1.7342541624632193,1.0,2860.71706949868,0.45529453646514695,1.3028749620981868,0.976746258999817,0.28589167482345523,0.7074832823151209
0.0545,1.7333270738742506,1.0,2865.227519194133,0.45834990043242385,1.302416245722184,0.9770193800278005,0.2858527371027185,0.7083686681227668
0.055,1.7323999852852818,1.0,2869.731776944702,0.46138811078097747,1.3019576157324655,0.9772857567105971,0.2858137993819818,0.7092525456032038
0.0555,1.731472896696313,1.0,2874.2268058221234,0.46440928265255565,1.3014990988262853,0.9775456159125285,0.28577486166124516,0.7101348641802865
0.056,1.7305458081073444,1.0,2878.7106174322007,0.467413520084329,1.301040712337579,0.9777991734459469,0.28573592394050845,0.7110155915665914
0.0565,1.7296187195183756,1.0,2883.1828138122837,0.47040091430626957,1.3005824594813657,0.9780466342355543,0.2856969862197718,0.7118947227427714
0.057,1.728691630929407,1.0,2887.6429959880334,0.47337155654834906,1.3001243434726648,0.9782881948500466,0.2856580484990351,0.7127722527267282
0.0575,1.7277645423404382,1.0,2892.090763983768,0.4763255380405394,1.299666367526495,0.9785240439106564,0.2856191107782984,0.713648176573583
0.058,1.7268374537514695,1.0,2896.5257168319968,0.4792629500128125,1.2992085348578755,0.9787543624765532,0.2855801730575617,0.714522489375649
0.0585,1.7259103651625007,1.0,2900.947452583347,0.4821838836951402,1.2987508486818253,0.9789793244085832,0.285541235336825,0.7153951862624015
0.059000000000000004,1.724983276573532,1.0,2905.3555683173345,0.48508843031749443,1.2982933122133635,0.9791990967127268,0.28550229761608836,0.7162662624004491
0.059500000000000004,1.7240561879845633,1.0,2909.7496601525104,0.48797668110984704,1.297835928667509,0.9794138398645624,0.28546335989535165,0.717135712993503
0.06,1.7231290993955948,1.0,2914.1293232574553,0.4908487273021698,1.2973787012592812,0.979623708115921,0.28542442217461494,0.7180035332823442
0.0605,1.722202010806626,1.0,2918.4941518619926,0.49370466012443476,1.2969216332036988,0.9798288497848421,0.2853854844538783,0.7188697185447964
0.061,1.7212749222176573,1.0,2922.8437392678265,0.4965445708066137,1.296464727715781,0.9800294075298646,0.28534654673314164,0.7197342640956882
0.0615,1.7203478336286886,1.0,2927.1776778604885,0.49936855057867846,1.2960079880105468,0.98022551860961,0.28530760901240493,0.7205971652868239
0.062,1.7194207450397199,1.0,2931.4955591211087,0.502176690670601,1.2955514173030156,0.980417315128554,0.2852686712916682,0.7214584175069475
0.0625,1.7184936564507511,1.0,2935.7969736381433,0.5049690823123532,1.295095018808206,0.9806049242698188,0.28522973357093157,0.7223180161817109
0.063,1.7175665678617824,1.0,2940.0827951678057,0.5077457596732908,1.2946387844953706,0.980788463727643,0.28519079585019486,0.7231759779052633
0.0635,1.7166394792728137,1.0,2944.352023208698,0.51050687563239,1.2941827227617326,0.9809680564430446,0.2851518581294582,0.7240322883561656
0.064,1.715712390683845,1.0,2948.6044995499924,0.5132525264361457,1.2937268346156878,0.9811438163522287,0.2851129204087215,0.7248869471513022
0.0645,1.7147853020948762,1.0,2952.84033206726,0.5159827939007091,1.2932711187391117,0.9813158521339361,0.2850739826879848,0.7257399582701207
0.065,1.7138582135059075,1.0,2957.0596292675004,0.5186977598422313,1.2928155738138793,0.9814842685866351,0.28503504496724813,0.7265913256761753
0.0655,1.7129311249169388,1.0,2961.262500283611,0.5213975060768633,1.2923601985218667,0.9816491667952573,0.2849961072465114,0.7274410533171387
0.066,1.7120040363279703,1.0,2965.449054870201,0.5240821144207564,1.2919049915449485,0.9818106442896155,0.28495716952577477,0.7282891451248199
0.0665,1.7110769477390015,1.0,2969.61940339786,0.5267516666900615,1.2914499515650006,0.9819687951949698,0.28491823180503806,0.7291356050151747
0.067,1.7101498591500328,1.0,2973.7736568489486,0.5294062447009297,1.2909950772638983,0.9821237103751895,0.28487929408430135,0.7299804368883223
0.0675,1.709222770561064,1.0,2977.911926812255,0.5320459302695121,1.290540367323517,0.9822754775689208,0.2848403563635647,0.7308236446285582
0.068,1.7082956819720954,1.0,2982.034325478343,0.5346708052119599,1.2900858204257322,0.9824241815191509,0.284801418642828,0.7316652321043682
0.0685,1.7073685933831266,1.0,2986.140965634942,0.5372809513444241,1.2896314352524187,0.9825699040965303,0.28476248092209133,0.7325052031684438
0.069,1.706441504794158,1.0,2990.231960661719,0.5398764504830559,1.2891772104854529,0.9827127244167982,0.2847235432013546,0.7333435616576917
0.0695,1.7055144162051892,1.0,2994.307424526189,0.5424573844440062,1.2887231448067094,0.9828527189526269,0.2846846054806179,0.7341803113932523
0.07,1.7045873276162204,1.0,2998.367471778637,0.5450238350434262,1.2882692368980637,0.9829899616401923,0.28464566775988126,0.7350154561805102
0.07050000000000001,1.7036602390272517,1.0,3002.4122175474495,0.547575884097467,1.2878154854413915,0.9831245239807486,0.28460673003914455,0.7358489998091078
0.07100000000000001,1.702733150438283,1.0,3006.4417775349043,0.5501136134222798,1.2873618891185679,0.9832564751374765,0.2845677923184079,0.7366809460529589
0.07150000000000001,1.7018060618493145,1.0,3010.4562680121358,0.5526371048340155,1.2869084466114684,0.9833858820278528,0.2845288545976712,0.7375112986702621
