Time [s],Phi [rad],STIM [ ],Fsee [N],Gamma [ ],Lcerel [ ],q [ ],Lmtc [m],fisomrel [ ]
0.0,1.8,1.0,18.080909578637304,0.0003422155992195638,1.3793270223646459,0.00503035225282414,0.288653,0.5411703128315417
0.0005,1.79999375,1.0,18.496753669288374,0.005949505349182318,1.3792780221211602,0.013888502301187461,0.2886527375,0.5412888454587395
0.001,1.799975,1.0,22.084931900837788,0.01152534263702576,1.378890905218512,0.03736073491798728,0.28865195,0.5422247510927822
0.0015,1.79994375,1.0,32.07329375558296,0.0170699038871984,1.377961341622378,0.07298640640495337,0.2886506375,0.5444681895376662
0.002,1.7999,1.0,55.653215703132396,0.02258336453228227,1.3762350605761975,0.11753324829981644,0.2886488,0.5486198316110491
0.0025,1.79984375,1.0,100.52279798450492,0.028065899022248632,1.3737725558993397,0.16763201029712327,0.28864643749999996,0.5545091723739637
0.003,1.7997750000000001,1.0,165.33798003888268,0.03351768082960059,1.3710515035009048,0.22043072519633772,0.28864354999999997,0.5609718805794581
0.0035,1.79969375,1.0,242.60494262012833,0.038938882451221846,1.3684339123441676,0.2737436671489289,0.2886401375,0.5671442992180175
0.004,1.7996,1.0,326.68710286523367,0.044329675418320474,1.366018382572747,0.3259454643769542,0.2886362,0.572801478376372
0.0045000000000000005,1.7994937500000001,1.0,414.663027118291,0.04969023030193023,1.3637965811288564,0.3759092103789347,0.2886317375,0.5779720904303426
0.005,1.799375,1.0,504.91008149819004,0.05502071670430183,1.3617418601605373,0.4229361301888978,0.28862675,0.5827258501517674
0.0055,1.79924375,1.0,596.3300132399721,0.06032130329749897,1.359830857289034,0.46666243493638104,0.2886212375,0.5871229405058636
0.006,1.7991000000000001,1.0,688.0579232697606,0.0655921577907298,1.3580459191690757,0.5069667616458975,0.2886152,0.5912089278264405
0.006500000000000001,1.79894375,1.0,779.3825307610999,0.07083344693851872,1.3563735095834293,0.543891475179839,0.2886086375,0.5950188828673133
0.007,1.798775,1.0,869.7190669544404,0.07604533665148105,1.3548027680051777,0.577581948832351,0.28860155,0.5985809815556888
0.0075,1.79859375,1.0,958.5776855479363,0.0812279916660484,1.3533248439975476,0.608242666675328,0.2885939375,0.60191822262152
0.008,1.7984,1.0,1045.5845835154346,0.08638157625604992,1.3519317985137325,0.636106412268427,0.2885858,0.6050510497286021
0.0085,1.79819375,1.0,1130.4196335136353,0.09150625324170578,1.3506170495092416,0.6614145718346983,0.2885771375,0.6079964432188586
0.009000000000000001,1.797975,1.0,1212.8391028941421,0.09660218464081713,1.3493746193910074,0.6844040694179834,0.28856795,0.610769691726367
0.0095,1.79774375,1.0,1292.683041872357,0.1016695322176458,1.3481987870763448,0.7052997276139883,0.2885582375,0.6133852190005176
0.01,1.7975,1.0,1369.8150758169174,0.10670845595519352,1.3470846963364607,0.7243106237192338,0.288548,0.6158552728604174
0.0105,1.79724375,1.0,1444.1464012660092,0.11171911509227707,1.3460278330518762,0.7416280869849659,0.2885372375,0.618191131229027
0.011,1.796975,1.0,1515.6363427080516,0.11670166822774608,1.3450238922518785,0.7574253726613622,0.28852595000000003,0.6204034240285847
0.0115,1.79669375,1.0,1584.2812262559082,0.12165627379700884,1.34406881556128,0.7718582929661593,0.2885141375,0.6225020732087303
0.012,1.7964,1.0,1650.0666766131385,0.12658308773487797,1.3431592610649583,0.7850665074157047,0.28850180000000003,0.6244952855400249
0.0125,1.79609375,1.0,1713.016129983237,0.13148226582669068,1.3422919259885733,0.7971745291521017,0.2884889375,0.626391063147427
0.013000000000000001,1.7957750000000001,1.0,1773.168945385539,0.1363539630219657,1.3414637488382495,0.808293231834843,0.28847555,0.628196773690462
0.0135,1.79544375,1.0,1830.6059017629304,0.14119833481479585,1.3406715697613172,0.818521114346105,0.2884616375,0.6299199029220663
0.014,1.7951000000000001,1.0,1885.3732525471962,0.14601553359135297,1.339912936214483,0.8279459419667186,0.2884472,0.6315663131187781
0.0145,1.79474375,1.0,1937.528175914049,0.15080571117415142,1.339185534340993,0.8366457368270601,0.2884322375,0.6331414964726244
0.015,1.794375,1.0,1987.148910862679,0.15556901938570553,1.3384870502840935,0.8446898525134744,0.28841675,0.634650882621089
0.0155,1.79399375,1.0,2034.3152752189533,0.1603056089380252,1.3378153560144659,0.8521400493768595,0.2884007375,0.6360994427322056
0.016,1.7936,1.0,2079.1300578942314,0.16501563101070757,1.3371682586163596,0.8590513104524378,0.2883842,0.6374922365485067
0.0165,1.7931937500000001,1.0,2121.6611931902094,0.1696992335602724,1.3365440844656464,0.865472819180425,0.2883671375,0.6388331607499358
0.017,1.792775,1.0,2161.9844639124913,0.17435656426955243,1.335941204259396,0.8714485013383375,0.28834955,0.6401259798493198
0.0175,1.7923437500000001,1.0,2200.1866592334686,0.17898777082138045,1.335357988694679,0.8770176334203154,0.2883314375,0.6413744241666441
0.018000000000000002,1.7919,1.0,2236.3483977796072,0.18359299939166918,1.3347929714810027,0.8822154318740085,0.2883128,0.6425818438996189
0.0185,1.79144375,1.0,2270.574794143231,0.1881723977346077,1.3342445287326703,0.8870734437422724,0.2882936375,0.6437518973605714
0.019,1.790975,1.0,2302.9337430632054,0.19272610941559742,1.3337114878120069,0.8916201220376287,0.28827395,0.6448872541527322
0.0195,1.79049375,1.0,2333.497043703938,0.1972542777703559,1.33319270062264,0.8958810739569565,0.2882537375,0.645990511006989
0.02,1.79,1.0,2362.342302558465,0.20175704613460074,1.3326870190681976,0.8998793779456243,0.288233,0.6470642453556017
0.0205,1.78949375,1.0,2389.546314528704,0.20623455691876613,1.3321933545743185,0.9036358803120769,0.2882117375,0.6481108902316999
0.021,1.788975,1.0,2415.1907963011945,0.21068695308131447,1.3317106166314852,0.9071694297997459,0.28818995000000003,0.6491328661159436
0.021500000000000002,1.78844375,1.0,2439.3500149763095,0.2151143761961896,1.3312378278215298,0.9104971195650545,0.2881676375,0.6501323387119726
0.022,1.7879,1.0,2462.082524559125,0.21951696487593275,1.3307741965751745,0.9136344900432325,0.2881448,0.6511110678572953
0.0225,1.78734375,1.0,2483.4499207265226,0.22389485773308523,1.330318931323141,0.9165956579715177,0.28812143749999997,0.6520708023263333
0.023,1.786775,1.0,2503.516587981057,0.22824819338018829,1.3298712404961512,0.9193934665248957,0.28809755,0.6530132802727371
0.0235,1.78619375,1.0,2522.3463437405567,0.23257710989054714,1.3294303619973378,0.9220396230837526,0.28807313749999996,0.6539401677114254
0.024,1.7856,1.0,2539.9955989001896,0.23688174379138746,1.3289956250136117,0.9245448264015733,0.2880482,0.6548529295979051
0.0245,1.78499375,1.0,2556.5424387552384,0.2411622347978679,1.3285661734900416,0.9269188215562216,0.2880227375,0.6557534108358161
0.025,1.784375,1.0,2572.031173832716,0.24541871632408288,1.3281414865396672,0.9291705814541407,0.28799675,0.6566427449347494
0.025500000000000002,1.78374375,1.0,2586.5075310688517,0.24965132178412675,1.3277210432755278,0.9313083278082609,0.2879702375,0.6575220592933664
0.026000000000000002,1.7831000000000001,1.0,2600.018536596392,0.2538601845920938,1.3273043228106634,0.9333396042222073,0.2879432,0.6583924753490213
0.0265,1.78244375,1.0,2612.612404547477,0.2580454381620784,1.3268908042581136,0.9352713412731829,0.2879156375,0.6592551087100883
0.027,1.781775,1.0,2624.3384318724566,0.26220721590817503,1.326479966730918,0.9371099145546071,0.28788755,0.6601110692709781
0.0275,1.7810937500000001,1.0,2635.240483064148,0.266345647514014,1.326071348695952,0.9388612038930181,0.2878589375,0.660961337881387
0.028,1.7804,1.0,2645.3697942247745,0.2704608689318825,1.325664428324689,0.9405306253787967,0.2878298,0.6618070157013825
0.0285,1.77969375,1.0,2654.7609756521865,0.27455300843523534,1.3252588444836186,0.9421231998054356,0.2878001375,0.6626488650675421
0.029,1.778975,1.0,2663.4487054298866,0.27862219400257215,1.3248542410574697,0.9436435686815152,0.28776995,0.6634876341421407
0.029500000000000002,1.7782437500000001,1.0,2671.468217053063,0.28266855361239235,1.3244502619309704,0.9450960272329489,0.2877392375,0.6643240673881528
0.03,1.7775,1.0,2678.8552485211267,0.28669221524319544,1.3240465509888497,0.9464845546702964,0.287708,0.6651589055874707
0.0305,1.77674375,1.0,2685.645994242799,0.29069330687348083,1.3236427521158363,0.9478128414507317,0.2876762375,0.665992885851044
0.031,1.775975,1.0,2691.867079753056,0.2946719512221313,1.3232386005428993,0.949084323803206,0.28764395,0.6668265533133545
0.0315,1.7751937500000001,1.0,2697.5542586463384,0.29862827816187026,1.322833751025406,0.9503021874112919,0.2876111375,0.6676606160678131
0.032,1.7744,1.0,2702.7480738176396,0.30256241991578714,1.3224278175846038,0.9514693916605731,0.2875778,0.6684958623967776
0.0325,1.77359375,1.0,2707.4698806927645,0.3064744977528221,1.322020592176475,0.9525887104451123,0.2875439375,0.6693327111425779
0.033,1.772775,1.0,2711.7412444012693,0.3103646329419155,1.321611866757002,0.9536627292411679,0.28750955,0.670171578957514
0.0335,1.7719437500000002,1.0,2715.5839201772683,0.3142329467520075,1.3212014332821673,0.9546938601691425,0.2874746375,0.6710128802853361
0.034,1.7711000000000001,1.0,2719.0198347183123,0.31807956045203845,1.3207890837079534,0.9556843556808923,0.2874392,0.6718570273399607
0.0345,1.7702437500000001,1.0,2722.0710685053664,0.3219045953109485,1.320374609990343,0.9566363210123653,0.2874032375,0.6727044300814272
0.035,1.7693750000000001,1.0,2724.759839081379,0.325708172597678,1.3199578040853182,0.9575517255259389,0.28736675,0.6735554961890982
0.035500000000000004,1.76849375,1.0,2727.1084852900403,0.32949041358116715,1.3195384579488618,0.9584324130530548,0.2873297375,0.6744106310320902
0.036000000000000004,1.7676,1.0,2729.1394524739444,0.3332514395303562,1.319116363536956,0.9592801113356721,0.2872922,0.6752702376369557
0.0365,1.76669375,1.0,2730.867644330317,0.3369913665874718,1.3186913821810795,0.9600964465330164,0.2872541375,0.6761345756489576
0.037,1.765775,1.0,2732.3137531236953,0.34071031661750006,1.3182633232748997,0.9608829409346743,0.28721555,0.6770040084758185
0.0375,1.76484375,1.0,2733.500794464272,0.3444084117667545,1.3178319757296875,0.9616410224235598,0.2871764375,0.6778789387875108
0.038,1.7639,1.0,2734.441046097512,0.34808576622180815,1.3173972265112153,0.9623720409566514,0.28713679999999997,0.678759568249325
0.0385,1.76294375,1.0,2735.146828960569,0.35174249416923403,1.3169589625852562,0.9630772663996455,0.28709663750000003,0.6796460970563716
0.039,1.761975,1.0,2735.6305017012646,0.35537870979560504,1.316517070917583,0.9637578941467176,0.28705595,0.6805387239086533
0.0395,1.7609937500000001,1.0,2735.9044554809407,0.3589945272874943,1.3160714384739687,0.9644150502875959,0.2870147375,0.6814376459853196
0.04,1.76,1.0,2735.98110905964,0.3625900608314747,1.3156219522201862,0.9650497963628697,0.286973,0.6823430589181075
0.0405,1.7589937500000001,1.0,2735.872904165584,0.36616542461411933,1.3151684991220083,0.9656631337443773,0.2869307375,0.683255156763969
0.041,1.757975,1.0,2735.592301147106,0.3697207328220011,1.3147109661452079,0.9662560076738721,0.28688795,0.6841741319768808
0.0415,1.75694375,1.0,2735.1517749082313,0.37325609964169304,1.314249240255558,0.9668293109899195,0.2868446375,0.6851001753788414
0.042,1.7559,1.0,2734.5624984873143,0.3767716302907978,1.3137832203391844,0.9673838870735015,0.28680079999999997,0.6860334522754173
0.0425,1.75484375,1.0,2733.836434201996,0.3802674475346952,1.3133127981860677,0.9679205358817119,0.2867564375,0.6869741406020932
0.043000000000000003,1.753775,1.0,2732.981156348389,0.3837436598672245,1.3128379054877268,0.9684400153474638,0.28671155,0.6879223370218498
0.043500000000000004,1.75269375,1.0,2732.0040836723933,0.3872003749082121,1.3123584753928779,0.9689430431469928,0.28666613750000003,0.6888781340887657
0.044,1.7516,1.0,2730.9126381572337,0.39063770027748446,1.311874441050237,0.969430299258424,0.2866202,0.6898416231492419
0.0445,1.75049375,1.0,2729.7142434322645,0.3940557435948683,1.311385735608521,0.9699024283111691,0.2865737375,0.6908128943225136
0.045,1.7493750000000001,1.0,2728.416323278923,0.3974546124801899,1.3108922922164457,0.9703600417665809,0.28652675,0.6917920364808807
0.0455,1.74824375,1.0,2727.0263002367174,0.4008344145532758,1.3103940440227275,0.9708037199435294,0.2864792375,0.6927791372296463
0.046,1.7471,1.0,2725.5515943082773,0.40419525743395257,1.3098909241760828,0.9712340139013191,0.2864312,0.6937742828867772
0.0465,1.7459437500000001,1.0,2723.999621763053,0.4075372487420466,1.309382865825228,0.9716514471912728,0.28638263750000004,0.6947775584622735
0.047,1.744775,1.0,2722.369825095739,0.41086047025630057,1.3088698746483178,0.9720565193365943,0.28633355,0.6957889047663661
0.0475,1.74359375,1.0,2720.6687610248428,0.41416503288861406,1.3083518915903594,0.9724497046437958,0.28628393750000003,0.6968083895173701
0.048,1.7424,1.0,2718.9137007721133,0.41745108313432683,1.307828759969681,0.9728314520119612,0.2862338,0.6978362708403334
0.0485,1.74119375,1.0,2717.1075434122135,0.4207187193576687,1.3073004538556747,0.973202191793054,0.2861831375,0.6988725480232664
0.049,1.739975,1.0,2715.2531857650147,0.4239680399228696,1.306766947317732,0.9735623339078169,0.28613195,0.6999172194941323
0.0495,1.73874375,1.0,2713.353522133144,0.4271991431941594,1.3062282144252444,0.9739122689989589,0.2860802375,0.7009702828122657
0.05,1.7375,1.0,2711.4114440535845,0.4304121275357681,1.3056842292476036,0.974252369509163,0.286028,0.7020317346597529
0.0505,1.73624375,1.0,2709.4298400640214,0.4336070913119255,1.3051349658542017,0.9745829906894502,0.2859752375,0.703101570832765
0.051000000000000004,1.734975,1.0,2707.411595485015,0.43678413288686146,1.3045803983144302,0.9749044715429772,0.28592195,0.7041797862328542
0.051500000000000004,1.73369375,1.0,2705.35959221593,0.43994335062480594,1.3040205006976806,0.9752171357089436,0.2858681375,0.7052663748582002
0.052000000000000005,1.7324,1.0,2703.2767085465634,0.44308484288998884,1.303455247073345,0.9755212922908965,0.2858138,0.7063613297948188
0.0525,1.73109375,1.0,2701.16581898365,0.44620870804664,1.3028846115108146,0.9758172366333893,0.28575893750000003,0.7074646432077262
0.053,1.729775,1.0,2699.02979409161,0.4493150444589893,1.3023085680794813,0.9761052510506344,0.28570355000000003,0.7085763063320589
0.0535,1.72844375,1.0,2696.871500349072,0.45240395049126675,1.3017270908487368,0.9763856055105004,0.2856476375,0.7096963094641522
0.054,1.7271,1.0,2694.6938000198966,0.4554755245077021,1.3011401538879728,0.9766585582769537,0.2855912,0.7108246419525768
0.0545,1.7257437500000001,1.0,2692.4995510387566,0.4585298648725254,1.3005477312665812,0.9769243565137973,0.2855342375,0.7119612921891292
0.055,1.724375,1.0,2690.29160691231,0.4615670699499664,1.2999497970539533,0.9771832368523409,0.28547675,0.7131062475997839
0.0555,1.72299375,1.0,2688.0728166349195,0.46458723810425506,1.299346325319481,0.9774354259254483,0.2854187375,0.7142594946355977
0.056,1.7216,1.0,2685.8460246190543,0.46759046769962126,1.298737290132556,0.9776811408702072,0.2853602,0.7154210187635748
0.0565,1.72019375,1.0,2683.6140706412853,0.47057685710029484,1.29812266556257,0.9779205898013114,0.28530113749999997,0.7165908044574876
0.057,1.718775,1.0,2681.3752713297554,0.4735464837676525,1.297502467117036,0.9781539727565853,0.28524155,0.7177687565665716
0.0575,1.71734375,1.0,2679.133591436747,0.47649945829233614,1.2968766585099665,0.9783814816331426,0.2851814375,0.7189548776529233
0.058,1.7159,1.0,2676.8916792426076,0.4794358801735873,1.2962452154780348,0.9786033002317025,0.2851208,0.7201491463851171
0.0585,1.71444375,1.0,2674.6502199774654,0.48235583865306025,1.2956081317427095,0.9788196050829576,0.2850596375,0.7213515065292886
0.059000000000000004,1.7129750000000001,1.0,2672.409897725605,0.48525942297240926,1.2949654010254594,0.9790305656945982,0.28499795,0.7225619011412305
0.059500000000000004,1.71149375,1.0,2670.1713954259035,0.48814672237328854,1.2943170170477536,0.979236344883929,0.2849357375,0.7237802725641337
0.06,1.71,1.0,2667.9353948722282,0.4910178260973523,1.2936629735310605,0.9794370990922225,0.284873,0.7250065624263254
0.0605,1.7084937500000001,1.0,2665.7025767150653,0.49387282338625493,1.2930032641968494,0.9796329786819389,0.2848097375,0.7262407116390028
0.061,1.7069750000000001,1.0,2663.473620464026,0.49671180348165056,1.2923378827665888,0.97982412821787,0.28474595,0.7274826603939675
0.0615,1.7054437500000001,1.0,2661.2492044908627,0.49953485562519356,1.2916668229617474,0.9800106867331994,0.2846816375,0.7287323481613543
0.062,1.7039,1.0,2659.0300060342433,0.5023420690585381,1.2909900785037942,0.9801927879813866,0.2846168,0.7299897136873588
0.0625,1.70234375,1.0,2656.8167012041267,0.5051335330233383,1.290307643114198,0.9803705606747399,0.2845514375,0.7312546949919625
0.063,1.7007750000000001,1.0,2654.609964988221,0.5079093367612487,1.2896195105144277,0.9805441287104694,0.28448555,0.732527229366656
0.0635,1.69919375,1.0,2652.410471258527,0.5106695695139234,1.288925674425952,0.98071361138497,0.28441913750000003,0.733807253372158
0.064,1.6976,1.0,2650.218892779057,0.5134143205230165,1.2882261285702397,0.9808791235970241,0.2843522,0.7350947028361342
0.0645,1.69599375,1.0,2648.0357528910477,0.5161436773275333,1.2875208680375447,0.9810407759871882,0.2842847375,0.7363895103409974
0.065,1.694375,1.0,2645.8589060287004,0.5188576875927293,1.286809912550118,0.9811986735836287,0.28421675,0.7376915627008727
0.0655,1.69274375,1.0,2643.6944741119282,0.5215564943749269,1.286093205504694,0.9813529205693666,0.2841482375,0.7390008857271967
0.066,1.6911,1.0,2641.542399538812,0.5242401784262111,1.2853707473028093,0.981503615821993,0.2840792,0.740317399820906
0.0665,1.6894437500000001,1.0,2639.4026248533996,0.5269088204986668,1.2846425383459987,0.9816508547134897,0.2840096375,0.741641024757483
0.067,1.687775,1.0,2637.275092743999,0.5295625013443794,1.2839085790357987,0.9817947292578149,0.28393955,0.7429716796870971
0.0675,1.68609375,1.0,2635.1597460432317,0.532201301715434,1.2831688697737444,0.9819353282512628,0.2838689375,0.7443092831347582
0.068,1.6844000000000001,1.0,2633.056527726428,0.5348253023639155,1.2824234109613717,0.9820727374060008,0.2837978,0.7456537530004597
0.0685,1.68269375,1.0,2630.9653809107544,0.5374345840419091,1.2816722030002166,0.9822070394771563,0.2837261375,0.7470050065593266
0.069,1.680975,1.0,2628.886248854677,0.5400292275014998,1.2809152462918145,0.9823383143838113,0.28365395,0.748362960461764
0.0695,1.67924375,1.0,2626.819074956552,0.5426093134947729,1.2801525412377013,0.9824666393242338,0.28358123749999997,0.7497275307336035
0.07,1.6775,1.0,2624.7638027541248,0.5451749227738134,1.2793840882394125,0.9825920888856591,0.283508,0.7510986327762506
0.07050000000000001,1.67574375,1.0,2622.7203759233225,0.5477261360907064,1.2786098876984842,0.9827147351489102,0.2834342375,0.7524761813668306
0.07100000000000001,1.673975,1.0,2620.6887382773743,0.550263034197537,1.2778299400164517,0.9828346477881388,0.28335995,0.7538600906583383
0.07150000000000001,1.67219375,1.0,2618.668833765966,0.5527856978463902,1.277044245594851,0.9829518941659391,0.2832851375,0.7552502741797829
0.07200000000000001,1.6704,1.0,2616.66060647459,0.5552942077893513,1.2762528048352175,0.9830665394240835,0.2832098,0.7566466448363368
0.0725,1.66859375,1.0,2614.6640006229995,0.5577886447785052,1.2754556181390875,0.983178646570104,0.2831339375,0.758049114909481
0.073,1.6667750000000001,1.0,2612.6789605650188,0.5602690895659371,1.2746526859079963,0.9832882765599396,0.28305755,0.7594575960571541
0.0735,1.66494375,1.0,2610.705430787196,0.5627356229037321,1.2738440085434795,0.983395488376851,0.2829806375,0.760871999313899
0.074,1.6631,1.0,2608.7433559079764,0.5651883255439755,1.273029586447073,0.9835003391067932,0.2829032,0.7622922350910084
0.0745,1.6612437500000001,1.0,2606.7924164266547,0.5676272162609798,1.2722094224781302,0.9836028806108422,0.2828252375,0.7637182089098304
0.075,1.659375,1.0,2604.8533282707176,0.5700524392963019,1.2713835098666733,0.9837031697417074,0.28274675,0.7651498423866239
0.0755,1.65749375,1.0,2602.92597287753,0.5724640819070081,1.2705518496007127,0.9838012586974503,0.2826677375,0.7665870429771472
