Time [s],Phi [rad],STIM [ ],Fsee [N],Gamma [ ],Lcerel [ ],q [ ],Lmtc [m],fisomrel [ ]
0.0,1.8,1.0,18.15304216734558,0.00043870665545060327,1.3793189745816241,0.005049781862880954,0.288653,0.5411897816401314
0.0005,1.79999375,1.0,18.598172206866884,0.006045455166896568,1.379266839004079,0.014173439318135281,0.2886527375,0.5413158955097387
0.001,1.799975,1.0,22.257948589447423,0.011620754252134201,1.3788734558687674,0.03787748544641471,0.28865195,0.542266914662172
0.0015,1.79994375,1.0,32.40558117311357,0.01716478031851376,1.3779335503142955,0.07368461842433659,0.2886506375,0.5445351771263771
0.002,1.7999,1.0,56.30274720351437,0.02267770878179204,1.3761938336641915,0.11835424018285802,0.2886488,0.5487187484471896
0.0025,1.79984375,1.0,101.55756050760465,0.02815971407547078,1.3737236701317663,0.16852142278683785,0.28864643749999996,0.5546256963751361
0.003,1.7997750000000001,1.0,166.65075551880489,0.03361096965405337,1.3710031161320817,0.22134579391445044,0.28864354999999997,0.5610863769779499
0.0035,1.79969375,1.0,244.06555254947747,0.03903164799970428,1.3683894472102345,0.2746521175226148,0.2886401375,0.5672487729086029
0.004,1.7996,1.0,328.22975338600196,0.044421920625648294,1.365977899157517,0.3268238598753146,0.2886362,0.5728959736232471
0.0045000000000000005,1.7994937500000001,1.0,416.2526598700031,0.04978195808142097,1.363759545399855,0.37674218535477494,0.2886317375,0.578058013808963
0.005,1.799375,1.0,506.52879343113574,0.055111929969249844,1.3617076777833346,0.4237148316102961,0.28862675,0.582804706098812
0.0055,1.79924375,1.0,597.9618852593948,0.060412004934388766,1.359799144580937,0.4673829731889165,0.2886212375,0.5871957128789095
0.006,1.7991000000000001,1.0,689.6869054857103,0.06568235065720565,1.3580164454866335,0.5076287059939256,0.2886152,0.5912762269168252
0.006500000000000001,1.79894375,1.0,781.0010281109277,0.07092313390213703,1.3563459927316766,0.5444965498880039,0.2886086375,0.595081420484936
0.007,1.798775,1.0,871.3198410823767,0.07613452054259459,1.3547770031183015,0.5781332417581045,0.28860155,0.5986392795229487
0.0075,1.79859375,1.0,960.147629631467,0.08131667526024525,1.3533007737701084,0.608744052959204,0.2885939375,0.6019724593540903
0.008,1.7984,1.0,1047.1207032986588,0.0864697624402388,1.3519092471166652,0.6365619696129518,0.2885858,0.6051016638832332
0.0085,1.79819375,1.0,1131.917108659003,0.09159394480396714,1.350595905691912,0.6618284234263653,0.2885771375,0.6080437210206251
0.009000000000000001,1.797975,1.0,1214.2942762611447,0.09668938434700249,1.3493547826505314,0.6847801852162934,0.28856795,0.6108138897933673
0.0095,1.79774375,1.0,1294.092353986829,0.10175624268915547,1.3481801777686653,0.7056418359640838,0.2885582375,0.6134265427582292
0.01,1.7975,1.0,1371.1799683809782,0.10679468011056167,1.347067187925499,0.7246221314448424,0.288548,0.6158940276322908
0.0105,1.79724375,1.0,1445.4649638212986,0.11180485562032814,1.3460113596456804,0.7419121204201021,0.2885372375,0.6182274840438381
0.011,1.796975,1.0,1516.8998605513289,0.1167869276071026,1.3450084830279105,0.7576847943137502,0.28852595000000003,0.6204373298430483
0.0115,1.79669375,1.0,1585.4960389452533,0.12174105491977887,1.3440543245955132,0.7720955883085279,0.2885141375,0.6225338703033331
0.012,1.7964,1.0,1651.2427936866998,0.12666739359944573,1.3431455140052635,0.7852838830873584,0.28850180000000003,0.6245253705933148
0.0125,1.79609375,1.0,1714.149593719789,0.13156609893332355,1.3422789230216108,0.7973740227087929,0.2884889375,0.6264194478799945
0.013000000000000001,1.7957750000000001,1.0,1774.2620372180093,0.1364373262086326,1.3414514234090038,0.8084766285719207,0.28847555,0.6282236143238686
0.0135,1.79544375,1.0,1831.6431384272773,0.14128122962874107,1.3406600589402446,0.8186900766903568,0.2884616375,0.6299449114886131
0.014,1.7951000000000001,1.0,1886.362511914871,0.14609796338772568,1.339902118340423,0.8281018537131459,0.2884472,0.6315897638638174
0.0145,1.79474375,1.0,1938.4742538901503,0.15088767886757956,1.3391753287703931,0.8367898414395318,0.2884322375,0.63316357255579
0.015,1.794375,1.0,1988.052710043511,0.15565052740373855,1.338477423200527,0.8448232709997623,0.28841675,0.6346716644883016
0.0155,1.79399375,1.0,2035.1788016837872,0.16038665937008265,1.3378062650947993,0.8522637762461062,0.2884007375,0.6361190282611677
0.016,1.7936,1.0,2079.95129593289,0.16509622627974951,1.3371597065172076,0.8591662467867593,0.2883842,0.6375106259605563
0.0165,1.7931937500000001,1.0,2122.4523428250573,0.16977937728423217,1.3365359286478853,0.8655797263622125,0.2883671375,0.6388506655902598
0.017,1.792775,1.0,2162.74955437162,0.1744362592294095,1.3359333909420752,0.8715480846694407,0.28834955,0.6401427195477005
0.0175,1.7923437500000001,1.0,2200.921187721884,0.17906701896116037,1.3353505528550202,0.8771105481783494,0.2883314375,0.6413903274867101
0.018000000000000002,1.7919,1.0,2237.0552531722274,0.1836718033253637,1.3347858738419631,0.8823022459475025,0.2883128,0.6425969983286772
0.0185,1.79144375,1.0,2271.237671582349,0.18825075794911053,1.3342379229996637,0.8871547153521488,0.2882936375,0.6437659784083893
0.019,1.790975,1.0,2303.561843766482,0.19280402945732056,1.3337052727376786,0.8916962915840554,0.28827395,0.644900481336325
0.0195,1.79049375,1.0,2334.1031394036295,0.19733176161149027,1.3331867426739965,0.895952530500469,0.2882537375,0.6460031712573089
0.02,1.79,1.0,2362.9286218788357,0.20183409642672517,1.3326812908015617,0.8999464962991558,0.288233,0.6470763990771898
0.0205,1.78949375,1.0,2390.1103855850274,0.20631117591813086,1.332187875113319,0.9036990094433872,0.2882117375,0.6481224988128127
0.021,1.788975,1.0,2415.725135396324,0.21076314210081284,1.3317054536022133,0.9072288954930694,0.28818995000000003,0.6491437884264986
0.021500000000000002,1.78844375,1.0,2439.8437844917034,0.2151901353038465,1.3312330804566135,0.9105532229507483,0.2881676375,0.6501423673827252
0.022,1.7879,1.0,2462.54700276051,0.21959229804636346,1.3307697514813652,0.9136874632662764,0.2881448,0.651120444849987
0.0225,1.78734375,1.0,2483.898925330361,0.22396976949171607,1.3303146528300003,0.91664570791572,0.28812143749999997,0.6520798154521569
0.023,1.786775,1.0,2503.954618149212,0.2283226866340841,1.3298670833320496,0.9194407980578072,0.28809755,0.6530220259375212
0.0235,1.78619375,1.0,2522.7715296002566,0.2326511864676474,1.3294263418170438,0.9220844338709556,0.28807313749999996,0.6539486138936232
0.024,1.7856,1.0,2540.409291144577,0.23695540598658585,1.3289917271145135,0.9245872916904387,0.2880482,0.65486110806827
0.0245,1.78499375,1.0,2556.9295288633107,0.2412354821850792,1.3285625380539896,0.9269591277084934,0.2880227375,0.6557610286591857
0.025,1.784375,1.0,2572.3857090976385,0.24549154862583142,1.3281381668786478,0.9292088842520857,0.28799675,0.6566496920839306
0.025500000000000002,1.78374375,1.0,2586.8410119269456,0.24972374488849453,1.3277179294991692,0.931344745831366,0.2879702375,0.6575285672346223
0.026000000000000002,1.7831000000000001,1.0,2600.3391116529788,0.25393220327491733,1.3273013373215123,0.9333742509799248,0.2879432,0.6583987072307067
0.0265,1.78244375,1.0,2612.9229347490345,0.2581170553485206,1.3268879192912668,0.9353043281368024,0.2879156375,0.6592611231550582
0.027,1.781775,1.0,2624.636432928748,0.2622784326727249,1.326477204354022,0.9371413509461608,0.28788755,0.6601168209093818
0.0275,1.7810937500000001,1.0,2635.524493497127,0.26641646681095094,1.3260687214553675,0.9388911900708735,0.2878589375,0.6609668013024936
0.028,1.7804,1.0,2645.6328546211707,0.27053128932661946,1.3256619995408931,0.940559259537591,0.2878298,0.6618120601244494
0.0285,1.77969375,1.0,2654.9991144686055,0.274623028951204,1.3252566496827805,0.9421505689330983,0.2878001375,0.6626534178480008
0.029,1.778975,1.0,2663.663551279056,0.278691816936526,1.3248522641633065,0.9436697473027209,0.28776995,0.6634917298085885
0.029500000000000002,1.7782437500000001,1.0,2671.6764557526967,0.28273778683345785,1.324448348709031,0.9451210674731114,0.2877392375,0.6643280262116804
0.03,1.7775,1.0,2679.065496523681,0.2867610639922631,1.3240446219715971,0.9465085137804106,0.287708,0.6651628921278212
0.0305,1.77674375,1.0,2685.858745327578,0.2907617737632052,1.323640802602648,0.9478357813683751,0.2876762375,0.6659969097280415
0.031,1.775975,1.0,2692.0846414877055,0.29474004149654776,1.323236609253827,0.9491063008141494,0.28764395,0.6668306582847219
0.0315,1.7751937500000001,1.0,2697.7719581563842,0.2986959925425542,1.3228317605767774,0.950323260368277,0.2876111375,0.6676647141674052
0.032,1.7744,1.0,2702.949770311097,0.3026297522514881,1.3224259752231422,0.9514896260658605,0.2875778,0.6684996508335641
0.0325,1.77359375,1.0,2707.6474245060276,0.306541445973613,1.322018971844565,0.95260815993557,0.2875439375,0.6693360388143154
0.033,1.772775,1.0,2711.894461411554,0.3104311989266939,1.3216104695392206,0.9536814365214252,0.28750955,0.6701744447792158
0.0335,1.7719437500000002,1.0,2715.7179503956113,0.3142991295181687,1.3212002118956254,0.9547118587853298,0.2874746375,0.6710153822646854
0.034,1.7711000000000001,1.0,2719.1440449748843,0.3181453693837544,1.320787952522819,0.9557016754294787,0.2874392,0.6718593415695715
0.0345,1.7702437500000001,1.0,2722.191589354433,0.3219700374708236,1.320373513019653,0.9566529923094017,0.2874032375,0.6727066714140505
0.035,1.7693750000000001,1.0,2724.879554310395,0.3257732527267489,1.3199567149849778,0.9575677793855921,0.28736675,0.6735577185459876
0.035500000000000004,1.76849375,1.0,2727.2270238365645,0.3295551340989028,1.3195373800176446,0.9584478810656837,0.2873297375,0.6744128277151128
0.036000000000000004,1.7676,1.0,2729.2531824975945,0.33331580053465787,1.3191153297165048,0.9592950256458621,0.2872922,0.6752723416451736
0.0365,1.76669375,1.0,2730.9773034872746,0.3370553709813867,1.318690385680409,0.9601108339392712,0.2872541375,0.6761366010040566
0.037,1.765775,1.0,2732.418737392779,0.3407739643864619,1.3182623695082085,0.960896827169764,0.28721555,0.6770059443718768
0.0375,1.76484375,1.0,2733.596901664341,0.34447169969725594,1.3178311027987542,0.9616544342010457,0.2871764375,0.6778807082070402
0.038,1.7639,1.0,2734.5081825013986,0.3481486683983576,1.3173966168220108,0.962385012596704,0.28713679999999997,0.6787608023913956
0.0385,1.76294375,1.0,2735.1898378028973,0.3518050181763565,1.3169585720564256,0.9630898158440895,0.28709663750000003,0.6796468864794376
0.039,1.761975,1.0,2735.6631277219985,0.35544087464783614,1.316516774692744,0.9637700329892799,0.28705595,0.6805393218689502
0.0395,1.7609937500000001,1.0,2735.9372057877854,0.3590563479845699,1.3160711411355765,0.9644267912145997,0.2870147375,0.6814382453483879
0.04,1.76,1.0,2736.0212498260726,0.3626515483583314,1.3156215877895339,0.9650611531169504,0.286973,0.6823437924783596
0.0405,1.7589937500000001,1.0,2735.9244586843047,0.36622658594089413,1.3151680310592258,0.9656741210888279,0.2869307375,0.6832560975709532
0.041,1.757975,1.0,2735.6560491109913,0.3697815709040315,1.3147103873492632,0.966266641357835,0.28688795,0.6841752936686121
0.0415,1.75694375,1.0,2735.2252527902474,0.37331661341951716,1.3142485730642564,0.966839607714592,0.2868446375,0.6851015125225726
0.042,1.7559,1.0,2734.6413135314715,0.37683182365912454,1.3137825046088154,0.9673938649560618,0.28680079999999997,0.6860348845708506
0.0425,1.75484375,1.0,2733.9134846135667,0.38032731179462714,1.3133120983875513,0.9679302120687182,0.2867564375,0.6869755389157826
0.043000000000000003,1.753775,1.0,2733.051026284263,0.3838031879977985,1.312837270805074,0.9684494051736621,0.28671155,0.6879236033011251
0.043500000000000004,1.75269375,1.0,2732.0632034148102,0.38725956244041215,1.312357938265994,0.9689521602537163,0.28666613750000003,0.6888792040887037
0.044,1.7516,1.0,2730.9592833085185,0.39069654529424147,1.3118740171749217,0.9694391556806687,0.2866202,0.6898424662346194
0.0445,1.75049375,1.0,2729.7485336656578,0.39411424673106016,1.3113854239364675,0.9699110345591465,0.2865737375,0.6908135132650077
0.045,1.7493750000000001,1.0,2728.440220702042,0.39751277692264164,1.3108920749552422,0.9703684069021119,0.28652675,0.6917924672513522
0.0455,1.74824375,1.0,2727.043607423409,0.40089224604075946,1.3103938866358555,0.9708118516516009,0.2864792375,0.692779448785356
0.046,1.7471,1.0,2725.5671653492486,0.40425276193897897,1.3098907825389254,0.9712419187705734,0.2864312,0.6937745628106264
0.0465,1.7459437500000001,1.0,2724.013756487383,0.40759442374286103,1.3093827372164428,0.9716591333434345,0.28638263750000004,0.6947778122208593
0.047,1.744775,1.0,2722.391555159845,0.41091734933330937,1.30886967687215,0.972063993503148,0.28633355,0.6957892943523396
0.0475,1.74359375,1.0,2720.704610698,0.41422164066860584,1.3083515652030133,0.9724569735842873,0.28628393750000003,0.6968090313675122
0.048,1.7424,1.0,2718.9569699329145,0.4175073997070324,1.307828365905999,0.9728385249521716,0.2862338,0.6978370444631453
0.0485,1.74119375,1.0,2717.152676732883,0.42077472840687086,1.3073000426780734,0.9732090773247407,0.2861831375,0.6988733538585914
0.049,1.739975,1.0,2715.295771568394,0.4240237287264032,1.3067665592162028,0.9735690400065844,0.28613195,0.6999179787839667
0.0495,1.73874375,1.0,2713.390291107633,0.4272545026239113,1.3062278792173536,0.973918803041724,0.2860802375,0.7009709374682458
0.05,1.7375,1.0,2711.4402678409756,0.430467152057677,1.305683966378492,0.974258738291178,0.286028,0.7020322471272735
0.0505,1.73624375,1.0,2709.449729734009,0.43366177898598224,1.3051347843965846,0.9745892004408597,0.2859752375,0.7031019239516896
0.051000000000000004,1.734975,1.0,2707.4226999107605,0.43683848536710895,1.3045802969685973,0.9749105279448882,0.28592195,0.7041799830947738
0.051500000000000004,1.73369375,1.0,2705.363196365325,0.43999737315933896,1.3040204677914966,0.9752230439089936,0.2858681375,0.7052664386602028
0.052000000000000005,1.7324,1.0,2703.2733516252106,0.4431385342342762,1.3034552777341413,0.975527056932732,0.2858138,0.7063612704569362
0.0525,1.73109375,1.0,2701.155406083267,0.4462620607828246,1.3028847066553582,0.9758228618719395,0.28575893750000003,0.707464459420592
0.053,1.729775,1.0,2699.017963977641,0.44936808271676787,1.302308676216139,0.9761107408595535,0.28570355000000003,0.7085760978458087
0.0535,1.72844375,1.0,2696.8626600862967,0.45245669386663306,1.301727171688081,0.9763909638640211,0.2856476375,0.7096961539066051
0.054,1.7271,1.0,2694.6911268197123,0.45552798806294703,1.301140178342781,0.9766637891661222,0.2855912,0.7108245949862184
0.0545,1.7257437500000001,1.0,2692.5049941671,0.45858205913623684,1.300547681451836,0.976929463961194,0.2855342375,0.711961387671957
0.055,1.724375,1.0,2690.305889648113,0.46161900091702945,1.299949666286843,0.9771882249254384,0.28547675,0.7131064977500366
0.0555,1.72299375,1.0,2688.0954382690065,0.4646389072358519,1.299346118119399,0.9774402987487302,0.2854187375,0.7142598902004044
0.056,1.7216,1.0,2685.875262483151,0.46764187192323103,1.298737022221101,0.9776859026361754,0.2853602,0.7154215291915479
0.0565,1.72019375,1.0,2683.6469821573983,0.470627988809694,1.298122363863546,0.9779252447804879,0.28530113749999997,0.7165913780752918
0.057,1.718775,1.0,2681.4122145424076,0.47359735172576756,1.297502128318331,0.9781585248071094,0.28524155,0.7177693993815795
0.0575,1.71734375,1.0,2679.1725742478525,0.47655005450197896,1.296876300857053,0.9783859341938514,0.2851814375,0.7189555548132417
0.058,1.7159,1.0,2676.929673223014,0.479486190968855,1.2962448667513087,0.9786076566667117,0.2851208,0.7201498052407506
0.0585,1.71444375,1.0,2674.6851207415775,0.4824058549569227,1.2956078112726954,0.9788238685733961,0.2850596375,0.7213521106969595
0.059000000000000004,1.7129750000000001,1.0,2672.4405233912885,0.4853091402967091,1.2949651196928103,0.9790347392359682,0.28499795,0.7225624303718308
0.059500000000000004,1.71149375,1.0,2670.197485069118,0.4881961408187411,1.2943167772832498,0.9792404312839471,0.2849357375,0.7237807226071491
0.06,1.71,1.0,2667.957606980118,0.49106695035354564,1.2936627693156113,0.9794411009690838,0.284873,0.7250069448912183
0.0605,1.7084937500000001,1.0,2665.7209846552378,0.49392163543114725,1.2930030948855369,0.9796368970095334,0.2848097375,0.7262410280213555
0.061,1.7069750000000001,1.0,2663.4888576503176,0.49676030297217727,1.2923377425603513,0.9798279650694947,0.28474595,0.7274829217943808
0.0615,1.7054437500000001,1.0,2661.262992430136,0.4995830663002871,1.2916666960378482,0.9800144454523189,0.2846816375,0.7287325842549919
0.062,1.7039,1.0,2659.043803507736,0.5023900101197459,1.2909899514391385,0.9801964715422605,0.2846168,0.7299899494944126
0.0625,1.70234375,1.0,2656.8317047107225,0.505181219134823,1.2903075048853332,0.9803741717054001,0.2845514375,0.7312549509159829
0.063,1.7007750000000001,1.0,2654.627109186398,0.5079567780497872,1.2896193524975432,0.9805476695141844,0.28448555,0.7325275212337494
0.0635,1.69919375,1.0,2652.4304294067815,0.5107167715689082,1.2889254903968792,0.9807170839602987,0.28441913750000003,0.733807592471055
0.064,1.6976,1.0,2650.242077173672,0.5134612843964548,1.288225914704452,0.9808825296565578,0.2843522,0.7350950959591263
0.0645,1.69599375,1.0,2648.062463624784,0.5161904012366962,1.2875206215413728,0.9810441170284598,0.2842847375,0.736389962335659
0.065,1.694375,1.0,2645.891999239608,0.5189042067939019,1.286809607028752,0.9812019524960041,0.28421675,0.7376921215434082
0.0655,1.69274375,1.0,2643.7310938456008,0.5216027857723409,1.286092867287701,0.9813561386463309,0.2841482375,0.7390015028287689
0.066,1.6911,1.0,2641.5801566252267,0.5242862228762821,1.2853703984393305,0.9815067743977104,0.2840792,0.7403180347403626
0.0665,1.6894437500000001,1.0,2639.439596123077,0.5269546028099952,1.2846421966047512,0.981653955155376,0.2840096375,0.7416416451276218
0.067,1.687775,1.0,2637.3098202526094,0.5296080102777491,1.283908257905074,0.9817977729596556,0.28393955,0.7429722611393685
0.0675,1.68609375,1.0,2635.191236304674,0.5322465299838128,1.2831685784614102,0.9819383166268383,0.2838689375,0.7443098092223985
0.068,1.6844000000000001,1.0,2633.0842509552126,0.534870246632456,1.28242315439487,0.982075671883178,0.2837978,0.7456542151200618
0.0685,1.68269375,1.0,2630.989270273388,0.5374792449279474,1.2816719818265647,0.9822099214924156,0.2837261375,0.7470054038708399
0.069,1.680975,1.0,2628.9066997308823,0.5400736095745563,1.280915056877605,0.9823411453771723,0.28365395,0.7483632998069256
0.0695,1.67924375,1.0,2626.83694421028,0.5426534252765521,1.2801523756691022,0.9824694207345525,0.28358123749999997,0.7497278265528005
0.07,1.6775,1.0,2624.7782443846786,0.545218752417563,1.2793839543772316,0.9825948215587921,0.283508,0.7510988712899903
0.07050000000000001,1.67574375,1.0,2622.7285993950513,0.547769664263162,1.278609811443849,0.9827174202801202,0.2834342375,0.7524763168597668
0.07100000000000001,1.673975,1.0,2620.691986108449,0.5503062911277736,1.2778299098882675,0.9828372878627419,0.28335995,0.7538601440417001
0.07150000000000001,1.67219375,1.0,2618.66822957756,0.5528287083387984,1.2770442512017084,0.9829544913012307,0.2832851375,0.7552502642732293
0.07200000000000001,1.6704,1.0,2616.65715518766,0.555336991223637,1.2762528368753934,0.9830690953866889,0.2832098,0.7566465883874276
0.0725,1.66859375,1.0,2614.658588652616,0.5578312151096897,1.275455668400544,0.9831811627923233,0.2831339375,0.7580490266135508
0.073,1.6667750000000001,1.0,2612.672356011673,0.5603114553243571,1.274652747268382,0.9832907541551483,0.28305755,0.7594574885775839
0.0735,1.66494375,1.0,2610.698283625556,0.5627777871950398,1.2738440749701285,0.9833979281540094,0.2829806375,0.760871883302789
0.074,1.6631,1.0,2608.7361981729096,0.565230286049138,1.2730296529970053,0.9835027415841184,0.2829032,0.7622921192102515
0.0745,1.6612437500000001,1.0,2606.785926647135,0.5676690272140525,1.2722094828402342,0.9836052494282755,0.2828252375,0.7637181041194269
0.075,1.659375,1.0,2604.847296352643,0.5700940860171836,1.2713835659910364,0.9837055049249495,0.28274675,0.7651497452486887
0.0755,1.65749375,1.0,2602.920134901756,0.5725055377859318,1.2705519039406334,0.9838035596333672,0.2826677375,0.7665869492158746
