Time [s],Phi [rad],STIM [ ],Fsee [N],Gamma [ ],Lcerel [ ],q [ ],Lmtc [m],fisomrel [ ]
0.0,1.8,1.0,19.073212538598707,0.0010735461730755867,1.3792176816535546,0.005295854357144766,0.288653,0.5414347892898702
0.0005,1.79999375,1.0,19.69323955163667,0.006676733736822184,1.3791479786751948,0.016154675579701062,0.2886527375,0.5416033490641392
0.001,1.799975,1.0,23.826133256149976,0.012248491849926293,1.3787182932865552,0.04136361132420479,0.28865195,0.5426417548792054
0.0015,1.79994375,1.0,35.08968006371703,0.01778899680312853,1.3777140929550404,0.07833872232876543,0.2886506375,0.5450639795381094
0.002,1.7999,1.0,61.1383693162945,0.02329842390555163,1.3758940991601147,0.12379057761631385,0.2886488,0.5494375835988707
0.0025,1.79984375,1.0,108.89496606136126,0.02877694747825081,1.373383940172515,0.1743876533513884,0.28864643749999996,0.5554350549146931
0.003,1.7997750000000001,1.0,175.7052594218377,0.034224740865572596,1.3706744416121603,0.2273661546249533,0.28864354999999997,0.5618637064270189
0.0035,1.79969375,1.0,254.0366346719418,0.03964197643828991,1.3680893878340323,0.2806176407285046,0.2886401375,0.5679534520534673
0.004,1.7996,1.0,338.68358912049894,0.04502882560083834,1.3657060320390564,0.33258425203513825,0.2886362,0.5735302874051298
0.0045000000000000005,1.7994937500000001,1.0,426.9772460905424,0.05038545880743568,1.3635115071247694,0.3821992651789411,0.2886317375,0.5786332403950214
0.005,1.799375,1.0,517.3918455570733,0.05571204552563731,1.3614796817971377,0.4288129596142639,0.28862675,0.5833304835709185
0.0055,1.79924375,1.0,608.8674576670963,0.061008754325153056,1.3595883146123233,0.47209813361822406,0.2886212375,0.5876793494715205
0.006,1.7991000000000001,1.0,700.5501048216938,0.06627575272948556,1.3578207778423625,0.5119589423527012,0.2886152,0.5917228665315263
0.006500000000000001,1.79894375,1.0,791.76185525026,0.0715132075121557,1.3561637631213277,0.5484540273077904,0.2886086375,0.5954954522935421
0.007,1.798775,1.0,881.9106684996176,0.07672128418970582,1.3546071338804966,0.5817388571852066,0.28860155,0.5990235350799094
0.0075,1.79859375,1.0,970.5474117083196,0.08190014783658432,1.3531418198110323,0.6120228304629184,0.2885939375,0.6023305328461492
0.008,1.7984,1.0,1057.2790864981368,0.08704996208542999,1.351760528921066,0.6395410834330463,0.2885858,0.6054353644552677
0.0085,1.79819375,1.0,1141.7996822489522,0.09217088977731136,1.350456716576764,0.6645349752093805,0.2885771375,0.6083548782086534
0.009000000000000001,1.797975,1.0,1223.9003482721046,0.09726309342369159,1.3492241310086581,0.6872400178726997,0.28856795,0.6111049308713252
0.0095,1.79774375,1.0,1303.3980645724105,0.10232673374745938,1.3480575537239554,0.7078793783299673,0.2885582375,0.6136987860194385
0.01,1.7975,1.0,1380.1660874092904,0.10736197084204825,1.3469521337160069,0.726659862204306,0.288548,0.6161486508606827
0.0105,1.79724375,1.0,1454.1400712430338,0.11236896431753897,1.3459031643693415,0.7437703327666172,0.2885372375,0.6184662017834066
0.011,1.796975,1.0,1525.2780537201152,0.11734787284213474,1.344906468775241,0.7593817886279567,0.28852595000000003,0.6206617595567401
0.0115,1.79669375,1.0,1593.5486220261066,0.12229885333493216,1.3439584089124685,0.7736480268012225,0.2885141375,0.6227443014617445
0.012,1.7964,1.0,1658.960791015537,0.12722206232478525,1.3430554233091552,0.7867065515926599,0.28850180000000003,0.6247225017161235
0.0125,1.79609375,1.0,1721.5584135374343,0.13211765640409906,1.3421940355618351,0.7986799407529689,0.2884889375,0.626604725847913
0.013000000000000001,1.7957750000000001,1.0,1781.383832594714,0.13698579071582728,1.3413712126113928,0.8096774091888018,0.28847555,0.6283982627558267
0.0135,1.79544375,1.0,1838.4729704744768,0.14182661828523752,1.340584345551255,0.8197961693337856,0.2884616375,0.6301093863693348
0.014,1.7951000000000001,1.0,1892.8885018948256,0.1466402921375975,1.3398308254748477,0.8291225767239345,0.2884472,0.6317442922738636
0.0145,1.79474375,1.0,1944.7090320312955,0.15142696466972308,1.3391081349127225,0.837733390202378,0.2884322375,0.633308905727088
0.015,1.794375,1.0,1994.022155431184,0.15618678843241915,1.3384138927740346,0.8456968969001677,0.28841675,0.6348087920201666
0.0155,1.79399375,1.0,2040.903437386289,0.16091991407967335,1.3377460467423958,0.8530739624932931,0.2884007375,0.6362487497126383
0.016,1.7936,1.0,2085.420261795198,0.16562649027537943,1.3371027975363314,0.8599188772876524,0.2883842,0.6376329843532498
0.0165,1.7931937500000001,1.0,2127.6537711581923,0.1703066656834312,1.3364823458743667,0.8662800568762494,0.2883671375,0.6389656598051119
0.017,1.792775,1.0,2167.695903730096,0.17496058877789003,1.3358829107559713,0.8722007434519043,0.28834955,0.6402508618051538
0.0175,1.7923437500000001,1.0,2205.632288481277,0.17958840665955558,1.335302890520729,0.8777196603727137,0.2883314375,0.6414922564044774
0.018000000000000002,1.7919,1.0,2241.562740156858,0.1841902677867764,1.3347406398515178,0.8828714826689685,0.2883128,0.6426935715299632
0.0185,1.79144375,1.0,2275.5532063822993,0.18876631618729145,1.3341949412037366,0.8876874266308293,0.2882936375,0.6438575933476756
0.019,1.790975,1.0,2307.676702697649,0.1933166958888398,1.3336645770327844,0.8921955404260198,0.28827395,0.6449870855661132
0.0195,1.79049375,1.0,2338.0127297830313,0.19784155091916036,1.3331483297940603,0.8964210669261481,0.2882537375,0.6460847906741967
0.02,1.79,1.0,2366.642653127607,0.2023410246453857,1.3326450216767955,0.9003867703731089,0.288233,0.6471533467909574
0.0205,1.78949375,1.0,2393.6459585454522,0.20681525998970776,1.332153544806585,0.9041132207545435,0.2882117375,0.6481952253584817
0.021,1.788975,1.0,2419.103685288904,0.2112644002101257,1.331672821715245,0.9076190279281141,0.28818995000000003,0.6492128167584419
0.021500000000000002,1.78844375,1.0,2443.0755696862093,0.21568858441052324,1.3312020201948904,0.9109210980761331,0.2881676375,0.650207977738595
0.022,1.7879,1.0,2465.6247228783404,0.22008795169478396,1.3307403080376365,0.9140347679777358,0.2881448,0.6511825530585755
0.0225,1.78734375,1.0,2486.817351270236,0.22446264116679157,1.3302868530355982,0.9169739724012361,0.28812143749999997,0.6521383759943914
0.023,1.786775,1.0,2506.722492336891,0.2288127919304297,1.3298408229808907,0.9197513916897792,0.28809755,0.6530772687987524
0.0235,1.78619375,1.0,2525.3992517778865,0.23313854012473662,1.3294015039202796,0.9223786025100351,0.28807313749999996,0.6540007946908739
0.024,1.7856,1.0,2542.919079481884,0.23744002692684227,1.3289680861384376,0.9248661557891864,0.2880482,0.6549107088724919
0.0245,1.78499375,1.0,2559.3318813929445,0.24171738712246663,1.3285399820188553,0.9272237308673913,0.2880227375,0.6558082915020735
0.025,1.784375,1.0,2574.685647334785,0.24597075449315667,1.328116637154484,0.9294601915540192,0.28799675,0.6566947462450023
0.025500000000000002,1.78374375,1.0,2589.029820999226,0.2502002628204593,1.3276974971382747,0.9315836611817274,0.2879702375,0.6575712703103012
0.026000000000000002,1.7831000000000001,1.0,2602.4151754622067,0.2544060458859216,1.3272820075631788,0.9336015945140439,0.2879432,0.6584390546091051
0.0265,1.78244375,1.0,2614.8936955140152,0.2585882374710904,1.3268696140221479,0.9355208417924941,0.2879156375,0.6592992838935334
0.027,1.781775,1.0,2626.5081004830968,0.2627469681846593,1.3264598581636413,0.9373477193160134,0.28788755,0.6601529368870382
0.0275,1.7810937500000001,1.0,2637.3099119660988,0.2668823734196492,1.3260522086698912,0.939088036771974,0.2878589375,0.6610011390991255
0.028,1.7804,1.0,2647.3441686499505,0.27099458542294097,1.3256462022691913,0.9407471614689161,0.2878298,0.6618448690932812
0.0285,1.77969375,1.0,2656.6443409024023,0.27508373207418146,1.3252414891800788,0.9423300643302597,0.2878001375,0.6626848651655762
0.029,1.778975,1.0,2665.2444963796893,0.2791499412530177,1.3248377196210916,0.943841340840585,0.28776995,0.6635218619622738
0.029500000000000002,1.7782437500000001,1.0,2673.1792475736215,0.2831933408390965,1.3244345438107668,0.945285244241062,0.2877392375,0.6643565905047821
0.03,1.7775,1.0,2680.4837020712534,0.2872140587120647,1.3240316119676416,0.9466657153936933,0.287708,0.6651897782067977
0.0305,1.77674375,1.0,2687.1934155275376,0.2912122227515692,1.3236285743102538,0.9479864096848952,0.2876762375,0.6660221488836496
0.031,1.775975,1.0,2693.344299932969,0.29518796079677956,1.3232250814910294,0.9492507213361483,0.28764395,0.6668544218594306
0.0315,1.7751937500000001,1.0,2698.9654755831834,0.2991413952197009,1.3228208495530882,0.9504618116972335,0.2876111375,0.667687178232852
0.032,1.7744,1.0,2704.093011179551,0.3030726583205661,1.322415533787485,0.9516226177923481,0.2875778,0.6685211210858774
0.0325,1.77359375,1.0,2708.7492981422142,0.3069818720011586,1.3220089169172171,0.9527358870481598,0.2875439375,0.6693566882200279
0.033,1.772775,1.0,2712.9569396025277,0.31086915816326177,1.3216007816652815,0.9538041805925307,0.28750955,0.670194315153954
0.0335,1.7719437500000002,1.0,2716.738729999429,0.31473463870865903,1.321190910754676,0.9548298881230154,0.2874746375,0.6710344351038959
0.034,1.7711000000000001,1.0,2720.1176357229056,0.3185784355391337,1.3207790869083973,0.9558152414203557,0.2874392,0.6718774789611445
0.0345,1.7702437500000001,1.0,2723.1167768035416,0.32240067055646915,1.3203650928494428,0.9567623266447705,0.2874032375,0.6727238752664793
0.035,1.7693750000000001,1.0,2725.7594096491894,0.3262014656624489,1.3199487113008097,0.9576730955374724,0.28736675,0.6735740501816043
0.035500000000000004,1.76849375,1.0,2728.0661847078795,0.32998094215287516,1.3195297497714056,0.9585493780978473,0.2873297375,0.674428376948415
0.036000000000000004,1.7676,1.0,2730.0573258492873,0.3337392194595534,1.3191080205651586,0.9593928893274561,0.2872922,0.6752872168717676
0.0365,1.76669375,1.0,2731.751456058478,0.3374764158938287,1.3186833513280478,0.9602052390235808,0.2872541375,0.6761508979155741
0.037,1.765775,1.0,2733.164221915052,0.34119264929474324,1.3182555974175616,0.9609879408537079,0.28721555,0.6770196897716549
0.0375,1.76484375,1.0,2734.30672881559,0.34488803727918443,1.317824655993395,0.9617424207068223,0.2871764375,0.6778937756463014
0.038,1.7639,1.0,2735.199260132066,0.34856269703124104,1.3173903413389245,0.9624700109329315,0.28713679999999997,0.678773505180998
0.0385,1.7629438371036514,1.0,2735.881465746518,0.3522167457772241,1.3169523316960996,0.9631719522168071,0.28709664115835337,0.6796595007410895
0.039,1.7619828127700388,1.0,2736.703131144646,0.35585029808659036,1.3165108613541754,0.9638494636501382,0.2870562781363416,0.6805512584337945
0.0395,1.761021788436426,1.0,2737.8804081958056,0.3594634685287966,1.3160661646024077,0.964503693398175,0.2870159151143299,0.6814482767650629
0.04,1.7600607641028134,1.0,2739.3877040478737,0.36305637167329974,1.3156184757300515,0.9651357235892088,0.2869755520923182,0.6823500566895373
0.0405,1.7590997397692008,1.0,2741.2002611023495,0.36662912116409757,1.3151680217620856,0.9657465740134621,0.28693518907030646,0.6832561162582065
0.041,1.7581387154355879,1.0,2743.285623736647,0.3701818313054034,1.3147150997067372,0.9663372132985804,0.2868948260482947,0.6841658355120488
0.0415,1.7571776911019752,1.0,2745.621076776563,0.3737146138083291,1.3142599182424548,0.96690854822247,0.2868544630262829,0.6850787748285894
0.042,1.7562166667683625,1.0,2748.185837977102,0.37722757979118965,1.3138026685104063,0.9674614341817056,0.2868141000042712,0.6859945320017478
0.0425,1.7552556424347499,1.0,2750.9591159867155,0.38072084037229986,1.31334354165176,0.9679966801104067,0.2867737369822595,0.6869127069678945
0.043000000000000003,1.7542946181011372,1.0,2753.923946987562,0.38419450421921314,1.3128826940134046,0.968515048271978,0.2867333739602478,0.6878329712592928
0.043500000000000004,1.7533335937675243,1.0,2757.0615065525044,0.38764868174111333,1.3124202986225806,0.9690172620541395,0.286693010938236,0.6887549649508213
0.044,1.7523725694339116,1.0,2760.3454856051567,0.3910834891323617,1.311956595919599,0.9695040129942987,0.2866526479162243,0.689678195989337
0.0445,1.751411545100299,1.0,2763.7655322515084,0.3944990324867787,1.311491681746263,0.9699759438997583,0.28661228489421253,0.690602462381648
0.045,1.7504505207666863,1.0,2767.311278627904,0.3978954178981848,1.3110256519443768,0.9704336645653027,0.2865719218722008,0.6915275632416307
0.0455,1.7494894964330736,1.0,2770.9723384280555,0.40127275146040053,1.3105586023557447,0.970877753792455,0.2865315588501891,0.692453298797342
0.046,1.7485284720994607,1.0,2774.7383046345067,0.40463113926724636,1.31009062882217,0.9713087612665033,0.28649119582817734,0.6933794703975482
0.0465,1.747567447765848,1.0,2778.5987474536905,0.4079706874125427,1.3096218271854574,0.9717272093025773,0.2864508328061656,0.6943058805176618
0.047,1.7466064234322354,1.0,2782.5432124537856,0.4112915019901102,1.30915229328741,0.9721335944710734,0.28641046978415385,0.6952323327650995
0.0475,1.7456453990986227,1.0,2786.561218907561,0.41459368909376926,1.3086821229698322,0.9725283891118256,0.28637010676214214,0.6961586318840478
0.048,1.74468437476501,1.0,2790.6437015607107,0.4178773527478409,1.3082113991006825,0.9729120415737245,0.2863297437401304,0.697084609261479
0.0485,1.7437233504313974,1.0,2794.785993193101,0.42114259317727937,1.3077401648190246,0.9732849755496852,0.2862893807181187,0.6980101752460446
0.049,1.7427623260977845,1.0,2798.974534870617,0.42438952494299487,1.3072685429654507,0.9736476018887045,0.28624901769610694,0.6989350845149521
0.0495,1.7418013017641718,1.0,2803.2053722246005,0.42761824787312597,1.3067965698776252,0.974000304537708,0.28620865467409523,0.6998592624723325
0.05,1.7408402774305591,1.0,2807.4745395322807,0.43082886179581115,1.306324281893212,0.9743434496481921,0.28616829165208346,0.7007826349572961
0.0505,1.7398792530969465,1.0,2811.778059449165,0.43402146653918905,1.3058517153498752,0.9746773865618554,0.28612792863007175,0.7017051282447031
0.051000000000000004,1.7389182287633338,1.0,2816.1119427693816,0.43719616193139815,1.305378906585279,0.9750024487331699,0.28608756560806003,0.7026266690458528
0.051500000000000004,1.737957204429721,1.0,2820.472188216126,0.440353047800577,1.3049058919370875,0.9753189545934441,0.28604720258604827,0.7035471845090853
0.052000000000000005,1.7369961800961082,1.0,2824.8547822613805,0.44349222397486415,1.3044327077429645,0.9756272083605815,0.28600683956403655,0.7044666022203022
0.0525,1.7360351557624956,1.0,2829.2556989740497,0.4466137902823981,1.3039593903405746,0.9759275007983844,0.2859664765420248,0.7053848502033999
0.053,1.735074131428883,1.0,2833.670899898836,0.4497178465513175,1.3034859760675817,0.9762201099289631,0.28592611352001307,0.7063018569206226
0.0535,1.7341131070952702,1.0,2838.096333962821,0.45280449260976086,1.3030125012616496,0.9765053017015219,0.28588575049800136,0.7072175512728278
0.054,1.7331520827616576,1.0,2842.533468331665,0.45587380704774044,1.3025389529961662,0.9767833255253187,0.28584538747598964,0.7081319576530087
0.0545,1.7321910584280447,1.0,2846.973968724531,0.45892591457316334,1.3020654056190724,0.9770544299664617,0.2858050244539779,0.7090449321689583
0.055,1.731230034094432,1.0,2851.415702472791,0.4619609122536895,1.3015918780944948,0.9773188470779165,0.28576466143196616,0.7099564383527914
0.0555,1.7302690097608193,1.0,2855.8576076405516,0.4649788925656028,1.301118379812703,0.9775767982056878,0.2857242984099544,0.710866458351316
0.056,1.7293079854272067,1.0,2860.2986190083097,0.4679799479851871,1.3006449201639667,0.9778284955237209,0.2856839353879427,0.7117749744247516
0.0565,1.728346961093594,1.0,2864.737668079713,0.4709641709887262,1.3001715085385555,0.9780741424895267,0.28564357236593096,0.712681968946709
0.057,1.727385936759981,1.0,2869.173683090648,0.47393165405250404,1.2996981543267387,0.97831393427359,0.2856032093439192,0.7135874244041656
0.0575,1.7264249124263684,1.0,2873.60558902052,0.47688248965280444,1.2992248669187865,0.9785480581642741,0.2855628463219075,0.7144913233974316
0.058,1.7254638880927557,1.0,2878.0323076046775,0.4798167702659113,1.298751655704968,0.9787766939498015,0.2855224832998957,0.7153936486401156
0.0585,1.724502863759143,1.0,2882.452757349873,0.48273458836810834,1.2982785300755535,0.9790000142787839,0.285482120277884,0.7162943829590789
0.059000000000000004,1.7235418394255304,1.0,2886.865853550528,0.4856360364356796,1.297805499420812,0.9792181850006664,0.2854417572558723,0.7171935092943903
0.059500000000000004,1.7225808150919175,1.0,2891.270508307833,0.4885212069449088,1.2973325731310132,0.9794313654873549,0.2854013942338605,0.7180910106992686
0.06,1.7216197907583048,1.0,2895.665630550704,0.4913901923720798,1.296859760596427,0.9796397089372051,0.2853610312118488,0.7189868703400258
0.0605,1.7206587664246922,1.0,2900.0501260579103,0.49424308519347654,1.2963870712073227,0.9798433626624712,0.28532066818983703,0.7198810714959996
0.061,1.7196977420910795,1.0,2904.4228974833786,0.49707997788538283,1.2959145143539703,0.9800424683612332,0.2852803051678253,0.7207735975594831
0.0615,1.7187367177574668,1.0,2908.7847515857347,0.499900932249023,1.2954420826336241,0.9802371591319636,0.2852399421458136,0.7216644636769988
0.062,1.717775693423854,1.0,2913.134033006388,0.502706068036174,1.2949697903295458,0.9804275686596109,0.2851995791238019,0.7225536441101523
0.0625,1.7168146690902413,1.0,2917.4698229850796,0.5054954852520379,1.2944976452073043,0.980613823795618,0.2851592161017901,0.7234411255336504
0.063,1.7158536447566286,1.0,2921.7920451499463,0.5082692678723009,1.2940256476098793,0.9807960451370613,0.2851188530797784,0.7243269086339001
0.0635,1.714892620423016,1.0,2926.100623158046,0.5110274998726494,1.2935537978802505,0.9809743488772888,0.28507849005776664,0.7252109941010239
0.064,1.7139315960894033,1.0,2930.395480696549,0.5137702652287697,1.293082096361398,0.9811488469993767,0.28503812703575493,0.7260933826288527
0.0645,1.7129705717557906,1.0,2934.6765414838655,0.5164976479163481,1.2926105433963015,0.9813196474597154,0.2849977640137432,0.7269740749149272
0.065,1.7120095474221777,1.0,2938.9437292707025,0.5192097319110711,1.2921391393279407,0.9814868543623071,0.28495740099173145,0.7278530716604914
0.0655,1.711048523088565,1.0,2943.1969678415376,0.5219066011886249,1.291667884499295,0.9816505681242976,0.28491703796971973,0.7287303735704908
0.066,1.7100874987549524,1.0,2947.436181015037,0.5245883397246958,1.291196779253345,0.9818108856332532,0.28487667494770796,0.7296059813535672
0.0665,1.7091264744213397,1.0,2951.661292646112,0.5272550314949702,1.2907258239330697,0.9819679003966436,0.28483631192569625,0.7304798957220593
0.067,1.708165450087727,1.0,2955.872226626203,0.5299067604751344,1.2902550188814492,0.9821217026839721,0.28479594890368454,0.7313521173919948
0.0675,1.7072044257541141,1.0,2960.068906885005,0.5325436106408747,1.2897843644414633,0.9822723796619639,0.2847555858816728,0.7322226470830906
0.068,1.7062434014205015,1.0,2964.2512573911986,0.5351656659678775,1.289313860956092,0.9824200155231991,0.28471522285966105,0.7330914855187471
0.0685,1.7052823770868888,1.0,2968.419202154143,0.5377730104318292,1.2888435087683143,0.9825646916085469,0.28467485983764934,0.7339586334260483
0.069,1.7043213527532761,1.0,2972.5726652243115,0.540365728008416,1.2883733082211108,0.9827064865237484,0.28463449681563757,0.7348240915357532
0.0695,1.7033603284196634,1.0,2976.7115706951568,0.5429439026733242,1.2879032596574609,0.982845476250457,0.28459413379362586,0.7356878605822981
0.07,1.7023993040860506,1.0,2980.8358427037206,0.5455076184022403,1.2874333634203445,0.9829817342520446,0.28455377077161415,0.7365499413037888
0.07050000000000001,1.7014382797524379,1.0,2984.9454726179615,0.5480569415428355,1.2869636192687604,0.9831153304846986,0.2845134077496024,0.7374103355107589
0.07100000000000001,1.7004772554188252,1.0,2989.0407735498543,0.5505919163270443,1.2864940241690332,0.9832463311935054,0.28447304472759066,0.7382690501129892
0.07150000000000001,1.6995162310852125,1.0,2993.121656453975,0.5531126999457316,1.2860245785878643,0.9833748073163755,0.2844326817055789,0.7391260855983246
