Time [s],Phi [rad],STIM [ ],Fsee [N],Gamma [ ],Lcerel [ ],q [ ],Lmtc [m],fisomrel [ ]
0.0,1.8,1.0,17.967777334984525,1.0006074788208716e-05,1.3793396768528625,0.005000026684030653,0.288653,0.5411396988685135
0.0005,1.79999375,1.0,18.27705404352683,0.005619159257416004,1.3793023533660744,0.012940530130062525,0.2886527375,0.5412299895757577
0.001,1.799975,1.0,21.618644005752714,0.01119684952561193,1.3789382753085844,0.035608605900398826,0.28865195,0.5421102790374857
0.0015,1.79994375,1.0,31.069412551313324,0.01674325336230926,1.378046188687795,0.07060174444114967,0.2886506375,0.5442636454675767
0.002,1.7999,1.0,53.5823252301517,0.02225854625879231,1.3763681357487327,0.11471788293746085,0.2886488,0.5483004668144882
0.0025,1.79984375,1.0,97.11851794074845,0.027742902722255592,1.3739351874842007,0.16457472482732405,0.28864643749999996,0.5541214144169504
0.003,1.7997750000000001,1.0,160.95759731308982,0.033196496283525154,1.3712143650735087,0.21728028068773658,0.28864354999999997,0.5605864003924483
0.0035,1.79969375,1.0,237.68266880453038,0.038619499496647086,1.3685847546472656,0.2706127160906711,0.2886401375,0.5667897915867827
0.004,1.7996,1.0,321.46607029389844,0.04401208394967049,1.3661561109641802,0.3229156348081734,0.2886362,0.572479918378785
0.0045000000000000005,1.7994937500000001,1.0,409.26704780547516,0.04937442026983184,1.3639228306682947,0.3730343495227574,0.2886317375,0.5776791241019634
0.005,1.799375,1.0,499.41279453052,0.05470667811464207,1.3618583574265513,0.42024731354186406,0.28862675,0.5824570445170865
0.0055,1.79924375,1.0,590.7897159651886,0.0600090262193764,1.3599388487372153,0.4641735627203108,0.2886212375,0.5868750802606125
0.006,1.7991000000000001,1.0,682.5174130813048,0.06528163234017446,1.3581464273851367,0.5046798385167275,0.2886152,0.590979389512956
0.006500000000000001,1.79894375,1.0,773.880653119715,0.07052466330969455,1.3564672639406095,0.5418006476032469,0.2886086375,0.5948057708504333
0.007,1.798775,1.0,864.2851674907237,0.07573828502069536,1.3548904053943975,0.5756766800949912,0.28860155,0.5983826535682404
0.0075,1.79859375,1.0,953.2426734420613,0.08092266243577548,1.353406787527183,0.6065098246634623,0.2885939375,0.6017335539850657
0.008,1.7984,1.0,1040.3437190875181,0.08607795916426539,1.3520088632959748,0.6345321003378653,0.2885858,0.6048780617381242
0.0085,1.79819375,1.0,1125.313669501545,0.09120433935094266,1.350689249397899,0.6599843638719433,0.2885771375,0.6078349820049049
0.009000000000000001,1.797975,1.0,1207.9000988652424,0.09630196494930028,1.3494420361671307,0.6831041273612466,0.28856795,0.6106194622428882
0.0095,1.79774375,1.0,1287.8927867810135,0.10137099644549846,1.348262116114437,0.7041174143912512,0.2885582375,0.6132445742330817
0.01,1.7975,1.0,1365.1673238127419,0.10641159432569741,1.3471443817505855,0.7232341720423104,0.288548,0.615723144831007
0.0105,1.79724375,1.0,1439.6584015703454,0.11142391857740964,1.3460839601250338,0.7406466182108798,0.2885372375,0.61806725938831
0.011,1.796975,1.0,1511.320981914142,0.11640812798924097,1.3450765686957757,0.7565290912729838,0.28852595000000003,0.62028750553938
0.0115,1.79669375,1.0,1580.1202830197444,0.12136437973922315,1.344118491773006,0.7710385737333142,0.2885141375,0.6223930600123457
0.012,1.7964,1.0,1646.0573511544358,0.12629283049705972,1.343206160973453,0.7843155515852942,0.28850180000000003,0.6243926373401286
0.0125,1.79609375,1.0,1709.1738809529281,0.13119363697520398,1.3423360358704068,0.7964852938853316,0.2884889375,0.6262947657670138
0.013000000000000001,1.7957750000000001,1.0,1769.5061890894397,0.13606695411068223,1.3415050768767052,0.8076594647020263,0.28847555,0.6281067680721801
0.0135,1.79544375,1.0,1827.0906569162833,0.14091293540280347,1.3407106047600337,0.8179374431015312,0.2884616375,0.6298350886608806
0.014,1.7951000000000001,1.0,1881.9913122178853,0.14573173435087672,1.339949940288079,0.8274075114250662,0.2884472,0.6314860908741439
0.0145,1.79474375,1.0,1934.2804809137072,0.15052350330220396,1.3392205869789766,0.8361481677845883,0.2884322375,0.633065667632776
0.015,1.794375,1.0,1984.0549193867125,0.15528839529991398,1.338520023433646,0.8442291814616015,0.28841675,0.6345796994084303
0.0155,1.79399375,1.0,2031.374167444606,0.16002655992703207,1.3378463335056776,0.8517128169445128,0.2884007375,0.6360327006912323
0.016,1.7936,1.0,2076.311790836255,0.16473814664867573,1.3371976199609876,0.85865452532564,0.2883842,0.6374290978719559
0.0165,1.7931937500000001,1.0,2118.955780960048,0.1694233049299624,1.3365719855654934,0.8651037460689305,0.2883671375,0.6387732733817006
0.017,1.792775,1.0,2159.3897668331533,0.17408218258432323,1.3359677123300533,0.8711046702450221,0.28834955,0.6400691845398934
0.0175,1.7923437500000001,1.0,2197.72034650964,0.17871492914928688,1.3353829649609354,0.8766967779644269,0.2883314375,0.6413210038712116
0.018000000000000002,1.7919,1.0,2234.0144735576873,0.18332168974190519,1.334816414727456,0.8819155572900372,0.2883128,0.642531787082437
0.0185,1.79144375,1.0,2268.3466575483912,0.18790260941559325,1.334266739720132,0.8867928359830948,0.2882936375,0.6437045494798264
0.019,1.790975,1.0,2300.798945842475,0.19245783322376633,1.3337326180294815,0.891357203710607,0.28827395,0.6448422820892481
0.0195,1.79049375,1.0,2331.4523346764504,0.19698750517167518,1.333212805916866,0.8956344017380548,0.2882537375,0.6459477869037278
0.02,1.79,1.0,2360.3954669428895,0.20149177010868174,1.332706044510052,0.8996476250423306,0.288233,0.6470238773803421
0.0205,1.78949375,1.0,2387.7055264266714,0.20597077096073863,1.3322112407344389,0.9034178473947166,0.2882117375,0.6480729959492497
0.021,1.788975,1.0,2413.4448157558804,0.21042464800438007,1.3317274910791623,0.9069640708243765,0.28818995000000003,0.6490971672905749
0.021500000000000002,1.78844375,1.0,2437.679560153838,0.21485354151614033,1.331253892033358,0.9103035013796654,0.2881676375,0.6500984024641338
0.022,1.7879,1.0,2460.479581965753,0.2192575917725536,1.3307895400861622,0.9134517436332952,0.2881448,0.6510786995203612
0.0225,1.78734375,1.0,2481.9139134194243,0.22363693831042578,1.3303335706168613,0.9164229792254811,0.28812143749999997,0.6520399621285559
0.023,1.786775,1.0,2502.0484772834275,0.22799171998401782,1.3298851763835409,0.9192301203669215,0.28809755,0.6529839617423474
0.0235,1.78619375,1.0,2520.9582342691892,0.23232207707104854,1.3294434890884312,0.9218849204597891,0.28807313749999996,0.6539125876825277
0.024,1.7856,1.0,2538.6926529343104,0.23662814470911583,1.3290079037311104,0.924398149306413,0.2880482,0.6548271660792742
0.0245,1.78499375,1.0,2555.303050427191,0.2409100580358176,1.328577815311157,0.9267796470342707,0.2880227375,0.6557290155782757
0.025,1.784375,1.0,2570.842438971631,0.24516795218875181,1.3281526188281492,0.9290384170993422,0.28799675,0.6566194475645009
0.025500000000000002,1.78374375,1.0,2585.3653804670507,0.2494019623055163,1.3277317092816656,0.9311827088549609,0.2879702375,0.6574997663626205
0.026000000000000002,1.7831000000000001,1.0,2598.9223390918874,0.2536122222300158,1.327314532998882,0.9332200987544695,0.2879432,0.6583711622695274
0.0265,1.78244375,1.0,2611.56340524662,0.25779886599753,1.3269005512069163,0.9351575496085562,0.2879156375,0.6592347883310405
0.027,1.781775,1.0,2623.3460537576866,0.26196202873337265,1.3264891668976542,0.9370014576584922,0.28788755,0.6600919129415681
0.0275,1.7810937500000001,1.0,2634.307060481298,0.266101840120795,1.3260799843257813,0.9387577423093689,0.2878589375,0.6609433795347519
0.028,1.7804,1.0,2644.483981256487,0.2702184298430486,1.3256726077459844,0.9404318618297862,0.2878298,0.6617900273084509
0.0285,1.77969375,1.0,2653.915084790549,0.27431192758338474,1.325266641412949,0.9420288553261427,0.2878001375,0.6626326912753191
0.029,1.778975,1.0,2662.6392890167617,0.27838246302505487,1.3248616895813616,0.9435533803901803,0.28776995,0.6634722023033898
0.029500000000000002,1.7782437500000001,1.0,2670.6961009244483,0.2824301658513104,1.3244573565059081,0.9450097469128794,0.2877392375,0.6643093871466774
0.03,1.7775,1.0,2678.090580267492,0.2864551629264819,1.324053567428754,0.9464019894707468,0.287708,0.6651444050915116
0.0305,1.77674375,1.0,2684.9222422694825,0.29045758516496234,1.3236493846885247,0.9477337374466073,0.2876762375,0.6659791957612863
0.031,1.775975,1.0,2691.2206303381263,0.2944375587250176,1.3232445178102987,0.9490084427936081,0.28764395,0.6668143549285315
0.0315,1.7751937500000001,1.0,2696.9863382518897,0.2983952078659943,1.3228389439570805,0.9502293461924927,0.2876111375,0.6676499243133835
0.032,1.7744011251057787,1.0,2702.27575367789,0.3023306568472391,1.3224326402918745,0.9513994616363315,0.2875778472544427,0.6684859453903402
0.0325,1.7736064286559543,1.0,2707.550310941286,0.3062440299280985,1.3220255839776855,0.9525215950625693,0.2875444700035501,0.6693224593872149
0.033,1.7728117322061299,1.0,2712.9150661541853,0.3101354513679193,1.321617752177518,0.9535983612407616,0.28751109275265746,0.6701595072840579
0.0335,1.7720170357563056,1.0,2718.372837191615,0.31400504534369833,1.3212091215246773,0.9546321990145621,0.2874777155017648,0.6709971308971464
0.034,1.7712223393064812,1.0,2723.907892409137,0.3178529344483875,1.3207998375649486,0.9556254038401074,0.28744433825087223,0.6718350262063222
0.0345,1.7704276428566568,1.0,2729.4967435889207,0.3216792404710776,1.320390115787292,0.956580127924548,0.2874109609999796,0.6726727477863701
0.035,1.7696329464068326,1.0,2735.128718518071,0.32548408371856513,1.3199800544421267,0.9574983708318107,0.28737758374908695,0.6735100917066761
0.035500000000000004,1.7688382499570081,1.0,2740.793101336584,0.32926758449764665,1.3195697517798726,0.9583820042000472,0.28734420649819437,0.6743468550617049
0.036000000000000004,1.7680435535071837,1.0,2746.484863679427,0.33302985672601176,1.3191592541126023,0.9592327745291211,0.2873108292473017,0.6751829416909674
0.0365,1.7672488570573595,1.0,2752.187696692241,0.33677102786855273,1.3187487096750128,0.9600523328919692,0.2872774519964091,0.6760180487261301
0.037,1.766454160607535,1.0,2757.891423689695,0.34049121968618146,1.3183382106371688,0.9608422215429072,0.2872440747455165,0.6768519886745075
0.0375,1.7656594641577106,1.0,2763.592127869485,0.3441905469829943,1.3179277922402632,0.9616038817100555,0.28721069749462386,0.6776846904376022
0.038,1.7648647677078864,1.0,2769.2858763598992,0.3478691245630878,1.3175174897254882,0.9623386679996923,0.2871773202437312,0.6785160832857924
0.0385,1.764070071258062,1.0,2774.968720296201,0.3515270672305583,1.3171073383340364,0.9630478545579624,0.28714394299283863,0.6793460968581091
0.039,1.7632753748082375,1.0,2780.6366949250687,0.3551644897895025,1.3166973733071,0.9637326407299713,0.287110565741946,0.6801746611619369
0.0395,1.762480678358413,1.0,2786.2858197364476,0.35878150704401673,1.3162876298858714,0.9643941562622371,0.28707718849105335,0.6810017065726339
0.04,1.7616859819085888,1.0,2791.9120986229996,0.36237823379819756,1.3158781433115434,0.9650334660898506,0.28704381124016076,0.6818271638330742
0.0405,1.7608912854587644,1.0,2797.5115200668206,0.36595478485614147,1.3154689488253082,0.9656515747455555,0.2870104339892681,0.6826509640531093
0.041,1.76009658900894,1.0,2803.0800573541324,0.36951127502194486,1.3150600816683582,0.9662494304242836,0.2869770567383755,0.6834730387089524
0.0415,1.7593018925591157,1.0,2808.6178609449066,0.37304780436050716,1.31465153951755,0.9668279230100264,0.28694367948748284,0.684293395023073
0.042,1.7585071961092913,1.0,2814.1198072364214,0.3765645013247403,1.3142433672781693,0.9673879024203607,0.2869103022365902,0.6851119455410639
0.0425,1.7577124996594669,1.0,2819.583439126326,0.3800614818390413,1.3138355858403576,0.967930168325799,0.2868769249856976,0.6859286513400495
0.043000000000000003,1.7569178032096426,1.0,2825.0084705543527,0.38353885288531975,1.3134281966245924,0.9684554744836625,0.28684354773480497,0.6867435126296424
0.043500000000000004,1.7561231067598182,1.0,2830.3946158703684,0.3869967214454853,1.3130212010513507,0.9689645347113491,0.28681017048391233,0.6875565296312816
0.044,1.7553284103099938,1.0,2835.741589846554,0.39043519450144737,1.3126146005411092,0.9694580254028526,0.28677679323301974,0.6883677025781975
0.0445,1.7545337138601695,1.0,2841.049107689386,0.39385437903511566,1.3122083965143454,0.9699365878626574,0.2867434159821271,0.689177031715374
0.045,1.753739017410345,1.0,2846.3168850528054,0.39725438202839974,1.311802590391536,0.9704008304719315,0.28671003873123446,0.6899845172995154
0.0455,1.7529443209605207,1.0,2851.5446380503267,0.4006353104632092,1.3113971835931582,0.970851330700606,0.2866766614803419,0.6907901595990082
0.046,1.7521496245106964,1.0,2856.7320832674873,0.4039972713214535,1.310992177539689,0.9712886369776895,0.28664328422944924,0.6915939588938855
0.0465,1.751354928060872,1.0,2861.878937774818,0.4073403715850424,1.3105875736516055,0.9717132704310866,0.2866099069785566,0.6923959154757926
0.047,1.7505602316110476,1.0,2866.9849191402855,0.4106647182358853,1.3101833733493844,0.9721257265071829,0.286576529727664,0.6931960296479478
0.0475,1.7497655351612234,1.0,2872.0497454416754,0.41397041825589187,1.3097795780535033,0.9725264764795759,0.28654315247677137,0.6939943017251067
0.048,1.748970838711399,1.0,2877.0731539572857,0.4172575778674245,1.309376189019081,0.9729159687483556,0.2865097752258787,0.6947907323597893
0.0485,1.7481761422615745,1.0,2882.056401576471,0.4205262648887912,1.308973194064398,0.9732946246089205,0.28647639797498614,0.6955853486914663
0.049,1.7473814458117503,1.0,2886.9989505889685,0.423776636916229,1.3085705969201993,0.9736628574896949,0.2864430207240935,0.696378146416811
0.0495,1.7465867493619258,1.0,2891.9013893429315,0.42700879174391104,1.3081683913698028,0.9740210534668913,0.28640964347320086,0.6971691408180742
0.05,1.7457920529121014,1.0,2896.76430960538,0.43022282716601035,1.3077665711965263,0.9743695807195849,0.2863762662223083,0.6979583471107574
0.0505,1.7449973564622772,1.0,2901.588306508076,0.43341884097669986,1.3073651301836873,0.9747087905202909,0.28634288897141563,0.6987457804437659
0.051000000000000004,1.7442026600124527,1.0,2906.373978495616,0.4365969309701526,1.3069640621146037,0.9750390181621691,0.286309511720523,0.6995314558995591
0.051500000000000004,1.7434079635626283,1.0,2911.12192727319,0.4397571949405416,1.3065633607725933,0.9753605838274401,0.2862761344696304,0.7003153884943011
0.052000000000000005,1.742613267112804,1.0,2915.8327577553687,0.44289973068203986,1.3061630199409737,0.9756737934012273,0.28624275721873776,0.7010975931780068
0.0525,1.7418185706629796,1.0,2920.5070780164606,0.44602463598882036,1.305763033403063,0.9759789392347046,0.2862093799678451,0.7018780848346855
0.053,1.7410238742131552,1.0,2925.145499241114,0.4491320086550562,1.3053633949421788,0.9762763008611175,0.28617600271695254,0.7026568782824838
0.0535,1.740229177763331,1.0,2929.7486356756735,0.4522219464749203,1.3049640983416388,0.9765661456679746,0.2861426254660599,0.7034339882738241
0.054,1.7394344813135065,1.0,2934.317104580837,0.4552945472425858,1.304565137384761,0.9768487295284423,0.28610924821516726,0.7042094294955408
0.0545,1.738639784863682,1.0,2938.8515261850994,0.45834990875222553,1.304166505854863,0.977124297394744,0.28607587096427467,0.7049832165690165
0.055,1.7378450884138579,1.0,2943.352523638476,0.46138812879801266,1.3037681975352626,0.9773930838561579,0.28604249371338203,0.7057553640503115
0.0555,1.7370503919640334,1.0,2947.8207229680024,0.4644093051741201,1.3033702062092776,0.9776553136639963,0.2860091164624894,0.7065258864302947
0.056,1.736255695514209,1.0,2952.2567530333745,0.46741353567472094,1.3029725256602258,0.9779112022257849,0.2859757392115968,0.7072947981347699
0.0565,1.7354609990643848,1.0,2956.6612454835827,0.4704009180939881,1.302575149671425,0.9781609560706879,0.28594236196070416,0.7080621135246006
0.057,1.7346663026145603,1.0,2961.0339192118063,0.47337150585178583,1.3021780800158005,0.9784047697948856,0.2859089847098115,0.7088278314986112
0.0575,1.733871606164736,1.0,2965.3759741393087,0.4763254114652941,1.3017813055509757,0.9786428346584493,0.28587560745891893,0.7095919758289179
0.058,1.7330769097149115,1.0,2969.6891025984432,0.47926277717763666,1.3013848108813608,0.9788753365187893,0.2858422302080263,0.7103545783482346
0.0585,1.7322822132650872,1.0,2973.973779247899,0.482183690010883,1.3009885912642867,0.9791024496432784,0.28580885295713365,0.7111156502829725
0.059000000000000004,1.7314875168152628,1.0,2978.2304808254084,0.48508823698710263,1.3005926419570843,0.9793243414380891,0.28577547570624107,0.7118752028101407
0.059500000000000004,1.7306928203654386,1.0,2982.4596861187647,0.4879765051283651,1.300196958217085,0.9795411727722032,0.2857420984553484,0.7126332470574291
0.06,1.7298981239156141,1.0,2986.661875937993,0.4908485814567399,1.299801535301619,0.9797530982836806,0.2857087212044558,0.7133897941032912
0.0605,1.7291034274657897,1.0,2990.837533087604,0.49370455299429666,1.2994063684680182,0.9799602666692874,0.2856753439535632,0.7141448549770196
0.061,1.7283087310159653,1.0,2994.987142339178,0.4965445067631049,1.2990114529736128,0.9801628209585073,0.28564196670267056,0.7148984406588297
0.0615,1.727514034566141,1.0,2999.1111904049603,0.4993685297852342,1.2986167840757339,0.9803608987728942,0.2856085894517779,0.7156505620799316
0.062,1.7267193381163166,1.0,3003.2101659115124,0.502176709082754,1.2982223570317128,0.9805546325716548,0.2855752122008853,0.7164012301226071
0.0625,1.7259246416664924,1.0,3007.284559374302,0.5049691316777339,1.2978281670988805,0.9807441498842886,0.2855418349499927,0.7171504556202848
0.063,1.725129945216668,1.0,3011.3348631719396,0.5077458845922435,1.2974342095345675,0.9809295735310626,0.28550845769910005,0.7178982493576117
0.0635,1.7243352487668435,1.0,3015.3615715222177,0.5105070548483521,1.2970404795961052,0.9811110218320415,0.2854750804482074,0.7186446220705223
0.064,1.723540552317019,1.0,3019.365180457442,0.5132527294681295,1.2966469725408243,0.981288608805346,0.28544170319731477,0.7193895844463121
0.0645,1.7227458558671949,1.0,3023.346187800953,0.5159829954736452,1.296253683626056,0.9814624443552732,0.2854083259464222,0.7201331471237011
0.065,1.7219511594173704,1.0,3027.305093143665,0.5186979398869687,1.295860608109131,0.981632634450863,0.28537494869552954,0.7208753206929055
0.0655,1.721156462967546,1.0,3031.242397821822,0.5213976497301693,1.2954677412473807,0.9817992812954667,0.2853415714446369,0.721616115695698
0.066,1.7203617665177218,1.0,3035.158604894535,0.524082212025317,1.2950750782981357,0.9819624834878268,0.2853081941937443,0.7223555426254753
0.0665,1.7195670700678973,1.0,3039.054219121917,0.526751713794481,1.2946826145187271,0.9821223361751578,0.28527481694285167,0.7230936119273191
0.067,1.718772373618073,1.0,3042.9297469443736,0.5294062420597311,1.2942903451664858,0.982278931198672,0.28524143969195903,0.723830333998057
0.0675,1.7179776771682487,1.0,3046.7856964614953,0.5320458838431366,1.293898265498743,0.9824323572319795,0.28520806244106645,0.7245657191863214
0.068,1.7171829807184242,1.0,3050.6225774119657,0.534670726166767,1.2935063707728292,0.9825826999127555,0.2851746851901738,0.7252997777926102
0.0685,1.7163882842685998,1.0,3054.440132041388,0.5372808128067342,1.2931146628547059,0.9827300395490699,0.28514130793928116,0.7260325077154723
0.069,1.7155935878187756,1.0,3058.2390162299307,0.5398762467836103,1.292723135762087,0.9828744571127787,0.2851079306883886,0.7267639215229937
0.0695,1.7147988913689511,1.0,3062.020221190787,0.5424571478234513,1.2923317806516572,0.9830160317394357,0.28507455343749594,0.7274940370568603
0.07,1.7140041949191267,1.0,3065.784002038608,0.5450235924077124,1.2919405950169256,0.9831548375616291,0.2850411761866033,0.7282228602715671
0.07050000000000001,1.7132094984693025,1.0,3069.530614799013,0.5475756570178484,1.2915495763514007,0.9832909462754299,0.2850077989357107,0.728950397096042
0.07100000000000001,1.712414802019478,1.0,3073.2603163987264,0.5501134181353146,1.2911587221485914,0.9834244272369795,0.28497442168481807,0.7296766534336714
