Time [s],Phi [rad],STIM [ ],Fsee [N],Gamma [ ],Lcerel [ ],q [ ],Lmtc [m],fisomrel [ ]
0.0,1.8,1.0,17.967714035931024,1.0003329851402462e-05,1.3793396839443577,0.005000026669450581,0.288653,0.5411396817123559
0.0005,1.79999375,1.0,18.27699567353809,0.005619156527876146,1.3793023598497942,0.012940522637380492,0.2886527375,0.5412299738915091
0.001,1.799975,1.0,21.618587039880513,0.011196846811382614,1.3789382811267783,0.03560859201302968,0.28865195,0.5421102649766669
0.0015,1.79994375,1.0,31.069351645582326,0.016743250663304645,1.3780461938767419,0.07060172557286043,0.2886506375,0.5442636329569799
0.002,1.7999,1.0,53.58225461899121,0.022258543574926952,1.3763681403296253,0.11471786062853685,0.2886488,0.5483004558189397
0.0025,1.79984375,1.0,97.11843724917289,0.02774290005344461,1.3739351913725444,0.16457470048101122,0.28864643749999996,0.5541214051440645
0.003,1.7997750000000001,1.0,160.95751242778746,0.03319649362968408,1.3712143682508524,0.21728025545021123,0.28864354999999997,0.5605863928702823
0.0035,1.79969375,1.0,237.68258448282515,0.03861949685769194,1.368584757244601,0.27061269088152196,0.2886401375,0.5667897854813091
0.004,1.7996,1.0,321.4659883420576,0.04401208132551779,1.366156113134774,0.32291561031732463,0.2886362,0.5724799133100595
0.0045000000000000005,1.7994937500000001,1.0,409.2669686438089,0.04937441766039858,1.3639228325265225,0.3730343262146654,0.2886317375,0.5776791197891349
0.005,1.799375,1.0,499.4127184544975,0.054706675519846114,1.3618583590431614,0.42024729168708136,0.28862675,0.5824570407863217
0.0055,1.79924375,1.0,590.7896425432494,0.0600090236391345,1.3599388501717027,0.4641735424539187,0.2886212375,0.5868750769677059
0.006,1.7991000000000001,1.0,682.5173427986903,0.0652816297744054,1.358146428662688,0.5046798198608553,0.2886152,0.5909793865949047
0.006500000000000001,1.79894375,1.0,773.8805862069544,0.0705246607583174,1.3564672650828546,0.5418006305173496,0.2886086375,0.5948057682536666
0.007,1.798775,1.0,864.2851020970111,0.07573828248363004,1.354890406450716,0.5756766645194423,0.28860155,0.5983826511774415
0.0075,1.79859375,1.0,953.2426097506187,0.08092265991294222,1.3534067885068233,0.6065098104930724,0.2885939375,0.6017335517770839
0.008,1.7984,1.0,1040.343776742403,0.08607795666095036,1.3520088624471167,0.6345320864331794,0.2885858,0.604878063643772
0.0085,1.79819375,1.0,1125.3137687476578,0.09120433686317414,1.3506892479929387,0.6599843508942597,0.2885771375,0.607834985147153
0.009000000000000001,1.797975,1.0,1207.9000134206901,0.09630196246802145,1.3494420373346288,0.683104116930422,0.28856795,0.6106194596410202
0.0095,1.79774375,1.0,1287.8925191503708,0.10137099397131903,1.3482621196559055,0.7041174061952701,0.2885582375,0.6132445663672697
0.01,1.7975,1.0,1365.1671378672631,0.10641159186889365,1.3471443841404873,0.7232341640947396,0.288548,0.6157231395399292
0.0105,1.79724375,1.0,1439.6585880899659,0.11142391613972007,1.3460839577905968,0.740646608689521,0.2885372375,0.618067264540805
0.011,1.796975,1.0,1511.3212847315613,0.11640812556623624,1.3450765649967287,0.7565290818771577,0.28852595000000003,0.6202875136800334
0.0115,1.79669375,1.0,1580.120437430328,0.12136437732600051,1.3441184899283332,0.7710385659039176,0.2885141375,0.622393064060726
0.012,1.7964,1.0,1646.057239943493,0.12629282808198003,1.3432061622751577,0.784315545722995,0.28850180000000003,0.6243926344909381
0.0125,1.79609375,1.0,1709.1738904432532,0.1311936345827945,1.3423360357613947,0.7964852879583095,0.2884889375,0.6262947660050162
0.013000000000000001,1.7957750000000001,1.0,1769.5063241032515,0.1360669517451666,1.3415050753525135,0.8076594587113818,0.28847555,0.6281067713918178
0.0135,1.79544375,1.0,1827.0909379092168,0.14091293305743158,1.3407106016382506,0.8179374369572314,0.2884616375,0.6298350954442006
0.014,1.7951000000000001,1.0,1881.9917762656307,0.14573173200792477,1.3399499352083422,0.8274075049635152,0.2884472,0.6314861018872575
0.0145,1.79474375,1.0,1934.280131034923,0.15052350096248052,1.3392205907568318,0.8361481648975919,0.2884322375,0.633065659459777
0.015,1.794375,1.0,1984.0540784538252,0.15528839296094027,1.3385200323990922,0.8442291805988843,0.28841675,0.6345796800526708
0.0155,1.79399375,1.0,2031.3737013717762,0.1600265576170061,1.3378463384164094,0.851712814936574,0.2884007375,0.6360326901104112
0.016,1.7936,1.0,2076.312071565353,0.164738144368084,1.3371976170352966,0.8586545210529513,0.2883842,0.6374291041636398
0.0165,1.7931937500000001,1.0,2118.9566614284645,0.16942330265158,1.336571976482266,0.8651037401723572,0.2883671375,0.6387732928788932
0.017,1.792775,1.0,2159.3904746779094,0.17408218036389478,1.3359677050963643,0.8711046652686696,0.28834955,0.6400692000391658
0.0175,1.7923437500000001,1.0,2197.7202989115544,0.17871492690218685,1.3353829654430949,0.8766967753951079,0.2883314375,0.6413210028399102
0.018000000000000002,1.7919,1.0,2234.014027148155,0.1833216874745304,1.334816419212615,0.8819155559491949,0.2883128,0.6425317775052373
0.0185,1.79144375,1.0,2268.3461821047467,0.18790260714582538,1.3342667444607148,0.8867928348158224,0.2882936375,0.6437045393738368
0.019,1.790975,1.0,2300.7988232500247,0.1924578309809718,1.3337326192431829,0.8913572017719386,0.28827395,0.64484227950601
0.0195,1.79049375,1.0,2331.4525812427214,0.19698750295245965,1.3332128034918884,0.895634399047132,0.2882537375,0.645947792057003
0.02,1.79,1.0,2360.396774053533,0.20149176804036137,1.3327060317336878,0.8996476201715295,0.288233,0.647023904489867
0.0205,1.78949375,1.0,2387.7065747566594,0.20597076888009905,1.3322112305462979,0.9034178433071663,0.2882117375,0.648073017534804
0.021,1.788975,1.0,2413.445081139554,0.21042464583316084,1.3317274885138346,0.9069640685226268,0.28818995000000003,0.6490971727178053
0.021500000000000002,1.78844375,1.0,2437.6793327692526,0.21485353926103493,1.331253894220415,0.9103035001421562,0.2881676375,0.6500983978437822
0.022,1.7879,1.0,2460.4799826496806,0.21925758952520943,1.3307895362501552,0.913451741223233,0.2881448,0.6510787076129059
0.0225,1.78734375,1.0,2481.915082291955,0.22363693575434476,1.3303335594749133,0.9164229752400886,0.28812143749999997,0.6520399856015113
0.023,1.786775,1.0,2502.0548010390903,0.22799171792967915,1.329885116347185,0.9192301073190685,0.28809755,0.6529840880503961
0.0235,1.78619375,1.0,2520.9655319945614,0.2323220751929021,1.3294434200657612,0.9218849062322421,0.28807313749999996,0.6539127327020868
0.024,1.7856,1.0,2538.6981844756633,0.23662814279430028,1.329007851596247,0.9243981385980358,0.2880482,0.6548272754720088
0.0245,1.78499375,1.0,2555.3055420255746,0.2409100559841604,1.328577791904246,0.9267796417048748,0.2880227375,0.6557290646279654
0.025,1.784375,1.0,2570.842105078103,0.24516795001276914,1.3281526219553634,0.9290384164766841,0.28799675,0.6566194410198353
0.025500000000000002,1.78374375,1.0,2585.363942119179,0.24940196013041316,1.3277317227152037,0.9311827100080236,0.2879702375,0.6574997382848369
0.026000000000000002,1.7831000000000001,1.0,2598.9200129340525,0.2536122194348586,1.3273145546674399,0.9332201009423211,0.2879432,0.6583711170371669
0.0265,1.78244375,1.0,2611.564345094004,0.2577988635053684,1.3269005424732945,0.9351575470463727,0.2879156375,0.6592348065391129
0.027,1.781775,1.0,2623.348962289371,0.26196202654649975,1.326489139930615,0.9370014524833123,0.28788755,0.6600919690923704
0.0275,1.7810937500000001,1.0,2634.3108837391237,0.2661018382072264,1.3260799489515014,0.9387577361265728,0.2878589375,0.6609434530988083
0.028,1.7804,1.0,2644.487911913169,0.27021842813652197,1.3256725714480542,0.9404318557651128,0.2878298,0.6617901026990181
0.0285,1.77969375,1.0,2653.9185649442447,0.2743119259833603,1.3252666093323737,0.9420288500723287,0.2878001375,0.6626327578234088
0.029,1.778975,1.0,2662.6420125530767,0.2783824613967151,1.32486166451656,0.9435533762487914,0.28776995,0.6634722542331951
0.029500000000000002,1.7782437500000001,1.0,2670.698015487388,0.2824301640255601,1.3244573389127134,0.945009743831848,0.2877392375,0.6643094235512774
0.03,1.7775,1.0,2678.120106521889,0.28645516106452973,1.3240532964832759,0.9464019525448232,0.287708,0.66514496504567
0.0305,1.77674375,1.0,2684.9473456885453,0.2904575825458922,1.3236491546220261,0.9477337064745898,0.2876762375,0.6659796706391831
0.031,1.775975,1.0,2691.2141128383496,0.2944375560424556,1.3232445774717778,0.9490084495387028,0.28764395,0.6668142319358796
0.0315,1.7751937500000001,1.0,2696.9461630895044,0.2983952055528855,1.3228393113301042,0.9502293913505038,0.2876111375,0.6676491679206125
0.032,1.7744,1.0,2702.1695386597175,0.30233065507584767,1.3224331024945786,0.9513995175576582,0.2875778,0.6684849949480887
0.0325,1.77359375,1.0,2706.9105417014184,0.3062440286100076,1.3220256972627742,0.9525216082135458,0.2875439375,0.6693222267296688
0.033,1.772775,1.0,2711.195708563812,0.31013545015403104,1.3216168419322645,0.953598254430273,0.28750955,0.6701613743160613
0.0335,1.7719437500000002,1.0,2715.051785482689,0.3140050437065836,1.3212062828006226,0.9546318734923895,0.2874746375,0.6710029460759135
0.034,1.7711016339373546,1.0,2718.5924264328187,0.3178529288097133,1.320793714227844,0.9556247155806881,0.2874392686253689,0.6718475539282662
0.0345,1.7702580252153068,1.0,2722.265628258714,0.32167923256471675,1.3203792860072074,0.9565789358879253,0.2874038370590429,0.6726948759486989
0.035,1.7694144164932593,1.0,2726.120313956454,0.3254840776244907,1.3199632296724966,0.9574965574090017,0.2873684054927169,0.6735444249283967
0.035500000000000004,1.7685708077712115,1.0,2730.1409856455125,0.3292675819721641,1.3195456895287037,0.9583794630646396,0.2873329739263909,0.6743958938253358
0.036000000000000004,1.7677271990491636,1.0,2734.312114302494,0.33302986359086584,1.3191268098808209,0.9592294167028869,0.2872975423600649,0.675248977089574
0.0365,1.766883590327116,1.0,2738.618135244202,0.33677104046372486,1.3187067350338404,0.9600480719888138,0.28726211079373887,0.6761033706762418
0.037,1.7660399816050683,1.0,2743.043444072964,0.3404912305738701,1.3182856092927542,0.9608369805352031,0.28722667922741285,0.6769587720572074
0.0375,1.7651963728830207,1.0,2747.5723930834542,0.34419055190443054,1.3178635769625544,0.9615975993467161,0.28719124766108683,0.6778148802314103
0.038,1.7643527641609729,1.0,2752.1892881313183,0.3478691224385351,1.3174407823482333,0.9623312976424153,0.2871558160947609,0.6786713957338699
0.0385,1.7635091554389253,1.0,2756.8794520437314,0.351527059180896,1.317017360112751,0.9630393620074315,0.28712038452843486,0.6795280401375712
0.039,1.7626655467168775,1.0,2761.6349593473856,0.3551644751772226,1.3165933834761725,0.9637229968601381,0.28708495296210884,0.6803846605201186
0.0395,1.76182193799483,1.0,2766.439197945561,0.35878149304300144,1.3161690038558367,0.9643833456301661,0.2870495213957829,0.6812409470689029
0.04,1.760978329272782,1.0,2771.2862238844227,0.3623782246466975,1.3157442759204123,0.9650214752790569,0.28701408982945686,0.6820967864269596
0.0405,1.7601347205507343,1.0,2776.170072899947,0.3659547818567756,1.3153192543385683,0.9656383922450162,0.28697865826313085,0.6829520658270704
0.041,1.7592911118286867,1.0,2781.0847600286656,0.36951127654170063,1.3148939937789736,0.9662350465154778,0.28694322669680483,0.6838066730928818
0.0415,1.7584475031066389,1.0,2786.0242792851686,0.37304782056993746,1.3144685489102965,0.966812335384834,0.2869077951304788,0.6846604966398356
0.042,1.7576038943845913,1.0,2790.9826034053117,0.376564525809951,1.314042974401206,0.9673711069246858,0.2868723635641528,0.6855134254759038
0.0425,1.7567602856625435,1.0,2795.95368365618,0.380061504130206,1.3136173249203709,0.9679121631913333,0.28683693199782684,0.6863653492021382
0.043000000000000003,1.755916676940496,1.0,2800.93144971162,0.3835388673991675,1.3131916551364597,0.9684362631928802,0.2868015004315008,0.6872161580130258
0.043500000000000004,1.755073068218448,1.0,2805.9148408398783,0.38699671541250497,1.3127659746130291,0.9689441201573948,0.2867660688651748,0.6880658326669707
0.044,1.7542294594964005,1.0,2810.8952533962433,0.3904351715022699,1.3123403604419026,0.9694364188336526,0.28673063729884884,0.6889142195121887
0.0445,1.7533858507743527,1.0,2815.8679212178527,0.39385434890471804,1.3119148550998438,0.969913804108451,0.28669520573252283,0.6897612345919752
0.045,1.752542242052305,1.0,2820.8313036838263,0.39725435240617785,1.3114894720737948,0.9703768842595334,0.2866597741661968,0.6906068519999636
0.0455,1.7516986333302573,1.0,2825.7838549551075,0.40063528679297805,1.3110642248506974,0.9708262366636387,0.2866243425998708,0.6914510459758763
0.046,1.7508550246082095,1.0,2830.724024013521,0.4039972568514473,1.3106391269174933,0.9712624096659068,0.2865889110335448,0.692293790905413
0.0465,1.750011415886162,1.0,2835.6502547039977,0.4073403673679142,1.310214191761125,0.9716859243188941,0.2865534794672188,0.6931350613201275
0.047,1.7491678071641141,1.0,2840.5609857815325,0.4106647231287074,1.3097894328685338,0.9720972760014446,0.2865180479008928,0.6939748318972967
0.0475,1.7483241984420665,1.0,2845.4546509617767,0.41397042892015556,1.309364863726662,0.9724969359267887,0.2864826163345668,0.6948130774597701
0.048,1.7474805897200187,1.0,2850.3296789756914,0.4172575895285873,1.3089404978224515,0.9728853525484151,0.28644718476824077,0.6956497729758159
0.0485,1.746636980997971,1.0,2855.1844936285775,0.42052630974033134,1.3085163486428444,0.9732629528715411,0.2864117532019148,0.6964848935589506
0.049,1.7457933722759233,1.0,2860.0175138623586,0.4237766943417162,1.3080924296747822,0.9736301436773341,0.2863763216355888,0.6973184144677594
0.0495,1.7449497635538755,1.0,2864.827153822942,0.42700884811907064,1.3076687544052072,0.9739873126664402,0.2863408900692628,0.6981503111057024
0.05,1.744106154831828,1.0,2869.613702755549,0.430222857200524,1.3072453196565301,0.9743348262555326,0.28630545850293676,0.6989805916746066
0.0505,1.7432625461097802,1.0,2874.375787040705,0.4334188382839688,1.3068221369941682,0.9746730385185083,0.28627002693661074,0.6998092354921299
0.051000000000000004,1.7424189373877326,1.0,2879.111909099683,0.4365969059345531,1.3063992190459406,0.9750022871730476,0.2862345953702848,0.7006362199235897
0.051500000000000004,1.7415753286656848,1.0,2883.8221196735653,0.43975715653638264,1.3059765647102244,0.9753228917843251,0.28619916380395877,0.7014615492606182
0.052000000000000005,1.740731719943637,1.0,2888.506470374185,0.44289968647356315,1.3055541728853968,0.9756351576534843,0.28616373223763275,0.702285227781636
0.0525,1.7398881112215894,1.0,2893.1650136776025,0.44602459213020035,1.3051320424698347,0.9759393765787939,0.28612830067130673,0.7031072597518717
0.053,1.7390445024995416,1.0,2897.7978029176716,0.4491319698904001,1.3047101723619157,0.97623582756982,0.2860928691049808,0.703927649423379
0.0535,1.738200893777494,1.0,2902.4048922794664,0.4522219161382682,1.3042885614600166,0.9765247775178935,0.28605743753865476,0.7047464010350565
0.054,1.7373572850554462,1.0,2906.986336793377,0.45529452725791025,1.3038672086625145,0.9768064818259041,0.28602200597232874,0.7055635188126654
0.0545,1.7365136763333986,1.0,2911.542192328486,0.4583498996334321,1.3034461128677868,0.9770811850002074,0.2859865744060027,0.706379006968847
0.055,1.7356700676113508,1.0,2916.072515586312,0.4613881296489395,1.3030252729742104,0.9773491212072285,0.2859511428396767,0.7071928697031418
0.0555,1.734826458889303,1.0,2920.577364094648,0.4644093136885382,1.3026046878801625,0.977610514797145,0.2859157112733507,0.7080051112020072
0.056,1.7339828501672554,1.0,2925.0567962012233,0.467413548136334,1.3021843564840203,0.9778655807968548,0.28588027970702473,0.7088157356388346
0.0565,1.7331392414452076,1.0,2929.510871067424,0.47040092937643263,1.3017642776841611,0.9781145253742686,0.2858448481406987,0.7096247471739685
0.057,1.73229563272316,1.0,2933.939648662316,0.4733715537929398,1.3013444503789617,0.9783575462758157,0.2858094165743727,0.7104321499547241
0.0575,1.7314520240011122,1.0,2938.3431897564515,0.47632551776996135,1.3009248734667995,0.9785948332389165,0.28577398500804674,0.7112379481154041
0.058,1.7306084152790646,1.0,2942.721613004702,0.4792628770706008,1.3005055453462857,0.9788265648543102,0.2857385534417207,0.712042146735113
0.0585,1.7297648065570168,1.0,2947.0754575683463,0.48218374485464477,1.3000864607459666,0.9790529173521706,0.2857031218753947,0.7128447578984678
0.059000000000000004,1.7289211978349692,1.0,2951.405097617219,0.4850882555290715,1.299667615855687,0.9792740618138823,0.2856676903090687,0.7136457908398228
0.059500000000000004,1.7280775891129214,1.0,2955.710848668223,0.48797649537056936,1.2992490073921648,0.9794901586202861,0.2856322587427427,0.7144452537461867
0.06,1.7272339803908738,1.0,2959.9930277092703,0.49084855065582683,1.2988306320721181,0.9797013619431852,0.2855968271764167,0.7152431547684259
0.0605,1.726390371668826,1.0,2964.2519531816415,0.4937045076615324,1.298412486612265,0.9799078200338499,0.2855613956100907,0.7160395020213162
0.061,1.7255467629467782,1.0,2968.4879449638215,0.4965444526643744,1.2979945677293236,0.9801096754959726,0.2855259640437647,0.7168343035835891
0.0615,1.7247031542247306,1.0,2972.701324354368,0.49936847194104145,1.2975768721400118,0.9803070655440265,0.28549053247743866,0.7176275674979817
0.062,1.7238595455026828,1.0,2976.89241405578,0.5021766517682219,1.297159396561048,0.9805001222479094,0.2854551009111127,0.7184193017712814
0.0625,1.7230159367806352,1.0,2981.0615381581933,0.5049690784226042,1.2967421377091497,0.9806889727647032,0.2854196693447867,0.7192095143743751
0.063,1.7221723280585874,1.0,2985.209022123718,0.5077458381808768,1.2963250923010352,0.9808737395583158,0.28538423777846067,0.7199982132422926
0.0635,1.7213287193365399,1.0,2989.3351927704784,0.5105070173197281,1.2959082570534228,0.9810545406077261,0.28534880621213465,0.720785406274252
0.064,1.720485110614492,1.0,2993.4403782575696,0.5132527021158466,1.2954916286830302,0.9812314896045026,0.28531337464580864,0.7215711013337059
0.0645,1.7196415018924442,1.0,2997.5249080695007,0.5159829788459208,1.2950752039065758,0.9814046961402239,0.2852779430794826,0.7223553062483823
0.065,1.7187978931703967,1.0,3001.589113001668,0.5186979337866391,1.2946589794407772,0.9815742658843866,0.28524251151315666,0.7231380288103304
0.0655,1.7179542844483489,1.0,3005.6333251450005,0.5213976532146899,1.2942429520023528,0.9817403007533495,0.28520707994683064,0.7239192767759601
0.066,1.7171106757263013,1.0,3009.657877872321,0.5240822234067616,1.2938271183080206,0.9819028990708242,0.2851716483805047,0.7246990578660858
0.0665,1.7162670670042535,1.0,3013.6631058233693,0.5267517306395428,1.2934114750744987,0.982062155720399,0.28513621681417867,0.7254773797659656
0.067,1.7154234582822059,1.0,3017.64934489147,0.529406261189722,1.292996019018505,0.9822181622905376,0.28510078524785265,0.726254250125344
0.0675,1.714579849560158,1.0,3021.6169322093033,0.5320459013339873,1.2925807468567576,0.9823710072124804,0.28506535368152663,0.7270296765584883
0.068,1.7137362408381103,1.0,3025.566206135578,0.5346707373490276,1.2921656553059746,0.98252077589144,0.2850299221152006,0.7278036666442298
0.0685,1.7128926321160627,1.0,3029.497506241894,0.537280855511531,1.291750741082874,0.9826675508314634,0.2849944905488746,0.7285762279260009
0.069,1.7120490233940149,1.0,3033.4108916334194,0.5398763183649553,1.2913360033327748,0.9828114103856737,0.28495905898254864,0.7293473633995072
0.0695,1.7112054146719673,1.0,3037.3065273240004,0.542457194056395,1.2909214402924036,0.9829524306140293,0.2849236274162226,0.7301170777365862
0.07,1.7103618059499195,1.0,3041.185349138294,0.5450236176138673,1.2905070435671289,0.983090688832878,0.2848881958498966,0.730885387875913
0.07050000000000001,1.709518197227872,1.0,3045.047573384741,0.5475756651842999,1.2900928109773633,0.9832262564987091,0.28485276428357065,0.7316522991685325
0.07100000000000001,1.708674588505824,1.0,3048.893417194873,0.5501134129146206,1.2896787403435204,0.983359202737,0.28481733271724463,0.7324178169419366
