Time [s],Phi [rad],STIM [ ],Fsee [N],Gamma [ ],Lcerel [ ],q [ ],Lmtc [m],fisomrel [ ]
0.0,1.8,1.0,17.967630760901407,1.0005014151689504e-05,1.3793396932738125,0.005000026678397408,0.288653,0.5411396591419959
0.0005,1.79999375,1.0,18.27692066657769,0.005619158202728871,1.3793023681815588,0.012940527481497505,0.2886527375,0.5412299537368024
0.001,1.799975,1.0,21.618517826278545,0.011196848476840715,1.378938288195901,0.03560860133719478,0.28865195,0.5421102478927307
0.0015,1.79994375,1.0,31.06928562410093,0.016743252319420875,1.3780461995015378,0.07060173852428644,0.2886506375,0.5442636193955468
0.002,1.7999,1.0,53.58219255448952,0.022258545221753648,1.3763681443560563,0.11471787601807544,0.2886488,0.5483004461542691
0.0025,1.79984375,1.0,97.11838324245602,0.02774290169103393,1.3739351939750062,0.16457471712584532,0.28864643749999996,0.5541213989377376
0.003,1.7997750000000001,1.0,160.9574688078622,0.03319649525808781,1.371214369883591,0.21728027246574638,0.28864354999999997,0.560586389004874
0.0035,1.79969375,1.0,237.6825505524709,0.03861949847696159,1.3685847582897472,0.27061270766616086,0.2886401375,0.5667897830245172
0.004,1.7996,1.0,321.465962513367,0.044012082935704605,1.3661561138188782,0.32291562646407934,0.2886362,0.5724799117125532
0.0045000000000000005,1.7994937500000001,1.0,409.2669494393546,0.04937441926155358,1.3639228329773245,0.3730343414647655,0.2886317375,0.577679118742852
0.005,1.799375,1.0,499.4127050646745,0.05470667711202052,1.3618583593276943,0.4202473058920579,0.28862675,0.5824570401296854
0.0055,1.79924375,1.0,590.7896334512681,0.060009025222377055,1.3599388503493381,0.4641735555634713,0.2886212375,0.5868750765599386
0.006,1.7991000000000001,1.0,682.517337973585,0.06528163134876684,1.3581464287503957,0.5046798318675103,0.2886152,0.5909793863945718
0.006500000000000001,1.79894375,1.0,773.8805853773843,0.07052466232384788,1.3564672650970158,0.5418006414578482,0.2886086375,0.5948057682214729
0.007,1.798775,1.0,864.2851021073392,0.07573828404038002,1.354890406450549,0.5756766744844073,0.28860155,0.5983826511778194
0.0075,1.79859375,1.0,953.2426104612164,0.08092266146096166,1.3534067884958938,0.6065098195514472,0.2885939375,0.6017335518017175
0.008,1.7984,1.0,1040.3439437657705,0.08607795820773533,1.352008859988017,0.6345320932374542,0.2885858,0.6048780691643391
0.0085,1.79819375,1.0,1125.3139891172962,0.09120433840330157,1.350689244873314,0.6599843566130722,0.2885771375,0.6078349921243136
0.009000000000000001,1.797975,1.0,1207.89996915696,0.09630196398908986,1.34944203793944,0.683104124064838,0.28856795,0.6106194582931471
0.0095,1.79774375,1.0,1287.8922099069623,0.10137099547448539,1.3482621237480226,0.7041174145460894,0.2885582375,0.6132445572784344
0.01,1.7975,1.0,1365.1669262229236,0.10641159336887347,1.3471443868606892,0.7232341711173311,0.288548,0.6157231335175899
0.0105,1.79724375,1.0,1439.6588856466476,0.11142391763859308,1.3460839540664458,0.7406466119705428,0.2885372375,0.6180672727606322
0.011,1.796975,1.0,1511.3217036514586,0.1164081270577994,1.3450765598794396,0.7565290841217015,0.28852595000000003,0.6202875249418734
0.0115,1.79669375,1.0,1580.1206320019317,0.1213643788038811,1.344118487603875,0.7710385691128445,0.2885141375,0.6223930691620592
0.012,1.7964,1.0,1646.057033985738,0.12629282952838905,1.3432061646858569,0.784315550638538,0.28850180000000003,0.6243926292143639
0.0125,1.79609375,1.0,1709.1738570115551,0.13119363603406967,1.3423360361454135,0.796485291687938,0.2884889375,0.6262947651666012
0.013000000000000001,1.7957750000000001,1.0,1769.5064886644898,0.13606695320894122,1.341505073494757,0.807659461284466,0.28847555,0.6281067754379486
0.0135,1.79544375,1.0,1827.0913093461802,0.14091293452424075,1.3407105975116504,0.8179374384393491,0.2884616375,0.629835104410887
0.014,1.7951000000000001,1.0,1881.9923458027954,0.14573173345120527,1.3399499289738575,0.8274075054550387,0.2884472,0.63148611540392
0.0145,1.79474375,1.0,1934.2795133400334,0.15052350238282633,1.3392205974264617,0.8361481698558738,0.2884322375,0.6330656450307219
0.015,1.794375,1.0,1984.0525455594732,0.15528839435222874,1.3385200487417592,0.8442291885573491,0.28841675,0.6345796447700158
0.0155,1.79399375,1.0,2031.3726047692842,0.16002655902415025,1.337846349970659,0.851712820960488,0.2884007375,0.6360326652152519
0.016,1.7936,1.0,2076.312014062543,0.16473814579347845,1.3371976176345768,0.8586545233333469,0.2883842,0.6374291028748909
0.0165,1.7931937500000001,1.0,2118.957458932763,0.16942330405510092,1.3365719682549284,0.8651037395852866,0.2883671375,0.6387733105389142
0.017,1.792775,1.0,2159.3909718182135,0.17408218181653096,1.3359677000159311,0.8711046656409832,0.28834955,0.6400692109247619
0.0175,1.7923437500000001,1.0,2197.7196181323097,0.1787149282905492,1.3353829723392576,0.8766967790185181,0.2883314375,0.6413209880895561
0.018000000000000002,1.7919,1.0,2234.0128086766545,0.1833216888139097,1.334816431454826,0.881915560803021,0.2883128,0.6425317513643359
0.0185,1.79144375,1.0,2268.3449747868062,0.18790260846232276,1.3342667564987172,0.8867928393825804,0.2882936375,0.6437045137111841
0.019,1.790975,1.0,2300.798079450991,0.19245783231149868,1.3337326266070118,0.8913572049739781,0.28827395,0.6448422638328599
0.0195,1.79049375,1.0,2331.4524338857714,0.19698750432117965,1.3332128049411431,0.8956344006954154,0.2882537375,0.6459477889772185
0.02,1.79,1.0,2360.3975363603813,0.20149176955773762,1.3327060242825146,0.8996476197606136,0.288233,0.6470239203001364
0.0205,1.78949375,1.0,2387.7063407339174,0.20597077033407832,1.3322112328206355,0.9034178450542487,0.2882117375,0.6480730127161785
0.021,1.788975,1.0,2413.443076967927,0.210424647131792,1.3317275078871373,0.9069640738504988,0.28818995000000003,0.6490971317314709
0.021500000000000002,1.78844375,1.0,2437.6759441073145,0.2148535404324689,1.3312539268136516,0.9103035080165315,0.2881676375,0.6500983289876784
0.022,1.7879,1.0,2460.4767778479436,0.21925759071769924,1.3307895669318093,0.9134517484506667,0.2881448,0.6510786428860525
0.0225,1.78734375,1.0,2481.9121569184276,0.22363693661130218,1.330333587360217,0.9164229814362911,0.28812143749999997,0.6520399268550063
0.023,1.786775,1.0,2502.0559386519685,0.22799171938904952,1.3298851055469445,0.9192301061577973,0.28809755,0.6529841107725807
0.0235,1.78619375,1.0,2520.967724420253,0.23232207681822672,1.329443399329583,0.9218849033093961,0.28807313749999996,0.653912776269671
0.024,1.7856,1.0,2538.6994986786244,0.23662814430946197,1.3290078392098719,0.9243981372125358,0.2880482,0.6548273014618977
0.0245,1.78499375,1.0,2555.305139090807,0.24091005727338358,1.3285777956895497,0.9267796431037666,0.2880227375,0.6557290566957799
0.025,1.784375,1.0,2570.8402563521336,0.24516795112061976,1.3281526392703555,0.9290384200738149,0.28799675,0.6566194047828442
0.025500000000000002,1.78374375,1.0,2585.3620427987958,0.24940196126179878,1.327731740454028,0.9311827135791153,0.2879702375,0.6574997012084617
0.026000000000000002,1.7831000000000001,1.0,2598.9173231368195,0.25361221988014865,1.3273145797233725,0.9332201052717174,0.2879432,0.6583710647337756
0.0265,1.78244375,1.0,2611.565904707996,0.25779886460027396,1.3269005279804356,0.9351575452446033,0.2879156375,0.6592348367541851
0.027,1.781775,1.0,2623.353228742976,0.2619620279902029,1.3264891003733554,0.9370014469793385,0.28788755,0.6600920514585366
0.0275,1.7810937500000001,1.0,2634.3166126036936,0.2661018397709819,1.326079895945849,0.9387577287686308,0.2878589375,0.6609435633289038
0.028,1.7804,1.0,2644.4941608741806,0.2702184296636574,1.3256725137416328,0.940431847874089,0.2878298,0.6617902225548662
0.0285,1.77969375,1.0,2653.9246971950147,0.27431192738927584,1.3252665528044234,0.9420288424899717,0.2878001375,0.6626328750852273
0.029,1.778975,1.0,2662.647699661804,0.27838246266888383,1.3248616121779377,0.943553369381273,0.28776995,0.6634723626694872
0.029500000000000002,1.7782437500000001,1.0,2670.7032397882226,0.2824301652235277,1.324457290905892,0.9450097376891285,0.2877392375,0.6643095228890604
0.03,1.7775,1.0,2678.1288385192393,0.28645516392115083,1.3240532163550376,0.9464019428261151,0.287708,0.6651451306439898
0.0305,1.77674375,1.0,2684.957778486424,0.29045758645189523,1.323649059008384,0.9477336952991988,0.2876762375,0.6659798679942206
0.031,1.775975,1.0,2691.2209825642362,0.294437558874288,1.3232445145860077,0.9490084424304885,0.28764395,0.6668143615754345
0.0315,1.7751937500000001,1.0,2696.9473609009497,0.2983952064098635,1.322839300376939,0.9502293902528637,0.2876111375,0.6676491904723488
0.032,1.7744,1.0,2702.1661260705964,0.30233065428015626,1.3224331336702075,0.9513995211235852,0.2875778,0.6684849308405933
0.0325,1.7735940837576356,1.0,2706.9277329552624,0.30624402401467843,1.3220256910796198,0.9525216061230755,0.2875439515178207,0.6693222394282312
0.033,1.7727844723456794,1.0,2711.652263052586,0.31013544397918047,1.3216169560480775,0.9535982660230714,0.2875099478385185,0.6701611402499011
0.0335,1.7719748609337231,1.0,2716.501822034912,0.3140050403299042,1.3212071193563497,0.9546319683621025,0.2874759441592164,0.6710012323813639
0.034,1.771165249521767,1.0,2721.4634843564577,0.31785293299337924,1.320796301614648,0.9556250068815609,0.2874419404799142,0.671842260428456
0.0345,1.7703556381098107,1.0,2726.524283096517,0.32167924189613534,1.3203846234331842,0.9565795247823377,0.28740793680061205,0.6726839702409974
0.035,1.7695460266978544,1.0,2731.671207496996,0.32548408696470227,1.3199722054221705,0.957497526369551,0.2873739331213099,0.6735261089198734
0.035500000000000004,1.7687364152858984,1.0,2736.891200823022,0.32926758812560963,1.3195591681918184,0.9583808876686101,0.2873399294420077,0.6743684248231924
0.036000000000000004,1.7679268038739422,1.0,2742.171158545593,0.3330298653053872,1.3191456323523403,0.9592313661141003,0.2873059257627056,0.6752106675715078
0.0365,1.767117192461986,1.0,2747.497926847046,0.3367710384305646,1.3187317185139475,0.9600506094019824,0.2872719220834034,0.6760525880521229
0.037,1.7663075810500297,1.0,2752.85841452163,0.34049122731352044,1.3183175462634351,0.9608401634587588,0.28723791840410123,0.6768939405000824
0.0375,1.7654979696380735,1.0,2758.2459726050515,0.34419054723433923,1.3179031764760025,0.9616014732785257,0.2872039147247991,0.6777345994466442
0.038,1.7646883582261172,1.0,2763.648938174974,0.34786912033476647,1.317488715084569,0.9623359027090438,0.28716991104549694,0.6785743488327465
0.0385,1.7638787468141612,1.0,2769.0624357247425,0.3515270608730838,1.3170742063564074,0.9630447270050685,0.28713590736619476,0.6794130984166276
0.039,1.763069135402205,1.0,2774.4815705873434,0.3551644831075727,1.3166596945587894,0.963729146545634,0.2871019036868926,0.6802507584245352
0.0395,1.7622595239902488,1.0,2779.9014289106985,0.35878150129651476,1.316245223958987,0.9643902920421581,0.2870679000075904,0.6810872395507976
0.04,1.7614499125782925,1.0,2785.3170776764773,0.36237822969819145,1.3158308388242725,0.9650292293307977,0.2870338963282883,0.6819224529577691
0.0405,1.7606403011663363,1.0,2790.7235647618563,0.36595478257088443,1.315416583421918,0.9656469637863154,0.2869998926489861,0.6827563102756513
0.041,1.75983068975438,1.0,2796.1159190457197,0.3695112741728752,1.3150025020191953,0.9662444443910204,0.28696588896968395,0.6835887236021903
0.0415,1.759021078342424,1.0,2801.495727338803,0.37304780155738954,1.314588579876034,0.966822559515632,0.2869318852903818,0.6844197238889675
0.042,1.7582114669304678,1.0,2806.8512384276764,0.37656450286522164,1.3141749218658085,0.9673821658663527,0.28689788161107965,0.6852491022659857
0.0425,1.7574018555185116,1.0,2812.1813486136507,0.38006148576763427,1.313761537116546,0.9679240605720607,0.2868638779317775,0.6860768425582343
0.043000000000000003,1.7565922441065553,1.0,2817.485070151914,0.3835388575966166,1.3133484336886432,0.968448997913072,0.2868298742524753,0.6869029308191135
0.043500000000000004,1.755782632694599,1.0,2822.7614124208076,0.3869967256841578,1.312935619642496,0.968957692192151,0.28679587057317313,0.687727353185482
0.044,1.7549730212826429,1.0,2828.009381972486,0.39043519736224697,1.3125231030385005,0.9694508202540734,0.286761866893871,0.6885500958775089
0.0445,1.7541634098706869,1.0,2833.2279825853557,0.3938543799628733,1.3121108919370534,0.9699290238223083,0.28672786321456883,0.6893711451985235
0.045,1.7533537984587306,1.0,2838.4162153184175,0.39725438081802594,1.311698994398551,0.9703929116677669,0.2866938595352667,0.6901904875348598
0.0455,1.7525441870467744,1.0,2843.573078565949,0.40063530725969404,1.3112874184833896,0.9708430616232168,0.28665985585596454,0.6910081093556986
0.046,1.7517345756348182,1.0,2848.6975681146614,0.4039972666198667,1.3108761722519653,0.9712800224557456,0.28662585217666237,0.6918239972129031
0.0465,1.750924964222862,1.0,2853.7886772018687,0.4073403662305331,1.3104652637646745,0.9717043156085455,0.2865918484973602,0.6926381377408517
0.047,1.7501153528109057,1.0,2858.8453965749873,0.41066471342368244,1.310054701081914,0.9721164368223052,0.286557844818058,0.693450517656266
0.0475,1.7493057413989497,1.0,2863.866714552718,0.41397041553130376,1.3096444922640793,0.9725168576456006,0.2865238411387559,0.6942611237580374
0.048,1.7484961299869934,1.0,2868.853695365501,0.41725755293898237,1.3092346269453194,0.9729060221575616,0.2864898374594537,0.6950699792665469
0.0485,1.7476865185750372,1.0,2873.8048937440694,0.4205262610748392,1.3088251170332252,0.9732843616466279,0.28645583378015155,0.6958770634228786
0.049,1.746876907163081,1.0,2878.720129412989,0.4237766477311271,1.3084159632053056,0.9736522827341683,0.28642183010084943,0.6966823776790293
0.0495,1.7460672957511247,1.0,2883.5997719264055,0.42700881151993597,1.3080071612818351,0.9740101715504108,0.28638782642154725,0.6974859330328622
0.05,1.7452576843391685,1.0,2888.4441932691643,0.4302228510533555,1.3075987070830883,0.9743583963207412,0.2863538227422451,0.6982877404362642
0.0505,1.7444480729272125,1.0,2893.2537678241542,0.4334188649434755,1.3071905964293393,0.974697308357058,0.2863198190629429,0.6990878107952385
0.051000000000000004,1.7436384615152563,1.0,2898.0288723403833,0.4365969518023857,1.3067828251408629,0.9750272429856879,0.28628581538364073,0.6998861549699961
0.051500000000000004,1.7428288501033,1.0,2902.769885901297,0.43975721024217596,1.306375389037933,0.9753485204164463,0.2862518117043386,0.7006827837750484
0.052000000000000005,1.7420192386913438,1.0,2907.477189893358,0.44289973887493594,1.3059682839408244,0.9756614465570657,0.28621780802503644,0.7014777079792954
0.0525,1.7412096272793876,1.0,2912.1511679756145,0.44602463631275546,1.3055615056698113,0.9759663137768743,0.28618380434573426,0.7022709383061156
0.053,1.7404000158674315,1.0,2916.7922060487804,0.44913200116772434,1.3051550500451683,0.9762634016233019,0.28614980066643214,0.703062485433453
0.0535,1.7395904044554753,1.0,2921.400692225279,0.4522219320519324,1.3047489128871697,0.9765529774945112,0.28611579698712997,0.7038523599939039
0.054,1.738780793043519,1.0,2925.9770167997017,0.45529452757746924,1.30434309001609,0.9768352972711912,0.2860817933078278,0.7046405725748028
0.0545,1.7379711816315628,1.0,2930.521572219325,0.45834988635642476,1.3039375772522033,0.9771106059103223,0.2860477896285256,0.7054271337183067
0.055,1.7371615702196066,1.0,2935.0347530551076,0.4613881070008888,1.3035323704157844,0.9773791380035032,0.28601378594922344,0.7062120539214766
0.0555,1.7363519588076504,1.0,2939.5169559734177,0.46440928812295096,1.3031274653271077,0.9776411183022297,0.2859797822699213,0.7069953436363621
0.056,1.7355423473956941,1.0,2943.9681201361823,0.46741348876796884,1.30272286182874,0.9778967588005394,0.28594577859061915,0.7077770055045203
0.0565,1.7347327359837381,1.0,2948.3891562808467,0.4704008167053341,1.3023185512719047,0.9781462667792035,0.28591177491131703,0.7085570585358953
0.057,1.7339231245717819,1.0,2952.7812873572357,0.4733714164952597,1.3019145223103488,0.9783898441417075,0.28587777123201485,0.7093355268434756
0.0575,1.7331135131598256,1.0,2957.144960637881,0.4763253762620074,1.301510770410093,0.9786276799423597,0.2858437675527127,0.7101124213224241
0.058,1.7323039017478694,1.0,2961.480625444294,0.47926278412983897,1.3011072910371575,0.9788599556640686,0.2858097638734105,0.710887752819721
0.0585,1.7314942903359132,1.0,2965.7887331194092,0.48218372822301625,1.3007040796575629,0.9790868455818865,0.28577576019410833,0.7116615321342414
0.059000000000000004,1.7306846789239572,1.0,2970.069737000381,0.48508829666580094,1.3003011317373294,0.9793085171063123,0.2857417565148062,0.712433770016834
0.059500000000000004,1.729875067512001,1.0,2974.324092391804,0.48797657758245483,1.2998984427424776,0.9795251311076405,0.28570775283550404,0.7132044771703983
0.06,1.7290654561000447,1.0,2978.5522565398333,0.4908486590972397,1.2994960081390274,0.9797368422225374,0.28567374915620186,0.7139736642499606
0.0605,1.7282558446880885,1.0,2982.754688605905,0.49370462933441733,1.2990938233929998,0.9799437991439518,0.28563974547689974,0.7147413418627456
0.061,1.7274462332761322,1.0,2986.9318496415603,0.4965445764182495,1.298691883970415,0.9801461448953851,0.28560574179759757,0.7155075205682533
0.0615,1.726636621864176,1.0,2991.0842025636625,0.49936858847299803,1.2982901853372932,0.9803440170904801,0.2855717381182954,0.7162722108783267
0.062,1.72582701045222,1.0,2995.212212130029,0.5021767536229246,1.297888722959655,0.9805375481788208,0.2855377344389932,0.7170354232572256
0.0625,1.7250173990402637,1.0,2999.3163449150798,0.504969159992291,1.2974874923035207,0.9807268656787707,0.28550373075969104,0.7177971681216924
0.063,1.7242077876283075,1.0,3003.397069286827,0.5077458957053591,1.2970864888349105,0.9809120923981284,0.2854697270803889,0.7185574558410224
0.0635,1.7233981762163513,1.0,3007.454855383125,0.5105070488863905,1.2966857080198453,0.9810933466433239,0.28543572340108675,0.7193162967371273
0.064,1.722588564804395,1.0,3011.490175089884,0.5132527076596471,1.296285145324345,0.9812707424178297,0.2854017197217846,0.7200737010846041
0.0645,1.7217789533924388,1.0,3015.5035020183996,0.5159829601493907,1.29588479621443,0.9814443896104182,0.28536771604248246,0.7208296791107949
0.065,1.7209693419804828,1.0,3019.4953114835153,0.518697894479883,1.295484656156121,0.9816143941738565,0.2853337123631803,0.7215842409958511
0.0655,1.7201597305685266,1.0,3023.4660804828995,0.5213975987753858,1.2950847206154386,0.9817808582945902,0.2852997086838781,0.7223373968727953
0.066,1.7193501191565703,1.0,3027.4162876759115,0.5240821611601608,1.2946849850584023,0.9819438805539296,0.28526570500457593,0.7230891568275803
0.0665,1.718540507744614,1.0,3031.346413363234,0.52675166975847,1.2942854449510335,0.982103556081226,0.28523170132527376,0.7238395308991462
0.067,1.7177308963326579,1.0,3035.2569394673487,0.5294062126945749,1.2938860957593519,0.9822599766994875,0.28519769764597164,0.7245885290794805
0.0675,1.7169212849207016,1.0,3039.147153195285,0.5320458070914706,1.2934869432546112,0.9824132269506073,0.28516369396666946,0.7253361420250786
0.068,1.7161116735087454,1.0,3043.0187707224286,0.5346706193199144,1.2930879722853275,0.9825633971288468,0.2851296902873673,0.726082399558913
0.0685,1.7153020620967894,1.0,3046.872119095747,0.5372807308743625,1.292689179691507,0.9827105695657503,0.28509568660806517,0.726827308965283
0.069,1.7144924506848331,1.0,3050.707462897691,0.5398762194034866,1.2922905628600445,0.9828548236078946,0.285061682928763,0.7275708764762703
0.0695,1.713682839272877,1.0,3054.5250676828514,0.542457162555959,1.2918921191778352,0.9829962359550772,0.2850276792494608,0.7283131082967872
0.07,1.7128732278609207,1.0,3058.325199967467,0.5450236379804516,1.291493846031774,0.9831348807667589,0.28499367557015864,0.7290540106046061
0.07050000000000001,1.7120636164489644,1.0,3062.1081272198885,0.5475757233256365,1.2910957408087558,0.9832708297635323,0.28495967189085647,0.729793589550388
0.07100000000000001,1.7112540050370084,1.0,3065.874117850424,0.5501134962401858,1.2906978008956753,0.9834041523238791,0.28492566821155435,0.7305318512577115
