Time [s],Phi [rad],STIM [ ],Fsee [N],Gamma [ ],Lcerel [ ],q [ ],Lmtc [m],fisomrel [ ]
0.0,1.8,1.0,17.967172396074453,1.7696512664172173e-05,1.3793397446256541,0.0050000830893423215,0.288653,0.541139534908621
0.0005,1.79999375,1.0,18.2790978000058,0.0056268065580203225,1.3793021263527827,0.012961895510304272,0.2886527375,0.5412305387253116
0.001,1.799975,1.0,21.626454112288705,0.011204453930905769,1.3789374776980297,0.035648695535697564,0.28865195,0.5421122066194366
0.0015,1.79994375,1.0,31.089396398342725,0.016750815112905704,1.3780444864111683,0.07065661804806453,0.2886506375,0.5442677496623597
0.002,1.7999,1.0,53.62659729085071,0.02226606559393997,1.3763652641969206,0.11478286932895307,0.2886488,0.5483073593940757
0.0025,1.79984375,1.0,97.19375978203581,0.02775037987988338,1.373931562453595,0.16464542415102335,0.28864643749999996,0.5541300593144551
0.003,1.7997750000000001,1.0,161.0559671316366,0.03320393150020969,1.3712106835534748,0.21735321815794076,0.28864354999999997,0.5605951161216902
0.0035,1.79969375,1.0,237.79407800116704,0.03862689300763982,1.3685813233465554,0.27068526142114124,0.2886401375,0.5667978573982845
0.004,1.7996,1.0,321.5847619610509,0.04401943598890961,1.366152967561961,0.32298587934036604,0.2886362,0.572487258755005
0.0045000000000000005,1.7994937500000001,1.0,409.39006854263295,0.04938173106995836,1.3639199431171751,0.3731010306109167,0.2886317375,0.5776858258979338
0.005,1.799375,1.0,499.5384017358278,0.054713947907034405,1.36185568844978,0.4203096990591624,0.28862675,0.5824632038792592
0.0055,1.79924375,1.0,590.9165213392765,0.060016255233855814,1.3599363713991703,0.4642313219418583,0.2886212375,0.5868807670408116
0.006,1.7991000000000001,1.0,682.6444462022387,0.06528882080554824,1.3581441183673881,0.5047329184958289,0.2886152,0.5909846635167293
0.006500000000000001,1.79894375,1.0,774.009039850886,0.07053181145168895,1.3564650723849065,0.5418491579279309,0.2886086375,0.5948107530919112
0.007,1.798775,1.0,864.4147191508297,0.07574539307226341,1.354888312797597,0.5757208606165719,0.28860155,0.5983873897948818
0.0075,1.79859375,1.0,953.3714411440793,0.08092973061402876,1.3534048070131697,0.6065499935542285,0.2885939375,0.6017380177933174
0.008,1.7984,1.0,1040.4847939494134,0.0860849881236864,1.352006786308561,0.634568468378947,0.2885858,0.6048827244665789
0.0085,1.79819375,1.0,1125.4435343941793,0.09121132872185682,1.3506874110410712,0.6600174646191913,0.2885771375,0.6078390935500982
0.009000000000000001,1.797975,1.0,1207.9988182132379,0.09630891434358452,1.3494406873121039,0.6831344160986856,0.28856795,0.6106224682743764
0.0095,1.79774375,1.0,1287.982031659981,0.10137790656779222,1.348260935186752,0.7041450063609495,0.2885582375,0.6132471971391865
0.01,1.7975,1.0,1365.279839053036,0.10641846657766882,1.3471429356555351,0.7232591222760428,0.288548,0.6157263463790084
0.0105,1.79724375,1.0,1439.7759443013895,0.11143075272958414,1.3460824890170149,0.7406693122993945,0.2885372375,0.6180705063641192
0.011,1.796975,1.0,1511.417019790003,0.11641492337990803,1.3450753955697523,0.7565499137517403,0.28852595000000003,0.6202900872843717
0.0115,1.79669375,1.0,1580.2002370396265,0.121371136594036,1.3441175366108344,0.7710576845243837,0.2885141375,0.6223951562400862
0.012,1.7964,1.0,1646.1436618464002,0.12629954983252356,1.343205150735216,0.7843330106402919,0.28850180000000003,0.6243948485612807
0.0125,1.79609375,1.0,1709.2643845747084,0.1312003189258106,1.3423349962986681,0.7965012796594377,0.2884889375,0.6262970354247158
0.013000000000000001,1.7957750000000001,1.0,1769.584933490056,0.136073598207877,1.3415041879290572,0.8076741970229335,0.28847555,0.6281087041674591
0.0135,1.79544375,1.0,1827.1594710322443,0.1409195420127026,1.3407098402542497,0.8179510384964317,0.2884616375,0.629836749853073
0.014,1.7951000000000001,1.0,1882.0526265153414,0.14573830356913767,1.3399492691115047,0.8274200709739103,0.2884472,0.6314875460157965
0.0145,1.79474375,1.0,1934.3571242853436,0.15053003673974316,1.3392197594219075,0.8361597059144514,0.2884322375,0.6330674579647424
0.015,1.794375,1.0,1984.1277497669823,0.15529489198777086,1.338519246973578,0.8442398641168034,0.28841675,0.6345813757284492
0.0155,1.79399375,1.0,2031.4347793906156,0.16003301962382127,1.3378456948784896,0.8517227529690788,0.2884007375,0.6360340766966535
0.016,1.7936,1.0,2076.364921582142,0.16474456995849496,1.3371970662486155,0.8586637684894131,0.2883842,0.63743028862668
0.0165,1.7931937500000001,1.0,2119.0031752800032,0.1694296917168474,1.3365714966314255,0.8651123533146958,0.2883671375,0.6387743228803646
0.017,1.792775,1.0,2159.4538082485337,0.17408853506146565,1.3359670578753995,0.8711126337601817,0.28834955,0.6400705868065943
0.0175,1.7923437500000001,1.0,2197.7835954605443,0.17872124597092726,1.3353823242658904,0.8767042025150799,0.2883314375,0.6413223742666108
0.018000000000000002,1.7919,1.0,2234.06853209479,0.18332797040997106,1.3348158715946337,0.8819225116957475,0.2883128,0.6425329468377736
0.0185,1.79144375,1.0,2268.3932000831587,0.187908854343336,1.3342662756533643,0.8867993560416302,0.2882936375,0.643705538778154
0.019,1.790975,1.0,2300.838360927712,0.1924640423410511,1.3337322278102643,0.8913633244603058,0.28827395,0.6448431126300951
0.0195,1.79049375,1.0,2331.499635446328,0.19699368070564569,1.3332123407164287,0.8956401217055134,0.2882537375,0.64594877549196
0.02,1.79,1.0,2360.450240785691,0.20149791232642747,1.3327055091256874,0.8996529775011852,0.288233,0.6470250133846209
0.0205,1.78949375,1.0,2387.755405002559,0.20597687842951024,1.3322107559945346,0.9034228875648858,0.2882117375,0.6480740229640937
0.021,1.788975,1.0,2413.484830425413,0.21043072024100778,1.3317271042794647,0.9069688331886798,0.28818995000000003,0.6490979856070189
0.021500000000000002,1.78844375,1.0,2437.7123202986018,0.214859578987034,1.331253576936971,0.9103080021422225,0.2881676375,0.6500990681328513
0.022,1.7879,1.0,2460.5090268491645,0.21926359452990513,1.3307892581920304,0.9134559946350506,0.2881448,0.651079294211627
0.0225,1.78734375,1.0,2481.9480186064216,0.22364290797384606,1.3303332455198593,0.9164269846786485,0.28812143749999997,0.6520406470163149
0.023,1.786775,1.0,2502.094308160479,0.22799765864170793,1.3298847412769141,0.919233886245321,0.28809755,0.6529848771449727
0.0235,1.78619375,1.0,2521.0016781937366,0.23232798266300214,1.3294430781926025,0.9218884876694158,0.28807313749999996,0.6539134509916542
0.024,1.7856,1.0,2538.726046581096,0.23663401616724009,1.3290075889963315,0.9244015444178371,0.2880482,0.6548278264758323
0.0245,1.78499375,1.0,2555.325286598372,0.2409158952839332,1.3285776064175088,0.9267828838138613,0.2880227375,0.6557294533193263
0.025,1.784375,1.0,2570.8590570021765,0.24517375614259282,1.3281524631855415,0.9290414978740401,0.28799675,0.6566197732948401
0.025500000000000002,1.78374375,1.0,2585.376361655123,0.24940773174784897,1.3277316067223104,0.9311856434755144,0.2879702375,0.657499980724531
0.026000000000000002,1.7831000000000001,1.0,2598.939367164463,0.25361796040080703,1.3273143743797724,0.9332228805947751,0.2879432,0.6583714933813081
0.0265,1.78244375,1.0,2611.5952272072273,0.2578045753346968,1.32690025549917,0.935160176605283,0.2879156375,0.6592354048296473
0.027,1.781775,1.0,2623.3829305108684,0.261967707048823,1.3264888249884936,0.9370039525224776,0.28788755,0.6600926248649004
0.0275,1.7810937500000001,1.0,2634.3423563294955,0.26610748604249035,1.3260796577557346,0.9387601219574154,0.2878589375,0.6609440586667826
0.028,1.7804,1.0,2644.5141979043715,0.27022404281500345,1.3256723287088836,0.9404341379225234,0.2878298,0.6617906068664952
0.0285,1.77969375,1.0,2653.9398899305515,0.2743175078656671,1.3252664127559317,0.9420310347531079,0.2878001375,0.662633165602321
0.029,1.778975,1.0,2662.6615400301807,0.27838801169378596,1.3248614848048696,0.9435554657073869,0.28776995,0.6634726265636972
0.029500000000000002,1.7782437500000001,1.0,2670.7012342903945,0.28243568089574483,1.3244573093346828,0.945011761296658,0.2877392375,0.6643094847554145
0.03,1.7775,1.0,2678.124992381701,0.2864606484048884,1.3240532516486905,0.9464038816626081,0.287708,0.6651450577037963
0.0305,1.7767495814321557,1.0,2685.2311708450493,0.2904630419520131,1.323649187060943,0.947735564896627,0.28767648242015054,0.6659796036823684
0.031,1.7759991556113779,1.0,2692.338379749223,0.2944429860200026,1.3232451959373246,0.9490103058471339,0.2876449645356779,0.6668129569625021
0.0315,1.7752487297906,1.0,2699.4381515569353,0.2984006050917405,1.3228413586437189,0.9502313514001031,0.2876134466512052,0.6676449526437427
0.032,1.774498303969822,1.0,2706.5216156156566,0.30233602365011036,1.3224377555460098,0.9514017211344094,0.2875819287667325,0.6684754266532258
0.0325,1.7737478781490443,1.0,2713.5798554540033,0.30624936617799603,1.3220344670100814,0.9525242260194514,0.28755041088225985,0.6693042157446836
0.033,1.7729974523282666,1.0,2720.6039092703395,0.310140757158281,1.3216315734018176,0.9536014853614432,0.2875188929977872,0.6701311574970383
0.0335,1.7722470265074888,1.0,2727.584770565136,0.31401032107384896,1.321229155087102,0.9546359421809901,0.2874873751133145,0.6709560903125846
0.034,1.771496600686711,1.0,2734.51718470352,0.317858179284297,1.320827257961202,0.9556298724883819,0.28745585722884187,0.6717789239448227
0.0345,1.7707461748659332,1.0,2741.3944722367273,0.321684456186295,1.3204259406251833,0.9565854052836676,0.2874243393443692,0.6725995426481713
0.035,1.7699957490451552,1.0,2748.2138852675052,0.3254892712315757,1.32002522579078,0.9575045266041843,0.28739282145989653,0.6734179045202814
0.035500000000000004,1.7692453232243774,1.0,2754.9727417858335,0.3292727437865347,1.3196251354822717,0.9583890955176221,0.28736130357542383,0.6742339692855213
0.036000000000000004,1.7684948974035997,1.0,2761.6683503646063,0.3330349932175675,1.3192256917239378,0.9592408537921479,0.2873297856909512,0.6750476968857572
0.0365,1.7677444715828219,1.0,2768.2980104697067,0.33677613889106955,1.3188269165400572,0.9600614346388052,0.2872982678064785,0.6758590474794623
0.037,1.766994045762044,1.0,2774.8608771119098,0.34049629308031265,1.3184288151479266,0.9608523674726739,0.28726674992200585,0.6766680155723456
0.0375,1.7662436199412663,1.0,2781.355099903259,0.34419557458643224,1.318031401820331,0.9616150910562317,0.2872352320375332,0.6774745773475612
0.038,1.7654931941204886,1.0,2787.7757617313787,0.3478741167307489,1.3176347183738424,0.9623509633319889,0.2872037141530605,0.6782786533277099
0.0385,1.7647427682997106,1.0,2794.1233886119207,0.35153203196191707,1.3172387575626694,0.963061252553117,0.2871721962685878,0.6790802637120341
0.039,1.7639923424789328,1.0,2800.398513723774,0.35516943272859103,1.3168435121410207,0.9637471526165065,0.28714067838411517,0.6798794286165271
0.0395,1.763241916658155,1.0,2806.6016772937905,0.3587864314794253,1.3164489748631043,0.9644097882277352,0.2871091604996425,0.6806761680742679
0.04,1.7624914908373772,1.0,2812.7334264819738,0.36238314066307425,1.3160551384831292,0.9650502196541242,0.2870776426151698,0.6814705020357463
0.0405,1.7617410650165994,1.0,2818.7943152691605,0.36595967272819224,1.3156619957553033,0.9656694471027695,0.2870461247306972,0.682262450369193
0.041,1.7609906391958217,1.0,2824.7849043439405,0.36951614012343376,1.3152695394338356,0.9662684147567852,0.2870146068462245,0.6830520328608967
0.0415,1.7602402133750439,1.0,2830.705760992735,0.37305265529745313,1.3148777622729344,0.9668480144997448,0.28698308896175184,0.6838392692155275
0.042,1.7594897875542659,1.0,2836.557458989441,0.3765693306989048,1.3144866570268081,0.9674090893553987,0.28695157107727914,0.6846241790564501
0.0425,1.758739361733488,1.0,2842.3405784873394,0.38006627877644317,1.3140962164496655,0.967952436667144,0.2869200531928065,0.6854067819260361
0.043000000000000003,1.7579889359127103,1.0,2848.0557059114326,0.3835436119787226,1.3137064332957145,0.9684788110394027,0.2868885353083338,0.686187097285974
0.043500000000000004,1.7572385100919325,1.0,2853.7034224700806,0.38700144136950765,1.31331730042035,0.9689889268548713,0.28685701742386116,0.6869651443153831
0.044,1.7564880842711548,1.0,2859.2846957170063,0.3904398423669097,1.3129288073012855,0.9694834553787328,0.2868254995393885,0.6877409488552135
0.0445,1.755737658450377,1.0,2864.801630647663,0.3938589764111811,1.3125409333898987,0.9699630451675458,0.2867939816549158,0.6885145566191673
0.045,1.754987232629599,1.0,2870.255444766701,0.39725894650866894,1.31215366610646,0.9704283033509056,0.2867624637704431,0.6892859972458443
0.0455,1.7542368068088212,1.0,2875.6473634564704,0.4006398556657202,1.311766992871239,0.9708798062508367,0.2867309458859705,0.6900553002424261
0.046,1.7534863809880434,1.0,2880.978619809508,0.404001806888682,1.3113809011045063,0.9713181012430804,0.28669942800149784,0.6908224949851584
0.0465,1.7527359551672657,1.0,2886.25045446481,0.40734490318390126,1.310995378226532,0.9717437084886917,0.28666791011702514,0.6915876107198224
0.047,1.7519855293464879,1.0,2891.46411544744,0.4106692475577252,1.3106104116575863,0.9721571225461345,0.2866363922325525,0.6923506765621964
0.0475,1.75123510352571,1.0,2896.620858011311,0.4139749430165008,1.3102259888179393,0.9725588138731844,0.2866048743480798,0.6931117214985071
0.048,1.7504846777049323,1.0,2901.721944486185,0.4172620925665751,1.3098420971278613,0.9729492302271333,0.28657335646360715,0.6938707743858705
0.0485,1.7497342518841543,1.0,2906.7686441275,0.4205307992142952,1.3094587240076225,0.9733287979710754,0.2865418385791345,0.6946278639527236
0.049,1.7489838260633765,1.0,2911.762232969919,0.4237811659660081,1.309075856877493,0.9736979232933783,0.2865103206946618,0.6953830187992458
0.0495,1.7482334002425988,1.0,2916.7039936847823,0.4270132958280609,1.308693483157743,0.9740569933468647,0.2864788028101891,0.6961362673977686
0.05,1.747482974421821,1.0,2921.595215440536,0.4302272918068007,1.3083115902686426,0.974406377313669,0.28644728492571647,0.6968876380931781
0.0505,1.7467325486010432,1.0,2926.4371937666638,0.4334232569085744,1.3079301656304623,0.9747464274012521,0.28641576704124383,0.6976371591033039
0.051000000000000004,1.7459821227802654,1.0,2931.2312304216016,0.43660129413972926,1.307549196663472,0.9750774797746018,0.28638424915677113,0.6983848585193018
0.051500000000000004,1.7452316969594874,1.0,2935.9786332640297,0.43976150650661217,1.307168670787942,0.9753998554292427,0.2863527312722985,0.6991307643060234
0.052000000000000005,1.7444812711387097,1.0,2940.6807161270576,0.4429039970155703,1.3067885754241422,0.9757138610093026,0.2863212133878258,0.6998749043023771
0.0525,1.7437308453179319,1.0,2945.3354834124552,0.4460287919964984,1.3064089270018713,0.9760197833732107,0.28628969550335315,0.7006172495330418
0.053,1.742980419497154,1.0,2949.9481380958323,0.4491360797142034,1.3060296789703265,0.9763179097517805,0.28625817761888045,0.7013578940985934
0.0535,1.7422299936763763,1.0,2954.52007575781,0.4522259657086905,1.3056508181980968,0.9766085083207136,0.2862266597344078,0.7020968665013838
0.054,1.7414795678555985,1.0,2959.0520857566185,0.45529854178907836,1.3052723368955848,0.9768918346530128,0.2861951418499351,0.7028341847139943
0.0545,1.7407291420348208,1.0,2963.5449611559443,0.4583538997644855,1.304894227273193,0.9771681334344635,0.28616362396546247,0.7035698666310031
0.055,1.739978716214043,1.0,2967.999498659689,0.46139213144403046,1.3045164815413244,0.9774376390186255,0.2861321060809898,0.7043039300691718
0.0555,1.739228290393265,1.0,2972.4164985487937,0.4644133286368318,1.3041390919103812,0.977700575949068,0.2861005881965171,0.7050363927676297
0.056,1.7384778645724872,1.0,2976.7967646188904,0.4674175831520081,1.3037620505907668,0.977957159451035,0.2860690703120444,0.7057672723880499
0.0565,1.7377274387517094,1.0,2981.1411041196498,0.47040498679867787,1.3033853497928831,0.978207595894565,0.2860375524275718,0.7064965865148277
0.057,1.7369770129309317,1.0,2985.450327694952,0.4733756313859597,1.3030089817271333,0.9784520832309467,0.28600603454309914,0.7072243526552482
0.0575,1.7362265871101539,1.0,2989.7252493249557,0.4763296087229722,1.30263293860392,0.9786908114042492,0.28597451665862644,0.7079505882396557
0.058,1.735476161289376,1.0,2993.96668626951,0.4792670106188338,1.3022572126336456,0.9789239627395359,0.2859429987741538,0.7086753106216173
0.0585,1.734725735468598,1.0,2998.175459012297,0.48218792888266315,1.3018817960267128,0.979151712309263,0.2859114808896811,0.7093985370780809
0.059000000000000004,1.7339753096478203,1.0,3002.3523912070727,0.4850924553235788,1.3015066809935247,0.9793742282792535,0.28587996300520846,0.7101202848095309
0.059500000000000004,1.7332248838270425,1.0,3006.4983096247042,0.48798068175069925,1.3011318597444839,0.9795916722355302,0.2858484451207358,0.710840570940142
0.06,1.7324744580062648,1.0,3010.6140441017237,0.49085269997314307,1.3007573244899926,0.9798041994932183,0.2858169272362631,0.7115594125179251
0.0605,1.731724032185487,1.0,3014.7004274905726,0.49370860180002885,1.300383067440454,0.9800119593886238,0.2857854093517904,0.7122768265148715
0.061,1.7309736063647092,1.0,3018.758295610708,0.4965484790404751,1.3000090808062703,0.9802150955555357,0.2857538914673178,0.7129928298270943
0.0615,1.7302231805439314,1.0,3022.78848720092,0.49937242350360045,1.2996353567978445,0.9804137461867094,0.28572237358284513,0.7137074392749632
0.062,1.7294727547231534,1.0,3026.791843873642,0.5021805269985234,1.2992618876255793,0.9806080442814431,0.28569085569837244,0.7144206716032372
0.0625,1.7287223289023756,1.0,3030.7692100704767,0.5049728813343625,1.2988886654998772,0.9807981178800758,0.2856593378138998,0.7151325434811941
0.063,1.7279719030815979,1.0,3034.721433018233,0.5077495783202364,1.2985156826311413,0.9809840902862016,0.2856278199294271,0.7158430715027544
0.0635,1.72722147726082,1.0,3038.649038239601,0.5105106985334461,1.29814293402484,0.981166079606154,0.28559630204495445,0.7165522668720021
0.064,1.7264710514400423,1.0,3042.5513490929793,0.5132562885935747,1.2977704250523412,0.9813441977590565,0.28556478416048175,0.7172601210591456
0.0645,1.7257206256192645,1.0,3046.430774738629,0.5159865036657018,1.297398134524764,0.9815185589945578,0.2855332662760091,0.7179666759604284
0.065,1.7249701997984865,1.0,3050.287708515623,0.5187014248259465,1.2970260586428932,0.9816892690931845,0.2855017483915364,0.7186719403286626
0.0655,1.7242197739777088,1.0,3054.122545191301,0.5214011331504282,1.296654193607514,0.9818564300858349,0.28547023050706377,0.7193759228797054
0.066,1.723469348156931,1.0,3057.9356809426577,0.5240857097152666,1.2962825356194112,0.9820201404136769,0.28543871262259113,0.7200786322925139
0.0665,1.7227189223361532,1.0,3061.727513339016,0.5267552355965809,1.2959110808793703,0.9821804950801257,0.28540719473811843,0.7207800772091925
0.067,1.7219684965153754,1.0,3065.498441324923,0.5294097918704905,1.295539825588176,0.982337585795349,0.28537567685364573,0.7214802662350462
0.0675,1.7212180706945976,1.0,3069.2488652030165,0.5320494596131151,1.2951687659466133,0.9824915011137162,0.2853441589691731,0.7221792079386269
0.068,1.7204676448738199,1.0,3072.9791866171395,0.5346743199005739,1.2947978981554678,0.9826423265645834,0.28531264108470045,0.7228769108517809
0.0685,1.7197172190530419,1.0,3076.6898085364014,0.5372844538089864,1.2944272184155239,0.9827901447767811,0.28528112320022775,0.7235733834696984
0.069,1.718966793232264,1.0,3080.381135239216,0.539879942414472,1.294056722927567,0.9829350355971488,0.2852496053157551,0.724268634250957
0.0695,1.7182163674114863,1.0,3084.0535722971294,0.5424608667931501,1.293686407892382,0.9830770762034418,0.2852180874312824,0.7249626716175683
0.07,1.7174659415907085,1.0,3087.707526560056,0.5450273080211402,1.293316269510754,0.9832163412119108,0.28518656954680977,0.7256555039550213
0.07050000000000001,1.7167155157699308,1.0,3091.3434061407825,0.5475793471745618,1.292946303983468,0.9833529027798447,0.2851550516623371,0.7263471396123262
0.07100000000000001,1.715965089949153,1.0,3094.961620400387,0.5501170653295341,1.2925765075113091,0.983486830703339,0.2851235337778644,0.7270375869020563
