Time [s],Phi [rad],STIM [ ],Fsee [N],Gamma [ ],Lcerel [ ],q [ ],Lmtc [m],fisomrel [ ]
0.0,1.8,1.0,17.966727180409443,1.0538945019130967e-05,1.3793397945049872,0.00500002958969797,0.288653,0.5411394142376087
0.0005,1.79999375,1.0,18.276280474558224,0.0056196891386669215,1.37930243929471,0.012942011674265685,0.2886527375,0.5412297817126367
0.001,1.799975,1.0,21.61832476364854,0.011197376434647648,1.3789383079143889,0.03561138958230574,0.28865195,0.5421102002390938
0.0015,1.79994375,1.0,31.0699427866599,0.01674377731580252,1.3780461435138853,0.0706055574104543,0.2886506375,0.5442637543822666
0.002,1.7999,1.0,53.58452134038756,0.022259067273319933,1.376367993277794,0.11472239952555216,0.2886488,0.5483008087884136
0.0025,1.79984375,1.0,97.12287546398287,0.0277434208143042,1.3739349775074579,0.1645796374799327,0.28864643749999996,0.5541219151674011
0.003,1.7997750000000001,1.0,160.9636223718114,0.03319701146948686,1.371214139551538,0.21728534709970646,0.28864354999999997,0.560586934301694
0.0035,1.79969375,1.0,237.6896805671886,0.03862001179282225,1.3685845386677191,0.27061775366830165,0.2886401375,0.5667902992828593
0.004,1.7996,1.0,321.473665735442,0.04401259337226883,1.3661559097909137,0.32292051140563965,0.2886362,0.5724803881542992
0.0045000000000000005,1.7994937500000001,1.0,409.2750121361525,0.04937492683497376,1.3639226437158454,0.37303897784201334,0.2886317375,0.5776795580066003
0.005,1.799375,1.0,499.42100176875687,0.054707181838366634,1.3618581830240128,0.420251642978638,0.28862675,0.5824574469979593
0.0055,1.79924375,1.0,590.7980552644318,0.06000952711758862,1.3599386858080094,0.4641775706120352,0.2886212375,0.5868754542691426
0.006,1.7991000000000001,1.0,682.5258193954511,0.0652821304287356,1.3581462745811135,0.5046835212352148,0.2886152,0.5909797385321099
0.006500000000000001,1.79894375,1.0,773.8890876589494,0.0705251586052646,1.3564671199578267,0.5418040141017898,0.2886086375,0.5948060981791213
0.007,1.798775,1.0,864.2936018902388,0.07573877753612245,1.3548902691521005,0.5756797470382632,0.28860155,0.5983829619296864
0.0075,1.79859375,1.0,953.2503972100563,0.08092315218630604,1.3534066687278559,0.606512619455133,0.2885939375,0.6017338217432384
0.008,1.7984,1.0,1040.366538527656,0.08607844659931509,1.3520085273251568,0.6345345075068864,0.2885858,0.6048788159769591
0.0085,1.79819375,1.0,1125.328919153131,0.09120482389089328,1.3506890335195783,0.6599866073984472,0.2885771375,0.6078354648249494
0.009000000000000001,1.797975,1.0,1207.8926791259476,0.09630244619945666,1.349442137549207,0.6831063341765788,0.28856795,0.6106192363043403
0.0095,1.79774375,1.0,1287.8841515691859,0.10137147493154511,1.3482622303815477,0.7041194309409343,0.2885582375,0.6132443204389981
0.01,1.7975,1.0,1365.1709814663423,0.10641207055469833,1.3471443347398853,0.7232359287519464,0.288548,0.6157232489094467
0.0105,1.79724375,1.0,1439.661259224444,0.11142439220719409,1.346083924359304,0.7406482240874778,0.2885372375,0.6180673383292845
0.011,1.796975,1.0,1511.3100198918062,0.11640859844313486,1.345076702601916,0.7565306358899503,0.28852595000000003,0.6202872108462656
0.0115,1.79669375,1.0,1580.1135854424854,0.12136484791128785,1.3441185717859954,0.7710399650823498,0.2885141375,0.6223928844131594
0.012,1.7964,1.0,1646.058135583294,0.12629329660193253,1.343206151791852,0.7843167895538388,0.28850180000000003,0.6243926574369522
0.0125,1.79609375,1.0,1709.164566042598,0.13119410020353084,1.3423361428678808,0.7964864777545505,0.2884889375,0.62629453216308
0.013000000000000001,1.7957750000000001,1.0,1769.4839518850924,0.13606741423099653,1.3415053279166822,0.8076606115549089,0.28847555,0.6281062213154316
0.0135,1.79544375,1.0,1827.0685954579162,0.14091339300400715,1.340710849859778,0.8179385005593118,0.2884616375,0.6298345560836347
0.014,1.7951000000000001,1.0,1881.9743431467898,0.14573218956882186,1.3399501260418414,0.8274084683283901,0.2884472,0.6314856881509444
0.0145,1.79474375,1.0,1934.2722771736644,0.15052395634623744,1.3392206755598597,0.8361490201093649,0.2884322375,0.6330654759971697
0.015,1.794375,1.0,1984.0460661382904,0.1552888455486129,1.3385201178209687,0.8442299727545346,0.28841675,0.6345794956329002
0.0155,1.79399375,1.0,2031.361281371386,0.16002700725191216,1.3378464692787664,0.8517135644389909,0.2884007375,0.6360324081501008
0.016,1.7936,1.0,2076.297336524009,0.16473859133939397,1.337197770600632,0.8586552252294111,0.2883842,0.6374287739220779
0.0165,1.7931937500000001,1.0,2118.938778130998,0.16942374658643436,1.3365721609731274,0.865104405163705,0.2883671375,0.6387728968682373
0.017,1.792775,1.0,2159.3934758965956,0.17408262337143188,1.3359676744259759,0.8711052250482042,0.28834955,0.6400692657551068
0.0175,1.7923437500000001,1.0,2197.7273122054125,0.17871536757394477,1.3353828943998387,0.8766972859086039,0.2883314375,0.6413211547958758
0.018000000000000002,1.7919,1.0,2234.0155078851803,0.18332212507353132,1.3348164043353776,0.8819160467733199,0.2883128,0.6425318092727326
0.0185,1.79144375,1.0,2268.3418482248144,0.18790304174974978,1.3342667876732546,0.8867933084463208,0.2882936375,0.6437044472531994
0.019,1.790975,1.0,2300.7903054437224,0.1924582625273248,1.3337327035720403,0.8913576554822079,0.28827395,0.6448421000207164
0.0195,1.79049375,1.0,2331.4507846439583,0.1969879328800992,1.3332128211614291,0.8956348095427185,0.2882537375,0.6459477545077852
0.02,1.79,1.0,2360.4034692965256,0.20149219666602763,1.3327059662910332,0.8996479870485145,0.288233,0.64702404334933
0.0205,1.78949375,1.0,2387.712127849264,0.20597119495359126,1.3322111765788893,0.9034181903220305,0.2882117375,0.6480731318752233
0.021,1.788975,1.0,2413.4449643236435,0.21042506881127115,1.3317274896430342,0.9069644064875092,0.28818995000000003,0.6490971703288604
0.021500000000000002,1.78844375,1.0,2437.674250688457,0.2148539593075484,1.3312539431015051,0.9103038284657533,0.2881676375,0.6500982945781404
0.022,1.7879,1.0,2460.4717562520805,0.21925800672185528,1.3307896150068566,0.9134520571041159,0.2881448,0.6510785414656111
0.0225,1.78734375,1.0,2481.906991502165,0.22363735090851933,1.3303336365981397,0.9164232738749641,0.28812143749999997,0.6520398231245158
0.023,1.786775,1.0,2502.054254895091,0.227992132575867,1.3298851215321537,0.9192303772071952,0.28809755,0.6529840771419522
0.0235,1.78619375,1.0,2520.965620982461,0.23232248769455968,1.329443419224105,0.9218851606819991,0.28807313749999996,0.6539127344704422
0.024,1.7856,1.0,2538.6952674555587,0.23662855223525875,1.3290078790892,0.9243983844475375,0.2880482,0.654827217784523
0.0245,1.78499375,1.0,2555.299300138827,0.24091046216862555,1.3285778505426458,0.9267798800058047,0.2880227375,0.6557289417499195
0.025,1.784375,1.0,2570.8355873676423,0.24516835346532148,1.328152682999649,0.9290386431054402,0.28799675,0.6566193132657265
0.025500000000000002,1.78374375,1.0,2585.3555115118756,0.24940236019321527,1.3277318014534518,0.931182927986679,0.2879702375,0.6574995737119746
0.026000000000000002,1.7831000000000001,1.0,2598.9158136044534,0.25361261844192795,1.327314593784937,0.9332203026135096,0.2879432,0.658371035380745
0.0265,1.78244375,1.0,2611.57043349877,0.25779926293874594,1.3269004858962472,0.9351577251082214,0.2879156375,0.6592349244923389
0.027,1.781775,1.0,2623.35803364109,0.26196242418028226,1.326489055823841,0.9370016178387546,0.28788755,0.6600921442195692
0.0275,1.7810937500000001,1.0,2634.3181626564774,0.26610223266314964,1.3260798816041761,0.9387578956398894,0.2878589375,0.6609435931537198
0.028,1.7804,1.0,2644.4911794566574,0.27021881888396104,1.3256725412737111,0.9404320126323568,0.2878298,0.6617901653709277
0.0285,1.77969375,1.0,2653.9181812955194,0.2743123133393292,1.325266612868904,0.9420290041562326,0.2878001375,0.6626327504872149
0.029,1.778975,1.0,2662.6409357720145,0.27838284652586703,1.324861674426213,0.9435535243815483,0.28776995,0.6634722337021596
0.029500000000000002,1.7782437500000001,1.0,2670.695671840254,0.2824305457016955,1.3244573604488254,0.9450098866436705,0.2877392375,0.6643093789878219
0.03,1.7775,1.0,2678.124466948006,0.2864555430975119,1.3240532564702765,0.9464020819164836,0.287708,0.6651450477391876
0.0305,1.77674375,1.0,2684.9575461953373,0.2904579650496434,1.3236490611372638,0.9477338241640423,0.2876762375,0.6659798636000245
0.031,1.775975,1.0,2691.223128284865,0.2944379365650207,1.323244494944004,0.9490085635458166,0.28764395,0.6668144020675884
0.0315,1.7751937500000001,1.0,2696.9497659176977,0.2983955826505748,1.3228392783847147,0.9502295062667063,0.2876111375,0.667649235752668
0.032,1.7744,1.0,2702.16631397479,0.30233102831323644,1.3224331319536125,0.9513996348423225,0.2875778,0.6684849343704858
0.0325,1.77359375,1.0,2706.9018994297708,0.30624439855993646,1.3220257761449146,0.9525217264458901,0.2875439375,0.6693220647266116
0.033,1.772775,1.0,2711.184058487141,0.31013581688029734,1.3216169481840394,0.953598371064756,0.28750955,0.6701611563800539
0.0335,1.7719437500000002,1.0,2715.035586337688,0.31400540291555545,1.3212064304362112,0.9546319890734357,0.2874746375,0.6710026436429446
0.034,1.7711000000000001,1.0,2718.493027653843,0.317853290170919,1.3207938816369649,0.9556248303750262,0.2874392,0.6718472114294929
0.0345,1.7702437500000001,1.0,2721.5740134209486,0.32167959730303786,1.3203791344007836,0.9565790130266434,0.2874032375,0.6726951857162138
0.035,1.7693750000000001,1.0,2724.2962979085614,0.32548444296856177,1.3199620213421503,0.9574965182579324,0.28736675,0.6735468906206803
0.035500000000000004,1.76849375,1.0,2726.677746189436,0.3292679458241407,1.3195423750755477,0.9583792008946413,0.2873297375,0.6744026483771619
0.036000000000000004,1.7676,1.0,2728.736322279781,0.3330302245264244,1.319120028215459,0.9592287988735462,0.2872922,0.6752627793104742
0.0365,1.76669375,1.0,2730.4900779011696,0.33677139773206277,1.3186948133763667,0.960046941937324,0.2872541375,0.6761276018080447
0.037,1.765775,1.0,2731.9571418628666,0.3404915840977057,1.318266563172754,0.9608351595884684,0.28721555,0.6769974322901895
0.0375,1.76484375,1.0,2733.155710066072,0.34419090228000293,1.3178351102191035,0.9615948883729528,0.2871764375,0.6778725851786045
0.038,1.7639,1.0,2734.1040361289038,0.34786947093560444,1.3174002871298984,0.9623274785569162,0.28713679999999997,0.6787533728630677
0.0385,1.76294375,1.0,2734.8080270592536,0.35152739586257015,1.3169620390811794,0.9630342082847959,0.28709663750000003,0.6796398781297861
0.039,1.761975,1.0,2735.2962216893416,0.35516480884153817,1.3165201060827971,0.9637162667872409,0.28705595,0.6805325970833382
0.0395,1.7609937500000001,1.0,2735.583111824571,0.3587818262418794,1.3160743560312984,0.9643747829866731,0.2870147375,0.6814317648577807
0.04,1.76,1.0,2735.6783804594397,0.36237855919278356,1.3156247007237059,0.9650108240101706,0.286973,0.6823375264447421
0.0405,1.7589937500000001,1.0,2735.59173209864,0.3659551188234404,1.3151710519570416,0.9656253964665468,0.2869307375,0.6832500255366447
0.041,1.757975,1.0,2735.3328894406523,0.3695116162630396,1.3147133215283284,0.9662194505106863,0.28688795,0.6841694045044866
0.0415,1.75694375,1.0,2734.9115902338026,0.37304816264077084,1.3142514212345888,0.9667938835940652,0.2868446375,0.6850958043751308
0.042,1.7559,1.0,2734.3375843052704,0.376564869085824,1.3137852628728455,0.9673495439286899,0.28680079999999997,0.6860293648080972
0.0425,1.75484375,1.0,2733.6206307621514,0.38006184672738863,1.3133147582401208,0.9678872336890758,0.2867564375,0.686970224071858
0.043000000000000003,1.753775,1.0,2732.770495364818,0.3835392066946545,1.3128398191334374,0.9684077119745463,0.28671155,0.6879185190196371
0.043500000000000004,1.75269375,1.0,2731.796948073556,0.3869970601168114,1.3123603573498175,0.9689116975520405,0.28666613750000003,0.6888743850647141
0.044,1.7516,1.0,2730.709760766606,0.3904355181230489,1.3118762846862841,0.9693998713977318,0.2866202,0.6898379561552291
0.0445,1.75049375,1.0,2729.5173043237846,0.393854687216766,1.3113875256726348,0.9698728793607145,0.2865737375,0.690809339462609
0.045,1.7493750000000001,1.0,2728.2256198504087,0.3972546719928058,1.3108940260130515,0.9703313353975845,0.28652675,0.6917885988182273
0.0455,1.74824375,1.0,2726.8450812924816,0.4006355948135023,1.3103956920087578,0.9707758217170097,0.2864792375,0.6927758749438915
0.046,1.7471,1.0,2725.380830236185,0.40399755914628604,1.3098924775051866,0.9712068920202871,0.2864312,0.6937712129645965
0.0465,1.7459437500000001,1.0,2723.8380068668353,0.4073406684585876,1.3093843363477695,0.9716250723686485,0.28638263750000004,0.6947746569599816
0.047,1.744775,1.0,2722.2217492096784,0.41066502621783735,1.308871222381939,0.9720308628220214,0.28633355,0.6957862499498941
0.0475,1.74359375,1.0,2720.5371924189985,0.4139707358914659,1.3083530894531272,0.9724247389656769,0.28628393750000003,0.6968060338798205
0.048,1.7424,1.0,2718.78946811269,0.4172579009469037,1.3078298914067668,0.972807153333418,0.2862338,0.6978340496061806
0.0485,1.74119375,1.0,2716.983703756087,0.42052662485158127,1.3073015820882892,0.9731785367352193,0.2861831375,0.6988703368814875
0.049,1.739975,1.0,2715.125022091094,0.42377701107292914,1.3067681153431272,0.973539299496553,0.28613195,0.699914934339368
0.0495,1.73874375,1.0,2713.218540614119,0.42700916307837783,1.306229445016713,0.9738898326160363,0.2860802375,0.7009678794794516
0.05,1.7375,1.0,2711.269371100287,0.43022318433535783,1.3056855249544785,0.9742305088474754,0.286028,0.7020292086521202
0.0505,1.73624375,1.0,2709.2826191752793,0.43341917831129967,1.3051363090018564,0.9745616837118813,0.2859752375,0.7030989570431238
0.051000000000000004,1.734975,1.0,2707.2583804447063,0.43659723149857516,1.3045817966705258,0.9748836975376889,0.28592195,0.7041770699520233
0.051500000000000004,1.73369375,1.0,2705.1996627921053,0.439757450329665,1.3040219608886885,0.9751968757245231,0.2858681375,0.7052635436779233
0.052000000000000005,1.7324,1.0,2703.115866906398,0.44289995895600615,1.3034567161588715,0.9755015271895278,0.2858138,0.7063584866647772
0.0525,1.73109375,1.0,2701.0088482936426,0.44602485228532446,1.3028860457996976,0.9757979482774309,0.28575893750000003,0.7074618726397432
0.053,1.729775,1.0,2698.880459949445,0.44913222522534596,1.3023099331297903,0.9760864222636331,0.28570355000000003,0.7085736745250694
0.0535,1.72844375,1.0,2696.7325522811766,0.4522221726837965,1.3017283614677726,0.9763672200401053,0.2856476375,0.7096938644323124
0.054,1.7271,1.0,2694.5669730358713,0.455294789568402,1.3011413141322679,0.976640600759641,0.2855912,0.7108224136565395
0.0545,1.7257437500000001,1.0,2692.3855672343248,0.4583501707868884,1.3005487744418993,0.9769068124413143,0.2855342375,0.7119592926705113
0.055,1.724375,1.0,2690.1901771117864,0.46138841124698154,1.2999507257152898,0.9771660925397917,0.28547675,0.7131044711188488
0.0555,1.72299375,1.0,2687.9826420642044,0.4644096058564074,1.2993471512710628,0.9774186684809356,0.2854187375,0.7142579178121793
0.056,1.7216,1.0,2685.7647986012244,0.4674138495228919,1.2987380344278414,0.9776647581659593,0.2853602,0.7154196007212686
0.0565,1.72019375,1.0,2683.5384803049337,0.4704012371541609,1.2981233585042489,0.9779045704462214,0.28530113749999997,0.7165894869711323
0.057,1.718775,1.0,2681.305517795203,0.47337186365794026,1.2975031068189082,0.9781383055705979,0.28524155,0.7177675428351316
0.0575,1.71734375,1.0,2679.067738700474,0.4763258239419561,1.2968772626904428,0.9783661556072218,0.2851814375,0.7189537337290492
0.058,1.7159,1.0,2676.826967635475,0.47926321291393414,1.2962458094374756,0.9785883048412546,0.2851208,0.7201480242051496
0.0585,1.71444375,1.0,2674.585026184997,0.48218412548160033,1.2956087303786301,0.9788049301502317,0.2850596375,0.7213503779462194
0.059000000000000004,1.7129750000000001,1.0,2672.343732893167,0.48508865655268063,1.2949660088325292,0.9790162013584154,0.28499795,0.7225607577595928
0.059500000000000004,1.71149375,1.0,2670.1041321449075,0.4879768860613662,1.2943176352044685,0.9792222807159839,0.2849357375,0.7237791122692903
0.06,1.71,1.0,2667.866876668045,0.49084890243639745,1.293663603484547,0.9794233250219305,0.284873,0.725005382616297
0.0605,1.7084937500000001,1.0,2665.634030183621,0.49370482572866026,1.2930038946746623,0.9796194868291563,0.2848097375,0.7262395334996156
0.061,1.7069750000000001,1.0,2663.4061259827577,0.49654474192179854,1.292338503827496,0.9798109107964884,0.28474595,0.7274815024869297
0.0615,1.7054437500000001,1.0,2661.183696465711,0.49936873699945644,1.2916674259957284,0.9799977360516436,0.2846816375,0.7287312264445993
0.062,1.7039,1.0,2658.9672731462124,0.502176896945278,1.2909906562320412,0.9801800964428328,0.2846168,0.729988641535861
0.0625,1.70234375,1.0,2656.757386655912,0.5049693077429075,1.290308189589115,0.9803581207770792,0.2845514375,0.7312536832190384
0.063,1.7007750000000001,1.0,2654.554566750102,0.5077460553759887,1.2896200211196311,0.9805319330460477,0.28448555,0.7325262862457411
0.0635,1.69919375,1.0,2652.3593423138204,0.510507225828166,1.2889261458762704,0.9807016526401227,0.28441913750000003,0.7338063846590692
0.064,1.6976,1.0,2650.172241367697,0.5132529050830834,1.2882265589117141,0.9808673945514336,0.2843522,0.7350939117918118
0.0645,1.69599375,1.0,2647.9937910758495,0.5159831791243848,1.287521255278643,0.9810292695664699,0.2842847375,0.7363888002646473
0.065,1.694375,1.0,2645.824517752716,0.5186981339357146,1.2868102300297382,0.9811873844488954,0.28421675,0.7376909819843389
0.0655,1.69274375,1.0,2643.66494687146,0.5213978555007167,1.286093478217681,0.9813418421131231,0.2841482375,0.7390003881419303
0.066,1.6911,1.0,2641.5156030727576,0.5240824298030352,1.285370994895152,0.9814927417891854,0.2840792,0.7403169492109413
0.0665,1.6894437500000001,1.0,2639.3770101739633,0.5267519428263142,1.2846427751148324,0.9816401791793904,0.2840096375,0.741640594945558
0.067,1.687775,1.0,2637.2496911783724,0.5294064805541979,1.2839088139294033,0.9817842466072303,0.28393955,0.7429712543788249
0.0675,1.68609375,1.0,2635.1341682862458,0.5320461289703302,1.2831691063915458,0.9819250331589792,0.2838689375,0.7443088558208336
0.068,1.6844000000000001,1.0,2633.0309629052194,0.5346709740583553,1.282423647553941,0.9820626248183815,0.2837978,0.7456533268569111
0.0685,1.68269375,1.0,2630.9389068866444,0.5372811007536344,1.2816724481044788,0.9821971052687761,0.2837261375,0.7470045662590233
0.069,1.680975,1.0,2628.858972399501,0.5398765880153511,1.2809154989250804,0.9823285540081089,0.28365395,0.7483625078561007
0.0695,1.67924375,1.0,2626.7920850553933,0.5424575167329506,1.280152791315252,0.9824570479670178,0.28358123749999997,0.7497270839230641
0.07,1.6775,1.0,2624.7365054577713,0.545023968262711,1.279384341264176,0.9825826626474277,0.283508,0.7510981819399949
0.07050000000000001,1.67574375,1.0,2622.6909114500727,0.5475760239153695,1.2786101609177274,0.9827054708379845,0.2834342375,0.7524756958973152
0.07100000000000001,1.673975,1.0,2620.659941620413,0.5501137645901634,1.2778302071466108,0.9828255403369521,0.28335995,0.7538596173369623
0.07150000000000001,1.67219375,1.0,2618.639955509825,0.55263727086385,1.277044513585259,0.9829429401595766,0.2832851375,0.7552498006770001
0.07200000000000001,1.6704,1.0,2616.631503035345,0.5551466221112406,1.2762530750189527,0.9830577352240475,0.2832098,0.7566461688219799
0.0725,1.66859375,1.0,2614.6351333157277,0.5576418977071461,1.2754558862329721,0.9831699883197582,0.2831339375,0.7580486439400763
0.073,1.6667750141806605,1.0,2612.6475024565866,0.5601231766947148,1.2746529845781456,0.9832797620778495,0.28305755059558774,0.7594570729027963
0.0735,1.664950609593551,1.0,2610.991914287614,0.5625905380346091,1.2738444438844287,0.9833871187387382,0.28298092560292915,0.7608712390102932
0.074,1.6631262050064413,1.0,2609.902930892869,0.5650440594046635,1.2730306408786216,0.9834921319182259,0.2829043006102705,0.7622903990478609
0.0745,1.6613018004193318,1.0,2609.334962760554,0.5674838182464819,1.2722119960911464,0.9835948749568074,0.2828276756176119,0.7637137410206432
0.075,1.6594773958322222,1.0,2609.244623531292,0.5699098916571711,1.2713889112905956,0.9836954182098407,0.2827510506249533,0.7651404937133458
