Time [s],Phi [rad],STIM [ ],Fsee [N],Gamma [ ],Lcerel [ ],q [ ],Lmtc [m],fisomrel [ ]
0.0,1.8,1.0,17.967129178373302,1.0019274053456613e-05,1.379339749467483,0.005000026754202862,0.288653,0.5411395231949847
0.0005,1.79999375,1.0,18.276470269458667,0.0056191723826440575,1.3793024182119782,0.012940568082794552,0.2886527375,0.541229832712199
0.001,1.799975,1.0,21.61810538948597,0.011196862577217638,1.3789383303203169,0.03560867894147097,0.28865195,0.5421101460907221
0.0015,1.79994375,1.0,31.068898920591337,0.01674326634070602,1.3780462324474252,0.07060184588704418,0.2886506375,0.5442635399627149
0.002,1.7999,1.0,53.58184268181977,0.02225855916439029,1.3763681670540706,0.11471800347807017,0.2886488,0.5483003916720638
0.0025,1.79984375,1.0,97.11809847182828,0.0277429155554635,1.3739352076974725,0.16457485520501733,0.28864643749999996,0.554121366212526
0.003,1.7997750000000001,1.0,160.9572589572538,0.03319650904474885,1.3712143777385188,0.21728041397688003,0.28864354999999997,0.5605863704088146
0.0035,1.79969375,1.0,237.68240601655972,0.03861951218629022,1.3685847627418437,0.27061284757813364,0.2886401375,0.566789772559116
0.004,1.7996,1.0,321.4658706481784,0.04401209656813466,1.3661561162520395,0.3229157613039184,0.2886362,0.5724799060306855
0.0045000000000000005,1.7994937500000001,1.0,409.26689976947864,0.049374432817516786,1.363922834143267,0.37303446899793274,0.2886317375,0.5776791160367736
0.005,1.799375,1.0,499.4126917802987,0.05470669059194933,1.3618583596099865,0.4202474248323723,0.28862675,0.5824570394782198
0.0055,1.79924375,1.0,590.7896466796498,0.06000903862668804,1.3599388500908873,0.4641736654307521,0.2886212375,0.5868750771532198
0.006,1.7991000000000001,1.0,682.5173770019189,0.06528164467788782,1.358146428040964,0.5046799325884006,0.2886152,0.5909793880149827
0.006500000000000001,1.79894375,1.0,773.8809016095138,0.07052467557784661,1.3564672596987242,0.5418007305582623,0.2886086375,0.5948057804938851
0.007,1.798775,1.0,864.2852513185383,0.07573829722012754,1.3548904040403091,0.5756767573339134,0.28860155,0.5983826566329915
0.0075,1.79859375,1.0,953.2418989448267,0.0809226745672859,1.3534067994397565,0.6065099030393835,0.2885939375,0.6017335271356752
0.008,1.7984,1.0,1040.3565589562568,0.08607797163511471,1.352008674254021,0.6345320538266711,0.2885858,0.6048784861285924
0.0085,1.79819375,1.0,1125.3185250920387,0.09120435162590695,1.3506891806606471,0.6599843839876671,0.2885771375,0.6078351357384056
0.009000000000000001,1.797975,1.0,1207.8783181755134,0.09630197643457843,1.3494423337757162,0.6831043454789453,0.28856795,0.6106187989967505
0.0095,1.79774375,1.0,1287.8728387006383,0.10137100790025902,1.3482623800818487,0.7041176037245415,0.2885582375,0.6132439879455547
0.01,1.7975,1.0,1365.1659147878518,0.10641160625011609,1.347144399860367,0.7232342260446109,0.288548,0.6157231047371993
0.0105,1.79724375,1.0,1439.658747747727,0.11142393049924891,1.346083955792357,0.7406466569209357,0.2885372375,0.6180672689512561
0.011,1.796975,1.0,1511.3067061254824,0.11640813927200541,1.34507674308119,0.7565292102511413,0.28852595000000003,0.6202871217617294
0.0115,1.79669375,1.0,1580.1102732705585,0.1213643911279287,1.3441186113551091,0.7710386615881195,0.2885141375,0.6223927975734418
0.012,1.7964,1.0,1646.0646693196375,0.12629284253711057,1.343206075315711,0.7843155459561837,0.28850180000000003,0.6243928248290389
0.0125,1.79609375,1.0,1709.1776815614164,0.1311936488227068,1.3423359922140845,0.7964853045790403,0.2884889375,0.6262948610803516
0.013000000000000001,1.7957750000000001,1.0,1769.4928765645498,0.13606696524437256,1.3415052271641097,0.8076595508352791,0.28847555,0.6281064407512431
0.0135,1.79544375,1.0,1827.0730780231747,0.1409129461260977,1.3407108000589798,0.8179375414890411,0.2884616375,0.6298346642958224
0.014,1.7951000000000001,1.0,1881.9864608170292,0.14573174571576486,1.339949993394375,0.8274075533742747,0.2884472,0.6314859757371314
0.0145,1.79474375,1.0,1934.2860293326048,0.15052351540891395,1.339220527069354,0.8361481682874455,0.2884322375,0.6330657972410385
0.015,1.794375,1.0,1984.0457695518853,0.155288406601085,1.3385201209829753,0.8442292340162417,0.28841675,0.6345794888063512
0.0155,1.79399375,1.0,2031.348021585302,0.16002656983578556,1.337846608989901,0.851712923433459,0.2884007375,0.636032107123804
0.016,1.7936,1.0,2076.2891269029064,0.1647381564346845,1.3371978561597202,0.8586546146259328,0.2883842,0.6374285899275787
0.0165,1.7931937500000001,1.0,2118.9542885006604,0.16942331590994336,1.3365720009622422,0.86510376582345,0.2883671375,0.6387732403325015
0.017,1.792775,1.0,2159.410310140487,0.1740821951188296,1.335967502391989,0.8711046246526807,0.28834955,0.6400696343638037
0.0175,1.7923437500000001,1.0,2197.7347118072503,0.1787149409186108,1.3353828194434834,0.8766967509537007,0.2883314375,0.6413213151216195
0.018000000000000002,1.7919,1.0,2234.0148334802466,0.1833217001665544,1.3348164111112477,0.8819155680930014,0.2883128,0.642531794804158
0.0185,1.79144375,1.0,2268.33733141395,0.18790261862716345,1.3342668327098184,0.886792870240905,0.2882936375,0.643704351244089
0.019,1.790975,1.0,2300.7949190662275,0.19245784280695577,1.3337326578957631,0.8913572234299763,0.28827395,0.6448421972379769
0.0195,1.79049375,1.0,2331.4649896151263,0.19698751678269083,1.3332126814557868,0.8956343822019595,0.2882537375,0.6459480513936364
0.02,1.79,1.0,2360.4142059951264,0.20149178258109596,1.3327058613453635,0.8996475927924525,0.288233,0.647024266028188
0.0205,1.78949375,1.0,2387.7142947540947,0.20597078222889842,1.3322111555199676,0.9034178373885096,0.2882117375,0.6480731764926273
0.021,1.788975,1.0,2413.4416237069627,0.2104246577528255,1.3317275219350733,0.9069640854420732,0.28818995000000003,0.649097102011529
0.021500000000000002,1.78844375,1.0,2437.6681503895634,0.21485354965098574,1.331254001776212,0.9103035310639868,0.2881676375,0.6500981706225936
0.022,1.7879,1.0,2460.47298045054,0.21925760022401247,1.3307896032867932,0.9134517628251363,0.2881448,0.6510785661905802
0.0225,1.78734375,1.0,2481.9219485427443,0.22363694902726378,1.3303334940243665,0.9164229711199259,0.28812143749999997,0.6520401234874165
0.023,1.786775,1.0,2502.070334592725,0.22799173306682066,1.3298849688753387,0.9192300883565229,0.28809755,0.6529843983103215
0.0235,1.78619375,1.0,2520.975823674536,0.23232208934876425,1.3294433227261169,0.9218848965400666,0.28807313749999996,0.6539129372167589
0.024,1.7856,1.0,2538.69830470251,0.23662815487917563,1.3290078504631078,0.9243981454970217,0.2880482,0.6548272778496343
0.0245,1.78499375,1.0,2555.299680146988,0.24091006666413586,1.3285778469727183,0.9267796575262061,0.2880227375,0.655728949230781
0.025,1.784375,1.0,2570.832558234684,0.24516795839048325,1.32815271137026,0.9290384364749511,0.28799675,0.6566192538914121
0.025500000000000002,1.78374375,1.0,2585.3617441226675,0.2494019695632459,1.3277317432435338,0.9311827182971986,0.2879702375,0.6574996953780434
0.026000000000000002,1.7831000000000001,1.0,2598.93171574397,0.25361223286362505,1.3273144456538644,0.9332200896253083,0.2879432,0.658371344599182
0.0265,1.78244375,1.0,2611.5847435343694,0.25779887983401933,1.3269003529192183,0.935157524421453,0.2879156375,0.6592352017260541
0.027,1.781775,1.0,2623.3641238307946,0.2619620420168275,1.3264889993575626,0.9370014375640258,0.28788755,0.6600922617936782
0.0275,1.7810937500000001,1.0,2634.3140899000223,0.26610185095444816,1.326079919286864,0.9387577371167318,0.2878589375,0.6609435147891336
0.028,1.7804,1.0,2644.4797277754415,0.2702184381892801,1.3256726470250892,0.9404318710759472,0.2878298,0.6617899457259937
0.0285,1.77969375,1.0,2653.9027023583085,0.2743119336712638,1.3252667555562252,0.9420288741758944,0.2878001375,0.6626324544959402
0.029,1.778975,1.0,2662.619637292156,0.27838246637841546,1.3248618704372617,0.9435534070734838,0.28776995,0.663471827602053
0.029500000000000002,1.7782437500000001,1.0,2670.681683475974,0.2824301711377055,1.3244574889901228,0.9450097670134725,0.2877392375,0.6643091130045419
0.03,1.7775,1.0,2678.1169542469097,0.28645517340192683,1.3240533254098215,0.9464019607679056,0.287708,0.6651449052641466
0.0305,1.77674375,1.0,2684.9539722580325,0.2904575986238724,1.3236490938913694,0.9477337039944291,0.2876762375,0.6659797959926517
0.031,1.775975,1.0,2691.2216332310654,0.29443757225633516,1.3232445086297795,0.9490084460496362,0.28764395,0.6668143738542488
0.0315,1.7751937500000001,1.0,2696.9491715208655,0.2983952197521081,1.322839283820064,0.9502293923962681,0.2876111375,0.667649224561697
0.032,1.7744,1.0,2702.1661274905878,0.3023306665639841,1.3224331336572352,0.9513995248635936,0.2875778,0.6684849308672687
0.0325,1.77359375,1.0,2706.902316697908,0.3062440381447562,1.322025772336306,0.9525216199897888,0.2875439375,0.6693220725484872
0.033,1.772775,1.0,2711.1847026147143,0.3101354582740611,1.32161694230942,0.9535982684781067,0.28750955,0.6701611684296532
0.0335,1.7719437500000002,1.0,2715.037472197636,0.3140050496228286,1.321206413248859,0.9546318900557413,0.2874746375,0.6710026788514134
0.034,1.7711000000000001,1.0,2718.493979859843,0.3178529398672659,1.320793872964268,0.9556247363220328,0.2874392,0.6718472291727839
0.0345,1.7702437500000001,1.0,2721.572543916655,0.3216792482806124,1.3203791477774602,0.9565789247402199,0.2874032375,0.6726951583845291
0.035,1.7693750000000001,1.0,2724.291608231975,0.32548409413610746,1.319962064010249,0.9574964359840402,0.28736675,0.6735468035532568
0.035500000000000004,1.76849375,1.0,2726.6697292287595,0.3292675967069905,1.3195424479844473,0.9583791243586315,0.2873297375,0.674402499796259
0.036000000000000004,1.7676,1.0,2728.725563567489,0.333029875266501,1.3191201260218681,0.9592287273129554,0.2872922,0.6752625802544229
0.0365,1.76669375,1.0,2730.4778564936146,0.3367710490878783,1.3186949244443251,0.9600468741323297,0.2872541375,0.6761273760632204
0.037,1.765775,1.0,2731.945430854087,0.3404912374443619,1.3182666695736311,0.9608350938901543,0.28721555,0.6769972163217766
0.0375,1.76484375,1.0,2733.145146315172,0.34419055626187556,1.3178352061754628,0.9615948238192578,0.2871764375,0.6778723906741106
0.038,1.7639,1.0,2734.0932612965416,0.34786912137690573,1.3174003849866533,0.9623274154040872,0.28713679999999997,0.6787531747778197
0.0385,1.76294375,1.0,2734.81037084631,0.35152705984565946,1.3169620177977301,0.9630341385000963,0.28709663750000003,0.6796399211530338
0.039,1.761975,1.0,2735.307743291117,0.3551644842141354,1.3165200014669203,0.9637161934271555,0.28705595,0.6805328082633316
0.0395,1.7609937500000001,1.0,2735.596678525559,0.35878150702833217,1.3160742328524508,0.9643747108767428,0.2870147375,0.6814320131592305
0.04,1.76,1.0,2735.6885035652112,0.3623782408342486,1.315624608812549,0.9650107566919506,0.286973,0.6823377114538439
0.0405,1.7589937500000001,1.0,2735.594568336173,0.3659547981778831,1.3151710262054415,0.9656253362704814,0.2869307375,0.6832500772978601
0.041,1.757975,1.0,2735.3262416998914,0.3695112916052346,1.3147133818893557,0.9662193986240282,0.28688795,0.6841692833538411
0.0415,1.75694375,1.0,2734.8949077145026,0.3730478336623016,1.3142515727225186,0.966793840124167,0.2868446375,0.6850955007698458
0.042,1.7559,1.0,2734.311962131514,0.37656453689508285,1.3137854955631572,0.9673495079619825,0.28680079999999997,0.6860288991523721
0.0425,1.75484375,1.0,2733.588809128816,0.3800615138495769,1.3133150472694985,0.9678872033460111,0.2867564375,0.6869696465386221
0.043000000000000003,1.753775,1.0,2732.7366947054734,0.3835388766141602,1.3128401261857077,0.9684076845089482,0.28671155,0.6879179064034137
0.043500000000000004,1.75269375,1.0,2731.757530240277,0.3869967120242832,1.3123607154936572,0.9689116722804553,0.28666613750000003,0.6888736716080694
0.044,1.7516,1.0,2730.6723955876914,0.3904351666453116,1.3118766242475612,0.9693998450085298,0.2866202,0.6898372807651323
0.0445,1.75049375,1.0,2729.486495711115,0.39385434478108533,1.3113878057111845,0.9698728505372386,0.2865737375,0.6908087833366505
0.045,1.7493750000000001,1.0,2728.2050369050603,0.39725435073544435,1.3108942131482908,0.9703313033692818,0.28652675,0.691788227777121
0.0455,1.74824375,1.0,2726.8332258686173,0.40063528881222854,1.3103957998226448,0.9707757867028787,0.2864792375,0.6927756615193261
0.046,1.7471,1.0,2725.37626882699,0.4039972633152779,1.3098925189980106,0.971206854325207,0.2864312,0.6937711309600372
0.0465,1.7459437500000001,1.0,2723.839370701391,0.40734037854843225,1.3093843239381522,0.9716250323737763,0.28638263750000004,0.6947746814455756
0.047,1.744775,1.0,2722.227734327268,0.41066473881553156,1.3088711679068339,0.972030820976123,0.28633355,0.6957863572572336
0.0475,1.74359375,1.0,2720.5465597215507,0.41397044842041575,1.30835300416782,0.9724246957773034,0.28628393750000003,0.6968062015965575
0.048,1.7424,1.0,2718.801043397307,0.4172576116669247,1.3078297859848749,0.972807109363844,0.2862338,0.6978342565704916
0.0485,1.74119375,1.0,2716.9963777282073,0.42052633285889846,1.3073014666217624,0.9731784925920698,0.2861831375,0.6988705631763835
0.049,1.739975,1.0,2715.13775035968,0.4237767163001768,1.306767999342247,0.9735392558280532,0.28613195,0.6999151612868468
0.0495,1.73874375,1.0,2713.2303436702323,0.4270088662945998,1.3062293374100928,0.9738897901058265,0.2860802375,0.7009680896344883
0.05,1.7375,1.0,2711.27933428005,0.4302228871460072,1.3056854340890642,0.9742304682099335,0.286028,0.7020293857964935
0.0505,1.73624375,1.0,2709.289892608392,0.43341888315823907,1.3051362426429254,0.974561645687908,0.2859752375,0.7030990861790745
0.051000000000000004,1.734975,1.0,2707.2638959510796,0.4365969268712557,1.3045817463311653,0.974883660213067,0.28592195,0.7041771677355155
0.051500000000000004,1.73369375,1.0,2705.2091595364814,0.4397571587507209,1.304021874180107,0.975196838170631,0.2858681375,0.7052637117985177
0.052000000000000005,1.7324,1.0,2703.127994141726,0.4428996767726121,1.3034566053903485,0.9755014897786045,0.2858138,0.7063587010362447
0.0525,1.73109375,1.0,2701.022428437796,0.4460245763196716,1.302885921712148,0.9757979113291326,0.28575893750000003,0.7074621123360414
0.053,1.729775,1.0,2698.894488354261,0.4491319527746417,1.302309804895764,0.9760863860457136,0.28570355000000003,0.7085739217598378
0.0535,1.72844375,1.0,2696.7461969901183,0.4522219015202648,1.3017282366914544,0.9763671847691245,0.2856476375,0.7096941045378369
0.054,1.7271,1.0,2694.579574531668,0.45529451793928327,1.3011411988494777,0.9766405666016883,0.2855912,0.7108226350621791
0.0545,1.7257437500000001,1.0,2692.3966381775344,0.4583498974144394,1.3005486731200921,0.9769067795127464,0.2855342375,0.7119594868805867
0.055,1.724375,1.0,2690.1994020714365,0.4613881353284755,1.2999506412535562,0.9771660609079743,0.28547675,0.7131046326899886
0.0555,1.72299375,1.0,2687.9898772425686,0.46440932706413396,1.299347085000128,0.9774186381649858,0.2854187375,0.7142580443301214
0.056,1.7216,1.0,2685.7700715524547,0.4674135680041571,1.2987379861100659,0.9776647291374833,0.2853602,0.7154196927771113
0.0565,1.72019375,1.0,2683.541989650391,0.47040095353128736,1.298123326333628,0.9779045426300459,0.28530113749999997,0.7165895481370317
0.057,1.718775,1.0,2681.307632935228,0.473371579028267,1.297503087421073,0.97813827884549,0.28524155,0.7177675796394434
0.0575,1.71734375,1.0,2679.0689995250987,0.4763255398778383,1.2968772511226587,0.9783661298065939,0.2851814375,0.7189537556309115
0.058,1.7159,1.0,2676.8280842343565,0.47926293146274374,1.2962457991886438,0.9785882797538548,0.2851208,0.7201480435685004
0.0585,1.71444375,1.0,2674.586878558104,0.48218384916572554,1.2956087133692862,0.9788049055208156,0.2850596375,0.7213504100132501
0.059000000000000004,1.7129750000000001,1.0,2672.343623967892,0.4850883575995141,1.2949660098331508,0.9790161761950193,0.28499795,0.7225607558772628
0.059500000000000004,1.71149375,1.0,2670.100460195336,0.48797656276483337,1.2943176689503002,0.9792222557137142,0.2849357375,0.723779048927492
0.06,1.71,1.0,2667.86219806995,0.4908485894176733,1.2936636464996762,0.9794233017564279,0.284873,0.7250053020552079
0.0605,1.7084937500000001,1.0,2665.629226521014,0.4937045233522046,1.2930039388581307,0.9796194648485923,0.2848097375,0.7262394509362908
0.061,1.7069750000000001,1.0,2663.401933828103,0.49654445036259787,1.292338542402515,0.9798108897165463,0.28474595,0.7274814305675159
0.0615,1.7054437500000001,1.0,2661.180707624059,0.4993684562430238,1.2916674535096808,0.9799977155533975,0.2846816375,0.7287311752652366
0.062,1.7039,1.0,2658.9659348994205,0.5021766267876531,1.29099066855648,0.9801800762707391,0.2846168,0.7299886186640714
0.0625,1.70234375,1.0,2656.7580020054947,0.5049690477906563,1.2903081839197643,0.9803581007370767,0.2845514375,0.7312536937155877
0.063,1.7007750000000001,1.0,2654.5572946592347,0.5077458050462041,1.2896199959763854,0.9805319130037583,0.28448555,0.7325263326869851
0.0635,1.69919375,1.0,2652.364197947672,0.5105069843484673,1.2889261011031947,0.9807016325191509,0.28441913750000003,0.7338064671597784
0.064,1.6976,1.0,2650.179096332211,0.5132526714916165,1.2882264956770442,0.980867374331758,0.2843522,0.7350940280284785
0.0645,1.69599375,1.0,2648.002373654419,0.5159829522698223,1.2875211760747853,0.9810292492829227,0.2842847375,0.7363889454992739
0.065,1.694375,1.0,2645.8344131411977,0.5186979124772553,1.2868101386732698,0.9811873641897275,0.28421675,0.737691149088711
0.0655,1.69274375,1.0,2643.6755974100497,0.5213976379080864,1.2860933798493495,0.9813418220186488,0.2841482375,0.739000567622372
0.066,1.6911,1.0,2641.526308475743,0.5240822143564859,1.2853708959798757,0.9814927220505042,0.2840792,0.7403171292335553
0.0665,1.6894437500000001,1.0,2639.386927756254,0.5267517276166248,1.2846426834417006,0.9816401600371817,0.2840096375,0.7416407613619509
0.067,1.687775,1.0,2637.2578360790108,0.5294062634826737,1.2839087386116756,0.9817842283506197,0.28393955,0.742971390752319
0.0675,1.68609375,1.0,2635.139413688456,0.5320459077488031,1.2831690578666524,0.9819250161244701,0.2838689375,0.7443089434531649
0.068,1.6844000000000001,1.0,2633.032040252611,0.5346707462091839,1.2824236375834828,0.9820626093888525,0.2837978,0.7456533448154132
0.0685,1.68269375,1.0,2630.9360948706717,0.5372808646579865,1.2816724741390182,0.9821970911985836,0.2837261375,0.7470045194910846
0.069,1.680975,1.0,2628.8519612355126,0.5398763476982928,1.2809155638623684,0.9823285416767007,0.28365395,0.7483623915174988
0.0695,1.67924375,1.0,2626.7809388844985,0.5424572253989263,1.2801528945915561,0.9824570343639923,0.28358123749999997,0.7497268994004224
0.07,1.6775,1.0,2624.7233414251823,0.5450236494547208,1.2793844632850178,0.982582648382052,0.283508,0.7510979645246894
0.07050000000000001,1.67574375,1.0,2622.6789409531784,0.5475756961994865,1.2786102719186263,0.98270545570654,0.2834342375,0.7524754986652714
0.07100000000000001,1.673975,1.0,2620.647509984929,0.5501134419670336,1.2778303224682548,0.9828255259137767,0.28335995,0.7538594130012295
0.07150000000000001,1.67219375,1.0,2618.6288214528436,0.552636963091172,1.277044616909776,0.9829429262753383,0.2832851375,0.7552496181164396
0.07200000000000001,1.6704,1.0,2616.6226487005893,0.5551463359057119,1.276253157219063,0.9830577218483058,0.2832098,0.7566460240003179
0.0725,1.66859375,1.0,2614.6287654777893,0.5576416367444632,1.275455945371989,0.9831699755613956,0.2831339375,0.7580485400485455
0.073,1.6667750000000001,1.0,2612.6469459358414,0.5601229419412361,1.2746529833444267,0.9832797482971816,0.28305755,0.7594570750637949
0.0735,1.66494375,1.0,2610.676964622884,0.5625903278298406,1.273844273112249,0.9833870989706146,0.2829806375,0.7608715372564541
0.074,1.6631,1.0,2608.7185964793734,0.565043870744087,1.2730298166513292,0.9834920846040252,0.2829032,0.7622918342453494
0.0745,1.6612437500000001,1.0,2606.7716168335764,0.5674836470177851,1.27220961593754,0.983594760398789,0.2828252375,0.7637178730584725
0.075,1.659375,1.0,2604.8358013974107,0.569909732984745,1.2713836729467545,0.9836951798038263,0.28274675,0.7651495601337022
0.0755,1.65749375,1.0,2602.9109262617003,0.5723222049787768,1.2705519896548458,0.9837933945810906,0.2826677375,0.7665868013195287
