Time [s],Phi [rad],STIM [ ],Fsee [N],Gamma [ ],Lcerel [ ],q [ ],Lmtc [m],fisomrel [ ]
0.0,1.8,1.0,17.966781055547322,1.0000334130601397e-05,1.3793397884691023,0.005000026653549528,0.288653,0.5411394288399767
0.0005,1.79999375,1.0,18.276147959133926,0.0056191535489593086,1.3793024540148076,0.012940516204649831,0.2886527375,0.5412297461044158
0.001,1.799975,1.0,21.617787935816732,0.011196843849174869,1.3789383627438627,0.03560858253660058,0.28865195,0.5421100677327829
0.0015,1.79994375,1.0,31.068553716425757,0.016743247717712878,1.3780462618578762,0.07060171469973146,0.2886506375,0.5442634690538461
0.002,1.7999,1.0,53.58143196148642,0.022258540645857312,1.3763681936996761,0.11471784831327358,0.2886488,0.5483003277144232
0.0025,1.79984375,1.0,97.11761684073396,0.02774289714080491,1.3739352309062542,0.16457468597855224,0.28864643749999996,0.5541213108644334
0.003,1.7997750000000001,1.0,160.95674271722768,0.033196490733381906,1.3712143970619441,0.21728023872896646,0.28864354999999997,0.5605863246617898
0.0035,1.79969375,1.0,237.68188637899254,0.03861949397763547,1.3685847787480954,0.270612672681003,0.2886401375,0.5667897349337296
0.004,1.7996,1.0,321.4653604264549,0.04401207846161602,1.3661561297658884,0.32291559150611665,0.2886362,0.5724798744734244
0.0045000000000000005,1.7994937500000001,1.0,409.2664027507958,0.04937441481256157,1.3639228458102057,0.37303430748512045,0.2886317375,0.5776790889585499
0.005,1.799375,1.0,499.41221045530705,0.054706672687990066,1.3618583698381133,0.42024727345867363,0.28862675,0.5824570158740539
0.0055,1.79924375,1.0,590.7891793662925,0.06000902082315207,1.3599388592210648,0.46417352510452975,0.2886212375,0.5868750561946381
0.006,1.7991000000000001,1.0,682.5169268419938,0.06528162697421411,1.358146436223679,0.5046798034580545,0.2886152,0.5909793693248668
0.006500000000000001,1.79894375,1.0,773.8803508396924,0.07052465797363922,1.3564672691007302,0.5418006136384917,0.2886086375,0.5948057591194758
0.007,1.798775,1.0,864.2844339730116,0.07573827971466966,1.3548904172430658,0.5756766535861602,0.28860155,0.5983826267507738
0.0075,1.79859375,1.0,953.2415110898305,0.08092265715988024,1.3534068054053718,0.6065098047757379,0.2885939375,0.6017335136899542
0.008,1.7984,1.0,1040.3524810150184,0.08607795428053376,1.3520087342936034,0.634531996923127,0.2885858,0.6048783513425235
0.0085,1.79819375,1.0,1125.318144435064,0.09120433443232452,1.3506891860493404,0.6599843030588326,0.2885771375,0.6078351236863875
0.009000000000000001,1.797975,1.0,1207.8839301981004,0.09630195951262971,1.3494422570934936,0.6831042268999326,0.28856795,0.6106189698896833
0.0095,1.79774375,1.0,1287.8697622499228,0.10137099084603839,1.348262420791849,0.7041175560316817,0.2885582375,0.6132438975261515
0.01,1.7975,1.0,1365.1618659019352,0.10641158922435665,1.3471444518995563,0.723234189390353,0.288548,0.6157229895260097
0.0105,1.79724375,1.0,1439.6595704041902,0.11142391365192175,1.3460839454961788,0.740646594028642,0.2885372375,0.6180672916766516
0.011,1.796975,1.0,1511.3106195084474,0.11640812261117878,1.3450766952773108,0.7565291349374591,0.28852595000000003,0.6202872269658483
0.0115,1.79669375,1.0,1580.1128954538005,0.12136437452331418,1.3441185800289943,0.7710385991615492,0.2885141375,0.6223928663227954
0.012,1.7964,1.0,1646.0644498002662,0.126292825954929,1.3432060778851407,0.7843155029013605,0.28850180000000003,0.6243928192050343
0.0125,1.79609375,1.0,1709.1762289720205,0.13119363230332945,1.342336008899489,0.7964852710150605,0.2884889375,0.6262948246516871
0.013000000000000001,1.7957750000000001,1.0,1769.4916231884245,0.13606694867198216,1.3415052413137194,0.8076595189170389,0.28847555,0.6281064099338594
0.0135,1.79544375,1.0,1827.0759961715373,0.1409129298990245,1.3407107676387107,0.8179374947759899,0.2884616375,0.6298347347418384
0.014,1.7951000000000001,1.0,1881.991652743446,0.14573172961287512,1.3399499365604877,0.8274075007968622,0.2884472,0.6314860989557411
0.0145,1.79474375,1.0,1934.292500110668,0.1505234993307646,1.3392204572005721,0.8361481141741239,0.2884322375,0.6330659483948814
0.015,1.794375,1.0,1984.0534892774738,0.15528839056992355,1.3385200386804852,0.844229178726511,0.28841675,0.6345796664915906
0.0155,1.79399375,1.0,2031.3572677026111,0.16002655396441548,1.3378465115685572,0.851712866347812,0.2884007375,0.6360323170311122
0.016,1.7936,1.0,2076.3007058972694,0.1647381409658334,1.3371977354857225,0.8586545536501372,0.2883842,0.6374288494365457
0.0165,1.7931937500000001,1.0,2118.9612322373905,0.1694233003860505,1.3365719293281975,0.8651037226721147,0.2883671375,0.638773394095328
0.017,1.792775,1.0,2159.4094015147352,0.17408217936319145,1.33596751167748,0.8711046071517956,0.28834955,0.6400696144682472
0.0175,1.7923437500000001,1.0,2197.726649286487,0.17871492503538097,1.3353829011150695,0.876696754942006,0.2883314375,0.641321140432524
0.018000000000000002,1.7919,1.0,2234.0043717334993,0.18332168454074368,1.3348165162224643,0.8819155790911921,0.2883128,0.6425315703592229
0.0185,1.79144375,1.0,2268.321454907723,0.18790260299776299,1.3342669910128586,0.8867928952566626,0.2882936375,0.6437040137729895
0.019,1.790975,1.0,2300.7810941913317,0.1924578279686519,1.3337327947663995,0.891357243307574,0.28827395,0.6448419059228581
0.0195,1.79049375,1.0,2331.4482082635395,0.19698750200395532,1.333212846500131,0.895634408692359,0.2882537375,0.64594770066097
0.02,1.79,1.0,2360.3920931830544,0.2014917675193934,1.3327060774869128,0.8996476305419087,0.288233,0.647023807408394
0.0205,1.78949375,1.0,2387.6871834989256,0.20597076693068644,1.3322114189996042,0.9034178848103881,0.2882117375,0.6480726182597878
0.021,1.788975,1.0,2413.412618862701,0.2104246426535546,1.3317278023110644,0.9069641354872269,0.28818995000000003,0.6490965088452533
0.021500000000000002,1.78844375,1.0,2437.6347298640244,0.21485353454652822,1.3312543232272631,0.9103035885534265,0.2881676375,0.650097491528214
0.022,1.7879,1.0,2460.4424810364812,0.21925758615240248,1.3307898952787713,0.9134518133567551,0.2881448,0.6510779501959805
0.0225,1.78734375,1.0,2481.8911677971987,0.22363693502433368,1.3303337874336152,0.916423020617967,0.28812143749999997,0.6520395053563877
0.023,1.786775,1.0,2502.038213641594,0.22799171862773876,1.329885273824478,0.9192301385024273,0.28809755,0.6529837567402716
0.0235,1.78619375,1.0,2520.9434855143254,0.2323220744280347,1.3294436285840427,0.9218849452395959,0.28807313749999996,0.653912294596235
0.024,1.7856,1.0,2538.66908658126,0.23662813989063852,1.3290081258449926,0.924398187296551,0.2880482,0.6548267000254002
0.0245,1.78499375,1.0,2555.2710029428745,0.24091005056394998,1.3285781163769939,0.9267796965894268,0.2880227375,0.6557283846879678
0.025,1.784375,1.0,2570.8122927043546,0.24516794440635206,1.3281529011759867,0.9290384619153635,0.28799675,0.6566188566638491
0.025500000000000002,1.78374375,1.0,2585.347344842462,0.24940195685058042,1.3277318777267562,0.9311827344773587,0.2879702375,0.6574994142911179
0.026000000000000002,1.7831000000000001,1.0,2598.919113730727,0.25361222006203804,1.327314563043675,0.9332201026237081,0.2879432,0.6583710995520669
0.0265,1.78244375,1.0,2611.5716985001354,0.25779886620612774,1.326900474141117,0.9351575373982018,0.2879156375,0.6592349489997222
0.027,1.781775,1.0,2623.3502454587606,0.2619620274482526,1.3264891280334554,0.9370014510377578,0.28788755,0.6600919938646491
0.0275,1.7810937500000001,1.0,2634.300855682816,0.2661018359538155,1.3260800417350636,0.9387577492144381,0.2878589375,0.6609432601468725
0.028,1.7804,1.0,2644.467744748568,0.27021842289474945,1.3256727576834628,0.9404318811024007,0.2878298,0.6617897158891853
0.0285,1.77969375,1.0,2653.8894426403112,0.2743119177218166,1.3252668777867593,0.9420288854530358,0.2878001375,0.6626322009402212
0.029,1.778975,1.0,2662.617818262464,0.2783824550444054,1.3248618871779252,0.9435534051066616,0.28776995,0.6634717929183578
0.029500000000000002,1.7782437500000001,1.0,2670.683001600304,0.28243016128320714,1.3244574768776551,0.9450097617418316,0.2877392375,0.6643091380681948
0.03,1.7775,1.0,2678.1155924043624,0.28645516285891304,1.324053337906643,0.946401958722646,0.287708,0.6651448794373822
0.0305,1.77674375,1.0,2684.9466186012046,0.29045758619221446,1.3236491612855832,0.9477337085843219,0.2876762375,0.6659796568850082
0.031,1.775975,1.0,2691.2074968204674,0.2944375577038026,1.3232446380351697,0.9490084578208793,0.28764395,0.6668141070839035
0.0315,1.7751937500000001,1.0,2696.9299950386653,0.2983952038143688,1.3228394591760968,0.9502294092689996,0.2876111375,0.6676488635168538
0.032,1.7744,1.0,2702.1461973397013,0.3023306509446043,1.3224333157290589,0.9513995423471704,0.2875778,0.6684845564667252
0.0325,1.77359375,1.0,2706.8827778178816,0.30624402103322623,1.322025950677445,0.9525216362705823,0.2875439375,0.6693217062828054
0.033,1.772775,1.0,2711.1728145417674,0.31013544367634455,1.3216170507320062,0.953598277011602,0.28750955,0.6701609460409635
0.0335,1.7719437500000002,1.0,2715.0379631724295,0.3140050404466294,1.3212064087742137,0.9546318870226256,0.2874746375,0.6710026880177702
0.034,1.7711000000000001,1.0,2718.498921829402,0.31785293200429804,1.3207938279528124,0.9556247291844424,0.2874392,0.6718473212607825
0.0345,1.7702437500000001,1.0,2721.576538371563,0.32167923900956763,1.3203791114165466,0.9565789183605322,0.2874032375,0.6726952326783928
0.035,1.7693750000000001,1.0,2724.291794649862,0.3254840821226552,1.3199620623141617,0.9574964328096874,0.28736675,0.6735468070142492
0.035500000000000004,1.76849375,1.0,2726.665791620513,0.32926758200377815,1.3195424837944023,0.9583791245921117,0.2873297375,0.6744024268192097
0.036000000000000004,1.7676,1.0,2728.719735316459,0.33302985931315354,1.319120179006013,0.9592287290682318,0.2872922,0.6752624724208235
0.0365,1.76669375,1.0,2730.4644611299927,0.33677102501653305,1.3186950461814635,0.9600468810390898,0.2872541375,0.6761271286332744
0.037,1.765775,1.0,2731.928472882059,0.34049120806260097,1.3182668236464243,0.9608351027830001,0.28721555,0.6769969035906118
0.0375,1.76484375,1.0,2733.1339598604636,0.34419053180563786,1.3178353077883855,0.9615948285375208,0.2871764375,0.6778721847036424
0.038,1.7639,1.0,2734.0928551500074,0.3478691098508829,1.3174003886752694,0.9623274133661386,0.28713679999999997,0.678753167311186
0.0385,1.76294375,1.0,2734.817134877882,0.35152705580357535,1.3169619563749986,0.9630341318867354,0.28709663750000003,0.6796400453154767
0.039,1.761975,1.0,2735.318812882484,0.3551644832689544,1.316519900955495,0.9637161839196462,0.28705595,0.6805330111579195
0.0395,1.7609937500000001,1.0,2735.6099356518907,0.3587815058522593,1.3160741124846813,0.9643746996805038,0.2870147375,0.6814322557940722
0.04,1.76,1.0,2735.7025775286957,0.3623782371587293,1.3156244810304798,0.9650107445590399,0.286973,0.6823379686678581
0.0405,1.7589937500000001,1.0,2735.6088361838392,0.3659547907936036,1.3151708966608129,0.9656253235209051,0.2869307375,0.6832503376850103
0.041,1.757975,1.0,2735.340828357995,0.3695112803621214,1.3147132494436027,0.9662193851659125,0.28688795,0.6841695491857421
0.0415,1.75694375,1.0,2734.910685870731,0.3730478194695219,1.3142514294467715,0.9667938254728311,0.2868446375,0.6850957879166479
0.042,1.7559,1.0,2734.330551897878,0.3765645217210445,1.3137853267382422,0.9673494912579478,0.28680079999999997,0.6860292370018322
0.0425,1.75484375,1.0,2733.610442350287,0.3800614966980003,1.313314850779196,0.9678871843187605,0.2867564375,0.686970039162022
0.043000000000000003,1.753775,1.0,2732.7579093279587,0.3835388514607337,1.3128399334674108,0.9684076648354042,0.28671155,0.6879182909059502
0.043500000000000004,1.75269375,1.0,2731.788248772474,0.3869967097018029,1.3123604363899897,0.9689116495594848,0.28666613750000003,0.6888742276092322
0.044,1.7516,1.0,2730.70755389521,0.3904351774036072,1.3118763047414712,0.9693998214199017,0.2866202,0.6898379162653221
0.0445,1.75049375,1.0,2729.521920180268,0.3938543605485463,1.3113874837163941,0.9698728278265903,0.2865737375,0.6908094227830752
0.045,1.7493750000000001,1.0,2728.237444189225,0.39725436511901935,1.3108939185092974,0.9703312828628712,0.28652675,0.691788811970454
0.0455,1.74824375,1.0,2726.860222433169,0.400635297097426,1.3103955543147194,0.9707757693218307,0.2864792375,0.6927761475180423
0.046,1.7471,1.0,2725.3963503115615,0.40399726246616563,1.3098923363271988,0.9712068405992444,0.2864312,0.693771491982367
0.0465,1.7459437500000001,1.0,2723.851921116739,0.40734036720763755,1.3093842097412745,0.9716250224544238,0.28638263750000004,0.6947749067690278
0.047,1.744775,1.0,2722.233025105968,0.41066471730424137,1.3088711197514848,0.9720308146493807,0.28633355,0.6957864521156375
0.0475,1.74359375,1.0,2720.5457486397927,0.4139704187383764,1.3083530115523687,0.9724246924757913,0.28628393750000003,0.6968061870745688
0.048,1.7424,1.0,2718.7961733866214,0.4172575774924422,1.3078298303384648,0.9728071081784188,0.2862338,0.6978341694955101
0.0485,1.74119375,1.0,2716.9903755945325,0.420526299548838,1.3073015213043115,0.9731784922829229,0.2861831375,0.6988704560078309
0.049,1.739975,1.0,2715.135135521156,0.4237766864386776,1.3067680231729266,0.9735392538512819,0.28613195,0.6999151146638226
0.0495,1.73874375,1.0,2713.2336057691173,0.4270088438763893,1.306229307670088,0.9738897854271049,0.2860802375,0.7009681477165135
0.05,1.7375,1.0,2711.2888903710964,0.43022287278625243,1.3056853469365055,0.9742304606955453,0.286028,0.7020295557025136
0.0505,1.73624375,1.0,2709.304222290989,0.4334188735149287,1.3051361119067924,0.9745616359273852,0.2859752375,0.7030993405944053
0.051000000000000004,1.734975,1.0,2707.2828307906343,0.43659694640907987,1.3045815735155617,0.9748836510828922,0.28592195,0.7041775034272465
0.051500000000000004,1.73369375,1.0,2705.227941200352,0.43975719181536777,1.3040217026974263,0.9751968306999952,0.2858681375,0.7052640442887683
0.052000000000000005,1.7324,1.0,2703.142774707682,0.4428997100804541,1.3034564703869993,0.9755014847265386,0.2858138,0.706358962309516
0.0525,1.73109375,1.0,2701.030548165446,0.44602460155100054,1.3028858475188938,0.9757979093005811,0.28575893750000003,0.7074622556529382
0.053,1.729775,1.0,2698.8987703973967,0.4491319654127007,1.3023097657535585,0.9760863849077344,0.28570355000000003,0.7085739972258565
0.0535,1.72844375,1.0,2696.7477549209925,0.45222189968269993,1.301728222444716,0.9763671837018589,0.2856476375,0.7096941319526531
0.054,1.7271,1.0,2694.578313756787,0.45529450170442914,1.3011412103834652,0.97664056568639,0.2855912,0.7108226129106554
0.0545,1.7257437500000001,1.0,2692.3906790284295,0.45834986872427713,1.3005487276584868,0.9769067799980795,0.2855342375,0.7119593823433186
0.055,1.7243763141069937,1.0,2690.253015171222,0.46138809768644434,1.2999507438541633,0.9771660634210088,0.28547680519249374,0.7131044364200705
0.0555,1.723007045832287,1.0,2688.6037940099304,0.4644092847263153,1.2993474666966915,0.9774186567574223,0.2854192959249561,0.7142573156322486
0.056,1.7216377775575804,1.0,2687.4905125102077,0.4674135251139665,1.2987392845113535,0.9776648012366073,0.2853617866574184,0.7154172190358565
0.0565,1.7202685092828738,1.0,2686.8711050441834,0.47040091397352823,1.298126579630718,0.9779047277384514,0.2853042773898807,0.7165833626201823
0.057,1.7188992410081672,1.0,2686.7042955704537,0.47337154618422406,1.2975097286493615,0.9781386573241196,0.285246768122343,0.7177549788232885
0.0575,1.7175299727334605,1.0,2686.954574019722,0.47632551551981284,1.2968890564985878,0.978366799042125,0.28518925885480534,0.7189314034801606
0.058,1.716160704458754,1.0,2687.589121120115,0.47926291524611897,1.2962648643430899,0.978589352148955,0.28513174958726767,0.7201120221803909
0.0585,1.7147914361840473,1.0,2688.584028562115,0.4821838357118521,1.2956373723937102,0.9788065031942521,0.28507424031973,0.7212963776917816
0.059000000000000004,1.7134221679093407,1.0,2689.8965042203845,0.48508837387161624,1.2950069742973833,0.979018441501424,0.2850167310521923,0.722483689782854
0.059500000000000004,1.712052899634634,1.0,2691.4983364753143,0.487976622425957,1.2943739304169581,0.9792253413412122,0.2849592217846546,0.7236734346009945
0.06,1.7106836313599274,1.0,2693.3706158740133,0.490848671049702,1.2937384161423457,0.9794273653709753,0.28490171251711693,0.7248652515375833
0.0605,1.7093143630852208,1.0,2695.494448892948,0.49370460941767896,1.2931006068634578,0.9796246699940757,0.28484420324957926,0.7260587827049514
0.061,1.7079450948105142,1.0,2697.8509486724347,0.4965445272047156,1.2924606779702057,0.9798174056531029,0.2847866939820416,0.7272536729630346
0.0615,1.7065758265358075,1.0,2700.421226433299,0.4993685140856394,1.2918188048525003,0.9800057171072422,0.2847291847145039,0.7284495699440636
0.062,1.705206558261101,1.0,2703.186383575106,0.5021766597352783,1.2911751629002535,0.9801897436947533,0.28467167544696625,0.7296461240752897
0.0625,1.7038372899863943,1.0,2706.1275044570784,0.5049690538284597,1.2905299275033766,0.9803696195814653,0.2846141661794286,0.7308429885997536
0.063,1.7024680217116877,1.0,2709.230848546695,0.5077457828382128,1.2898832266212286,0.980545471314239,0.28455665691189086,0.7320399072820964
0.0635,1.701098753436981,1.0,2712.479168241927,0.5105069374956732,1.2892352200360657,0.9807174227591486,0.2844991476443532,0.7332365672534715
0.064,1.6997294851622744,1.0,2715.856642798143,0.513252607673959,1.2885860542577194,0.9808855925632747,0.2844416383768155,0.7344326826784459
0.0645,1.6983602168875678,1.0,2719.354669032985,0.5159828783319101,1.2879358097932014,0.9810500914448222,0.28438412910927785,0.7356280913224915
0.065,1.6969909486128611,1.0,2722.9646291516337,0.5186978344283666,1.2872845671495226,0.9812110261739925,0.2843266198417402,0.7368226322631106
0.0655,1.6956216803381545,1.0,2726.677888893125,0.5213975609221683,1.286632406833694,0.9813684997444013,0.28426911057420245,0.7380161458951648
0.066,1.694252412063448,1.0,2730.485795820973,0.524082142772155,1.2859794093527273,0.9815226115358883,0.2842116013066648,0.7392084739357949
0.0665,1.6928831437887413,1.0,2734.3796777562625,0.526751664937167,1.2853256552136332,0.9816734574692103,0.2841540920391271,0.7403994594289252
0.067,1.6915138755140346,1.0,2738.3508413558434,0.5294062123760439,1.284671224923423,0.9818211301530725,0.28409658277158945,0.7415889467493557
0.0675,1.690144607239328,1.0,2742.3905708331213,0.5320458700476259,1.284016198989108,0.9819657190239354,0.2840390735040518,0.7427767816064397
0.068,1.6887753389646214,1.0,2746.495270964445,0.5346707153468995,1.2833606113042728,0.9821073077634082,0.2839815642365141,0.7439628952846582
0.0685,1.6874060706899148,1.0,2750.6548071133084,0.5372808385504383,1.2827045548927654,0.9822459808580549,0.28392405496897644,0.7451471130193987
0.069,1.6860368024152081,1.0,2754.860731240776,0.5398763273481195,1.2820481072525365,0.9823818190713783,0.28386654570143877,0.7463292895257069
0.0695,1.6846675341405015,1.0,2759.109737372543,0.5424572612957451,1.281391299167557,0.9825148977918439,0.28380903643390104,0.7475093646453906
0.07,1.683298265865795,1.0,2763.3985099584697,0.5450237199491168,1.280734161421798,0.982645289918573,0.28375152716636337,0.748687278733418
0.07050000000000001,1.6819289975910883,1.0,2767.7237236367105,0.5475757828640366,1.2800767247992302,0.9827730659612977,0.2836940178988257,0.7498629726585979
0.07100000000000001,1.6805597293163816,1.0,2772.082043019249,0.5501135295963064,1.2794190200838254,0.9828982941356621,0.28363650863128803,0.7510363878041926
0.07150000000000001,1.679190461041675,1.0,2776.47012249891,0.552637039701728,1.2787610780595537,0.9830210404541175,0.28357899936375036,0.7522074660684802
0.07200000000000001,1.6778211927669684,1.0,2780.884606076121,0.5551463927361031,1.278102929510387,0.9831413688126419,0.28352149009621264,0.7533761498652447
0.0725,1.6764519244922618,1.0,2785.3221272082114,0.5576416682552336,1.2774446052202957,0.983259341073503,0.28346398082867497,0.7545423821242165
0.073,1.6750826562175551,1.0,2789.7793086783277,0.5601229458149217,1.276786135973251,0.9833750171442681,0.2834064715611373,0.7557061062914444
