Time [s],Phi [rad],STIM [ ],Fsee [N],Gamma [ ],Lcerel [ ],q [ ],Lmtc [m],fisomrel [ ]
0.0,1.8,1.0,18.22652523012845,0.0005185931029026016,1.3793107925513586,0.005069468068816049,0.288653,0.5412095747897329
0.0005,1.79999375,1.0,18.69531777525981,0.006124893514553559,1.379256155610596,0.014412594721902903,0.2886527375,0.541341736069743
0.001,1.799975,1.0,22.414404909868352,0.011699747013475113,1.3788577349929423,0.03830795457828919,0.28865195,0.5423048999873008
0.0015,1.79994375,1.0,32.696703695814,0.017243329992892777,1.3779093187667135,0.07426452599371633,0.2886506375,0.5445935803229545
0.002,1.7999,1.0,56.85834426194385,0.022755817854621472,1.3761587572606013,0.1190350184551795,0.2886488,0.5488028996688776
0.0025,1.79984375,1.0,102.43192414038242,0.02823738501807553,1.3736825559578454,0.1692582142966411,0.28864643749999996,0.5547236842245273
0.003,1.7997750000000001,1.0,167.74921408315436,0.03368820492425288,1.3709627744942388,0.22210342086488394,0.28864354999999997,0.5611818237867875
0.0035,1.79969375,1.0,245.28883389259073,0.03910845004034308,1.3683523093117735,0.27540385448846877,0.2886401375,0.5673360211246286
0.004,1.7996,1.0,329.5188226940513,0.044498291867048935,1.3659441433194865,0.3275504941191826,0.2886362,0.5729747575579308
0.0045000000000000005,1.7994937500000001,1.0,417.570863372068,0.04985790090902785,1.3637288871117441,0.37743119790327584,0.2886317375,0.5781291348228703
0.005,1.799375,1.0,507.8806432786233,0.05518744686977944,1.3616791725704778,0.4243587003402661,0.28862675,0.5828704595941792
0.0055,1.79924375,1.0,599.3137921712271,0.06048709822181793,1.3597729052864567,0.46797879880817067,0.2886212375,0.5872559203499436
0.006,1.7991000000000001,1.0,691.0380438766967,0.06575702273611249,1.3579920253170383,0.5081760072175588,0.2886152,0.5913319828106027
0.006500000000000001,1.79894375,1.0,782.3398260877444,0.07099738713785429,1.3563232527230846,0.5449968370606448,0.2886086375,0.5951330981149259
0.007,1.798775,1.0,872.6379226565998,0.07620835723124432,1.3547558060053255,0.5785891031525614,0.28860155,0.5986872388568618
0.0075,1.79859375,1.0,961.4528301116667,0.08139009796123749,1.353280777542161,0.6091585209219346,0.2885939375,0.6020175134541015
0.008,1.7984,1.0,1048.3848964711578,0.08654277299616378,1.3518907002126965,0.6369386606944207,0.2885858,0.6051432879586038
0.0085,1.79819375,1.0,1133.1498753113078,0.09166654586191708,1.3505785099584482,0.6621706260133496,0.2885771375,0.6080826159289358
0.009000000000000001,1.797975,1.0,1215.5026420903805,0.09676157852107066,1.3493383193905502,0.6850911097141004,0.28856795,0.6108505695324808
0.0095,1.79774375,1.0,1295.255698191449,0.10182803178524771,1.3481648239855308,0.705924700786155,0.2885582375,0.6134606356477179
0.01,1.7975,1.0,1372.2910772391474,0.10686606602200266,1.347052941405101,0.7248798006713617,0.288548,0.6159255607846543
0.0105,1.79724375,1.0,1446.5456544227447,0.11187584146248973,1.3459978636846237,0.7421470237336583,0.2885372375,0.6182572650691217
0.011,1.796975,1.0,1517.957607581169,0.11685751599934933,1.3449955882149418,0.7578992210141697,0.28852595000000003,0.6204657018884767
0.0115,1.79669375,1.0,1586.5015950596216,0.12181124690623647,1.3440423339582481,0.772291793195984,0.2885141375,0.6225601799890347
0.012,1.7964,1.0,1652.18965858039,0.12673719102723713,1.3431344501195828,0.7854637561431175,0.28850180000000003,0.624549582720445
0.0125,1.79609375,1.0,1715.0639326986443,0.1316355050926844,1.3422684369613276,0.7975390933109567,0.2884889375,0.6264423375639341
0.013000000000000001,1.7957750000000001,1.0,1775.1559190800092,0.1365063436734815,1.341441347043016,0.8086283285895172,0.28847555,0.6282455565352383
0.0135,1.79544375,1.0,1832.504657504046,0.14134986028830862,1.3406505006374125,0.8188297844061785,0.2884616375,0.6299656773452813
0.014,1.7951000000000001,1.0,1887.175878195707,0.14616620838587713,1.339893226039395,0.828230806576091,0.2884472,0.6316090398358826
0.0145,1.79474375,1.0,1939.2482280169347,0.15095554043593712,1.3391669815773266,0.8369090449124419,0.2884322375,0.6331816282134101
0.015,1.794375,1.0,1988.8058680930517,0.15571800905383745,1.3384694023868782,0.8449335879728047,0.28841675,0.6346889784689718
0.0155,1.79399375,1.0,2035.9116859553947,0.1604537637792143,1.3377985510456547,0.852366039200674,0.2884007375,0.6361356470390823
0.016,1.7936,1.0,2080.6443947092653,0.16516295415170384,1.3371524901312613,0.8592612613338043,0.2883842,0.6375261428516894
0.0165,1.7931937500000001,1.0,2123.0916397738565,0.16984572918187799,1.3365293393622097,0.8656681923216567,0.2883671375,0.6388648078712841
0.017,1.792775,1.0,2163.3444681476517,0.17450223759906158,1.335927316471599,0.8716305588272819,0.28834955,0.6401557335720349
0.0175,1.7923437500000001,1.0,2201.499659417108,0.1791326282503942,1.3353446976957606,0.8771874794708828,0.2883314375,0.6414028498958513
0.018000000000000002,1.7919,1.0,2237.6233391403985,0.1837370460731664,1.3347801704198397,0.8823740966477651,0.2883128,0.6426091756813237
0.0185,1.79144375,1.0,2271.7897612676747,0.18831563600466877,1.3342324220289812,0.8872219308268848,0.2882936375,0.6437777042877584
0.019,1.790975,1.0,2304.080636441594,0.1928685429821919,1.3337001399083313,0.8917592997394042,0.28827395,0.6449114050547199
0.0195,1.79049375,1.0,2334.5811547811586,0.1973959114594717,1.3331820443064193,0.8960116930909379,0.2882537375,0.6460131548207757
0.02,1.79,1.0,2363.3721926142584,0.20189788493775357,1.3326769576429895,0.9000021089332304,0.288233,0.6470855926447849
0.0205,1.78949375,1.0,2390.5395821377533,0.20637460766804797,1.3321837062742694,0.9037513109989622,0.2882117375,0.6481313306310266
0.021,1.788975,1.0,2416.1443169687127,0.21082621965274273,1.3317014036773807,0.9072781348251924,0.28818995000000003,0.6491523558624215
0.021500000000000002,1.78844375,1.0,2440.2512392876592,0.21525286089422563,1.331229163329445,0.9105996380636876,0.2881676375,0.6501506420920784
0.022,1.7879,1.0,2462.9287223887354,0.21965467139488448,1.330766098707584,0.9137312928075014,0.2881448,0.6511281503372602
0.0225,1.78734375,1.0,2484.248370654187,0.2240317911571072,1.3303113232889192,0.9166871549144695,0.28812143749999997,0.6520868294232243
0.023,1.786775,1.0,2504.269374470902,0.22838435718680913,1.3298640963338193,0.9194800397083233,0.28809755,0.6530283097891352
0.0235,1.78619375,1.0,2523.073192738401,0.23271251147423963,1.3294234897634654,0.9221215919993282,0.28807313749999996,0.6539546058420282
0.024,1.7856,1.0,2540.709300971864,0.23701638918578657,1.328988900554627,0.9246224943503246,0.2880482,0.6548670386219956
0.0245,1.78499375,1.0,2557.2272453758005,0.24129612512797202,1.3285597421755797,0.9269925111629832,0.2880227375,0.6557668871859585
0.025,1.784375,1.0,2572.6782258894546,0.24555185410731814,1.3281354280945992,0.9292405776609658,0.28799675,0.6566554235624176
0.025500000000000002,1.78374375,1.0,2587.1149559649907,0.249783710930347,1.327715371779961,0.9313748816219862,0.2879702375,0.6575339129436286
0.026000000000000002,1.7831000000000001,1.0,2600.591529973302,0.25399183040358075,1.3272989866999403,0.933402936056936,0.2879432,0.6584036138558429
0.0265,1.78244375,1.0,2613.153098744648,0.2581763434506506,1.3268857810736556,0.9353316572174603,0.2879156375,0.6592655807776342
0.027,1.781775,1.0,2624.860294191087,0.2623373879649007,1.3264751293330534,0.937167390119358,0.28788755,0.6601211413487438
0.0275,1.7810937500000001,1.0,2635.7508073893223,0.26647509394188307,1.326066628038397,0.938916009678986,0.2878589375,0.6609711545907833
0.028,1.7804,1.0,2645.8610195699407,0.2705895906003859,1.325659893037539,0.9405829362746077,0.2878298,0.6618164351619219
0.0285,1.77969375,1.0,2655.2280085789216,0.27468100715919724,1.3252545401783316,0.9421731745449348,0.2878001375,0.6626577936651216
0.029,1.778975,1.0,2663.8894873886725,0.2787494728371052,1.3248501853086274,0.9436913506851287,0.28776995,0.6634960366867042
0.029500000000000002,1.7782437500000001,1.0,2671.883745880418,0.28279511685289793,1.324446444276279,0.9451417459492581,0.2877392375,0.6643319668255085
0.03,1.7775,1.0,2679.2491433353753,0.2868180681346917,1.324042937081169,0.9465283272388094,0.287708,0.6651663741320457
0.0305,1.77674375,1.0,2686.0136998285807,0.2908184482247553,1.3236393827485282,0.9478547841785367,0.2876762375,0.6659998403512489
0.031,1.775975,1.0,2692.2280357419118,0.29479639577863653,1.3232352968454635,0.9491245220094884,0.28764395,0.6668333637539066
0.0315,1.7751937500000001,1.0,2697.915566385798,0.29875203356358615,1.3228304475961807,0.9503407321506797,0.2876111375,0.6676674174261786
0.032,1.7744,1.0,2703.099977667487,0.30268548434685494,1.322424603224885,0.9515063835695289,0.2875778,0.6685024720512611
0.0325,1.77359375,1.0,2707.805201600077,0.30659687089569365,1.3220175319557823,0.9526242410087773,0.2875439375,0.6693389958963862
0.033,1.772775,1.0,2712.055393002095,0.31048631597735304,1.3216090020130775,0.9536968815105471,0.28750955,0.6701774547964041
0.0335,1.7719437500000002,1.0,2715.8749073884405,0.31435394235908387,1.3211987816209767,0.9547267094147949,0.2874746375,0.671018312133929
0.034,1.7711000000000001,1.0,2719.2882800522375,0.31819987280813694,1.320786639003685,0.9557159699892276,0.2874392,0.6718620288160696
0.0345,1.7702437500000001,1.0,2722.3202063381136,0.32202423009176295,1.320372342385408,0.9566667618300293,0.2874032375,0.6727090632477264
0.035,1.7693750000000001,1.0,2724.9948654134555,0.3258271359928254,1.319955665973464,0.9575810485558969,0.28736675,0.6735598590927206
0.035500000000000004,1.76849375,1.0,2727.331028969682,0.3296087045664504,1.3195364342654325,0.9584606721303324,0.2873297375,0.674414755028485
0.036000000000000004,1.7676,1.0,2729.356250022652,0.33336906891495,1.319114392838134,0.9593073549287758,0.2872922,0.6752742483531542
0.0365,1.76669375,1.0,2731.0850372278564,0.33710834476599194,1.3186894066959702,0.9601227203207394,0.2872541375,0.6761385907518191
0.037,1.765775,1.0,2732.531968213334,0.3408266478472444,1.3182613408433446,0.9609082919317777,0.28721555,0.6770080322850653
0.0375,1.76484375,1.0,2733.7116816993066,0.3445240938863753,1.3178300602846595,0.9616655008833973,0.2871764375,0.677882821363041
0.038,1.7639,1.0,2734.638870021829,0.3482007986110525,1.3173954300243174,0.9623956924304363,0.28713679999999997,0.6787632047183632
0.0385,1.76294375,1.0,2735.328272060063,0.35185687774894403,1.3169573150667213,0.9631001320521038,0.28709663750000003,0.6796494273778545
0.039,1.761975,1.0,2735.7946665677628,0.3554924470277179,1.3165155804162738,0.9637800110471143,0.28705595,0.6805417326331291
0.0395,1.7609937500000001,1.0,2736.052865909469,0.3591076221750419,1.3160700910773773,0.964436451678212,0.2870147375,0.6814403620100078
0.04,1.76,1.0,2736.1177101995695,0.36270251891858407,1.3156207120544348,0.965070511906808,0.286973,0.6823455552367717
0.0405,1.7589937500000001,1.0,2735.999380070977,0.36627724683648594,1.3151673508568245,0.9656831923857296,0.2869307375,0.6832574647764391
0.041,1.757975,1.0,2735.7019974580576,0.36983191124737297,1.3147099701680902,0.9662754417473871,0.28688795,0.6841761309846932
0.0415,1.75694375,1.0,2735.254450487469,0.37336665020564763,1.3142483079468326,0.9668481425277411,0.2868446375,0.6851020438538032
0.042,1.7559,1.0,2734.6638398363525,0.37688157122261884,1.3137823000462052,0.9674021402928956,0.28680079999999997,0.6860352939340346
0.0425,1.75484375,1.0,2733.937274741855,0.3803767818095956,1.3133118823193612,0.9679382347723037,0.2867564375,0.6869759706552894
0.043000000000000003,1.753775,1.0,2733.081871197923,0.3838523894778869,1.3128369906194546,0.9684571828046918,0.28671155,0.6879241623091942
0.043500000000000004,1.75269375,1.0,2732.1047502446722,0.38730850173880177,1.312357560799639,0.9689597010660289,0.28666613750000003,0.6888799560309307
0.044,1.7516,1.0,2731.0130363478115,0.3907452261036491,1.3118735287130676,0.9694464685976916,0.2866202,0.6898434377808016
0.0445,1.75049375,1.0,2729.8138558701826,0.394162670083738,1.3113848302128943,0.9699181291512989,0.2865737375,0.6908146923255325
0.045,1.7493750000000001,1.0,2728.5143356338717,0.3975609411903774,1.3108914011522725,0.9703752933651858,0.28652675,0.6917938032193136
0.0455,1.74824375,1.0,2727.121601573693,0.4009401469348763,1.3103931773843562,0.9708185407861355,0.2864792375,0.6927808527845778
0.046,1.7471,1.0,2725.64277748255,0.40430039482854363,1.3098900947622985,0.9712484217487668,0.2864312,0.6937759220925181
0.0465,1.7459437500000001,1.0,2724.08498384692,0.40764179238268844,1.3093820891392531,0.9716654591238697,0.28638263750000004,0.6947790909433393
0.047,1.744775,1.0,2722.4553367744834,0.4109644471086197,1.3088690963683736,0.9720701499459963,0.28633355,0.6957904378462512
0.0475,1.74359375,1.0,2720.7609470127964,0.41426846651764637,1.3083510523028137,0.9724629669297076,0.28628393750000003,0.6968100399991948
0.048,1.7424,1.0,2719.004488879672,0.4175539449984066,1.3078279331420062,0.9728443610728339,0.2862338,0.6978378940609713
0.0485,1.74119375,1.0,2717.192893019226,0.4208209973296873,1.3072996762989544,0.9732147615943472,0.2861831375,0.6988740718959116
0.049,1.739975,1.0,2715.332318211706,0.4240697332482001,1.3067662261543915,0.9735745771449813,0.28613195,0.6999186303921962
0.0495,1.73874375,1.0,2713.425895024863,0.42730025207490313,1.3062275546329838,0.97392419775528,0.2860802375,0.700971571375966
0.05,1.7375,1.0,2711.4767509490553,0.43051265313075476,1.3056836336593969,0.9742639952857586,0.286028,0.7020328957678178
0.0505,1.73624375,1.0,2709.4880101417407,0.43370703573671326,1.305134435158297,0.9745943244335115,0.2859752375,0.7031026035734282
0.051000000000000004,1.734975,1.0,2707.4627931903487,0.4368834992137369,1.30457993105435,0.9749155236743714,0.28592195,0.7041806938741307
0.051500000000000004,1.73369375,1.0,2705.404216891886,0.44004214288278404,1.304020093272222,0.9752279161452775,0.2858681375,0.7052671648174411
0.052000000000000005,1.7324,1.0,2703.315394050372,0.4431830660648129,1.3034548937365786,0.9755318104711452,0.2858138,0.7063620136075311
0.0525,1.73109375,1.0,2701.1994332918202,0.4463063680807817,1.3028843043720864,0.9758275015401776,0.28575893750000003,0.7074652364956548
0.053,1.729775,1.0,2699.0594388963964,0.44941214825164894,1.3023082971034106,0.9761152712312551,0.28570355000000003,0.7085768287705232
0.0535,1.72844375,1.0,2696.8985106482214,0.45250050589837276,1.3017268438552179,0.9763953890967526,0.2856476375,0.7096967847486255
0.054,1.7271,1.0,2694.7197437029417,0.45557154034191144,1.3011399165521738,0.9766681130038688,0.2855912,0.7108250977645084
0.0545,1.7257437500000001,1.0,2692.5262284720243,0.4586253509032233,1.3005474871189444,0.9769336897373241,0.2855342375,0.7119617601609947
0.055,1.724375,1.0,2690.3174541022395,0.4616620053001384,1.299949560407505,0.9771923544950112,0.28547675,0.713106700291277
0.0555,1.72299375,1.0,2688.099937653954,0.4646816388039869,1.2993460769079384,0.977444335197095,0.2854187375,0.7142599688769984
0.056,1.7216,1.0,2685.875459804551,0.4676843481822058,1.2987370204130169,0.977689849079662,0.2853602,0.7154215326363289
0.0565,1.72019375,1.0,2683.6451328458893,0.4706702243261126,1.2981223808160878,0.9779291041767628,0.28530113749999997,0.7165913458435827
0.057,1.718775,1.0,2681.4100672665445,0.4736393581270248,1.297502148010498,0.9781622999708369,0.28524155,0.7177693620189405
0.0575,1.71734375,1.0,2679.1713717383486,0.47659184047625996,1.2968763118895952,0.9783896278111751,0.2851814375,0.7189555339248463
0.058,1.7159,1.0,2676.930153106599,0.4795277622651355,1.2962448623467262,0.9786112713086513,0.2851208,0.720149813562402
0.0585,1.71444375,1.0,2674.6875163814557,0.4824472143849689,1.2956077892752382,0.9788274067082476,0.2850596375,0.7213521521677498
0.059000000000000004,1.7129750000000001,1.0,2672.4445647318953,0.4853502877270777,1.2949650825684786,0.9790382032407862,0.28499795,0.7225625002084521
0.059500000000000004,1.71149375,1.0,2670.202399482388,0.4882370731827794,1.2943167321197946,0.9792438234551856,0.2849357375,0.7237808073798632
0.06,1.71,1.0,2667.9621201109585,0.4911076616433915,1.293662727822533,0.9794444235324595,0.284873,0.7250070226014953
0.0605,1.7084937500000001,1.0,2665.724824250356,0.4939621440002314,1.2930030595700412,0.9796401535825978,0.2848097375,0.7262410940133766
0.061,1.7069750000000001,1.0,2663.4916076909426,0.4968006111446167,1.2923377172556667,0.9798311579253852,0.28474595,0.7274829689724039
0.0615,1.7054437500000001,1.0,2661.263564385968,0.4996231539678649,1.2916666907727563,0.9800175753561435,0.2846816375,0.7287325940486906
0.062,1.7039,1.0,2659.0417864597316,0.5024298633612934,1.2909899700146572,0.9801995393973133,0.2846168,0.7299899150219034
0.0625,1.70234375,1.0,2656.827364216514,0.5052208302162198,1.290307544874717,0.9803771785367337,0.2845514375,0.7312548768775963
0.063,1.7007750000000001,1.0,2654.6213861536244,0.5079961454239614,1.2896194052462822,0.9805506164534135,0.28448555,0.7325274238035389
0.0635,1.69919375,1.0,2652.4225126137812,0.5107558569168013,1.2889255633955563,0.9807199702062924,0.28441913750000003,0.7338074579609706
0.064,1.6976,1.0,2650.23317550793,0.5135000939849512,1.2882259968182712,0.980885356755325,0.2843522,0.7350949450194959
0.0645,1.69599375,1.0,2648.0544797574375,0.5162289582682629,1.2875206952192162,0.9810468873539129,0.2842847375,0.736389827234243
0.065,1.694375,1.0,2645.886486310857,0.5189425313446784,1.2868096579247845,0.9812046682576837,0.28421675,0.7376920284472834
0.0655,1.69274375,1.0,2643.729256051316,0.5216408947921399,1.2860928842613695,0.9813588019011703,0.2841482375,0.73900147185909
0.066,1.6911,1.0,2641.582849798067,0.5243241301885897,1.2853703735553648,0.9815093870610551,0.2840792,0.7403180800282895
0.0665,1.6894437500000001,1.0,2639.4473283080174,0.5269923191119698,1.2846421251331634,0.9816565190113054,0.2840096375,0.7416417748714175
0.067,1.687775,1.0,2637.3227522764582,0.5296455431402225,1.2839081383211592,0.9818002896706609,0.28393955,0.7429724776626707
0.0675,1.68609375,1.0,2635.2091823392298,0.5322838838512899,1.2831684124457452,0.9819407877428952,0.2838689375,0.7443101090336618
0.068,1.6844000000000001,1.0,2633.106679073567,0.5349074228231143,1.2824229468333153,0.9820780988502579,0.2837978,0.7456545889731709
0.0685,1.68269375,1.0,2631.0153029997996,0.5375162416336378,1.2816717408102625,0.9822123056604724,0.2837261375,0.7470058368269016
0.069,1.680975,1.0,2628.935114582639,0.5401104218608024,1.2809147937029801,0.9823434880076408,0.28365395,0.7483637712972326
0.0695,1.67924375,1.0,2626.866174232543,0.5426900450825506,1.2801521048378621,0.9824717230073909,0.28358123749999997,0.7497283104429704
0.07,1.6775,1.0,2624.8085423075067,0.5452551928768243,1.2793836735413013,0.9825970851665728,0.283508,0.7510993716791058
0.07050000000000001,1.67574375,1.0,2622.762279113932,0.5478059468215659,1.2786094991396917,0.982719646487802,0.2834342375,0.752476871776563
0.07100000000000001,1.673975,1.0,2620.7274449086603,0.5503423884947175,1.2778295809594262,0.9828394765691205,0.28335995,0.7538607268619568
0.07150000000000001,1.67219375,1.0,2618.704099899965,0.5528645994742212,1.2770439183268985,0.9829566426990378,0.2832851375,0.7552508524173431
0.07200000000000001,1.6704,1.0,2616.6923042495046,0.5553726613380192,1.2762525105685019,0.983071209947191,0.2832098,0.7566471632799737
0.0725,1.66859375,1.0,2614.6921180733657,0.5578666556640536,1.2754553570106297,0.9831832412508594,0.2831339375,0.7580495736420488
0.073,1.6667750000000001,1.0,2612.703601443783,0.5603466640302668,1.2746524569796758,0.9832927974975413,0.28305755,0.7594579970504699
0.0735,1.66494375,1.0,2610.72727145218,0.5628127679350252,1.2738438055540653,0.9833999374100714,0.2829806375,0.7608723538254697
0.074,1.6631,1.0,2608.7667180487483,0.5652650425221658,1.2730293692352983,0.983504716191761,0.2829032,0.7622926133130585
0.0745,1.6612437500000001,1.0,2606.816364195492,0.5677035621078232,1.2722091997381313,0.9836071909743613,0.2828252375,0.7637185955928767
0.075,1.659375,1.0,2604.8770424635245,0.5701284033810948,1.2713832892170964,0.9837074146243389,0.28274675,0.7651502242784114
