Time [s],Phi [rad],STIM [ ],Fsee [N],Gamma [ ],Lcerel [ ],q [ ],Lmtc [m],fisomrel [ ]
0.0,1.8,1.0,17.976177304901928,9.365155684267302e-05,1.3793387359014884,0.005002296611659958,0.288653,0.5411419752699644
0.0005,1.79999375,1.0,18.313170953898844,0.00570233555448844,1.3792983434943462,0.013174377085794713,0.2886527375,0.5412396894848372
0.001,1.799975,1.0,21.716946091690122,0.011279559269424857,1.3789282466457289,0.03604580309723366,0.28865195,0.5421345149680921
0.0015,1.79994375,1.0,31.300752445541182,0.016825499169888677,1.378026515931636,0.07119934979668652,0.2886506375,0.544311075422795
0.002,1.7999,1.0,54.079006240221325,0.022340330732352913,1.3763359879519987,0.1154250993242613,0.2886488,0.5483776281001054
0.0025,1.79984375,1.0,97.95171152595461,0.027824228449636966,1.3738951235322352,0.16534378965250995,0.28864643749999996,0.5542169534400976
0.003,1.7997750000000001,1.0,162.040569269759,0.033277365837866585,1.3711738962882578,0.21807348987826328,0.28864354999999997,0.5606822025325052
0.0035,1.79969375,1.0,238.9056482598193,0.03869991543668065,1.3685471319265394,0.2714015206798174,0.2886401375,0.5668782256017919
0.004,1.7996,1.0,322.7667885369655,0.044092048819836124,1.3661216946472312,0.32367932288777995,0.2886362,0.5725602828719375
0.0045000000000000005,1.7994937500000001,1.0,410.6136689587235,0.04945393660044574,1.363891246269211,0.37375922760263675,0.2886317375,0.5777524263030627
0.005,1.799375,1.0,500.78661595871375,0.054785748422516316,1.3618291838639565,0.42092544864238424,0.28862675,0.5825243676796659
0.0055,1.79924375,1.0,592.1753701064928,0.060087653003896305,1.3599117922549773,0.4648013847352069,0.2886212375,0.5869371868488842
0.006,1.7991000000000001,1.0,683.9042626085567,0.06535981809023288,1.3581212309323982,0.505256787617037,0.2886152,0.5910369386334946
0.006500000000000001,1.79894375,1.0,775.2593362308099,0.07060241050033866,1.3564437393788358,0.5423281600646248,0.2886086375,0.5948592495460223
0.007,1.798775,1.0,865.6306917018977,0.07581559580153065,1.3548686793113407,0.5761575677028395,0.28860155,0.5984318253948497
0.0075,1.79859375,1.0,954.5821224647298,0.08099953990245005,1.3533861926432922,0.6069470361047554,0.2885939375,0.601779970819764
0.008,1.7984,1.0,1041.6769646813846,0.08615440603815828,1.3519892400867033,0.6349291682905067,0.2885858,0.6049221137218914
0.0085,1.79819375,1.0,1126.5941269815357,0.09128035707577505,1.3506711279767916,0.6603452365182805,0.2885771375,0.6078755102151936
0.009000000000000001,1.797975,1.0,1209.1193926570115,0.09637755563477697,1.3494253801685216,0.6834322726175599,0.28856795,0.610656580657156
0.0095,1.79774375,1.0,1289.0763636902268,0.10144616317044092,1.3482464578269902,0.7044158526886838,0.2885582375,0.6132793514379923
0.01,1.7975,1.0,1366.3238035995157,0.1064863396878458,1.3471295210071947,0.7235058276448857,0.288548,0.6157560447873582
0.0105,1.79724375,1.0,1440.773400041137,0.1114982446064878,1.3460700077591297,0.7408943059196074,0.2885372375,0.618098053984681
0.011,1.796975,1.0,1512.3961978256852,0.1164820371763359,1.3450634367983523,0.7567552543869117,0.28852595000000003,0.6203164049263697
0.0115,1.79669375,1.0,1581.156754876097,0.12143787446178325,1.3441061115457342,0.7712454109997698,0.2885141375,0.6224202295818709
0.012,1.7964,1.0,1647.056212776796,0.12636591317303092,1.3431944712468449,0.7845050296840819,0.28850180000000003,0.6244182235510158
0.0125,1.79609375,1.0,1710.123941898358,0.13126630928221447,1.3423251243471932,0.7966592253109495,0.2884889375,0.6263185881399194
0.013000000000000001,1.7957750000000001,1.0,1770.412911410226,0.13613921877155233,1.3414948420612125,0.8078193863975057,0.28847555,0.6281290588188377
0.0135,1.79544375,1.0,1827.95918842457,0.140984794920939,1.3407009566709402,0.8180847245845769,0.2884616375,0.6298560526897516
0.014,1.7951000000000001,1.0,1882.8231295363548,0.14580319082223686,1.3399408357367473,0.8275433860534631,0.2884472,0.6315058297149293
0.0145,1.79474375,1.0,1935.07828368601,0.15059455879246111,1.3392119735035362,0.8362737282874767,0.2884322375,0.6330843017596821
0.015,1.794375,1.0,1984.8141461624282,0.15535905186328455,1.3385119298565482,0.8443454275724224,0.28841675,0.6345971726555976
0.0155,1.79399375,1.0,2032.1024260210354,0.1600968204655236,1.3378386609666846,0.8518205975769627,0.2884007375,0.6360492320033087
0.016,1.7936,1.0,2077.011453680676,0.1648080134995023,1.3371903288564944,0.8587546149197028,0.2883842,0.6374447771863814
0.0165,1.7931937500000001,1.0,2119.623706545998,0.16949277986554473,1.3365650955485269,0.8651968529634226,0.2883671375,0.6387880626862595
0.017,1.792775,1.0,2160.0306107556535,0.17415126805389808,1.3359611638288647,0.871191404943918,0.28834955,0.6400832155572538
0.0175,1.7923437500000001,1.0,2198.321936505737,0.17878362589908328,1.3353768713874605,0.8767777337035216,0.2883314375,0.6413340374309909
0.018000000000000002,1.7919,1.0,2234.5902044051204,0.18339000124775012,1.3348106306259173,0.8819911981902813,0.2883128,0.6425441378184809
0.0185,1.79144375,1.0,2268.902865367916,0.18797053839934083,1.3342611941891618,0.8868635974253238,0.2882936375,0.643716371362358
0.019,1.790975,1.0,2301.334648785438,0.19252538165329783,1.3337273147221198,0.8914234953160545,0.28827395,0.6448535695419746
0.0195,1.79049375,1.0,2331.9669589170485,0.19705467530906332,1.3332077448697184,0.8956965917984024,0.2882537375,0.6459585419605761
0.02,1.79,1.0,2360.8788840242414,0.20155856250200296,1.3327013195868982,0.8997060664390374,0.288233,0.6470339028862775
0.0205,1.78949375,1.0,2388.157125222151,0.20603718738414564,1.3322068521017159,0.9034728385522417,0.2882117375,0.6480822940582547
0.021,1.788975,1.0,2413.876741111956,0.21049069210385793,1.3317233160649156,0.907015856050192,0.28818995000000003,0.6491059999327046
0.021500000000000002,1.78844375,1.0,2438.0977853910535,0.2149192160722442,1.3312498695831223,0.9103523145866381,0.2881676375,0.6501069001950397
0.022,1.7879,1.0,2460.8837624559137,0.21932289870040883,1.3307856707629615,0.9134978093116065,0.2881448,0.6510868623019695
0.0225,1.78734375,1.0,2482.3013415545483,0.22370187939945624,1.330329877711059,0.9164665059685446,0.28812143749999997,0.6520477420006274
0.023,1.786775,1.0,2502.4191359987335,0.2280562974059926,1.3298816575586865,0.9192712933577737,0.28809755,0.6529913648161145
0.0235,1.78619375,1.0,2521.2940625091383,0.23238628930289407,1.3294403128923669,0.9219239386197252,0.28807313749999996,0.6539192609737865
0.024,1.7856,1.0,2539.0082261914,0.23669199612041475,1.329004929539039,0.924435141028248,0.2880482,0.6548334066932782
0.0245,1.78499375,1.0,2555.6076109340106,0.2409735520611123,1.3285749542521306,0.926814738340481,0.2880227375,0.6557350109636808
0.025,1.784375,1.0,2571.1398073795663,0.24523109132754442,1.328149833785069,0.9290717318198842,0.28799675,0.6566252761059681
0.025500000000000002,1.78374375,1.0,2585.653880735394,0.24946474812226882,1.3277290148912821,0.9312143687793466,0.2879702375,0.657505397954049
0.026000000000000002,1.7831000000000001,1.0,2599.2002453707573,0.25367465664784317,1.3273119443241974,0.9332502159738273,0.2879432,0.6583765660163058
0.0265,1.78244375,1.0,2611.8304892331444,0.2578609510788221,1.3268980693665873,0.9351862250245272,0.2879156375,0.659239962514024
0.027,1.781775,1.0,2623.590254680955,0.26202376166725294,1.3264869027915198,0.9370287990416946,0.28788755,0.6600966272500022
0.0275,1.7810937500000001,1.0,2634.534913447794,0.26616322557416017,1.3260778761856455,0.9387838261662639,0.2878589375,0.6609477635913865
0.028,1.7804,1.0,2644.699960213318,0.2702794715417143,1.3256706133128535,0.9404567611732361,0.2878298,0.6617941697207584
0.0285,1.77969375,1.0,2654.1215809446094,0.27437262831208564,1.3252647379370324,0.9420526399996398,0.2878001375,0.6626366398429645
0.029,1.778975,1.0,2662.8365926624056,0.27844282462744474,1.3248598738220716,0.9435761173559485,0.28776995,0.66347596422292
0.029500000000000002,1.7782437500000001,1.0,2670.8823863460393,0.282490189229962,1.3244556447318596,0.9450315005085245,0.2877392375,0.6643129292143919
0.03,1.7775,1.0,2678.296872976318,0.2865148508618078,1.324051674430286,0.9464227796645907,0.287708,0.6651483172797448
0.0305,1.77674375,1.0,2685.1086596894875,0.29051693362643155,1.3236476762455918,0.9477536654706364,0.2876762375,0.6659827221327443
0.031,1.775975,1.0,2691.354505752446,0.29449656744162706,1.3232432923248656,0.9490275955312313,0.28764395,0.6668168812722625
0.0315,1.7751937500000001,1.0,2697.077353876254,0.2984538849168696,1.3228381116946442,0.9502477587210585,0.2876111375,0.6676516378744786
0.032,1.7744,1.0,2702.299680219624,0.30238900815521896,1.3224319136040694,0.9514171416407886,0.2875778,0.6684874396990368
0.0325,1.77359375,1.0,2707.0442014685873,0.30630205925973497,1.322024477302284,0.9525385252392833,0.2875439375,0.6693247322008635
0.033,1.772775,1.0,2711.3338527266264,0.3101931603334775,1.3216155820384299,0.9536145014690343,0.28750955,0.670163958514292
0.0335,1.7719437500000002,1.0,2715.191766485871,0.3140624334795063,1.3212050070616495,0.9546474884025918,0.2874746375,0.6710055594340745
0.034,1.7711000000000001,1.0,2718.64125267824,0.31791000080088117,1.320792531621085,0.9556397439685486,0.2874392,0.6718499733932884
0.0345,1.7702437500000001,1.0,2721.705779807546,0.321735984400662,1.3203779349658784,0.9565933784477385,0.2874032375,0.6726976364381358
0.035,1.7693750000000001,1.0,2724.408957161449,0.3255405063819085,1.3199609963451726,0.957510365854595,0.28736675,0.6735489821996314
0.035500000000000004,1.76849375,1.0,2726.7745181043033,0.3293236888476806,1.3195414950081097,0.9583925543148021,0.2873297375,0.6744044418621882
0.036000000000000004,1.7676,1.0,2728.8169192708106,0.3330856464530258,1.31911929552217,0.9592416826292078,0.2872922,0.6752642704892664
0.0365,1.76669375,1.0,2730.563284561795,0.33682650686978954,1.3186941480805963,0.9600593727152642,0.2872541375,0.676128954015252
0.037,1.765775,1.0,2732.030632721319,0.3405463882107612,1.3182658954735829,0.9608471538663135,0.28721555,0.6769987875586685
0.0375,1.76484375,1.0,2733.232735525954,0.344245405653134,1.3178344105600939,0.9616064647572764,0.2871764375,0.6778740033925947
0.038,1.7639,1.0,2734.1834171855608,0.347923674374101,1.317399566199093,0.962338657663662,0.28713679999999997,0.678754832195879
0.0385,1.76294375,1.0,2734.8965477213324,0.3515813095508553,1.316961235249544,0.9630450045958252,0.28709663750000003,0.6796415030264136
0.039,1.761975,1.0,2735.386036701179,0.3552184263605903,1.3165192905704106,0.9637267029334117,0.28705595,0.6805342432933801
0.0395,1.7609937500000001,1.0,2735.66582733474,0.358835139980499,1.3160736050206567,0.9643848806056775,0.2870147375,0.6814332787284627
0.04,1.76,1.0,2735.7498909256633,0.36243156558777456,1.3156240514592463,0.9650206008587604,0.286973,0.6823388333560301
0.0405,1.7589937500000001,1.0,2735.6522216831504,0.3660078183596102,1.3151705027451432,0.9656348666468784,0.2869307375,0.6832511294622885
0.041,1.757975,1.0,2735.380116136392,0.3695640034590688,1.3147128927153011,0.9662286282036845,0.28688795,0.6841702651746409
0.0415,1.75694375,1.0,2734.9491313939784,0.3731002427330376,1.314251080338568,0.9668027795712757,0.2868446375,0.6850964875830448
0.042,1.7559,1.0,2734.373339377271,0.3766166549549507,1.3137849381614357,0.9673581663247071,0.28680079999999997,0.6860300146142346
0.0425,1.75484375,1.0,2733.660063475636,0.380113347932131,1.3133144000831953,0.9678955914028489,0.2867564375,0.6869709397337609
0.043000000000000003,1.753775,1.0,2732.816634036964,0.38359042947190103,1.312839400003139,0.9684158146463927,0.28671155,0.6879193552476914
0.043500000000000004,1.75269375,1.0,2731.8503865859725,0.3870480073815837,1.3123598718205587,0.9689195555412039,0.28666613750000003,0.6888753522839418
0.044,1.7516,1.0,2730.768660137907,0.3904861894685016,1.311875749434746,0.9694074957605756,0.2866202,0.6898390207733277
0.0445,1.75049375,1.0,2729.5787956106906,0.3939050835399776,1.3113869667449927,0.9698802815229891,0.2865737375,0.6908104494303343
0.045,1.7493750000000001,1.0,2728.288134332467,0.3973047974033344,1.3108934576505908,0.9703385257804488,0.28652675,0.6917897257336106
0.0455,1.74824375,1.0,2726.9040166467807,0.4006854388658947,1.3103951560508322,0.9707828102511149,0.2864792375,0.6927769359061846
0.046,1.7471,1.0,2725.433780615018,0.4040471157349812,1.3098919958450086,0.9712136873087078,0.2864312,0.6937721648953992
0.0465,1.7459437500000001,1.0,2723.884760814606,0.4073899358179167,1.3093839109324115,0.9716316817400681,0.28638263750000004,0.6947754963525692
0.047,1.744775,1.0,2722.2642872349147,0.4107140069220239,1.3088708352123333,0.972037292381237,0.28633355,0.6957870126123586
0.0475,1.74359375,1.0,2720.5746167010616,0.4140194197337395,1.3083527487218287,0.9724309947319545,0.28628393750000003,0.6968067039403468
0.048,1.7424,1.0,2718.825975367266,0.41730629819810366,1.3078295589177489,0.9728132403777798,0.2862338,0.6978347023485465
0.0485,1.74119375,1.0,2717.0236984540534,0.42057474935345257,1.3073012177165508,0.9731844601536387,0.2861831375,0.6988710509882814
0.049,1.739975,1.0,2715.1711265018776,0.42382487305360267,1.3067676951653353,0.973545064774301,0.28613195,0.6999157563869512
0.0495,1.73874375,1.0,2713.2715970616914,0.42705676915237045,1.3062289613112024,0.9738954456248069,0.2860802375,0.7009688241526215
0.05,1.7375,1.0,2711.328444396581,0.43027053750357225,1.3056849862012525,0.974235975842127,0.286028,0.7020302589640945
0.0505,1.73624375,1.0,2709.3449992037486,0.4334662779610245,1.3051357398825858,0.974567011326884,0.2859752375,0.7031000645609278
0.051000000000000004,1.734975,1.0,2707.324588355997,0.4366440903785436,1.3045811924023027,0.9748888916902466,0.28592195,0.7041782437333911
0.051500000000000004,1.73369375,1.0,2705.2705346635607,0.4398040746099461,1.3040213138075034,0.9752019411406824,0.2858681375,0.705264798312371
0.052000000000000005,1.7324,1.0,2703.186156655406,0.4429463305090483,1.3034560741452885,0.9755064693148924,0.2858138,0.706359729159213
0.0525,1.73109375,1.0,2701.074768380845,0.4460709579296666,1.302885443462758,0.9758027720568939,0.28575893750000003,0.7074630361555118
0.053,1.729775,1.0,2698.939679230524,0.44917805672561756,1.302309391807012,0.9760911321489081,0.28570355000000003,0.7085747181928395
0.0535,1.72844375,1.0,2696.7841937778503,0.4522677267507175,1.3017278892251514,0.9763718199974272,0.2856476375,0.7096947731624197
0.054,1.7271,1.0,2694.611611640028,0.4553400678587829,1.3011409057642762,0.9766450942775649,0.2855912,0.7108231979447428
0.0545,1.7257437500000001,1.0,2692.4225926739764,0.45839517877622,1.300548435584103,0.9769112038859555,0.2855342375,0.7119599421809575
0.055,1.724375,1.0,2690.2172035751196,0.46143315372311017,1.299950478267252,0.9771703869991767,0.28547675,0.7131049444746391
0.0555,1.72299375,1.0,2688.000665928162,0.46445408800036414,1.2993469861808526,0.977422869045796,0.2854187375,0.7142582329860983
0.056,1.7216,1.0,2685.7773574231555,0.46745807703096215,1.2987379193473298,0.9776688664726261,0.2853602,0.7154198199745799
0.0565,1.72019375,1.0,2683.545373774625,0.4704452159778744,1.298123295310946,0.9779085900480968,0.28530113749999997,0.7165896071203522
0.057,1.718775,1.0,2681.31035872493,0.47341559975320757,1.2975030624230137,0.9781422378663974,0.28524155,0.717767627069287
0.0575,1.71734375,1.0,2679.0719332541707,0.4763693219677795,1.2968772242063618,0.9783700029490191,0.2851814375,0.7189538065928751
0.058,1.715900952985379,1.0,2676.871885573698,0.47930647595384396,1.296245827535166,0.9785920729187177,0.2851208400253859,0.7201479900127701
0.0585,1.7144558340338805,1.0,2675.1525061314346,0.48222715476207745,1.2956089770971777,0.9788086310694427,0.285060145029423,0.7213499128174754
0.059000000000000004,1.7130107150823821,1.0,2673.979005064106,0.4851314511831096,1.2949671184006672,0.9790198722202604,0.28499945003346006,0.7225586704796134
0.059500000000000004,1.7115655961308835,1.0,2673.3089284031703,0.48801945672004443,1.294320638072194,0.9792259802304206,0.2849387550374971,0.7237734757805374
0.06,1.710120477179385,1.0,2673.102203805644,0.49089126266021754,1.2936699024376241,0.9794271307061415,0.28487806004153415,0.7249935854664424
0.0605,1.7086753582278866,1.0,2673.3297916140077,0.49374695743526703,1.2930151777208079,0.9796234868909157,0.2848173650455712,0.7262184490600874
0.061,1.707230239276388,1.0,2673.938423370781,0.4965866363403121,1.2923569536234203,0.9798152182587019,0.2847566700496083,0.7274471035332695
0.0615,1.7057851203248895,1.0,2674.8985983607645,0.4994103888132125,1.2916955022126737,0.9800024759490163,0.28469597505364536,0.7286789986890818
0.062,1.7043400013733911,1.0,2676.186895548007,0.5022183027133669,1.291031040223946,0.9801854024254965,0.2846352800576824,0.7299136914099743
0.0625,1.7028948824218926,1.0,2677.7799344457717,0.5050104659001736,1.2903637843926146,0.9803641348623676,0.2845745850617195,0.7311507420701506
0.063,1.701449763470394,1.0,2679.654361170198,0.5077869662330313,1.2896939514540569,0.9805388053862535,0.28451389006575656,0.7323897145756841
0.0635,1.7000046445188957,1.0,2681.7868355358887,0.5105478915713387,1.2890217581436505,0.9807095413052594,0.2844531950697936,0.7336301764016364
0.064,1.698559525567397,1.0,2684.1540191925833,0.5132933297744943,1.288347421196773,0.9808764653260801,0.28439250007383066,0.7348716986261825
0.0645,1.6971144066158987,1.0,2686.7327041028543,0.5160233686335022,1.2876711560725878,0.9810396956907614,0.28433180507786776,0.7361138583031277
0.065,1.6956692876644002,1.0,2689.5096145133725,0.5187380920031377,1.2869930871115265,0.9811993416187489,0.2842711100819048,0.73735640290241
0.0655,1.6942241687129016,1.0,2692.458759371536,0.5214375910759356,1.286313454974258,0.9813555147426453,0.28421041508594186,0.7385988695813249
0.066,1.6927790497614033,1.0,2695.5687457923323,0.5241219495001148,1.2856323664349494,0.9815083157044769,0.28414972008997896,0.739841043510111
0.0665,1.6913339308099047,1.0,2698.8281687697654,0.5267912509238947,1.2849499282677663,0.9816578416476075,0.284089025094016,0.7410827116715397
0.067,1.6898888118584061,1.0,2702.225607855335,0.5294455789954943,1.2842662472468753,0.9818041863659044,0.28402833009805306,0.7423236628704667
0.0675,1.6884436929069078,1.0,2705.749624089486,0.5320850173631327,1.2835814301464428,0.981947440445561,0.2839676351020901,0.7435636877426601
0.068,1.6869985739554092,1.0,2709.3887571855375,0.5347096496750293,1.2828955837406353,0.9820876913999872,0.28390694010612716,0.7448025787628993
0.0685,1.6855534550039106,1.0,2713.1315229669667,0.5373195595794031,1.282208814803619,0.9822250237981494,0.28384624511016426,0.746040130252349
0.069,1.6841083360524123,1.0,2716.96949746498,0.5399148274712129,1.2815212019906475,0.9823595178562723,0.2837855501142013,0.7472761888703479
0.0695,1.6826632171009137,1.0,2720.8943089072122,0.5424955352861413,1.2808328233055737,0.9824912511979754,0.28372485511823836,0.7485106038081009
0.07,1.6812180981494151,1.0,2724.8907595741566,0.5450617731740525,1.2801438186630185,0.9826203022765109,0.28366416012227547,0.7497431150028757
0.07050000000000001,1.6797729791979168,1.0,2728.9540816730973,0.5476136199189334,1.2794542327812959,0.9827467419049241,0.2836034651263125,0.7509736345045195
0.07100000000000001,1.6783278602464182,1.0,2733.0794951238267,0.5501511543047708,1.2787641103787197,0.9828706385960937,0.28354277013034956,0.7522020751427327
0.07150000000000001,1.6768827412949197,1.0,2737.2622070040707,0.5526744551155514,1.2780734961736036,0.9829920586540324,0.2834820751343866,0.7534283505286636
0.07200000000000001,1.6754376223434213,1.0,2741.4974110400067,0.5551836011352619,1.2773824348842617,0.9831110662609869,0.28342138013842366,0.7546523750563722
0.0725,1.6739925033919227,1.0,2745.780287140761,0.557678671147889,1.2766909712290075,0.9832277235605655,0.28336068514246077,0.7558740639041726
0.073,1.6725473844404244,1.0,2750.106000977072,0.5601597439374197,1.2759991499261554,0.9833420907370939,0.2832999901464978,0.7570933330358406
0.0735,1.6711022654889258,1.0,2754.46970360492,0.5626268982878406,1.2753070156940185,0.9834542260913958,0.28323929515053486,0.7583100992017011
