Time [s],Phi [rad],STIM [ ],Fsee [N],Gamma [ ],Lcerel [ ],q [ ],Lmtc [m],fisomrel [ ]
0.0,1.8,1.0,17.97073554058947,5.9443005824591284e-05,1.379339345454254,0.005000928577581948,0.288653,0.5411405006069459
0.0005,1.79999375,1.0,18.29650102738964,0.0056683188863807365,1.3793001937773244,0.013078346673476092,0.2886527375,0.5412352136495031
0.001,1.799975,1.0,21.674877317761403,0.011245733407927061,1.378932535668299,0.03586668069768874,0.28865195,0.5421241499106928
0.0015,1.79994375,1.0,31.204093965883946,0.016791863044716318,1.378034726734391,0.07095471989098023,0.2886506375,0.5442912799198159
0.002,1.7999,1.0,53.8735527078948,0.02230688327927441,1.3763492680021219,0.11513573785485082,0.2886488,0.5483457540633516
0.0025,1.79984375,1.0,97.60869401304174,0.02779096861030271,1.3739115967474385,0.16502921064352458,0.28864643749999996,0.5541776716128219
0.003,1.7997750000000001,1.0,161.5957458089732,0.033244292559938486,1.371190502154647,0.21774909230262474,0.28864354999999997,0.5606428925707301
0.0035,1.79969375,1.0,238.4038863000233,0.038667027673710934,1.3685625560365442,0.2710789650120995,0.2886401375,0.5668419715810243
0.004,1.7996,1.0,322.23346949483334,0.04405934553122367,1.366135797584017,0.3233670667295593,0.2886362,0.5725273524474356
0.0045000000000000005,1.7994937500000001,1.0,410.0617562348572,0.04942141675136835,1.3639041848634237,0.3734628601895884,0.2886317375,0.5777223987209412
0.005,1.799375,1.0,500.2237223829126,0.0547534109836659,1.3618411322543444,0.4206482057844656,0.28862675,0.5824967953089732
0.0055,1.79924375,1.0,591.6078319424728,0.06005549695304041,1.3599228702552826,0.46454471941814685,0.2886212375,0.586911758505099
0.006,1.7991000000000001,1.0,683.3365630170009,0.06532784240948299,1.3581315418771085,0.5050209230415476,0.2886152,0.5910133887523116
0.006500000000000001,1.79894375,1.0,774.6975612922736,0.07057061418165121,1.356453322454857,0.54211248192492,0.2886086375,0.5948374646393297
0.007,1.798775,1.0,865.0915258099142,0.07578397813079639,1.3548773831555183,0.5759608636354714,0.28860155,0.5984121266731233
0.0075,1.79859375,1.0,954.0361741080571,0.0809680992117498,1.3533945852022724,0.6067682825313234,0.2885939375,0.6017610559620976
0.008,1.7984,1.0,1041.1379277349122,0.08612314161951348,1.3519971723217716,0.6347667897732201,0.2885858,0.6049043070072608
0.0085,1.79819375,1.0,1126.0723403933496,0.09124926813010727,1.3506785112143735,0.6601976940683671,0.2885771375,0.6078589979989493
0.009000000000000001,1.797975,1.0,1208.6101363675104,0.09634664093718882,1.349432335773703,0.6832982038654055,0.28856795,0.6106410800884376
0.0095,1.79774375,1.0,1288.5901765437318,0.1014154221095469,1.3482528890339227,0.704293863181868,0.2885582375,0.6132650678556324
0.01,1.7975,1.0,1365.856662900486,0.10645577120007062,1.3471355229989255,0.7233947334060651,0.288548,0.615742757245735
0.0105,1.79724375,1.0,1440.322836757597,0.11146784762517842,1.346075645164862,0.740793014342454,0.2885372375,0.6180856116827953
0.011,1.796975,1.0,1511.9475359505273,0.11645181008895981,1.3450689158572555,0.7566628459845186,0.28852595000000003,0.6203043472866656
0.0115,1.79669375,1.0,1580.7275206879199,0.12140781718677965,1.3441112380780271,0.7711608808532255,0.2885141375,0.6224089790446663
0.012,1.7964,1.0,1646.6485650265033,0.12633602487100878,1.343199241540248,0.7844275632473724,0.28850180000000003,0.6244077825452758
0.0125,1.79609375,1.0,1709.7312830480878,0.1312365888014173,1.3423296336967947,0.7965881384262035,0.2884889375,0.6263087432813086
0.013000000000000001,1.7957750000000001,1.0,1770.0220583428568,0.13610966407550462,1.341499253574486,0.8077540959461014,0.28847555,0.628119450918587
0.0135,1.79544375,1.0,1827.5884495201667,0.1409554059614834,1.3407050747465357,0.8180245770430491,0.2884616375,0.62984710472563
0.014,1.7951000000000001,1.0,1882.4844452038844,0.14577396743203674,1.3399445425205279,0.8274878299749656,0.2884472,0.6314977934008579
0.0145,1.79474375,1.0,1934.7651657601912,0.150565500143216,1.3392153538686378,0.8362223452713996,0.2884322375,0.6330769888385678
0.015,1.794375,1.0,1984.5068287060508,0.1553301557510725,1.3385152057630396,0.8442978902804288,0.28841675,0.6345901003418589
0.0155,1.79399375,1.0,2031.790519457602,0.16006808498024847,1.3378419468774136,0.8517765794308964,0.2884007375,0.6360421522005064
0.016,1.7936,1.0,2076.7157459577925,0.16477943922467062,1.33719341024216,0.8587137240384863,0.2883842,0.6374381507948417
0.0165,1.7931937500000001,1.0,2119.356454959099,0.16946436683465324,1.3365678522642084,0.8651587678463308,0.2883671375,0.6387821454791391
0.017,1.792775,1.0,2159.786017986624,0.17412301520526166,1.3359636630997718,0.8711558921024357,0.28834955,0.6400778605758388
0.0175,1.7923437500000001,1.0,2198.0887851525326,0.17875553173156122,1.335379232905064,0.8767445985459653,0.2883314375,0.6413289864030958
0.018000000000000002,1.7919,1.0,2234.3517294011363,0.18336206298575491,1.3348130263835742,0.8819602790981028,0.2883128,0.6425390222062246
0.0185,1.79144375,1.0,2268.6678034833694,0.1879427560333547,1.3342635377319583,0.8868346842694776,0.2882936375,0.6437113754557262
0.019,1.790975,1.0,2301.117387015151,0.1924977559634939,1.3337294654776801,0.8913963861863389,0.28827395,0.6448489919387179
0.0195,1.79049375,1.0,2331.7688588029678,0.1970272056580101,1.333209693009572,0.8956711355535679,0.2882537375,0.6459544020550598
0.02,1.79,1.0,2360.696340062705,0.20153124799874086,1.3327031037164656,0.8996821380196462,0.288233,0.6470301172749704
0.0205,1.78949375,1.0,2387.979214464988,0.2060100258675238,1.3322085809871929,0.9034503399687881,0.2882117375,0.6480786311175885
0.021,1.788975,1.0,2413.6888380409296,0.21046368027088974,1.331725132300428,0.9069947052390182,0.28818995000000003,0.6491021575263506
0.021500000000000002,1.78844375,1.0,2437.913176676425,0.21489235496284054,1.3312516450895047,0.9103323824833685,0.2881676375,0.6501031493159977
0.022,1.7879,1.0,2460.7157157863608,0.21929618937923248,1.3307872794781122,0.913478979119232,0.2881448,0.6510834685442262
0.0225,1.78734375,1.0,2482.1535723530296,0.22367532146752894,1.330331286190516,0.9164486890951926,0.28812143749999997,0.6520447747567581
0.023,1.786775,1.0,2502.2865789130014,0.2280298891751932,1.3298829159509824,0.9192544246271902,0.28809755,0.6529887173586642
0.0235,1.78619375,1.0,2521.177056914409,0.23236003044968861,1.329441419483777,0.9219079496761086,0.28807313749999996,0.6539169359965373
0.024,1.7856,1.0,2538.8880963963047,0.23666588292205762,1.3290060617078776,0.9244200003534405,0.2880482,0.6548310311207661
0.0245,1.78499375,1.0,2555.47306917858,0.24094758176670347,1.3285762181241452,0.9268004050304022,0.2880227375,0.6557323625103131
0.025,1.784375,1.0,2571.006832656522,0.24520526654534472,1.3281510791574838,0.9290581268636374,0.28799675,0.6566226697952131
0.025500000000000002,1.78374375,1.0,2585.5322433307974,0.24943906989435094,1.3277301508810933,0.931201428807288,0.2879702375,0.6575030236079586
0.026000000000000002,1.7831000000000001,1.0,2599.093421009598,0.2536491244500918,1.3273129393681737,0.9332378917113773,0.2879432,0.6583744889099689
0.0265,1.78244375,1.0,2611.735643580628,0.2578355628489369,1.3268989506919249,0.9351744798352424,0.2879156375,0.6592381251164492
0.027,1.781775,1.0,2623.5052471921977,0.2619985177272559,1.3264876909255467,0.9370175992703168,0.28788755,0.6600949862056908
0.0275,1.7810937500000001,1.0,2634.4495318435165,0.2661381217214185,1.3260786661422392,0.9387731501157288,0.2878589375,0.6609461208128128
0.028,1.7804,1.0,2644.608049918571,0.27025450367215065,1.3256714620380703,0.9404465833308867,0.2878298,0.6617924069323525
0.0285,1.77969375,1.0,2654.03382045465,0.27434779910422774,1.3252655469017876,0.9420429171665479,0.2878001375,0.6626349617304881
0.029,1.778975,1.0,2662.7606099486907,0.2784181361479174,1.3248605730729461,0.9435668132629856,0.28776995,0.663474515506113
0.029500000000000002,1.7782437500000001,1.0,2670.8201748500096,0.2824656418545143,1.324456216385759,0.9450225880248189,0.2877392375,0.6643117463285637
0.03,1.7775,1.0,2678.2447547610136,0.28649044327531337,1.324052152674439,0.9464142399958108,0.287708,0.6651473289128254
0.0305,1.77674375,1.0,2685.067028593843,0.2904926674616094,1.3236480577731997,0.9477454773012767,0.2876762375,0.66598193462894
0.031,1.775975,1.0,2691.320073056363,0.2944724414646972,1.3232436075162537,0.9490197423969994,0.28764395,0.6668162315047135
0.0315,1.7751937500000001,1.0,2697.0373234679773,0.2984298923358716,1.3228384777378142,0.9502402344182344,0.2876111375,0.6676508842217184
0.032,1.7744,1.0,2702.2411328759736,0.3023651385690087,1.3224324484518168,0.9514099395053677,0.2875778,0.6684863398768064
0.0325,1.77359375,1.0,2706.976569787625,0.30627831735411865,1.3220250945970564,0.9525316192305832,0.2875439375,0.6693234644443777
0.033,1.772775,1.0,2711.2656261853595,0.3101695504290552,1.3216162042698927,0.9536078681282273,0.28750955,0.6701626822417943
0.0335,1.7719437500000002,1.0,2715.128829260567,0.31403895832505974,1.32120558064592,0.9546411080508247,0.2874746375,0.6710043844448896
0.034,1.7711000000000001,1.0,2718.586872968607,0.31788666157337336,1.3207930269007333,0.9556336004279463,0.2874392,0.6718489601143667
0.0345,1.7702437500000001,1.0,2721.660601388061,0.3217127807052374,1.320378346209927,0.9565874587855118,0.2874032375,0.6726967961728066
0.035,1.7693750000000001,1.0,2724.370992937657,0.32551743625189306,1.3199613417490956,0.9575046601482695,0.28736675,0.6735482773792043
0.035500000000000004,1.76849375,1.0,2726.7391454527756,0.3293007487445816,1.3195418166938342,0.9583870554367606,0.2873297375,0.6744037863010335
0.036000000000000004,1.7676,1.0,2728.7862621208096,0.3330628387145442,1.319119574219737,0.9592363789578998,0.2872922,0.6752637032838449
0.0365,1.76669375,1.0,2730.5336382751148,0.33680382669302206,1.318694417502399,0.9600542570775562,0.2872541375,0.6761284064183886
0.037,1.765775,1.0,2731.9932182749535,0.3405238273982534,1.3182662354003831,0.9608422234155792,0.28721555,0.6769980975895022
0.0375,1.76484375,1.0,2733.1869905201243,0.3442229641918914,1.317834826082623,0.9616017113445771,0.2871764375,0.6778731611257298
0.038,1.7639,1.0,2734.135140077753,0.3479013566151653,1.3174000046457033,0.9623340689759206,0.28713679999999997,0.6787539446776388
0.0385,1.76294375,1.0,2734.849808644617,0.35155911838932136,1.3169616596725442,0.9630405701760633,0.28709663750000003,0.6796406450817165
0.039,1.761975,1.0,2735.343175346019,0.3551963632356059,1.316519679746065,0.9637224140657779,0.28705595,0.6805334576959454
0.0395,1.7609937500000001,1.0,2735.6274516330773,0.35881320487526525,1.3160739534491857,0.9643807302088464,0.2870147375,0.6814325763743687
0.04,1.76,1.0,2735.714876453931,0.36240975702954564,1.3156243693648262,0.9650165833870752,0.286973,0.6823381934408665
0.0405,1.7589937500000001,1.0,2735.6177117013244,0.36598613341969344,1.3151708160759057,0.965630977998663,0.2869307375,0.6832504996621417
0.041,1.757975,1.0,2735.3482379343795,0.369542447766955,1.3147131821653446,0.9662248621132884,0.28688795,0.6841696842199063
0.0415,1.75694375,1.0,2734.9187503765124,0.3730788137925765,1.314251356216062,0.9667991312140222,0.2868446375,0.6850959346822886
0.042,1.7559,1.0,2734.3401164019447,0.3765953428360182,1.3137852398774177,0.9673546323519101,0.28680079999999997,0.6860294108261207
0.0425,1.75484375,1.0,2733.621334309212,0.3800921448952597,1.313314751849966,0.9678921678031405,0.2867564375,0.686970236840543
0.043000000000000003,1.753775,1.0,2732.77551701076,0.3835693382287283,1.3128397735159154,0.968412495047483,0.28671155,0.6879186100335164
0.043500000000000004,1.75269375,1.0,2731.809388249871,0.3870270301324388,1.3123602443209927,0.9689163342422421,0.28666613750000003,0.68887461022873
0.044,1.7516,1.0,2730.7296753229366,0.39046532790240607,1.3118761037109237,0.9694043676948958,0.2866202,0.6898383161163686
0.0445,1.75049375,1.0,2729.543107651447,0.39388433883464524,1.3113872911314346,0.9698772422233756,0.2865737375,0.6908098052354184
0.045,1.7493750000000001,1.0,2728.2564154344227,0.39728417022517115,1.3108937460282513,0.9703355713467486,0.28652675,0.6917891539557437
0.0455,1.74824375,1.0,2726.876328382416,0.40066492936999887,1.3103954078470998,0.9707799373200252,0.2864792375,0.6927764374599252
0.046,1.7471,1.0,2725.4095745331288,0.4040267235651432,1.3098922160337068,0.9712108930255923,0.2864312,0.6937717297248674
0.0465,1.7459437500000001,1.0,2723.862879147946,0.4073696601066192,1.3093841100337977,0.971628963732654,0.28638263750000004,0.6947751035031726
0.047,1.744775,1.0,2722.2429636896936,0.4106938462904417,1.308871029293099,0.9720346487350676,0.28633355,0.6957866303042781
0.0475,1.74359375,1.0,2720.518733498453,0.4139993854632797,1.3083532575141807,0.9724284469824158,0.28628393750000003,0.6968057033813564
0.048,1.7424,1.0,2718.7815932952667,0.41728638586211964,1.3078299631267858,0.9728107550682837,0.2862338,0.6978339088053627
0.0485,1.74119375,1.0,2717.0076636701897,0.42055495009340865,1.3073013638011444,0.9731820231259892,0.2861831375,0.698870764687362
0.049,1.7399790096319168,1.0,2715.362530411012,0.42380518022198466,1.3067677616236946,0.9735426855576375,0.2861321184045405,0.6999156263660335
0.0495,1.7387640216645732,1.0,2714.2213126105585,0.42703717831268545,1.3062294586808743,0.9738931562348172,0.2860810889099121,0.7009678527934271
0.05,1.7375490336972297,1.0,2713.562821569017,0.43025104643034895,1.3056867570591217,0.974233829663342,0.28603005941528364,0.7020268066284359
0.0505,1.7363340457298864,1.0,2713.3537457934176,0.43344688663981307,1.3051399588448753,0.9745650820720095,0.2859790299206552,0.7030918543244509
0.051000000000000004,1.7351190577625428,1.0,2713.560896212432,0.43662480100591555,1.3045893661245729,0.974887272430957,0.2859280004260268,0.7041623662111955
0.051500000000000004,1.7339040697951993,1.0,2714.157548374864,0.4397848880762109,1.3040352229328396,0.9752007392647352,0.28587697093139836,0.7052378291332224
0.052000000000000005,1.732689081827856,1.0,2715.0950213044625,0.4429272523709508,1.303477974102237,0.9755058193669114,0.28582594143677,0.7063173444987305
0.0525,1.7314740938605124,1.0,2716.350791352291,0.4460519915886843,1.3029178264669667,0.9758028187484883,0.28577491194214155,0.7074004796190326
0.053,1.730259105893169,1.0,2717.9026076602536,0.4491592033556108,1.3023549847193834,0.9760920298017223,0.2857238824475131,0.7084868087223899
0.0535,1.7290441179258256,1.0,2719.728244521979,0.45224898529792973,1.3017896535518412,0.9763737321627373,0.2856728529528847,0.7095759088299097
0.054,1.727829129958482,1.0,2721.805489620577,0.4553214350418404,1.3012220376566948,0.9766481933822028,0.28562182345825626,0.7106673597893776
0.0545,1.7266141419911385,1.0,2724.1121331952872,0.45837665021354224,1.3006523417262985,0.9769156695553546,0.28557079396362783,0.7117607443064191
0.055,1.7253991540237952,1.0,2726.626583646467,0.46141472810469564,1.3000807647643677,0.9771764055417386,0.2855197644689994,0.7128556588597965
0.0555,1.7241841660564516,1.0,2729.3331817791404,0.4644357636700888,1.2995074517124996,0.9774306324908448,0.285468734974371,0.7139518060225916
0.056,1.722969178089108,1.0,2732.2097713143794,0.46743985618960415,1.298932606444308,0.9776785757861027,0.28541770547974255,0.7150487780752948
0.0565,1.7217541901217648,1.0,2735.2446839566696,0.47042709904383195,1.2983563373277067,0.9779204454314411,0.2853666759851141,0.7161463519655475
0.057,1.7205392021544212,1.0,2738.4262391137986,0.4733975856133625,1.2977787527306093,0.9781564428508647,0.2853156464904857,0.7172443061932483
0.0575,1.7193242141870777,1.0,2741.7427406058255,0.476351409278786,1.2971999610209295,0.9783867613112078,0.28526461699585726,0.7183424208200191
0.058,1.7181092262197344,1.0,2745.182473634654,0.47928866342069276,1.2966200705665807,0.9786115863208165,0.2852135875012288,0.7194404774779232
0.0585,1.7168942382523908,1.0,2748.7337020139134,0.48220944141967303,1.2960391897354768,0.9788310960057061,0.2851625580066004,0.720538259377431
0.059000000000000004,1.7156792502850473,1.0,2752.3867026092703,0.4851138343700742,1.2954574084575614,0.9790454602547134,0.28511152851197197,0.7216355860572121
0.059500000000000004,1.714464262317704,1.0,2756.134822527394,0.4880019310252754,1.2948747887041774,0.9792548405928134,0.28506049901734354,0.7227323309523812
0.06,1.7132492743503605,1.0,2759.959877389251,0.4908738344257058,1.294291496559341,0.9794593990900097,0.2850094695227151,0.7238281730002021
0.0605,1.712034286383017,1.0,2763.8568129207342,0.49372963271178927,1.293707579075345,0.979659283987788,0.2849584400280867,0.7249230165615435
0.061,1.7108192984156736,1.0,2767.8205628900996,0.49656941402394955,1.293123083304482,0.9798546378797034,0.2849074105334583,0.7260167666902861
0.0615,1.70960431044833,1.0,2771.846048479971,0.49939326650261034,1.2925380562990454,0.9800455979709761,0.2848563810388299,0.7271093291351294
0.062,1.7083893224809867,1.0,2775.9281777089363,0.5022012782881955,1.2919525451113276,0.9802322963242687,0.28480535154420145,0.728200610341257
0.0625,1.7071743345136432,1.0,2780.0618449016947,0.5049935375211287,1.2913665967936219,0.9804148600924754,0.284754322049573,0.729290517451859
0.063,1.7059593465462997,1.0,2784.241930208528,0.5077701323418338,1.2907802583982206,0.980593411739307,0.2847032925549446,0.7303789583095155
0.0635,1.7047443585789563,1.0,2788.463299173782,0.5105311508907345,1.2901935769774173,0.9807680692483923,0.28465226306031616,0.7314658414574355
0.064,1.7035293706116128,1.0,2792.7208023535104,0.5132766813082547,1.2896065995835047,0.9809389463215763,0.28460123356568773,0.73255107614056
0.0645,1.7023143826442693,1.0,2797.009274982198,0.5160068117348179,1.2890193732687754,0.9811061525670496,0.2845502040710593,0.7336345723065189
0.065,1.701099394676926,1.0,2801.3259039656054,0.5187216232590117,1.288431923845511,0.9812697921254577,0.28449917457643087,0.7347162796772235
0.0655,1.6998844067095824,1.0,2805.6680850619996,0.5214212007311454,1.2878442751772405,0.9814299656184967,0.28444814508180244,0.7357961519377839
0.066,1.6986694187422389,1.0,2810.027979342676,0.5241056457059751,1.2872564979507932,0.9815867735653707,0.284397115587174,0.736874057350274
0.0665,1.6974544307748956,1.0,2814.4039614098824,0.5267750398516217,1.2866686070149407,0.9817403089098501,0.28434608609254564,0.7379499673217905
0.067,1.696239442807552,1.0,2818.794400799166,0.5294294648362066,1.2860806172184533,0.9818906613801414,0.2842950565979172,0.739023853481852
0.0675,1.6950244548402085,1.0,2823.1976619449483,0.5320690023278507,1.2854925434101019,0.9820379176233195,0.2842440271032888,0.7400956876824971
0.068,1.6938094668728652,1.0,2827.612104150024,0.5346937339946752,1.2849044004386574,0.9821821613332394,0.28419299760866035,0.7411654419983711
0.0685,1.6925944789055216,1.0,2832.0360815603467,0.5373037415048013,1.2843162031528907,0.9823234733722812,0.2841419681140319,0.7422330887267989
0.069,1.691379490938178,1.0,2836.467943144969,0.5398991065263501,1.2837279664015724,0.982461931887269,0.2840909386194035,0.7432986003878451
0.0695,1.6901645029708348,1.0,2840.906032680307,0.5424799107274425,1.2831397050334734,0.9825976124198839,0.28403990912477506,0.7443619497243548
0.07,1.6889495150034912,1.0,2845.3486887397885,0.5450462357761999,1.2825514338973647,0.9827305880118594,0.28398887963014663,0.7454231097019871
0.07050000000000001,1.6877345270361477,1.0,2849.7942446881316,0.5475981633407433,1.2819631678420167,0.9828609293052518,0.2839378501355182,0.7464820535092307
0.07100000000000001,1.6865195390688044,1.0,2854.2410286805334,0.5501357750891938,1.2813749217162005,0.9829887046380358,0.28388682064088977,0.7475387545574045
0.07150000000000001,1.6853045511014608,1.0,2858.68736366686,0.5526591526896725,1.2807867103686867,0.9831139801352816,0.28383579114626134,0.7485931864806481
0.07200000000000001,1.6840895631341173,1.0,2863.1315674005127,0.5551683778103006,1.2801985486482466,0.9832368197961424,0.2837847616516329,0.7496453231358935
0.0725,1.682874575166774,1.0,2867.5744534763185,0.5576635057681322,1.2796104292243458,0.9833572830501237,0.2837337321570045,0.7506951781536261
