Time [s],Phi [rad],STIM [ ],Fsee [N],Gamma [ ],Lcerel [ ],q [ ],Lmtc [m],fisomrel [ ]
0.0,1.8,1.0,17.97238188364411,7.718318949469534e-05,1.3793391610313563,0.005001562307781953,0.288653,0.5411409467730444
0.0005,1.79999375,1.0,18.304064571130038,0.005685959561654405,1.3792993541553378,0.013128080724005585,0.2886527375,0.5412372446981621
0.001,1.799975,1.0,21.695662597139183,0.011263275132961246,1.378930416034479,0.03595952166602115,0.28865195,0.5421292723339814
0.0015,1.79994375,1.0,31.253162250865113,0.016809306374549637,1.378030556966915,0.07108155258748013,0.2886506375,0.5443013329058806
0.002,1.7999,1.0,53.9789794364775,0.022324228765804983,1.3763424503005788,0.11528578664681356,0.2886488,0.5483621176714171
0.0025,1.79984375,1.0,97.78548392283092,0.02780821680237982,1.37390310290726,0.16519235021397632,0.28864643749999996,0.554197926136234
0.003,1.7997750000000001,1.0,161.8254446767842,0.03326144400329304,1.3711819243327996,0.21791733209006833,0.28864354999999997,0.5606631984968107
0.0035,1.79969375,1.0,238.663236643298,0.03868408291101902,1.3685545816097602,0.2712462551481767,0.2886401375,0.566860715479766
0.004,1.7996,1.0,322.5092905248476,0.04407630510212991,1.3661285023954048,0.3235290190727394,0.2886362,0.5725443869059249
0.0045000000000000005,1.7994937500000001,1.0,410.34730704291775,0.0494382811925214,1.3638974895555651,0.373616574504663,0.2886317375,0.5777379371656804
0.005,1.799375,1.0,500.5150494159745,0.05477018082887123,1.361834947495029,0.420792002595535,0.28862675,0.5825110675104259
0.0055,1.79924375,1.0,591.9016302982815,0.06007217273236286,1.3599171348267438,0.4646778444249591,0.2886212375,0.5869249236546796
0.006,1.7991000000000001,1.0,683.6305554466325,0.06534442465080197,1.3581262016528928,0.5051432592593516,0.2886152,0.5910255857451263
0.006500000000000001,1.79894375,1.0,774.9862655451819,0.07058710340834605,1.3564483971398813,0.5422243729488254,0.2886086375,0.5948486612768159
0.007,1.798775,1.0,865.3665236011783,0.07580037472419916,1.3548729434818894,0.5760629323610137,0.28860155,0.5984221746954712
0.0075,1.79859375,1.0,954.3150438260229,0.08098440403556662,1.3533902979940073,0.6068610348220089,0.2885939375,0.6017707183791667
0.008,1.7984,1.0,1041.413341998369,0.08613935495809442,1.3519931191878465,0.6348510448004029,0.2885858,0.6049134057538601
0.0085,1.79819375,1.0,1126.3411887864154,0.09126539049050002,1.3506747068180087,0.660274232344888,0.2885771375,0.607867506371504
0.009000000000000001,1.797975,1.0,1208.879979406748,0.09636267307201583,1.3494286499781416,0.6833676961656616,0.28856795,0.6106492939236396
0.0095,1.79774375,1.0,1288.8426296831856,0.10143136410242361,1.3482495494721876,0.704357131662902,0.2885582375,0.6132724849885791
0.01,1.7975,1.0,1366.0923987984918,0.10647162359139017,1.3471324940510498,0.7234523962419722,0.288548,0.6157494629269702
0.0105,1.79724375,1.0,1440.5352264859825,0.11148361052934343,1.3460729876545712,0.7408456802088838,0.2885372375,0.6180914770913235
0.011,1.796975,1.0,1512.1720122942145,0.11646748545980701,1.3450661744505021,0.7567108216360294,0.28852595000000003,0.6203103802617845
0.0115,1.79669375,1.0,1580.9545224826554,0.12142340491404123,1.344108526809263,0.771204699517703,0.2885141375,0.6224149291363481
0.012,1.7964,1.0,1646.8685777917572,0.12635152497818564,1.343196666877843,0.7844676979451075,0.28850180000000003,0.624413417869703
0.0125,1.79609375,1.0,1709.9417323257762,0.1312520017383797,1.3423272168032323,0.796624975139887,0.2884889375,0.6263140198844158
0.013000000000000001,1.7957750000000001,1.0,1770.2253075769534,0.13612499081675147,1.3414969594631572,0.8077879562132497,0.28847555,0.6281244473131977
0.0135,1.79544375,1.0,1827.7796759528019,0.14097064677582172,1.3407029505987016,0.818055776919719,0.2884616375,0.6298517201955953
0.014,1.7951000000000001,1.0,1882.6576943348407,0.14578912234239644,1.3399426463265942,0.8275166536219449,0.2884472,0.6315019043637502
0.0145,1.79474375,1.0,1934.9252664394037,0.1505805698184622,1.33921362541618,0.8362490039289286,0.2884322375,0.6330807280995268
0.015,1.794375,1.0,1984.6560918493599,0.1553451407545294,1.338513614633655,0.8443225818447552,0.28841675,0.6345935354198258
0.0155,1.79399375,1.0,2031.9464904075917,0.16008298705800678,1.3378403037043907,0.8517994294618476,0.2884007375,0.6360456925794805
0.016,1.7936,1.0,2076.8648638885247,0.16479425771953973,1.337191856349831,0.858734945998794,0.2883842,0.6374414923831471
0.0165,1.7931937500000001,1.0,2119.4884799016304,0.16947910141120262,1.3365664903975163,0.8651785408344604,0.2883671375,0.638785068691003
0.017,1.792775,1.0,2159.904177274429,0.17413766646380124,1.3359624557198757,0.8711743360415889,0.28834955,0.640080447534026
0.0175,1.7923437500000001,1.0,2198.2030509075016,0.1787701007477684,1.3353780755270925,0.8767618023511276,0.2883314375,0.6413314619124484
0.018000000000000002,1.7919,1.0,2234.475976289629,0.1833765518683666,1.3348117781637032,0.8819763137520248,0.2883128,0.6425416875091173
0.0185,1.79144375,1.0,2268.791846584145,0.1879571642747079,1.3342623010198813,0.8868496746929226,0.2882936375,0.6437140118523415
0.019,1.790975,1.0,2301.2268867845287,0.19251208241590456,1.3337283814857996,0.8914104539515636,0.28827395,0.6448512990780249
0.0195,1.79049375,1.0,2331.864042492373,0.19704145074106863,1.333208756951632,0.8956843558484472,0.2882537375,0.6459563912332533
0.02,1.79,1.0,2360.7688050639163,0.20154541185976113,1.332702395457166,0.8996945984242684,0.288233,0.6470316200799221
0.0205,1.78949375,1.0,2388.0590468192822,0.206024111126423,1.3322078051914104,0.9034620357496943,0.2882117375,0.6480802747764858
0.021,1.788975,1.0,2413.796705609244,0.21047768930868097,1.3317240896642906,0.9070056531897831,0.28818995000000003,0.6491043633175948
0.021500000000000002,1.78844375,1.0,2438.031625098296,0.21490628603776207,1.3312505058835022,0.9103426739582046,0.2881676375,0.6501055559691449
0.022,1.7879000278820358,1.0,2460.818212814547,0.21931004094489331,1.3307863108567413,0.9134887174050585,0.2881448011710455,0.6510855119572301
0.0225,1.7873508627777759,1.0,2482.545626807786,0.22368909366130174,1.330330761591704,0.9164579705223611,0.2881217362366666,0.6520458799306277
0.023,1.7868016976735162,1.0,2503.5330276579925,0.22804358325141819,1.3298831414812193,0.9192633438990185,0.28809867130228767,0.652988242877812
0.0235,1.7862525325692562,1.0,2523.801486136054,0.23237364820954154,1.3294431518325596,0.9219166785792093,0.28807560636790874,0.6539132962711387
0.024,1.7857033674649962,1.0,2543.3670510901584,0.23667942581023232,1.329010549773616,0.9244287856776328,0.2880525414335299,0.6548216139593844
0.0245,1.7851542023607363,1.0,2562.2523858866607,0.24096105115488592,1.328585037589172,0.926809530311586,0.2880294764991509,0.6557138809710539
0.025,1.7846050372564763,1.0,2580.480966454941,0.2452186593448978,1.3281663175640108,0.9290679375849493,0.288006411564772,0.6565907781137653
0.025500000000000002,1.7840558721522164,1.0,2598.0770354701253,0.24945238548166343,1.3277540919829163,0.9312122755687979,0.2879833466303931,0.6574529821060398
0.026000000000000002,1.7835067070479564,1.0,2615.052980206234,0.25366235453209285,1.3273481799375553,0.9332501432803755,0.2879602816960142,0.6583009218481184
0.0265,1.7829575419436965,1.0,2631.4519447441394,0.2578487154790369,1.3269481206375693,0.935188487532625,0.28793721676163525,0.6591356071797241
0.027,1.7824083768394365,1.0,2647.2953778673104,0.26201160025615017,1.3265536614851723,0.9370337225644728,0.2879141518272563,0.6599576089624601
0.0275,1.7818592117351766,1.0,2662.600885775512,0.26615113737532836,1.3261645902443613,0.9387917600559141,0.2878910868928774,0.6607674109398212
0.028,1.7813100466309169,1.0,2677.38653843839,0.27026745534846724,1.3257806946791344,0.9404680509270419,0.2878680219584985,0.6615654941785096
0.0285,1.780760881526657,1.0,2691.6708447418296,0.2743606826874627,1.3254017625534888,0.942067627302426,0.2878449570241196,0.6623523371399327
0.029,1.780211716422397,1.0,2705.4727286323564,0.2784309479042105,1.3250275816314228,0.9435951401486293,0.2878218920897407,0.6631284157488164
0.029500000000000002,1.779662551318137,1.0,2718.811506261019,0.2824783795106065,1.3246579396769333,0.9450548930780723,0.28779882715536176,0.6638942034589563
0.03,1.779113386213877,1.0,2731.7068641250517,0.28650310601854634,1.3242926244540183,0.9464508727514926,0.28777576222098283,0.6646501713160876
0.0305,1.778564221109617,1.0,2744.1788382089526,0.2905052559399259,1.3239314237266753,0.947786776258314,0.2877526972866039,0.6653967880178864
0.031,1.7780150560053571,1.0,2756.247794123964,0.29448495778664097,1.3235741252589022,0.9490660358082256,0.287729632352225,0.666134519971098
0.0315,1.7774658909010972,1.0,2767.9255424605803,0.29844233109921764,1.3232205968399489,0.9502918481806705,0.28770656741784606,0.6668636663852909
0.032,1.7769167257968372,1.0,2779.2360760556503,0.30237751025299525,1.3228705985085591,0.951467178612231,0.2876835024834672,0.6675847468709337
0.0325,1.7763675606925773,1.0,2790.1973450719092,0.30629062267533247,1.3225239473597181,0.9525947929996131,0.2876604375490882,0.6682981612866894
0.033,1.7758183955883176,1.0,2800.8211678109005,0.31018178897887283,1.3221805176399362,0.9536772741082542,0.28763737261470934,0.6690041902208635
0.0335,1.7752692304840576,1.0,2811.119539848883,0.3140511297762598,1.321840183595722,0.9547170315612094,0.2876143076803304,0.6697031129562242
0.034,1.7747200653797977,1.0,2821.1046252308574,0.317898765680137,1.3215028194735863,0.9557163155184765,0.2875912427459515,0.6703952074953272
0.0345,1.7741709002755377,1.0,2830.7887480147556,0.3217248173031479,1.3211682995200378,0.956677229121658,0.28756817781157257,0.6710807505848447
0.035,1.7736217351712777,1.0,2840.1843841656746,0.32552940525793606,1.3208364979815863,0.957601739828407,0.28754511287719364,0.6717600177388763
0.035500000000000004,1.7730725700670178,1.0,2849.3041538018365,0.3293126501571451,1.3205072891047416,0.9584916897473522,0.2875220479428148,0.6724332832612552
0.036000000000000004,1.7725234049627578,1.0,2858.1608137897924,0.33307467261341844,1.3201805471360133,0.9593488050720531,0.2874989830084358,0.6731008202668469
0.0365,1.771974239858498,1.0,2866.7672506921554,0.3368155932393997,1.3198561463219107,0.9601747047018738,0.2874759180740569,0.6737629007018382
0.037,1.771425074754238,1.0,2875.133219629399,0.3405355272058285,1.3195339897315836,0.9609709097960323,0.287452853139678,0.674419736626965
0.0375,1.770875909649978,1.0,2883.267982292954,0.34423459106968624,1.3192139856667275,0.9617388500591817,0.2874297882052991,0.6750715285547266
0.038,1.7703267445457183,1.0,2891.1886947451394,0.34791291533128005,1.3188959735046601,0.9624798657781279,0.28740672327092015,0.6757186163345508
0.0385,1.7697775794414583,1.0,2898.902392056311,0.3515706127254554,1.318579883015481,0.9631952226833331,0.2873836583365412,0.6763611547762836
0.039,1.7692284143371984,1.0,2906.41617687241,0.3552077959870579,1.3182656439692886,0.9638861124084408,0.28736059340216236,0.6769992980510652
0.0395,1.7686792492329384,1.0,2913.7372164766152,0.3588245778509328,1.3179531861361824,0.9645536576302306,0.2873375284677834,0.6776331996997773
0.04,1.7681300841286784,1.0,2920.872739962426,0.36242107105192584,1.3176424392862613,0.9651989167990402,0.2873144635334045,0.6782630126411792
0.0405,1.7675809190244185,1.0,2927.830035513445,0.3659973883248823,1.3173333331896246,0.9658228884963065,0.2872913985990256,0.678888889179728
0.041,1.7670317539201585,1.0,2934.616447794769,0.36955364240464783,1.3170257976163713,0.9664265154522502,0.28726833366464666,0.6795109810130855
0.0415,1.7664825888158986,1.0,2941.2393754524974,0.3730899460260678,1.3167197623366003,0.9670106882534936,0.28724526873026773,0.6801294392393095
0.042,1.7659334237116386,1.0,2947.706268723085,0.37660641192398775,1.3164151571204108,0.9675762487675256,0.2872222037958888,0.68074441436373
0.0425,1.7653842586073787,1.0,2954.024627151771,0.38010315283325313,1.3161119117379019,0.9681239933083343,0.2871991388615099,0.6813560563055132
0.043000000000000003,1.764835093503119,1.0,2960.2019974205655,0.38358028148870943,1.3158099559591725,0.9686546755652277,0.28717607392713096,0.6819645144039079
0.043500000000000004,1.764285928398859,1.0,2966.238967294432,0.3870378906463055,1.3155092806245647,0.9691690110860717,0.2871530089927521,0.6825698145400818
0.044,1.763736763294599,1.0,2972.1486577736196,0.3904761142721459,1.3152097675340009,0.969667675686992,0.28712994405837317,0.6831722016937536
0.0445,1.763187598190339,1.0,2977.9365674782653,0.39389506203270486,1.3149113653725124,0.9701513116189914,0.28710687912399424,0.6837717855842474
0.045,1.7626384330860791,1.0,2983.6065225881753,0.39729483837993596,1.3146140376382183,0.9706205285628796,0.2870838141896153,0.6843686457939343
0.0455,1.7620892679818192,1.0,2989.162373103674,0.40067554776579284,1.314317747829237,0.9710759052673574,0.2870607492552364,0.6849628616057277
0.046,1.7615401028775592,1.0,2994.6079919905615,0.40403729464222915,1.3140224594436873,0.9715179914171718,0.28703768432085747,0.6855545120055413
0.0465,1.7609909377732993,1.0,2999.9472743552687,0.40738018346119853,1.3137281359796882,0.9719473093711269,0.28701461938647854,0.6861436756846628
0.047,1.7604417726690393,1.0,3005.184136648899,0.4107043186746547,1.3134347409353584,0.9723643557801834,0.2869915544520997,0.6867304310420432
0.0475,1.7598926075647794,1.0,3010.322515900947,0.4140098047345511,1.3131422378088164,0.9727696030949725,0.28696848951772075,0.6873148561865008
0.048,1.7593434424605197,1.0,3015.3663689831124,0.4172967460928416,1.3128505900981815,0.9731635009712613,0.2869454245833418,0.6878970289388381
0.0485,1.7587942773562597,1.0,3020.3196719021007,0.4205652472014797,1.312559761301572,0.9735464775811614,0.2869223596489629,0.6884770268338786
0.049,1.7582451122519998,1.0,3025.186419121794,0.4238154125124191,1.312269714917107,0.9739189408372231,0.286899294714584,0.6890549271224131
0.0495,1.7576959471477398,1.0,3029.9706229157573,0.42704734647761344,1.311980414442905,0.9742812795359471,0.28687622978020505,0.6896308067730651
0.05,1.7571467820434798,1.0,3034.676312748419,0.43026115354901634,1.311691823377085,0.974633864426711,0.2868531648458261,0.6902047424740693
0.0505,1.75659761693922,1.0,3039.304189673722,0.4334569186347857,1.3114039340313928,0.974977048891493,0.28683009991144726,0.6907767534112628
0.051000000000000004,1.75604845183496,1.0,3043.8588359241176,0.43663475505560306,1.31111670536227,0.9753111712647164,0.28680703497706833,0.6913469248868827
0.051500000000000004,1.7554992867307,1.0,3048.3458639709943,0.43979478151074625,1.3108300876137682,0.9756365546053957,0.2867839700426894,0.6919153591645957
0.052000000000000005,1.75495012162644,1.0,3052.7671502543453,0.4429370935751826,1.3105440633096894,0.9759535070553836,0.2867609051083105,0.6924820942063381
0.0525,1.75440095652218,1.0,3057.124579495228,0.4460617868238794,1.3102586149738364,0.9762623231298223,0.28673784017393156,0.6930471678396579
0.053,1.7538517914179204,1.0,3061.420044468995,0.4491689568318039,1.309973725130012,0.9765632844372564,0.28671477523955263,0.6936106177583665
0.0535,1.7533026263136604,1.0,3065.655445785615,0.45225869917392353,1.3096893763020192,0.9768566603557178,0.2866917103051737,0.6941724815231708
0.054,1.7527534612094005,1.0,3069.832691676828,0.4553311094252054,1.3094055510136602,0.977142708667824,0.28666864537079484,0.6947327965622874
0.0545,1.7522042961051405,1.0,3073.9536977893467,0.4583862831606169,1.309122231788738,0.9774216761577045,0.2866455804364159,0.6952916001720334
0.055,1.7516551310008805,1.0,3078.0203869862207,0.46142431595512534,1.3088394011510553,0.9776937991723492,0.286622515502037,0.6958489295174028
0.0555,1.7511059658966206,1.0,3082.0346891533327,0.46444530338369794,1.3085570416244148,0.9779593041497852,0.28659945056765807,0.6964048216326186
0.056,1.7505568007923606,1.0,3085.9985410140307,0.4674493410213021,1.308275135732619,0.9782184081162917,0.28657638563327914,0.6969593134216688
0.0565,1.7500076356881007,1.0,3089.9138859496875,0.47043652444290496,1.3079936659994709,0.9784713191547195,0.2865533206989002,0.6975124416588214
0.057,1.7494584705838407,1.0,3093.782673827317,0.473406949223474,1.307712614948773,0.9787182368458097,0.2865302557645213,0.6980642429891204
0.0575,1.7489093054795808,1.0,3097.6068608343116,0.4763607109379764,1.307431965104328,0.9789593526842761,0.2865071908301424,0.6986147539288624
0.058,1.748360140375321,1.0,3101.3884093188253,0.47929790516137943,1.3071516989899388,0.9791948504712907,0.2864841258957635,0.6991640108660524
0.0585,1.747810975271061,1.0,3105.129287638582,0.48221862746865046,1.3068717991294079,0.9794249066848836,0.2864610609613846,0.6997120500608429
0.059000000000000004,1.7472618101668012,1.0,3108.8278528631545,0.4851229262345451,1.306592278853982,0.9796496886058589,0.28643799602700565,0.7002588474079148
0.059500000000000004,1.7467126450625412,1.0,3112.4885454773857,0.4880109397356503,1.3063130996888863,0.97986936156695,0.2864149310926267,0.7008044800988087
0.06,1.7461634799582813,1.0,3116.1137810916525,0.4908827758098268,1.3060342404827034,0.980084082876116,0.2863918661582478,0.7013489912378024
0.0605,1.7456143148540213,1.0,3119.7043818496977,0.4937385202184942,1.3057556936872199,0.9802940027325234,0.2863688012238689,0.7018923972507876
0.061,1.7450651497497613,1.0,3123.2611725992615,0.49657825872307176,1.3054774517542218,0.9804992656091449,0.28634573628949,0.7024347145081221
0.0615,1.7445159846455014,1.0,3126.784980840077,0.4994020770849791,1.305199507135496,0.9807000105146931,0.286322671355111,0.7029759593247777
0.062,1.7439668195412414,1.0,3130.276636674398,0.5022100610656356,1.3049218522828288,0.9808963712416526,0.28629960642073216,0.7035161479604872
0.0625,1.7434176544369815,1.0,3133.736972756641,0.5050022964264609,1.3046444796480063,0.981088476601253,0.28627654148635323,0.7040552966198834
0.063,1.7428684893327218,1.0,3137.166824246578,0.5077788689288742,1.3043673816828154,0.9812764506461568,0.2862534765519743,0.7045934214526384
0.0635,1.7423193242284618,1.0,3140.5670287621756,0.5105398643342953,1.3040905508390421,0.9814604128815956,0.2862304116175954,0.7051305385535968
0.064,1.7417701591242019,1.0,3143.9384263343272,0.5132853684041434,1.3038139795684731,0.9816404784656342,0.28620734668321646,0.7056666639629063
0.0645,1.741220994019942,1.0,3147.2818593630323,0.5160154668998381,1.303537660322895,0.9818167583991947,0.2861842817488376,0.7062018136661443
0.065,1.740671828915682,1.0,3150.598172574121,0.5187302455827989,1.3032615855540937,0.9819893597064385,0.2861612168144586,0.7067360035944423
0.0655,1.740122663811422,1.0,3153.888212978492,0.5214297902144452,1.302985747713856,0.9821583856060615,0.28613815188007974,0.7072692496246034
0.066,1.739573498707162,1.0,3157.1528298306944,0.5241141865561965,1.3027101392539682,0.982323935674019,0.2861150869457008,0.7078015675792194
0.0665,1.739024333602902,1.0,3160.3928745910066,0.5267835203694723,1.3024347526262168,0.9824861059981728,0.2860920220113219,0.7083329732267828
0.067,1.7384751684986421,1.0,3163.6092008871115,0.529437877415692,1.302159580282388,0.9826449893253085,0.28606895707694296,0.7088634822817957
0.0675,1.7379260033943822,1.0,3166.8026644776055,0.5320773434562752,1.3018846146742686,0.9828006752009598,0.28604589214256404,0.7093931104048736
0.068,1.7373768382901225,1.0,3169.974123217087,0.5347020042526412,1.3016098482536447,0.9829532501024303,0.28602282720818517,0.7099218732028489
0.0685,1.7368276731858625,1.0,3173.1244370215513,0.5373119455662098,1.301335273472303,0.9831027975653955,0.2859997622738062,0.7104497862288661
0.069,1.7362785080816026,1.0,3176.254467836749,0.5399072531584,1.3010608827820296,0.9832493983044345,0.2859766973394273,0.7109768649824779
0.0695,1.7357293429773426,1.0,3179.3633604519323,0.5424879621566618,1.3007866831133894,0.9833931279252851,0.2859536324050484,0.7115030971353491
0.07,1.7351801778730827,1.0,3182.452967353686,0.545054203825705,1.3005126585921258,0.9835340642739415,0.28593056747066947,0.7120285141131775
