Time [s],Phi [rad],STIM [ ],Fsee [N],Gamma [ ],Lcerel [ ],q [ ],Lmtc [m],fisomrel [ ]
0.0,1.8,1.0,17.96866853779052,3.588607293480152e-05,1.3793395770113024,0.0050003397806235375,0.288653,0.5411399404109891
0.0005,1.79999375,1.0,18.286609814631415,0.005644894089248344,1.3793012920536118,0.013012534233912302,0.2886527375,0.5412325569083567
0.001,1.799975,1.0,21.647466059076898,0.011222440005384745,1.3789353325584246,0.03574359034306008,0.28865195,0.5421173907488398
0.0015,1.79994375,1.0,31.13923665668657,0.016768700299735467,1.3780402432691787,0.07078644274884575,0.2886506375,0.5442779798117992
0.002,1.7999,1.0,53.73400097990745,0.02228385045899795,1.3763583027555903,0.11493657984236999,0.2886488,0.5483240687083273
0.0025,1.79984375,1.0,97.37436191261313,0.02776806498592171,1.373922867055918,0.164812625507223,0.28864643749999996,0.5541507955761552
0.003,1.7997750000000001,1.0,161.29102435066721,0.03322151740678415,1.3712018910168131,0.21752570108052402,0.28864354999999997,0.5606159314589987
0.0035,1.79969375,1.0,238.05969219942665,0.03864438027117212,1.3685731459149246,0.2708568096781914,0.2886401375,0.566817079433596
0.004,1.7996,1.0,321.86734959903913,0.0440368251627141,1.3661454859112203,0.3231519818335017,0.2886362,0.5725047294223098
0.0045000000000000005,1.7994937500000001,1.0,409.68268364483345,0.049399022704279115,1.3639130765783452,0.373258703464475,0.2886317375,0.5777017624211847
0.005,1.799375,1.0,499.83695572263156,0.054731142549152054,1.3618493459430383,0.4204572125333071,0.28862675,0.5824778406906741
0.0055,1.79924375,1.0,591.2177287505743,0.060033353427312974,1.3599304879144103,0.46436789543490026,0.2886212375,0.5868942725436689
0.006,1.7991000000000001,1.0,682.9460369144905,0.06530582309155426,1.358138637363619,0.5048584274614871,0.2886152,0.590997182485109
0.006500000000000001,1.79894375,1.0,774.3042677998159,0.07054871831244242,1.3564600335465815,0.5419639642820164,0.2886086375,0.5948222081759247
0.007,1.798775,1.0,864.7132935318464,0.07576220521402702,1.3548834906406106,0.5758254159029105,0.28860155,0.5983983037969887
0.0075,1.79859375,1.0,953.6567085101075,0.08094644839905274,1.3534004199294987,0.6066451647212668,0.2885939375,0.601747905592009
0.008,1.7984,1.0,1040.7639985530886,0.08610161211132382,1.3520026761085855,0.6346549435014845,0.2885858,0.6048919515701348
0.0085,1.79819375,1.0,1125.717142232266,0.09122785950382101,1.3506835382179332,0.6600960113718153,0.2885771375,0.6078477551752277
0.009000000000000001,1.797975,1.0,1208.264066641528,0.09632535239965334,1.3494370633545334,0.6832058029759668,0.28856795,0.6106305444966831
0.0095,1.79774375,1.0,1288.2467059931637,0.10139425269529483,1.3482574331395625,0.7042098800142131,0.2885582375,0.6132549753285816
0.01,1.7975,1.0,1365.5341429072398,0.10643472078076169,1.347139667450763,0.723318201251567,0.288548,0.6157335818946865
0.0105,1.79724375,1.0,1440.0182626081005,0.11144691545307955,1.3460794564676797,0.7407231955434819,0.2885372375,0.6180771996525364
0.011,1.796975,1.0,1511.6541588395696,0.1164309954668352,1.3450724990181844,0.7565990938267223,0.28852595000000003,0.6202964618027588
0.0115,1.79669375,1.0,1580.4361569001633,0.12138711870556565,1.3441147183602178,0.7711026222502387,0.2885141375,0.6224013412240689
0.012,1.7964,1.0,1646.3769699467728,0.12631544266451097,1.3432024200732504,0.7843741474213328,0.28850180000000003,0.6244008254332403
0.0125,1.79609375,1.0,1709.4800212402222,0.13121612234427318,1.3423325194945157,0.7965390727728325,0.2884889375,0.6263024429098758
0.013000000000000001,1.7957750000000001,1.0,1769.7847785823944,0.13608931274545424,1.3415019319612467,0.8077089732752739,0.28847555,0.628113617559745
0.0135,1.79544375,1.0,1827.3431254999268,0.1409351678997007,1.340707799974419,0.817983098357365,0.2884616375,0.6298411831523957
0.014,1.7951000000000001,1.0,1882.244240164663,0.14575384275378436,1.339947171684356,0.8274495849292104,0.2884472,0.6314920933157109
0.0145,1.79474375,1.0,1934.542945459648,0.1505454888963913,1.3392177530851948,0.8361869724156642,0.2884322375,0.6330717984433414
0.015,1.794375,1.0,1984.3007405353649,0.15531025715578342,1.3385174027395785,0.844265122528866,0.28841675,0.6345853572782207
0.0155,1.79399375,1.0,2031.597617519516,0.16004829836022275,1.3378439792101506,0.851746182539882,0.2884007375,0.6360377733145769
0.016,1.7936,1.0,2076.5205451606025,0.16475976254741587,1.3371954444280751,0.8586855281684761,0.2883842,0.6374337763295692
0.0165,1.7931937500000001,1.0,2119.1646359908273,0.16944480005033055,1.3365698309951843,0.8651325557650629,0.2883671375,0.6387778981628605
0.017,1.792775,1.0,2159.6075951997786,0.17410355869092645,1.3359654863291228,0.8711314576693596,0.28834955,0.6400739540677168
0.0175,1.7923437500000001,1.0,2197.923218870453,0.17873618494016383,1.3353809099505332,0.8767217871608552,0.2883314375,0.641325399364644
0.018000000000000002,1.7919,1.0,2234.1949603381213,0.18334282526900306,1.3348146013800584,0.8819389616049235,0.2883128,0.6425356591285479
0.0185,1.79144375,1.0,2268.5092205731535,0.18792362544760727,1.3342651188558363,0.8868147601764333,0.2882936375,0.64370800483512
0.019,1.790975,1.0,2300.9547660346016,0.1924787313521445,1.3337310753900586,0.8913777442285535,0.28827395,0.6448455654304688
0.0195,1.79049375,1.0,2331.616999034215,0.19700828811791585,1.3332111864724583,0.8956536365034464,0.2882537375,0.6459512283469919
0.02,1.79,1.0,2360.560675466613,0.20151243757704945,1.3327044297059516,0.8996656776390818,0.288233,0.6470273037437422
0.0205,1.78949375,1.0,2387.855556927164,0.20599132156167343,1.332209782693455,0.9034348447837471,0.2882117375,0.6480760850853555
0.021,1.788975,1.0,2413.5759966542655,0.21044508190391595,1.3317262230378846,0.9069801028384114,0.28818995000000003,0.6490998499649863
0.021500000000000002,1.78844375,1.0,2437.7948474756026,0.2148738596684975,1.3312527831765033,0.9103186362767094,0.2881676375,0.6501007450185603
0.022,1.7879001884877737,1.0,2460.5957982794184,0.21927779553710552,1.33078851260863,0.9134660338705622,0.2881448079164865,0.651080867111512
0.0225,1.787352359246705,1.0,2482.416540851431,0.22365703084999677,1.3303326677514438,0.9164364980502012,0.2881217990883616,0.6520418642098669
0.023,1.7868045300056368,1.0,2503.47986555592,0.22801170239114935,1.3298849251616796,0.9192430274073637,0.28809879026023677,0.6529844902776565
0.0235,1.7862567007645682,1.0,2523.809192576947,0.23234194694454138,1.3294449613960726,0.9218974621143301,0.2880757814321119,0.6539094942944523
0.024,1.7857088715234999,1.0,2543.4289083155213,0.23664790129415103,1.3290124530113576,0.9244106030980273,0.288052772603987,0.654817620419162
0.0245,1.7851610422824313,1.0,2562.364310765265,0.2409297022239564,1.3285870765642698,0.9267923175297756,0.2880297637758621,0.6557096081471516
0.025,1.784613213041363,1.0,2580.6392032739113,0.2451874847964973,1.3281685306163706,0.9290516352323738,0.28800675494773725,0.6565861464065441
0.025500000000000002,1.7840653838002944,1.0,2598.280577240736,0.24942138595843563,1.327756491268699,0.931196825716714,0.28798374611961236,0.6574479669363241
0.026000000000000002,1.7835175545592261,1.0,2615.312126344444,0.253631539820766,1.3273506723399418,0.9332354798776475,0.2879607372914875,0.6582957184903957
0.0265,1.7829697253181576,1.0,2631.754803280105,0.25781807802434664,1.326950819200688,0.9351745743641104,0.28793772846336263,0.6591299803061194
0.027,1.7824218960770892,1.0,2647.6301486077496,0.26198113221003566,1.3265566772215267,0.9370205259943822,0.28791471963523774,0.6599513283228178
0.0275,1.7818740668360207,1.0,2662.9602577908995,0.2661208340186913,1.3261679917730467,0.9387792441420071,0.28789171080711284,0.6607603352765873
0.028,1.7813262375949523,1.0,2677.767749672929,0.2702373150911717,1.3257845082258375,0.940456177584895,0.287868701978988,0.6615575707909733
0.0285,1.7807784083538838,1.0,2692.065077045103,0.2743306977347134,1.3254060695111447,0.9420563668049116,0.2878456931508631,0.6623433989965181
0.029,1.7802305791128155,1.0,2705.8862913948406,0.27840112333533895,1.3250323246253608,0.9435844505141837,0.2878226843227383,0.6631185840198791
0.029500000000000002,1.779682749871747,1.0,2719.2547160686304,0.28244872427243994,1.3246630252480993,0.9450447317539966,0.2877996754946134,0.6638836735865818
0.03,1.7791349206306786,1.0,2732.1851168151143,0.2864736251883925,1.3242980044847696,0.9464412047903632,0.2877766666664885,0.6646390442831516
0.0305,1.77858709138961,1.0,2744.6925584591067,0.29047595072557275,1.3239370954407812,0.9477775737225514,0.2877536578383636,0.6653850707824944
0.031,1.7780392621485417,1.0,2756.7923893784236,0.29445582552635696,1.3235801312215438,0.9490572772241518,0.28773064901023876,0.6661221258885475
0.0315,1.7774914329074731,1.0,2768.500226597886,0.2984133742331211,1.3232269449324665,0.950283510884481,0.28770764018211387,0.666850580579159
0.032,1.7769436036664046,1.0,2779.831941501276,0.3023487214882414,1.322877369678959,0.9514592474090334,0.287684631353989,0.6675708040471837
0.0325,1.7763957744253362,1.0,2790.803646160492,0.3062619919340939,1.322531238566431,0.9525872549072449,0.28766162252586414,0.6682831637398088
0.033,1.7758479451842677,1.0,2801.4316802821963,0.31015331021305487,1.3221883847002913,0.9536701134692408,0.28763861369773924,0.6689880253961005
0.0335,1.7753001159431994,1.0,2811.732598772726,0.31402280096750035,1.3218486411859498,0.9547102302099744,0.28761560486961435,0.6696857530827733
0.034,1.7747522867021308,1.0,2821.7230430593395,0.3178705886858618,1.3215118421735277,0.9557098530148755,0.28759259604148946,0.6703767070860479
0.0345,1.7742044574610625,1.0,2831.407811210283,0.3216967836568685,1.3211779292176107,0.956671091022532,0.2875695872133646,0.6710610260953045
0.035,1.773656628219994,1.0,2840.8132331495103,0.3255015260500586,1.3208466529285934,0.9575959042546001,0.2875465783852397,0.6717392388536949
0.035500000000000004,1.7731087989789256,1.0,2849.9485156842884,0.32928493255749064,1.3205179183233846,0.9584861383542234,0.2875235695571149,0.6724115562297326
0.036000000000000004,1.772560969737857,1.0,2858.822978189556,0.33304711987122315,1.320191630418893,0.9593435228290568,0.28750056072899,0.6730781881686577
0.0365,1.7720131404967887,1.0,2867.446047355724,0.33678820468331455,1.3198676942320278,0.9601696796870113,0.2874775519008651,0.6737393437075447
0.037,1.7714653112557202,1.0,2875.82725213584,0.34050830368582347,1.3195460147796971,0.9609661313363951,0.2874545430727402,0.6743952309898393
0.0375,1.7709174820146518,1.0,2883.97621889334,0.34420753357080835,1.3192264970788106,0.9617343078206358,0.28743153424461537,0.6750460572793118
0.038,1.7703696527735833,1.0,2891.9026667492985,0.3478860110303278,1.3189090461462765,0.962475553450385,0.2874085254164905,0.6756920289734443
0.0385,1.769821823532515,1.0,2899.6164031301664,0.35154385275644023,1.3185935669990039,0.9631911328892898,0.28738551658836564,0.6763333516162349
0.039,1.7692739942914464,1.0,2907.1273195152075,0.3551811754412042,1.3182799646539014,0.9638822367439058,0.28736250776024075,0.6769702299104314
0.0395,1.768726165050378,1.0,2914.445387384261,0.3587980957766782,1.317968144127878,0.9645499867031023,0.28733949893211586,0.6776028677291868
0.04,1.7681783358093095,1.0,2921.5783442573806,0.3623947253508765,1.3176580307338577,0.9651954411324379,0.28731649010399096,0.6782314270098455
0.0405,1.7676305065682412,1.0,2928.5317198288176,0.36597117323135514,1.31734956969877,0.965819599833795,0.2872934812758661,0.6788560287372625
0.041,1.7670826773271726,1.0,2935.3206208394895,0.3695275707715156,1.3170426227278857,0.9664234034135238,0.28727047244774123,0.679476962288978
0.0415,1.7665348480861043,1.0,2941.9503023832617,0.37306402662871063,1.3167371385616191,0.9670077438493094,0.2872474636196164,0.6800943401013957
0.042,1.7659870188450357,1.0,2948.4260605268237,0.37658064946029296,1.3164330659403842,0.967573464339156,0.2872244547914915,0.6807082741695423
0.0425,1.7654391896039674,1.0,2954.7532306769804,0.3800775479236153,1.3161303536045954,0.9681213624696211,0.2872014459633666,0.681318876051765
0.043000000000000003,1.7648913603628988,1.0,2960.937186005116,0.38355483067603036,1.3158289502946667,0.9686521931471822,0.2871784371352417,0.6819262568742632
0.043500000000000004,1.7643435311218305,1.0,2966.983335930319,0.3870126063748908,1.3155288047510125,0.969166671312681,0.2871554283071169,0.6825305273354509
0.044,1.763795701880762,1.0,2972.8971246610727,0.3904509836775494,1.3152298657140469,0.9696654744569075,0.287132419478992,0.683131797710153
0.0445,1.7632478726396936,1.0,2978.6840297947247,0.39387007124135887,1.314932081924184,0.9701492449537419,0.28710941065086715,0.683730177853632
0.045,1.762700043398625,1.0,2984.3495609754855,0.3972699777236719,1.3146354021218383,0.9706185922257555,0.28708640182274225,0.6843257772054501
0.0455,1.7621522141575567,1.0,2989.8992586106506,0.4006508117818412,1.314339775047424,0.9710740947558358,0.28706339299461736,0.6849187047931597
0.046,1.7616043849164882,1.0,2995.338692645009,0.4040126820732195,1.314045149441355,0.9715163019571729,0.28704038416649247,0.6855090692358323
0.0465,1.7610565556754199,1.0,3000.6734613936483,0.4073556972551596,1.3137514740440455,0.9719457359128573,0.28701737533836763,0.6860969787474129
0.047,1.7605087264343513,1.0,3005.902281849923,0.4106799389542666,1.313458757435506,0.972362893746341,0.28699436651024274,0.6866824215146319
0.0475,1.759960897193283,1.0,3011.0370694271355,0.41398554750668753,1.313166893995992,0.9727682478910842,0.2869713576821179,0.6872656138549207
0.048,1.7594130679522144,1.0,3016.0810928051988,0.41727262538565124,1.3128758532796947,0.9731622483383733,0.286948348853993,0.6878466212834916
0.0485,1.758865238711146,1.0,3021.037074392226,0.42054127268820546,1.3125856097022168,0.9735453236302819,0.2869253400258681,0.6884254993848641
0.049,1.7583174094700775,1.0,3025.9077506341273,0.42379158951139806,1.3122961376791613,0.9739178820473366,0.2869023311977432,0.6890023035417039
0.0495,1.7577695802290092,1.0,3030.6958715700407,0.4270236759522767,1.3120074116261313,0.9742803127511972,0.2868793223696184,0.6895770889361028
0.05,1.7572217509879406,1.0,3035.404200401546,0.43023763210788935,1.3117194059587296,0.9746329868528788,0.2868563135414935,0.6901499105508186
0.0505,1.7566739217468723,1.0,3040.035513077326,0.43343355807528366,1.311432095092559,0.974976258411997,0.28683330471336865,0.6907208231704696
0.051000000000000004,1.7561260925058038,1.0,3044.592597891202,0.4366115539515075,1.3111454534432223,0.9753104653720718,0.28681029588524376,0.69128988138269
0.051500000000000004,1.7555782632647352,1.0,3049.0782550957515,0.43977171983360874,1.3108594554263224,0.9756359304365126,0.28678728705711887,0.6918571395792419
0.052000000000000005,1.7550304340236669,1.0,3053.4952965296784,0.4429141558186351,1.3105740754574624,0.9759529618895398,0.286764278228994,0.6924226519570869
0.0525,1.7544826047825985,1.0,3057.846545260074,0.44603896200363435,1.310289287952245,0.9762618543659546,0.28674126940086914,0.6929864725194159
0.053,1.75393477554153,1.0,3062.134835238848,0.4491462384856544,1.310005067326273,0.9765628895733638,0.28671826057274424,0.6935486550766355
0.0535,1.7533869463004614,1.0,3066.3630109744695,0.4522360853617429,1.3097213879951495,0.9768563369701829,0.2866952517446194,0.6941092532473153
0.054,1.752839117059393,1.0,3070.5339272169995,0.45530860272894785,1.309438224374477,0.9771424544024784,0.2866722429164945,0.6946683204590904
0.0545,1.7522912878183245,1.0,3074.647895533186,0.45836386886817987,1.3091555727454776,0.977421487896481,0.2866492340883696,0.6952258668380604
0.055,1.7517434585772562,1.0,3078.7077104014634,0.4614019898835988,1.3088734081640434,0.9776936745061932,0.2866262252602447,0.6957819442893121
0.0555,1.7511956293361877,1.0,3082.718016522727,0.46442308716661734,1.3085916899407721,0.9779592418249912,0.2866032164321199,0.6963366355213596
0.056,1.7506478000951193,1.0,3086.6800898486877,0.46742725164600113,1.3083104062986783,0.9782184067963071,0.286580207603995,0.6968899660967598
0.0565,1.7500999708540508,1.0,3090.5952111485435,0.47041457425051597,1.308029545460777,0.978471377435965,0.28655719877587016,0.6974419614898821
0.057,1.7495521416129824,1.0,3094.46466589704,0.47338514590892755,1.307749095650083,0.9787183532720691,0.28653418994774527,0.6979926470872324
0.0575,1.749004312371914,1.0,3098.289744165683,0.4763390575500016,1.3074690450896107,0.9789595257597761,0.2865111811196204,0.6985420481877644
0.058,1.7484564831308456,1.0,3102.071740516874,0.47927640010250394,1.307189382002375,0.9791950786725843,0.2864881722914955,0.6990901900031854
0.0585,1.747908653889777,1.0,3105.8119539011695,0.4821972644952002,1.3069100946113905,0.9794251884716387,0.28646516346337064,0.6996370976582504
0.059000000000000004,1.7473608246487087,1.0,3109.5116875575372,0.4851017416568561,1.3066311711396723,0.9796500246544576,0.28644215463524575,0.7001827961910492
0.059500000000000004,1.7468129954076401,1.0,3113.172248917283,0.4879899225162374,1.3063525998102348,0.9798697500843774,0.2864191458071209,0.700727310553285
0.06,1.7462651661665718,1.0,3116.794949509794,0.49086189800210983,1.306074368846093,0.9800845213019236,0.286396136978996,0.7012706656105416
0.0605,1.7457173369255032,1.0,3120.3811048727944,0.49371775904323917,1.3057964664702615,0.9802944888192368,0.2863731281508711,0.7018128861425454
0.061,1.745169507684435,1.0,3123.9320344647977,0.49655759656839105,1.305518880905755,0.9804997973985932,0.28635011932274623,0.7023539968434156
0.0615,1.7446216784433664,1.0,3127.449061580739,0.4993815015063313,1.3052416003755885,0.9807005863160003,0.2863271104946214,0.7028940223219056
0.062,1.744073849202298,1.0,3130.9335132707924,0.5021895647858255,1.3049646131027763,0.9808969896107702,0.2863041016664965,0.7034329871016389
0.0625,1.7435260199612295,1.0,3134.3867202624656,0.5049818773356397,1.3046879073103335,0.9810891363219189,0.28628109283837166,0.7039709156213318
0.063,1.7429781907201611,1.0,3137.8100168852175,0.5077585300845393,1.3044114712212749,0.9812771507121814,0.28625808401024677,0.7045078322350093
0.0635,1.7424303614790926,1.0,3141.2036144385766,0.5105195911359798,1.3041353026040068,0.9814611513244214,0.2862350751821219,0.705043742697606
0.064,1.7418825322380243,1.0,3144.567432973376,0.5132651306958739,1.3038594017022498,0.9816412526841097,0.286212066353997,0.7055786479500983
0.0645,1.7413347029969557,1.0,3147.905146669304,0.5159952961682435,1.303583736988214,0.9818175690083931,0.28618905752587215,0.7061126104472926
0.065,1.7407868737558874,1.0,3151.217300904909,0.5187101685491515,1.3033083034726851,0.9819902070732557,0.28616604869774726,0.7066456410858468
0.0655,1.7402390445148188,1.0,3154.5044426596633,0.5214098288346609,1.3030330961664498,0.9821592698661904,0.2861430398696224,0.7071777507263239
0.066,1.7396912152737505,1.0,3157.7671204885582,0.5240943580208345,1.302758110080294,0.9823248567478126,0.2861200310414975,0.7077089501932671
0.0665,1.739143386032682,1.0,3161.005884497325,0.5267638371037352,1.302483340225004,0.9824870636054639,0.28609702221337263,0.7082392502752695
0.067,1.7385955567916136,1.0,3164.221286318341,0.5294183470794259,1.3022087816113659,0.9826459829992656,0.28607401338524774,0.7087686617250439
0.0675,1.738047727550545,1.0,3167.41387908692,0.5320579689439695,1.3019344292501656,0.9828017043010349,0.2860510045571229,0.7092971952594923
0.068,1.7374998983094767,1.0,3170.584217418042,0.534682783693429,1.3016602781521898,0.9829543138264663,0.286027995728998,0.7098248615597689
0.0685,1.7369520690684082,1.0,3173.732857384203,0.5372928723238672,1.3013863233282243,0.9831038949609469,0.28600498690087317,0.7103516712713489
0.069,1.7364042398273398,1.0,3176.860356493075,0.5398883158313471,1.3011125597890554,0.9832505282793514,0.2859819780727483,0.7108776350040897
0.0695,1.7358564105862713,1.0,3179.9672736662797,0.5424691952119315,1.3008389825454691,0.9833942916601509,0.2859589692446234,0.7114027633322925
0.07,1.735308581345203,1.0,3183.054169218439,0.5450355914616833,1.300565586608252,0.9835352603941336,0.2859359604164985,0.7119270667947621
