Time [s],Phi [rad],STIM [ ],Fsee [N],Gamma [ ],Lcerel [ ],q [ ],Lmtc [m],fisomrel [ ]
0.0,1.8,1.0,17.968080378126118,3.3079091099386166e-05,1.3793396429026241,0.005000288890393281,0.288653,0.5411397810029006
0.0005,1.79999375,1.0,18.285124240078087,0.005642102852360461,1.3793014570308586,0.013004710313232446,0.2886527375,0.5412321578261089
0.001,1.799975,1.0,21.643914688187266,0.01121966442512876,1.3789356950498082,0.035728940138060925,0.28865195,0.5421165147229554
0.0015,1.79994375,1.0,31.131233862971275,0.016765940288289115,1.3780409243567036,0.0707664060699088,0.2886506375,0.5442763377280904
0.002,1.7999,1.0,53.717102969582314,0.02228110592903574,1.3763593975498398,0.114912860418238,0.2886488,0.5483214409308725
0.0025,1.79984375,1.0,97.34617425324303,0.02776533585060087,1.3739242236674776,0.1647868261699667,0.28864643749999996,0.554147560442201
0.003,1.7997750000000001,1.0,161.25446173621987,0.03321880357975492,1.37120325825486,0.21749908768424245,0.28864354999999997,0.5606126947097443
0.0035,1.79969375,1.0,238.01844746026737,0.03864168166656836,1.3685744154123298,0.27083034101931414,0.2886401375,0.5668140953554188
0.004,1.7996,1.0,321.823515531395,0.04403414169514934,1.3661466462250715,0.3231263537673124,0.2886362,0.5725020199557791
0.0045000000000000005,1.7994937500000001,1.0,409.63732761851156,0.04939635428884091,1.363914140747321,0.37323437624242395,0.2886317375,0.5776992926152393
0.005,1.799375,1.0,499.79070378061346,0.054728489101379424,1.3618503283992804,0.420434452943109,0.28862675,0.582475573460883
0.0055,1.79924375,1.0,591.1710910857811,0.0600307148633394,1.3599313987898987,0.46434682375568415,0.2886212375,0.5868921816490655
0.006,1.7991000000000001,1.0,682.8993579082178,0.06530319932785303,1.3581394856123266,0.5048390629038882,0.2886152,0.5909952450425324
0.006500000000000001,1.79894375,1.0,774.2552396718629,0.07054610923456725,1.356460870273493,0.5419462871648542,0.2886086375,0.5948203060072192
0.007,1.798775,1.0,864.6700314449017,0.07575961081582912,1.3548841892979218,0.5758092546224705,0.28860155,0.5983967225330257
0.0075,1.79859375,1.0,953.6175009060457,0.0809438685639441,1.3534010228584132,0.606630434449376,0.2885939375,0.6017465466920513
0.008,1.7984,1.0,1040.7222496802403,0.0860990467121933,1.3520032906630213,0.6346415886013483,0.2885858,0.6048905719464431
0.0085,1.79819375,1.0,1125.6735254287955,0.09122530850242878,1.3506841555669766,0.6600839031326984,0.2885771375,0.6078463744715451
0.009000000000000001,1.797975,1.0,1208.222929988843,0.09632281583037575,1.3494376253581295,0.6831947901505355,0.28856795,0.6106292920410444
0.0095,1.79774375,1.0,1288.2049015965952,0.10139173028761858,1.3482579862518924,0.7041998773115785,0.2885582375,0.6132537468487778
0.01,1.7975,1.0,1365.4896636081958,0.10643221242134172,1.347140239057801,0.7233091201758524,0.288548,0.6157323164122859
0.0105,1.79724375,1.0,1439.9738723669655,0.111444421125382,1.3460800119806828,0.7407149245990402,0.2885372375,0.618075973556921
0.011,1.796975,1.0,1511.611221331868,0.11642851496893601,1.345073023464541,0.7565915415202681,0.28852595000000003,0.6202953076436237
0.0115,1.79669375,1.0,1580.4014004252224,0.12138465241312131,1.344115133540778,0.7710956793974304,0.2885141375,0.6224004300644533
0.012,1.7964,1.0,1646.3458500478691,0.12631299024464238,1.3432027842925598,0.7843677751745513,0.28850180000000003,0.6244000282328912
0.0125,1.79609375,1.0,1709.4499932794072,0.131213683611279,1.3423328643865078,0.7965332255537502,0.2884889375,0.6263016899264313
0.013000000000000001,1.7957750000000001,1.0,1769.75549802735,0.13608688766081095,1.3415022624892432,0.8077036000168878,0.28847555,0.6281128976872705
0.0135,1.79544375,1.0,1827.3152470107552,0.14093275658749443,1.340708109679419,0.8179781495604338,0.2884616375,0.6298405101998631
0.014,1.7951000000000001,1.0,1882.218001687384,0.14575144500909545,1.3399474588877256,0.8274450177312002,0.2884472,0.6314914706498027
0.0145,1.79474375,1.0,1934.5152363764346,0.15054310439841848,1.3392180522578545,0.8361827614819941,0.2884322375,0.6330711512193479
0.015,1.794375,1.0,1984.271006940185,0.15530788584531244,1.3385177197201776,0.8442612358895527,0.28841675,0.6345846729446788
0.0155,1.79399375,1.0,2031.568004860612,0.16004594043962636,1.337844291205067,0.8517425826575747,0.2884007375,0.636037101084649
0.016,1.7936,1.0,2076.4904954984263,0.1647574179767821,1.3371957575838516,0.8586821904060555,0.2883842,0.6374331028936621
0.0165,1.7931937500000001,1.0,2119.1398014719553,0.16944246898388088,1.3365700871851125,0.8651294387691791,0.2883671375,0.6387773482532072
0.017,1.792775,1.0,2159.5835347715984,0.17410124048549092,1.3359657321985423,0.8711285543181552,0.28834955,0.6400734272586013
0.0175,1.7923437500000001,1.0,2197.8987355532736,0.17873387940224106,1.3353811579510513,0.8767190819651897,0.2883314375,0.6413248689139414
0.018000000000000002,1.7919,1.0,2234.172227787422,0.1833405326547602,1.3348148297695497,0.8819364318607364,0.2883128,0.6425351714489397
0.0185,1.79144375,1.0,2268.482395187398,0.18792134541841793,1.3342653863192375,0.8868124060156838,0.2882936375,0.6437074346583256
0.019,1.790975,1.0,2300.9336093196343,0.19247646518384268,1.3337312848411225,0.8913755278159645,0.28827395,0.6448451196374159
0.0195,1.79049375,1.0,2331.592765665482,0.19700603467049074,1.333211424799702,0.8956515665471538,0.2882537375,0.6459507218844149
0.02,1.79,1.0,2360.5292339600373,0.2015101962580546,1.3327047370215386,0.8996637514267929,0.288233,0.6470266516690972
0.0205,1.78949375,1.0,2387.817521037863,0.2059890923262269,1.3322101523331946,0.9034330496096151,0.2882117375,0.6480753019348076
0.021,1.788975,1.0,2413.536837435186,0.21044286525470007,1.3317266015612328,0.9069784172626292,0.28818995000000003,0.6490990491601885
0.021500000000000002,1.78844375,1.0,2437.75370261163,0.21487165495791608,1.331253178913145,0.9103170532205,0.2881676375,0.6500999089921428
0.022,1.7879,1.0,2460.555969281159,0.2192756048908758,1.3307888087865019,0.9134645229458604,0.2881448,0.651080242288288
0.0225,1.78734375,1.0,2481.9994096362025,0.22365485267889407,1.3303327556551994,0.9164350306642207,0.28812143749999997,0.6520416790218188
0.023,1.786775,1.0,2502.1414327779653,0.22800953577837765,1.3298842938920021,0.9192414996069036,0.28809755,0.6529858183781097
0.0235,1.78619375,1.0,2521.0418899858078,0.23233979164573326,1.329442697869675,0.9218957035795351,0.28807313749999996,0.6539142500648918
0.024,1.7856,1.0,2538.762867602467,0.23664575773736773,1.329007241960982,0.9244083850766172,0.2880482,0.6548285546467726
0.0245,1.78499375,1.0,2555.3603002952573,0.24092756958245024,1.328577277489571,0.9267893724902644,0.2880227375,0.6557301425942011
0.025,1.784375,1.0,2570.897362475866,0.24518536516293468,1.328152104422693,0.9290476511922922,0.28799675,0.6566205241165755
0.025500000000000002,1.78374375,1.0,2585.428375742726,0.24941927989442506,1.3277311209370966,0.9311914695648055,0.2879702375,0.6575009960756193
0.026000000000000002,1.7831000000000001,1.0,2598.9962883743347,0.2536294459395202,1.327313844153737,0.9332284133162237,0.2879432,0.658372600208237
0.0265,1.78244375,1.0,2611.645192858567,0.25781599546081896,1.3268997911935707,0.9351654511021816,0.2879156375,0.6592363728239792
0.027,1.781775,1.0,2623.420228355816,0.26197906062092025,1.3264884791775526,0.9370089929960784,0.28788755,0.6600933449117627
0.0275,1.7810937500000001,1.0,2634.3674883305,0.2661187735824228,1.3260794252266386,0.9387649427072142,0.2878589375,0.6609445422317125
0.028,1.7804,1.0,2644.53120714095,0.27023526552085114,1.3256721716369646,0.9404387475923538,0.2878298,0.6617909331035188
0.0285,1.77969375,1.0,2653.9498940126728,0.2743286658643481,1.3252663205372994,0.9420354447907557,0.2878001375,0.6626333569009145
0.029,1.778975,1.0,2662.6754193499482,0.2783991092397478,1.3248613570736645,0.9435596756622256,0.28776995,0.6634728911997994
0.029500000000000002,1.7782437500000001,1.0,2670.7379041033632,0.2824467220628732,1.3244569723719057,0.9450157605366112,0.2877392375,0.6643101820129349
0.03,1.7775,1.0,2678.167938716391,0.2864716307495471,1.324052857557869,0.9464077015465278,0.287708,0.6651458721574601
0.0305,1.77674375,1.0,2684.9965415602674,0.2904739617155927,1.3236487037574005,0.947739210101344,0.2876762375,0.6659806012632474
0.031,1.775975,1.0,2691.2551194841344,0.2944538413768328,1.323244202096346,0.9490137316645529,0.28764395,0.6668150057751807
0.0315,1.7751937500000001,1.0,2696.975430480286,0.29841139614909035,1.3228390437005517,0.9502344681284374,0.2876111375,0.6676497189493408
0.032,1.7744,1.0,2702.189548465007,0.3023467524481883,1.3224329196958633,0.9514043980450093,0.2875778,0.6684853708431153
0.0325,1.77359375,1.0,2706.9241173457017,0.306260032221391,1.32202557335164,0.9525262998587368,0.2875439375,0.669322481210292
0.033,1.772775,1.0,2711.2122163088998,0.31015136504182433,1.321616691377662,0.9536027587907309,0.28750955,0.6701616831227225
0.0335,1.7719437500000002,1.0,2715.0755331480445,0.3140208725034636,1.3212060663702085,0.9546361965809904,0.2874746375,0.6710033894355141
0.034,1.7711000000000001,1.0,2718.5347583923576,0.31786867526014706,1.320793501554643,0.9556288754867898,0.2874392,0.6718479890316047
0.0345,1.7702437500000001,1.0,2721.6107322119055,0.321694893965713,1.3203788001563288,0.9565829097965123,0.2874032375,0.672695868655584
0.035,1.7693750000000001,1.0,2724.3244286811673,0.32549964927399966,1.319961765400629,0.9575002772379722,0.28736675,0.6735474128881149
0.035500000000000004,1.76849375,1.0,2726.696940901246,0.3292830618388454,1.3195422005129072,0.958382829380639,0.2873297375,0.674403004117886
0.036000000000000004,1.7676,1.0,2728.7494669800767,0.33304525231408855,1.3191199087185266,0.9592323011309579,0.2872922,0.6752630225110946
0.0365,1.76669375,1.0,2730.492998535098,0.3367863317833766,1.3186947868337286,0.9600503267456153,0.2872541375,0.6761276557557534
0.037,1.765775,1.0,2731.9557399969162,0.340506428945691,1.3182665759094554,0.9608384283300864,0.28721555,0.676997406437726
0.0375,1.76484375,1.0,2733.159991143591,0.34420566728431523,1.3178350713317746,0.9615980396796706,0.2871764375,0.6778726640035898
0.038,1.7639,1.0,2734.117690297732,0.3478841604034184,1.3174001631233594,0.9623305155103904,0.28713679999999997,0.6787536238815843
0.0385,1.76294375,1.0,2734.840818806219,0.35154202190717,1.316961741306883,0.9630371301171939,0.28709663750000003,0.6796404800628462
0.039,1.761975,1.0,2735.341395707927,0.3551793653997391,1.3165196959050185,0.9637190830200281,0.28705595,0.6805334250771513
0.0395,1.7609937500000001,1.0,2735.6314726710975,0.35879630448529515,1.3160739169404392,0.9643775041548728,0.2870147375,0.6814326499678838
0.04,1.76,1.0,2735.7231291974585,0.36239295276800737,1.3156242944358183,0.9650134586508972,0.286973,0.682338344266237
0.0405,1.7589937500000001,1.0,2735.628468095466,0.36596942385204506,1.3151707184138288,0.9656279512307818,0.2869307375,0.6832506959646398
0.041,1.757975,1.0,2735.3596112213427,0.36952583134157746,1.3147130788971437,0.9662219302675926,0.28688795,0.6841698914894139
0.0415,1.75694375,1.0,2734.928695487927,0.37306228884077397,1.3142512659084367,0.96679629152833,0.2868446375,0.6850961156726564
0.042,1.7559,1.0,2734.3478691427345,0.3765789099538037,1.3137851694703806,0.9673518816313487,0.28680079999999997,0.6860295517233563
0.0425,1.75484375,1.0,2733.6270322481255,0.38007580413463166,1.3133147000969383,0.9678895022591113,0.2867564375,0.6869703402524414
0.043000000000000003,1.753775,1.0,2732.7738396686714,0.3835530787759308,1.3128397887531837,0.9684099133964467,0.28671155,0.6879185796328551
0.043500000000000004,1.75269375,1.0,2731.803627735214,0.38701085728903367,1.312360296659785,0.9689138315603701,0.28666613750000003,0.688874505964959
0.044,1.7516,1.0,2730.7224661339437,0.39044924566409944,1.3118761692250147,0.9694019395506197,0.2866202,0.6898381858084502
0.0445,1.75049375,1.0,2729.5364268287053,0.39386834989128716,1.3113873518571462,0.9698748846559915,0.2865737375,0.6908096846409243
0.045,1.7493750000000001,1.0,2728.251582871372,0.397268275960756,1.3108937899644526,0.9703332808461194,0.28652675,0.6917890668416418
0.0455,1.74824375,1.0,2726.874007278728,0.40064912986266493,1.3103954289552069,0.9707777108073369,0.2864792375,0.6927763956751056
0.046,1.7471,1.0,2725.409771975657,0.4040110175871731,1.3098922142376823,0.9712087278351172,0.2864312,0.6937717332744464
0.0465,1.7459437500000001,1.0,2723.864946803977,0.4073540451244397,1.3093840912201518,0.9716268575944801,0.28638263750000004,0.69477514062462
0.047,1.744775,1.0,2722.2455985972933,0.4106783184646237,1.308871005310888,0.9720325997587479,0.28633355,0.6957866775454125
0.0475,1.74359375,1.0,2720.557790322677,0.41398394359788426,1.308352901918165,0.9724264295361343,0.28628393750000003,0.6968064026742555
0.048,1.7424,1.0,2718.807580287404,0.41727102651438047,1.307829726450255,0.9728087990928205,0.2862338,0.6978343734488559
0.0485,1.74119375,1.0,2717.0010214126605,0.42053967320427144,1.3073014243154315,0.9731801388804436,0.2861831375,0.6988706460896273
0.049,1.739975,1.0,2715.1394550670734,0.42378996240799227,1.3067679838061754,0.9735408585251522,0.28613195,0.6999151916820603
0.0495,1.73874375,1.0,2713.234669179504,0.4270220326379498,1.3062292979751589,0.9738913490778681,0.2860802375,0.7009681666506422
0.05,1.7375,1.0,2711.2899404902914,0.4302359852899909,1.3056853373593171,0.9742319840943781,0.286028,0.702029574373471
0.0505,1.73624375,1.0,2709.3078361459698,0.4334319180926666,1.305136078936024,0.9745631198767759,0.2859752375,0.7030994047562135
0.051000000000000004,1.734975,1.0,2707.290920440763,0.4366099287745279,1.3045814996826532,0.9748850964255381,0.28592195,0.7041776468465112
0.051500000000000004,1.73369375,1.0,2705.2417546449265,0.4397701150641257,1.3040215765765788,0.9751982383267069,0.2858681375,0.7052642888261844
0.052000000000000005,1.7324,1.0,2703.162896845166,0.442912574690011,1.3034562865951744,0.9755028555832503,0.2858138,0.7063593180034036
0.0525,1.73109375,1.0,2701.056901796811,0.4460374053807347,1.3028856067158139,0.9757992443945721,0.28575893750000003,0.7074627208048256
0.053,1.729775,1.0,2698.9263207873464,0.449144704864848,1.3023095139158711,0.9760876878878216,0.28570355000000003,0.7085744827676969
0.0535,1.72844375,1.0,2696.773701512415,0.45223457087090163,1.3017279851727197,0.976368456804375,0.2856476375,0.709694588531923
0.054,1.7271,1.0,2694.601587962786,0.4553071011274467,1.3011409974637338,0.9766418101445978,0.2855912,0.710823021832103
0.0545,1.7257437500000001,1.0,2692.412520323667,0.4583623933630342,1.3005485277662872,0.9769079957737495,0.2855342375,0.7119597654895323
0.055,1.724375,1.0,2690.209034885244,0.461400545306215,1.2999505530577533,0.9771672509916869,0.28547675,0.7131048014041708
0.0555,1.72299375,1.0,2687.993663965653,0.46442165468554014,1.2993470503155065,0.977419803068806,0.2854187375,0.7142581105465742
0.056,1.7216,1.0,2685.7689358450625,0.4674258192295606,1.2987379965169201,0.977665869750492,0.2853602,0.7154196729497979
0.0565,1.72019375,1.0,2683.5375343184437,0.4704131366300046,1.2981233671762322,0.977905659643925,0.28530113749999997,0.7165894704831168
0.057,1.718775,1.0,2681.305511901401,0.47338370010326114,1.2975031068729599,0.9781393705782032,0.28524155,0.7177675427325771
0.0575,1.71734375,1.0,2679.070678550473,0.47633760135042563,1.296877235717981,0.9783671964625495,0.2851814375,0.7189537847973545
0.058,1.7159,1.0,2676.832127164591,0.479274933371367,1.296245762080159,0.9785893228112171,0.2851208,0.7201481136783986
0.0585,1.71444375,1.0,2674.5889521781996,0.4821957891659541,1.2956086943283573,0.9788059276887145,0.2850596375,0.7213504459103437
0.059000000000000004,1.7129750000000001,1.0,2672.3468837752353,0.4851002612398651,1.2949659798875501,0.979017178656791,0.28499795,0.7225608122097493
0.059500000000000004,1.71149375,1.0,2670.113816439874,0.4879884418398523,1.2943175462042866,0.9792232355322904,0.2849357375,0.7237792793248967
0.06,1.71,1.0,2667.878165830713,0.4908604218714688,1.2936634996919039,0.9794242614558875,0.284873,0.7250055770047934
0.0605,1.708499434345607,1.0,2665.907424750568,0.4937162922341011,1.2930039472161476,0.9796204132660643,0.2848099762425155,0.7262394353181025
0.061,1.7069988552784636,1.0,2664.5112825046276,0.496556143388094,1.2923391089006873,0.9798118477733007,0.28474695192169547,0.7274803743850514
0.0615,1.7054982762113202,1.0,2663.6380961587297,0.49938006554219144,1.2916694618335314,0.9799987293913812,0.28468392760087546,0.7287274395208488
0.062,1.703997697144177,1.0,2663.248212956232,0.5021881475851729,1.2909953685328734,0.9801812102888735,0.2846209032800554,0.729979896340616
0.0625,1.7024971180770336,1.0,2663.3024429252905,0.5049804783633836,1.2903171886429796,0.980359436838351,0.2845578789592354,0.7312370216149127
0.063,1.7009965390098902,1.0,2663.773698428808,0.5077571436221556,1.2896351715234837,0.9805335441208107,0.2844948546384154,0.7324983017109763
0.0635,1.699495959942747,1.0,2664.6077178091887,0.5105182367785063,1.288949817377608,0.9807036756739586,0.2844318303175954,0.7337627647877776
0.064,1.6979953808756036,1.0,2665.7788129419073,0.5132638440760371,1.2882613640408136,0.9808699560609022,0.28436880599677533,0.7350299298511784
0.0645,1.6964948018084602,1.0,2667.2642712763277,0.5159940509925602,1.287570022397711,0.9810325039695867,0.2843057816759553,0.7362993693181762
0.065,1.694994222741317,1.0,2669.0414130007916,0.5187089430058881,1.2868760033329094,0.9811914338675737,0.2842427573551353,0.7375706591573232
0.0655,1.6934936436741737,1.0,2671.0875780307465,0.5214086055938327,1.2861795177310194,0.9813468561882718,0.2841797330343153,0.7388433789261517
0.066,1.6919930646070303,1.0,2673.3801139835136,0.5240931242342066,1.2854807764766505,0.9814988775077165,0.28411670871349526,0.7401171118057677
0.0665,1.690492485539887,1.0,2675.8963651384533,0.5267625844048219,1.2847799904544128,0.9816476007124357,0.28405368439267525,0.7413914446326038
0.067,1.6889919064727437,1.0,2678.6147319083652,0.5294170710634837,1.2840773607354319,0.9817931246486407,0.28399066007185525,0.7426659857066049
0.0675,1.6874913274056003,1.0,2681.520770936519,0.5320566667629103,1.2833730225792548,0.9819355414753957,0.2839276357510352,0.7439404657981414
0.068,1.6859907483384569,1.0,2684.591030205227,0.5346814593379171,1.2826671937073693,0.982074944513221,0.2838646114302152,0.7452144693928591
0.0685,1.6844901692713137,1.0,2687.8145180470756,0.5372915301556705,1.2819599773580497,0.9822114181181859,0.2838015871093952,0.7464877907150769
0.069,1.6829895902041703,1.0,2691.180229216112,0.5398869605833372,1.28125147676957,0.982345043830012,0.2837385627885751,0.7477602258129339
0.0695,1.6814890111370269,1.0,2694.6771418302683,0.5424678319880838,1.2805417951802045,0.9824759004880563,0.2836755384677551,0.7490315725671817
0.07,1.6799884320698837,1.0,2698.2942145494003,0.5450342257370767,1.2798310358282279,0.982604064341781,0.2836125141469351,0.7503016306993018
0.07050000000000001,1.6784878530027403,1.0,2702.020383990812,0.5475862231974825,1.2791193019519145,0.9827296091560146,0.2835494898261151,0.7515702017789413
0.07100000000000001,1.6769872739355969,1.0,2705.844562380074,0.550123905736468,1.2784066967895382,0.9828526063112742,0.28348646550529505,0.75283708923067
0.07150000000000001,1.6754866948684537,1.0,2709.7592897713507,0.5526473508407361,1.277693290242089,0.9829731231472909,0.28342344118447504,0.754102157380494
0.07200000000000001,1.6739861158013103,1.0,2713.755260221622,0.5551566396919021,1.276979168877984,0.9830912258300807,0.28336041686365504,0.7553652423713688
0.0725,1.6724855367341669,1.0,2717.818741955314,0.5576518590129356,1.2762644593598953,0.9832069805626887,0.28329739254283504,0.7566261112709973
0.073,1.6709849576670237,1.0,2721.945170684377,0.5601330854108455,1.2755492045515326,0.9833204471442444,0.283234368222015,0.7578846807111531
0.0735,1.6694843785998803,1.0,2726.129969922859,0.5626003954926406,1.2748334473166059,0.9834316835030532,0.28317134390119497,0.7591408680997144
0.074,1.667983799532737,1.0,2730.3685504889245,0.5650538658653298,1.2741172305188246,0.9835407457683997,0.28310831958037497,0.7603945916220968
