Time [s],Phi [rad],STIM [ ],Fsee [N],Gamma [ ],Lcerel [ ],q [ ],Lmtc [m],fisomrel [ ]
0.0,1.8,1.0,17.979092713259043,0.00010762153275950628,1.3793384093734395,0.005003029554181217,0.288653,0.5411427652233061
0.0005,1.79999375,1.0,18.320638939530912,0.005716227169890894,1.3792975148564175,0.013213750485243713,0.2886527375,0.5412416939532709
0.001,1.799975,1.0,21.734779719933737,0.011293372963849795,1.3789264297141255,0.03611908094906972,0.28865195,0.5421389058166644
0.0015,1.79994375,1.0,31.340952880038174,0.01683923538041477,1.3780231047773792,0.07129934215122327,0.2886506375,0.5443192992808373
0.002,1.7999,1.0,54.163744707791736,0.02235398989358817,1.376330517998876,0.11554332107046317,0.2886488,0.5483907564499286
0.0025,1.79984375,1.0,98.09260416277782,0.02783781099378639,1.373888365604027,0.16547227922048666,0.28864643749999996,0.5542330678123387
0.003,1.7997750000000001,1.0,162.22290554600082,0.0332908721946804,1.371167096013534,0.21820596681740512,0.28864354999999997,0.5606982998625001
0.0035,1.79969375,1.0,239.11111804711206,0.03871334603350428,1.368540820481678,0.27153322913506556,0.2886401375,0.5668930600723584
0.004,1.7996,1.0,322.9850601852779,0.04410540408162674,1.3661159260943119,0.32380681413641027,0.2886362,0.5725737521049246
0.0045000000000000005,1.7994937500000001,1.0,410.83947000000586,0.04946721694979958,1.3638859552794198,0.37388022352549555,0.2886317375,0.577764705198929
0.005,1.799375,1.0,501.0168481965921,0.05479895427976337,1.3618242987213163,0.4210386312612608,0.28862675,0.5825356404809556
0.0055,1.79924375,1.0,592.4074743407873,0.06010078478646812,1.3599072632507923,0.46490616289479786,0.2886212375,0.586947582459582
0.006,1.7991000000000001,1.0,684.1364037077999,0.06537287621364746,1.3581170158612434,0.5053530719676391,0.2886152,0.5910465655313709
0.006500000000000001,1.79894375,1.0,775.489686550919,0.0706153953663791,1.3564398109359894,0.5424161953267105,0.2886086375,0.5948681797828959
0.007,1.798775,1.0,865.878199876273,0.07582850815472678,1.3548646846537327,0.5762375918841794,0.28860155,0.5984408660255323
0.0075,1.79859375,1.0,954.8120839774544,0.08101237950986287,1.3533826582918385,0.607019940165498,0.2885939375,0.601787936283781
0.008,1.7984,1.0,1041.8862623100442,0.0861671732494186,1.3519861607062953,0.6349955470968822,0.2885858,0.6049290263751341
0.0085,1.79819375,1.0,1126.8156272107046,0.09129305301883951,1.350667994283619,0.6604053966198156,0.2885771375,0.607882518447397
0.009000000000000001,1.797975,1.0,1209.3435944179107,0.09639018057599745,1.3494223184047989,0.6834868782447425,0.28856795,0.6106634037009419
0.0095,1.79774375,1.0,1289.2837062230406,0.10145871707942505,1.348243715501552,0.7044655883925084,0.2885582375,0.6132854420078893
0.01,1.7975,1.0,1366.5220715621545,0.10649882306826393,1.3471269738992504,0.7235511284944797,0.288548,0.6157616836465215
0.0105,1.79724375,1.0,1440.9806720425522,0.11151065843291341,1.346067414687227,0.7409355119140804,0.2885372375,0.6181037770781216
0.011,1.796975,1.0,1512.5913232739724,0.11649438110285282,1.3450610541799253,0.7567929081523643,0.28852595000000003,0.620321648240557
0.0115,1.79669375,1.0,1581.3344136335318,0.12145014864340671,1.3441039898928326,0.7712799042966323,0.2885141375,0.6224248856499788
0.012,1.7964,1.0,1647.2320811507532,0.1263781185869759,1.3431924134176574,0.7845366049578172,0.28850180000000003,0.6244227275910834
0.0125,1.79609375,1.0,1710.3099578444826,0.13127844712519676,1.3423229882945558,0.796688122922227,0.2884889375,0.6263232515468287
0.013000000000000001,1.7957750000000001,1.0,1770.588723768325,0.13615128833827142,1.3414928578462908,0.8078459668331167,0.28847555,0.6281333802295059
0.0135,1.79544375,1.0,1828.1204636989917,0.14099679630640208,1.3406991653956248,0.8181092359904356,0.2884616375,0.629859944830117
0.014,1.7951000000000001,1.0,1882.97428923872,0.14581512440459687,1.3399391814532882,0.827566013084932,0.2884472,0.6315094161762387
0.0145,1.79474375,1.0,1935.2346321646075,0.15060642632105914,1.3392102856957115,0.8362945966073556,0.2884322375,0.6330879530555924
0.015,1.794375,1.0,1984.9692020378634,0.1553708533215697,1.3385102771064163,0.8443647282026964,0.28841675,0.634600740731305
0.0155,1.79399375,1.0,2032.2433985496777,0.16010855521709988,1.337837175915102,0.8518385206774015,0.2884007375,0.6360524316636111
0.016,1.7936,1.0,2077.1387593141135,0.16481968181862094,1.337189002351468,0.8587712861709277,0.2883842,0.6374476297615486
0.0165,1.7931937500000001,1.0,2119.7444656108946,0.1695043822753437,1.336563849968746,0.8652123638979599,0.2883671375,0.6387907362698196
0.017,1.792775,1.0,2160.154900428486,0.17416280587970695,1.3359598938800332,0.8712058302957293,0.28834955,0.640085936556495
0.0175,1.7923437500000001,1.0,2198.4545657805156,0.17879510037487784,1.335375528082632,0.8767911562078486,0.2883314375,0.641336910597244
0.018000000000000002,1.7919,1.0,2234.7134296393333,0.18340141108827326,1.3348093927357938,0.8820037512596854,0.2883128,0.6425467810455644
0.0185,1.79144375,1.0,2269.009810360742,0.18798188334731003,1.33426012799877,0.8868753723187162,0.2882936375,0.6437186442291004
0.019,1.790975,1.0,2301.429677340129,0.19253666247940504,1.3337263740308127,0.891434546519228,0.28827395,0.644855571671703
0.0195,1.79049375,1.0,2332.050818662707,0.19706589201221553,1.3332069202080312,0.8957069766028072,0.2882537375,0.6459602944052255
0.02,1.79,1.0,2360.9689963084884,0.20156971791879302,1.332700438882067,0.8997158005634802,0.288233,0.6470357715806125
0.0205,1.78949375,1.0,2388.251163131694,0.2060482816370074,1.3322059382944214,0.9034819784819317,0.2882117375,0.6480842301081733
0.021,1.788975,1.0,2413.9618436101764,0.2105017236882606,1.331722493503537,0.9070244740783073,0.28818995000000003,0.6491077401269001
0.021500000000000002,1.78844375,1.0,2438.1695317848107,0.21493018459395447,1.3312491795678556,0.9103604593249981,0.2881676375,0.6501083578942046
0.022,1.7879,1.0,2460.9463582514004,0.219333804875491,1.3307850715458196,0.9135055084455063,0.2881448,0.6510881264108004
0.0225,1.78734375,1.0,2482.359971665177,0.2237127233563371,1.330329318882907,0.9164737824978519,0.28812143749999997,0.6520489192804678
0.023,1.786775,1.0,2502.4821838535745,0.22806708092018285,1.3298810590438357,0.9192781635142586,0.28809755,0.6529926239927213
0.0235,1.78619375,1.0,2521.3734450815364,0.23239701557510523,1.3294395621388464,0.9219304118996849,0.28807313749999996,0.6539208383219552
0.024,1.7856,1.0,2539.085718515938,0.2367026627037907,1.3290041992232347,0.9244412751193197,0.2880482,0.654834939073591
0.0245,1.78499375,1.0,2555.6728566474203,0.24098415768892578,1.3285743413522964,0.926820573250865,0.2880227375,0.655736295296252
0.025,1.784375,1.0,2571.1904414198702,0.24524163591319698,1.3281493595813272,0.9290772917319219,0.28799675,0.656626268515194
0.025500000000000002,1.78374375,1.0,2585.695633129654,0.24947523275929073,1.3277286249656228,0.9312196637034645,0.2879702375,0.6575062129405043
0.026000000000000002,1.7831000000000001,1.0,2599.2282160336504,0.25368508035617593,1.3273116837873828,0.9332552703729554,0.2879432,0.6583771098733046
0.0265,1.78244375,1.0,2611.860899711641,0.25787131638022165,1.326897786789546,0.9351910316804948,0.2879156375,0.659240551632961
0.027,1.781775,1.0,2623.6409783078407,0.26203407338300533,1.3264864325211956,0.9370333500507144,0.28788755,0.6600976064399962
0.0275,1.7810937500000001,1.0,2634.600576054289,0.26617348106548244,1.3260772686793107,0.9387881436527635,0.2878589375,0.6609490269471958
0.028,1.7804,1.0,2644.772555212607,0.27028966912860863,1.32566994296087,0.9404608695705212,0.2878298,0.6617955620276265
0.0285,1.77969375,1.0,2654.190456245772,0.2743827672733393,1.3252641030628527,0.9420565657725806,0.2878001375,0.6626379568198915
0.029,1.778975,1.0,2662.8884407412575,0.2784529052006301,1.324859396682238,0.9435798887565232,0.28776995,0.6634769527654731
0.029500000000000002,1.7782494267063254,1.0,2671.180244438298,0.28250021261143643,1.3244554715160042,0.945035147360357,0.28773947592166566,0.6643132876381614
0.03,1.7775238396261241,1.0,2679.4322445322423,0.2865248172500004,1.324052023536804,0.9464263389430173,0.2877090012642972,0.6651475957962455
0.0305,1.776798252545923,1.0,2687.6181763148174,0.2905268484688949,1.323649297327952,0.9477572427549829,0.2876785266069288,0.6659793760813871
0.031,1.7760726654657217,1.0,2695.7247468463374,0.29450643324046893,1.32324741117659,0.9490313489056248,0.28764805194956033,0.66680839020291
0.0315,1.7753470783855205,1.0,2703.7480120725604,0.2984636958354688,1.3228463973164453,0.9502518882339961,0.28761757729219184,0.6676345782518877
0.032,1.7746214913053193,1.0,2711.6840119155686,0.30239876052464093,1.3224462879812442,0.9514218656094834,0.2875871026348234,0.6684578806349379
0.0325,1.7738959042251181,1.0,2719.5287709083623,0.3063117515787318,1.3220471154047135,0.9525440785063991,0.28755662797745496,0.6692782380723952
0.033,1.773170317144917,1.0,2727.278298852976,0.31020279326848776,1.3216489118205794,0.9536211338394637,0.2875261533200865,0.6700955915964195
0.0335,1.7724447300647157,1.0,2734.9302655279034,0.314072005628935,1.3212516942614112,0.9546554603389287,0.2874956786627181,0.670909913693153
0.034,1.7717191429845145,1.0,2742.4831102287367,0.3179195100498536,1.3208554727444621,0.9556493252029276,0.2874652040053496,0.671721191358188
0.0345,1.7709935559043135,1.0,2749.930963195099,0.3217454415864512,1.3204602963131105,0.9566048549331858,0.28743472934798114,0.6725293319098005
0.035,1.7702679688241123,1.0,2757.2746654848274,0.32554991771742736,1.3200661531181106,0.9575240272929372,0.2874042546906127,0.67333436743678
0.035500000000000004,1.769542381743911,1.0,2764.515072295164,0.32933305592148165,1.3196730313102178,0.958408693834599,0.28737378003324426,0.6741363298881904
0.036000000000000004,1.76881679466371,1.0,2771.6530526930296,0.3330949736773138,1.3192809190401866,0.9592605894091679,0.2873433053758758,0.6749352510741511
0.0365,1.7680912075835087,1.0,2778.689489347882,0.33683578846362316,1.3188898044587722,0.9600813408557037,0.28731283071850733,0.6757311626666007
0.037,1.7673656205033075,1.0,2785.6252782686825,0.3405556177591096,1.3184996757167293,0.9608724749500092,0.28728235606113894,0.6765240962000583
0.0375,1.7666400334231063,1.0,2792.4613285423457,0.3442545790424726,1.318110520964813,0.9616354256832148,0.28725188140377045,0.6773140830723703
0.038,1.765914446342905,1.0,2799.1985620774976,0.34793278979241166,1.317722328353778,0.9623715409335545,0.287221406746402,0.6781011545454532
0.0385,1.7651888592627039,1.0,2805.837913349253,0.3515903674876265,1.317335086034379,0.9630820885880286,0.28719093208903357,0.6788853417460243
0.039,1.7644632721825027,1.0,2812.380329148301,0.35522742960681664,1.3169487821573715,0.9637682621648225,0.28716045743166513,0.6796666756663234
0.0395,1.7637376851023014,1.0,2818.8267578249756,0.358844079488244,1.3165634049674972,0.9644311832983632,0.2871299827742967,0.6804451869750776
0.04,1.7630120980221002,1.0,2825.1795553263337,0.3624404368494779,1.316178930238698,0.9650719113896575,0.2870995081169282,0.6812209313555886
0.0405,1.762286510941899,1.0,2831.4410147020903,0.36601663614382035,1.3157953344643578,0.9656914485090593,0.28706903345955975,0.6819939627887257
0.041,1.7615609238616978,1.0,2837.6130186944474,0.3695727859360724,1.3154125979462095,0.966290736215952,0.2870385588021913,0.6827643273495626
0.0415,1.7608353367814966,1.0,2843.697464649805,0.37310899479103515,1.3150307009859863,0.9668706639791821,0.2870080841448229,0.6835320709064991
0.042,1.7601097497012954,1.0,2849.6962641478285,0.37662537127350965,1.3146496238854208,0.9674320725986185,0.28697760948745443,0.6842972391223316
0.0425,1.7593841626210942,1.0,2855.6113426389747,0.3801220239482969,1.314269346946246,0.9679757573681472,0.28694713483008594,0.6850598774552934
0.043000000000000003,1.758658575540893,1.0,2861.4446390908665,0.38359906138019806,1.3138898504701955,0.9685024710020947,0.2869166601727175,0.6858200311600713
0.043500000000000004,1.7579329884606918,1.0,2867.1981056431314,0.3870565921340141,1.3135111147590013,0.969012926344989,0.28688618551534906,0.6865777452888021
0.044,1.7572074013804908,1.0,2872.8737072705717,0.3904947247745461,1.313133120114397,0.9695077988827201,0.2868557108579806,0.6873330646920365
0.0445,1.7564818143002896,1.0,2878.473421455615,0.3939135678665952,1.3127558468381153,0.9699877290714909,0.2868252362006122,0.6880860340196855
0.045,1.7557562272200884,1.0,2883.999237868489,0.39731322997496243,1.3123792752318895,0.9704533244994558,0.2867947615432437,0.6888366977219371
0.0455,1.7550306401398872,1.0,2889.4531580572184,0.40069381966444884,1.312003385597452,0.9709051618945916,0.28676428688587524,0.6895851000501521
0.046,1.754305053059686,1.0,2894.837195144528,0.40405544549985545,1.3116281582365361,0.971343788991131,0.2867338122285068,0.690331285057731
0.0465,1.7535794659794848,1.0,2900.1533735349776,0.40739821604598336,1.3112535734508748,0.9717697262657942,0.28670333757113836,0.6910752966009595
0.047,1.7528538788992836,1.0,2905.4037286298226,0.4107222398676336,1.310879611542201,0.9721834685540612,0.2866728629137699,0.6918171783398285
0.0475,1.7521282918190824,1.0,2910.5849971619587,0.4140275462102182,1.310506299547173,0.9725854796998264,0.2866423882564014,0.6925568811910755
0.048,1.7514027047388812,1.0,2915.7057948905167,0.4173143362385265,1.310133559959016,0.9729762157677891,0.286611913599033,0.6932945630967711
0.0485,1.75067711765868,1.0,2920.768107448695,0.42058271817461984,1.309761373822723,0.9733561032179252,0.28658143894166455,0.6940302655850106
0.049,1.7499515305784787,1.0,2925.773168720777,0.42383278924756584,1.3093897288672074,0.973725547451459,0.2865509642842961,0.6947640168095532
0.0495,1.7492259434982775,1.0,2930.722219352748,0.4270646466864322,1.3090186128213834,0.974084934903946,0.28652048962692767,0.6954958448021299
0.05,1.7485003564180763,1.0,2935.616506607067,0.4302783877202863,1.3086480134141645,0.9744346341041572,0.28649001496955917,0.6962257774728627
0.0505,1.7477747693378751,1.0,2940.457284220469,0.4334741095781959,1.3082779183744648,0.9747749966646501,0.2864595403121908,0.6969538426106723
0.051000000000000004,1.747049182257674,1.0,2945.2458122645285,0.43665190948922844,1.3079083154311983,0.975106358208995,0.2864290656548223,0.6976800678836788
0.051500000000000004,1.7463235951774727,1.0,2949.9833570110286,0.4398118846824515,1.3075391923132784,0.9754290392402462,0.28639859099745385,0.6984044808395931
0.052000000000000005,1.7455980080972715,1.0,2954.6711907988897,0.4429541323869327,1.3071705367496196,0.9757433459548581,0.2863681163400854,0.6991271089060925
0.0525,1.7448724210170703,1.0,2959.310591905776,0.44607874983173956,1.306802336469135,0.9760495710059305,0.28633764168271697,0.6998479793911979
0.053,1.744146833936869,1.0,2963.902844422349,0.4491858342459398,1.306434579200739,0.9763479942193417,0.28630716702534853,0.7005671194836289
0.0535,1.7434212468566679,1.0,2968.449238130071,0.45227548285860075,1.3060672526733454,0.9766388832660695,0.28627669236798003,0.7012845562531586
0.054,1.7426956597764667,1.0,2972.9510683827198,0.4553477928987902,1.305700344615868,0.9769224942937227,0.2862462177106116,0.7020003166509554
0.0545,1.7419700726962657,1.0,2977.4096359902514,0.4584028615955756,1.3053338427572203,0.9771990725200931,0.28621574305324315,0.7027144275099142
0.055,1.7412444856160645,1.0,2981.8262471069597,0.46144078617802453,1.304967734826317,0.9774688527913064,0.2861852683958747,0.7034269155449786
0.0555,1.7405188985358633,1.0,2986.2022131227677,0.46446166387520466,1.3046020085520709,0.9777320601069672,0.2861547937385063,0.7041378073534571
0.056,1.739793311455662,1.0,2990.538850557277,0.4674655919161834,1.3042366516633968,0.977988910114506,0.2861243190811378,0.704847129415322
0.0565,1.7390677243754609,1.0,2994.837480958251,0.47045266753002846,1.303871651889208,0.9782396095747741,0.28609384442376934,0.7055549080935077
0.057,1.7383421372952597,1.0,2999.0994308021013,0.47342298794580734,1.3035069969584185,0.9784843568007824,0.2860633697664009,0.7062611696341917
0.0575,1.7376165502150585,1.0,3003.3260313988067,0.47637665039258764,1.3031426745999424,0.978723342071336,0.28603289510903246,0.7069659401670709
0.058,1.7368909631348572,1.0,3007.5186187996615,0.47931375209943694,1.302778672542693,0.978956748021197,0.286002420451664,0.7076692457056271
0.0585,1.736165376054656,1.0,3011.6769206556473,0.48223435531788633,1.3024149924738582,0.97918474782625,0.2859719457942955,0.7083710852265188
0.059000000000000004,1.7354397889744548,1.0,3015.802077307124,0.48513856428601504,1.302051623865808,0.9794075107132392,0.2859414711369271,0.7090714812500908
0.059500000000000004,1.7347142018942536,1.0,3019.8964662004173,0.4880265066736423,1.301688545534899,0.9796252005997594,0.28591099647955864,0.7097704766997359
0.06,1.7339886148140524,1.0,3023.9606915007726,0.4908982685689542,1.3013257516735783,0.9798379724497374,0.2858805218221902,0.7104680847524012
0.0605,1.7332630277338512,1.0,3027.9953597272215,0.49375393606013696,1.3009632364742942,0.9800459752753249,0.28585004716482176,0.7111643185297132
0.061,1.73253744065365,1.0,3032.0010797165687,0.49659359523537666,1.3006009941294943,0.9802493524112333,0.28581957250745327,0.711859191098086
0.0615,1.7318118535734488,1.0,3035.978462587921,0.49941733218285955,1.3002390188316264,0.9804482417743979,0.28578909785008483,0.7125527154688212
0.062,1.7310862664932476,1.0,3039.928121707685,0.5022252329907716,1.2998773047731382,0.9806427761098634,0.2857586231927164,0.7132449045982091
0.0625,1.7303606794130464,1.0,3043.850672655658,0.5050173837472991,1.2995158461464777,0.9808330832237241,0.28572814853534795,0.7139357713876259
0.063,1.7296350923328452,1.0,3047.7467331919383,0.5077938705406281,1.2991546371440925,0.9810192862038831,0.2856976738779795,0.7146253286836299
0.0635,1.728909505252644,1.0,3051.6169232241687,0.5105547794589448,1.2987936719584305,0.981201503629365,0.285667199220611,0.7153135892780542
0.064,1.7281839181724428,1.0,3055.4618647760067,0.5133001965904352,1.2984329447819394,0.9813798497688453,0.2856367245632426,0.7160005659080992
0.0645,1.7274583310922416,1.0,3059.282181955725,0.5160302080232857,1.298072449807067,0.9815544347690339,0.28560624990587413,0.7166862712564206
0.065,1.7267327440120406,1.0,3063.078500926425,0.5187448998456822,1.297712181226261,0.9817253648334994,0.2855757752485057,0.7173707179512178
0.0655,1.7260071569318394,1.0,3066.851449876163,0.5214443581458108,1.2973521332319695,0.9818927423924837,0.28554530059113725,0.7180539185663171
0.066,1.7252815698516382,1.0,3070.601658989279,0.524128669011858,1.29699230001664,0.9820566662642242,0.2855148259337688,0.7187358856212569
0.0665,1.724555982771437,1.0,3074.329760418297,0.5267979185320095,1.2966326757727202,0.982217231808265,0.28548435127640037,0.7194166315813656
0.067,1.7238303956912358,1.0,3078.0363882568176,0.5294521927944517,1.2962732546926583,0.9823745310712109,0.2854538766190319,0.720096168857842
0.0675,1.7231048086110345,1.0,3081.7221785129495,0.5320915778873707,1.2959140309689017,0.9825286529253426,0.28542340196166344,0.7207745098078313
0.068,1.7223792215308333,1.0,3085.3877690832787,0.5347161598989525,1.2955549987938983,0.982679683200498,0.285392927304295,0.7214516667344986
0.0685,1.7216536344506321,1.0,3089.0337997281126,0.5373260249173835,1.2951961523600959,0.9828277048095836,0.28536245264692656,0.7221276518871016
0.069,1.720928047370431,1.0,3092.660321873942,0.5399212344589279,1.2948374908995952,0.9829727965777361,0.2853319779895581,0.7228024679847931
0.0695,1.7202024602902297,1.0,3096.26759745355,0.5425018684078068,1.2944790118517202,0.9831150357571268,0.2853015033321896,0.7234761211059771
0.07,1.7194768732100285,1.0,3099.856930998632,0.5450680486236044,1.2941207037709623,0.9832544991688412,0.2852710286748212,0.7241486339708987
0.07050000000000001,1.7187512861298273,1.0,3103.428616243755,0.5476198515579276,1.2937625638565344,0.9833912587404707,0.28524055401745274,0.7248200129988378
0.07100000000000001,1.718025699049626,1.0,3106.982947870284,0.5501573536623834,1.293404589307649,0.9835253840515829,0.2852100793600843,0.7254902645829397
