Time [s],Phi [rad],STIM [ ],Fsee [N],Gamma [ ],Lcerel [ ],q [ ],Lmtc [m],fisomrel [ ]
0.0,1.8,1.0,17.967791993052543,1.0239518077695263e-05,1.3793396752106974,0.005000027938554775,0.288653,0.5411397028413347
0.0005,1.79999375,1.0,18.27714597184201,0.005619391391273331,1.3793023431547276,0.012941178199419121,0.2886527375,0.5412300142772108
0.001,1.799975,1.0,21.618909098075317,0.011197080357381848,1.3789382482335526,0.03560982225887086,0.28865195,0.5421103444696636
0.0015,1.79994375,1.0,31.070046773444147,0.016743482899295562,1.3780461346546764,0.07060340950053412,0.2886506375,0.5442637757418951
0.002,1.7999,1.0,53.583697007145915,0.022258774508257407,1.3763680467554278,0.114719854975722,0.2886488,0.5483006804257147
0.0025,1.79984375,1.0,97.12082932131206,0.027743129691421804,1.37393507610471,0.16457687035943067,0.28864643749999996,0.5541216800336887
0.003,1.7997750000000001,1.0,160.9606088515783,0.03319672197957377,1.371214252349085,0.21728249426699503,0.28864354999999997,0.5605866672605546
0.0035,1.79969375,1.0,237.68607359970144,0.038619723926719175,1.368584649770797,0.2706149178697223,0.2886401375,0.5667900381165145
0.004,1.7996,1.0,321.4696936467066,0.04401230712086725,1.3661560149955698,0.3229177668316035,0.2886362,0.572480142482666
0.0045000000000000005,1.7994937500000001,1.0,409.2708003576559,0.04937464218921506,1.3639227425817178,0.373036373444071,0.2886317375,0.5776793285452833
0.005,1.799375,1.0,499.41662353341906,0.05470689878923501,1.3618582760606557,0.420249207123428,0.28862675,0.5824572322908492
0.0055,1.79924375,1.0,590.7935797941135,0.06000924565615591,1.3599387732474466,0.4641753159068994,0.2886212375,0.5868752535495001
0.006,1.7991000000000001,1.0,682.5212822097831,0.06528185054608576,1.3581463570547434,0.5046814496948965,0.2886152,0.5909795501543886
0.006500000000000001,1.79894375,1.0,773.8845022315223,0.07052488029164314,1.3564671982338012,0.5418021207425923,0.2886086375,0.5948059202274996
0.007,1.798775,1.0,864.2889655561667,0.07573850078554982,1.354890344043515,0.5756780226400973,0.28860155,0.5983827924256238
0.0075,1.79859375,1.0,953.2464035928505,0.08092287699036525,1.3534067301536488,0.6065110457545412,0.2885939375,0.6017336832975322
0.008,1.7984,1.0,1040.347928531125,0.08607817254058,1.3520088013200224,0.6345332050644754,0.2885858,0.6048782008713042
0.0085,1.79819375,1.0,1125.3179615932656,0.09120455153708154,1.3506891886377035,0.6599853659458522,0.2885771375,0.6078351178974146
0.009000000000000001,1.797975,1.0,1207.9033821506105,0.09630217590986838,1.3494419913049678,0.6831050446880245,0.28856795,0.6106195622219988
0.0095,1.79774375,1.0,1287.895046645898,0.10137120619122518,1.3482620862104011,0.7041182551596344,0.2885582375,0.6132446406517192
0.01,1.7975,1.0,1365.169775282577,0.10641180291343665,1.3471443502425886,0.7232349358116479,0.288548,0.6157232145875351
0.0105,1.79724375,1.0,1439.6624517772977,0.11142412601962551,1.346083909433602,0.7406473040904283,0.2885372375,0.618067371272814
0.011,1.796975,1.0,1511.3252581810564,0.1164083342710038,1.345076516459342,0.7565297154413301,0.28852595000000003,0.6202876204983595
0.0115,1.79669375,1.0,1580.1236579934402,0.12136458484588777,1.344118451453754,0.7710391486809584,0.2885141375,0.622393148498311
0.012,1.7964,1.0,1646.0591905425372,0.1262930343702325,1.3432061394437447,0.7843160853604076,0.28850180000000003,0.6243926844646712
0.0125,1.79609375,1.0,1709.176210528458,0.13119383974935253,1.3423360091113439,0.7964857810458856,0.2884889375,0.6262948241891515
0.013000000000000001,1.7957750000000001,1.0,1769.5091363965134,0.13606715582195386,1.3415050436041203,0.8076599094467453,0.28847555,0.628106840538737
0.0135,1.79544375,1.0,1827.0942021879375,0.1409131360250625,1.3407105653726947,0.817937849693015,0.2884616375,0.6298351742455954
0.014,1.7951000000000001,1.0,1881.9952787902996,0.14573193379570448,1.3399498968676882,0.8274078841727783,0.2884472,0.6314861850116332
0.0145,1.79474375,1.0,1934.2804476958881,0.15052370157695039,1.3392205873376497,0.836148527068058,0.2884322375,0.633065666856824
0.015,1.794375,1.0,1984.0511669323503,0.15528859237979137,1.3385200634397405,0.8442295273723228,0.28841675,0.6345796130381189
0.0155,1.79399375,1.0,2031.3715268898598,0.1600267559843947,1.3378463613276381,0.8517131341054861,0.2884007375,0.6360326407451371
0.016,1.7936,1.0,2076.312462135431,0.16473834170270485,1.337197612964869,0.8586548091373465,0.2883842,0.6374291129170739
0.0165,1.7931937500000001,1.0,2118.959197916414,0.16942349884666635,1.33657195031496,0.8651040011864218,0.2883671375,0.6387733490471432
0.017,1.792775,1.0,2159.3933088097197,0.17408237559049083,1.335967676133488,0.8711049074165814,0.28834955,0.6400692620965043
0.0175,1.7923437500000001,1.0,2197.720300003662,0.17871512087823818,1.335382965432032,0.8766970089616978,0.2883314375,0.641321002863573
0.018000000000000002,1.7919,1.0,2234.0127818543515,0.18332188026995308,1.334816431724315,0.8819157773950587,0.2883128,0.6425317507888939
0.0185,1.79144375,1.0,2268.3449387096334,0.18790279883811453,1.3342667568584377,0.8867930419696307,0.2882936375,0.6437045129443308
0.019,1.790975,1.0,2300.7984758544235,0.1924580216552016,1.333732622682501,0.891357393654702,0.28827395,0.6448422721857762
0.0195,1.79049375,1.0,2331.453371795484,0.19698769267603902,1.3332127957168076,0.8956345763789778,0.2882537375,0.6459478085796845
0.02,1.79,1.0,2360.3986644138067,0.2014919569963559,1.3327060132563515,0.8996477843627679,0.288233,0.6470239436959964
0.0205,1.78949375,1.0,2387.7053602719275,0.2059709566421894,1.3322112423492056,0.9034180043773644,0.2882117375,0.6480729925280528
0.021,1.788975,1.0,2413.4389769444983,0.2104248322320839,1.3317275475199934,0.9069642304170558,0.28818995000000003,0.6490970478838345
0.021500000000000002,1.78844375,1.0,2437.669032337531,0.21485372438458372,1.3312539932933383,0.9103036614639896,0.2881676375,0.6500981885434216
0.022,1.7879,1.0,2460.4687075763486,0.21925777371823313,1.3307896441938634,0.9134518958801856,0.2881448,0.6510784798918918
0.0225,1.78734375,1.0,2481.900780588141,0.22363711836047442,1.3303336958020535,0.9164231272036465,0.28812143749999997,0.6520396983984578
0.023,1.786775,1.0,2502.0470178063365,0.22799190068486025,1.3298851902395086,0.9192302402459882,0.28809755,0.6529839325913369
0.0235,1.78619375,1.0,2520.9616206120627,0.23232225721460315,1.3294434570600244,0.9218850255861987,0.28807313749999996,0.6539126549755735
0.024,1.7856,1.0,2538.6962121914344,0.2366283235398492,1.32900787018505,0.9243982483130349,0.2880482,0.6548272364677846
0.0245,1.78499375,1.0,2555.3043038549595,0.24091023525074445,1.3285778035360347,0.9267797443338865,0.2880227375,0.6557290402533003
0.025,1.784375,1.0,2570.84113570409,0.24516812793743492,1.3281526310344278,0.9290385133259753,0.28799675,0.6566194220190774
0.025500000000000002,1.78374375,1.0,2585.3635259888515,0.2494021371900667,1.3277317266016788,0.9311828012584528,0.2879702375,0.657499730161615
0.026000000000000002,1.7831000000000001,1.0,2598.9193332082004,0.2536123949177136,1.327314560999204,0.9332201878531633,0.2879432,0.6583711038198288
0.0265,1.78244375,1.0,2611.5703720926217,0.2577990395537666,1.3269004864668692,0.9351576205641996,0.2879156375,0.6592349233026922
0.027,1.781775,1.0,2623.356649507518,0.2619622020203738,1.326489068657091,0.9370015201418722,0.28788755,0.6600921174981677
0.0275,1.7810937500000001,1.0,2634.3166595177345,0.2661020123594372,1.3260798955117825,0.9387578029601313,0.2878589375,0.6609435642315848
0.028,1.7804,1.0,2644.4896959922276,0.27021860061285885,1.3256725549728576,0.9404319245404811,0.2878298,0.6617901369178922
0.0285,1.77969375,1.0,2653.9157824054455,0.2743120968225409,1.3252666349822293,0.9420289214983087,0.2878001375,0.6626327046152334
0.029,1.778975,1.0,2662.6356054029015,0.2783826310303853,1.3248617234818114,0.9435534491652507,0.28776995,0.6634721320676885
0.029500000000000002,1.7782437500000001,1.0,2670.6885489967403,0.2824303321631419,1.3244574259017219,0.9450098173694059,0.2877392375,0.6643092435498363
0.03,1.7775,1.0,2678.1060438541062,0.2864553247379297,1.324053425528115,0.9464020275401733,0.287708,0.6651446983529798
0.0305,1.77674375,1.0,2684.937897493664,0.290457746378179,1.323649241212221,0.9477337734405785,0.2876762375,0.665979491909291
0.031,1.775975,1.0,2691.209167355769,0.29443772069186447,1.3232446227429906,0.9490085092159454,0.28764395,0.6668141386088702
0.0315,1.7751937500000001,1.0,2696.9452248816724,0.2983953712869609,1.3228393199093742,0.9502294447363512,0.2876111375,0.6676491502565458
0.032,1.7744,1.0,2702.1717272993897,0.302330821771443,1.322433082500322,0.9513995658898599,0.2875778,0.668485036062948
0.0325,1.77359375,1.0,2706.9145907973916,0.3062441957532855,1.3220256603047846,0.9525216529549301,0.2875439375,0.6693223026315926
0.033,1.772775,1.0,2711.1999650862654,0.3101356168404631,1.3216168031117128,0.9535982972544157,0.28750955,0.6701614539419699
0.0335,1.7719437500000002,1.0,2715.054209348794,0.31400520864095055,1.3212062607100563,0.9546319162702334,0.2874746375,0.6710029913286458
0.034,1.7711000000000001,1.0,2718.5038695775665,0.3178530947627226,1.3207937828887664,0.9556247673773604,0.2874392,0.6718474134563617
0.0345,1.7702437500000001,1.0,2721.5725108246197,0.3216793960595474,1.3203791480786922,0.9565789627769055,0.2874032375,0.6726951577690417
0.035,1.7693750000000001,1.0,2724.280442347697,0.32548423211849553,1.3199621656009948,0.9574964812864513,0.28736675,0.67354659624975
0.035500000000000004,1.76849375,1.0,2726.6573599353333,0.3292677325253969,1.319542560475115,0.9583791690060834,0.2873297375,0.6744022705516821
0.036000000000000004,1.7676,1.0,2728.718501530778,0.3330300139249256,1.319120190222263,0.9592287663919774,0.2872922,0.6752624495934527
0.0365,1.76669375,1.0,2730.4791857945092,0.33677119296175584,1.318694912363648,0.9600469055422174,0.2872541375,0.6761274006171133
0.037,1.765775,1.0,2731.954803230611,0.34049138628056186,1.3182665844204802,0.960835118162888,0.28721555,0.6769973891623768
0.0375,1.76484375,1.0,2733.1608077647206,0.34419071052601785,1.317835063913969,0.9615948428630261,0.2871764375,0.6778726790395511
0.038,1.7639,1.0,2734.1127087707405,0.34786928234279796,1.3174002083653247,0.9623274318417728,0.28713679999999997,0.6787535323011751
0.0385,1.76294375,1.0,2734.8260635484967,0.3515272183755764,1.3169618752957568,0.9630341570244807,0.28709663750000003,0.6796402092123632
0.039,1.761975,1.0,2735.3164702508893,0.3551646352690273,1.316519922226475,0.9637162156986973,0.28705595,0.6805329682198541
0.0395,1.7609937500000001,1.0,2735.5995612618844,0.3587816496678249,1.316074206678689,0.9643747356957538,0.2870147375,0.6814320659197621
0.04,1.76,1.0,2735.682129889911,0.36237836665972495,1.315624666681318,0.9650107852287519,0.286973,0.6823375949690909
0.0405,1.7589937500000001,1.0,2735.5847106888386,0.36595491235270816,1.315171115707944,0.9656253647839738,0.2869307375,0.6832498973960772
0.041,1.757975,1.0,2735.3219300823525,0.3695114047478691,1.3147134210385847,0.9662194219231166,0.28688795,0.6841692047773933
0.0415,1.75694375,1.0,2734.9019118995116,0.37304795292172255,1.3142515091199893,0.966793855141899,0.2868446375,0.6850956282391877
0.042,1.7559,1.0,2734.332791521104,0.3765646659507834,1.3137853063989071,0.9673495136459734,0.28680079999999997,0.6860292777045408
0.0425,1.75484375,1.0,2733.622713611331,0.38006165291156657,1.3133147393220872,0.967887200555846,0.2867564375,0.6869702618735094
0.043000000000000003,1.753775,1.0,2732.7798299681926,0.38353902288058683,1.3128397343362792,0.9684076758719696,0.28671155,0.6879186882028261
0.043500000000000004,1.75269375,1.0,2731.8122974959547,0.386996884934359,1.312360217888232,0.9689116592202088,0.28666613750000003,0.6888746628852557
0.044,1.7516,1.0,2730.728276295207,0.3904353481493979,1.3118761164246953,0.9693998323959769,0.2866202,0.6898382908286032
0.0445,1.75049375,1.0,2729.535927874866,0.3938545216022185,1.311387356392418,0.9698728417236756,0.2865737375,0.6908096756343789
0.045,1.7493750000000001,1.0,2728.243413482955,0.39725451436933557,1.3108938642381494,0.9703313002465263,0.28652675,0.6917889195761198
0.0455,1.74824375,1.0,2726.8588925574245,0.40063543552726394,1.3103955664086389,0.9707757897605379,0.2864792375,0.6927761235773606
0.046,1.7471,1.0,2725.390521297549,0.40399739415251845,1.3098923893506358,0.9712068627051049,0.2864312,0.6937713871892665
0.0465,1.7459437500000001,1.0,2723.8429647061707,0.40734048289016084,1.3093842912360902,0.9716250440374576,0.28638263750000004,0.6947747459704787
0.047,1.744775,1.0,2722.225038790876,0.41066482690875966,1.3088711924409524,0.9720308343705288,0.28633355,0.6957863089289036
0.0475,1.74359375,1.0,2720.541751760079,0.41397053241693543,1.3083530479422467,0.9724247097448968,0.28628393750000003,0.6968061155125207
0.048,1.7424,1.0,2718.797193426436,0.41725770062452977,1.3078298210484556,0.9728071230717605,0.2862338,0.6978341877336602
0.0485,1.74119375,1.0,2716.9954506346853,0.4205264327413842,1.3073014750680612,0.973178505529218,0.2861831375,0.6988705466230669
0.049,1.739975,1.0,2715.140606818069,0.42377682997734034,1.306767973309546,0.9735392678017798,0.28613195,0.6999152122179644
0.0495,1.73874375,1.0,2713.236741585882,0.42700899354223987,1.3062292790813925,0.9738898012382298,0.2860802375,0.7009682035500339
0.05,1.7375,1.0,2711.287930340051,0.4302230246459243,1.305685355692083,0.9742304789339065,0.286028,0.7020295386333056
0.0505,1.73624375,1.0,2709.2982439216594,0.4334190244982354,1.3051361664501,0.9745616567429776,0.2859752375,0.7030992344519671
0.051000000000000004,1.734975,1.0,2707.2717482877183,0.4365970943090146,1.3045816746639258,0.97488367422582,0.28592195,0.7041773069480818
0.051500000000000004,1.73369375,1.0,2705.2125042173184,0.4397573352881036,1.304021843642043,0.9751968555362055,0.2858681375,0.7052637710092258
0.052000000000000005,1.7324,1.0,2703.124567047905,0.44289984864534404,1.3034566366929337,0.975501510252614,0.2858138,0.706358640456036
0.0525,1.73109375,1.0,2701.011986441327,0.4460247355905774,1.3028860171250802,0.975797934157652,0.28575893750000003,0.7074619280296734
0.053,1.729775,1.0,2698.879221304942,0.4491320971859146,1.3023099444522892,0.9760864097167883,0.28570355000000003,0.7085736526953247
0.0535,1.72844375,1.0,2696.7292315301893,0.45222203055243615,1.301728391834982,0.9763672074716253,0.2856476375,0.7096938059970522
0.054,1.7271,1.0,2694.5608349118916,0.4552946319996969,1.301141370286021,0.976640588465709,0.2855912,0.7108223058107703
0.0545,1.7257437500000001,1.0,2692.3764181891065,0.4583499983898847,1.3005488581745608,0.9769068006031617,0.2855342375,0.7119591321746421
0.055,1.724375,1.0,2690.178659083179,0.46138822645852245,1.299950831172069,0.9771660810496708,0.28547675,0.7131042693851559
0.0555,1.72299375,1.0,2687.969082925093,0.46440941268942876,1.2993472754668351,0.9774186575483497,0.2854187375,0.7142576807097664
0.056,1.7216,1.0,2685.7492574143043,0.4674136525399633,1.2987381768370923,0.9776647481812244,0.2853602,0.7154193294006703
0.0565,1.72019375,1.0,2683.5223126758174,0.47040104078583495,1.2981235067152554,0.9779045610775595,0.28530113749999997,0.7165892051779306
0.057,1.718775,1.0,2681.288386942147,0.473371672032645,1.2975032639253203,0.978138297351524,0.28524155,0.7177672447505778
0.0575,1.7173493890966824,1.0,2679.3172679374707,0.47632564065218974,1.2968775200573968,0.9783661540212606,0.28518167434206065,0.7189532464431441
0.058,1.7159237624878183,1.0,2677.910956665759,0.4792630398627377,1.2962465923709636,0.9785883338695858,0.28512179802448834,0.7201465449891331
0.0585,1.7144981358789542,1.0,2677.0261768749183,0.48218396239846284,1.2956108810806304,0.9788050361620876,0.2850619217069161,0.7213463232995325
0.059000000000000004,1.7130725092700898,1.0,2676.6202202075888,0.4850885007804623,1.2949707758321103,0.9790164516852822,0.28500204538934376,0.7225517901945246
0.059500000000000004,1.7116468826612257,1.0,2676.652684511843,0.48797674728455986,1.29432664647236,0.9792227626519826,0.2849421690717715,0.7237621976286175
0.06,1.7102212560523615,1.0,2677.089651988526,0.4908487929737314,1.2936788043767957,0.9794241409365444,0.2848822927541992,0.72497691281829
0.0605,1.7087956294434972,1.0,2677.898886822901,0.493704728584592,1.2930275462743985,0.979620750991876,0.28482241643662687,0.726195335218129
0.061,1.707370002834633,1.0,2679.057766781058,0.496544641736865,1.2923730812672753,0.979812746088138,0.28476254011905455,0.7274170323669618
0.0615,1.7059443762257687,1.0,2680.522521377926,0.4993686273977369,1.2917158129097062,0.9800002845521492,0.2847026638014823,0.7286412133240731
0.062,1.7045187496169045,1.0,2682.267531542223,0.5021767751006958,1.291055978407525,0.9801835096677218,0.28464278748391,0.7298674025294589
0.0625,1.7030931230080404,1.0,2684.2743500947954,0.5049691720624826,1.2903937493486375,0.9803625558189157,0.2845829111663377,0.7310952498062523
0.063,1.701667496399176,1.0,2686.5245418858067,0.5077459054998383,1.2897292973209487,0.98053755244134,0.2845230348487654,0.7323244077611906
0.0635,1.7002418697903119,1.0,2688.9996750114337,0.510507062629504,1.2890627939123638,0.980708624245667,0.2844631585311931,0.7335545318098797
0.064,1.6988162431814475,1.0,2691.6813126834422,0.5132527306682203,1.2883944107107885,0.9808758914295098,0.28440328221362077,0.7347852802001819
0.0645,1.6973906165725834,1.0,2694.5510057511196,0.5159829968327285,1.2877243193041281,0.9810394698783439,0.2843434058960485,0.7360163140337249
0.065,1.6959649899637192,1.0,2697.5902858764116,0.5186979483397693,1.2870526912802878,0.9811994713561158,0.2842835295784762,0.7372472972855351
0.0655,1.6945393633548549,1.0,2700.785299395527,0.5213976697170688,1.2863796558273857,0.981356001399403,0.28422365326090393,0.7384779742608041
0.066,1.6931137367459907,1.0,2704.1195266368445,0.5240822490443181,1.2857053663024576,0.9815091632820283,0.2841637769433316,0.7397080474042683
0.0665,1.6916881101371264,1.0,2707.579196235788,0.5267517725461912,1.2850299507062084,0.9816590553309459,0.2841039006257593,0.7409372678584707
0.067,1.6902624835282622,1.0,2711.1556401187504,0.5294063230587267,1.2843534902517504,0.9818057699938606,0.284044024308187,0.7421654737935195
0.0675,1.688836856919398,1.0,2714.8401743636764,0.5320459834179629,1.2836760661521955,0.9819493965527554,0.2839841479906147,0.743392504758977
0.068,1.6874112303105337,1.0,2718.6240973913987,0.5346708364599384,1.282997759620656,0.9820900212565427,0.2839242716730424,0.7446182016890605
0.0685,1.6859856037016696,1.0,2722.4986883044166,0.5372809650206917,1.282318651870244,0.9822277274472899,0.28386439535547014,0.7458424069074232
0.069,1.6845599770928052,1.0,2726.4552053700745,0.5398764519362612,1.2816388241140715,0.982362595680374,0.28380451903789783,0.747064964131515
0.0695,1.683134350483941,1.0,2730.484884651942,0.5424573800426856,1.2809583575652506,0.9824947038388936,0.2837446427203255,0.7482857184765205
0.07,1.681708723875077,1.0,2734.5824058472326,0.5450238272384487,1.280277301951905,0.9826241254744219,0.2836847664027532,0.7495045727377574
0.07050000000000001,1.6802830972662126,1.0,2738.740338138304,0.5475758764979115,1.2795957260267514,0.9827509329222792,0.28362489008518094,0.750721396644049
0.07100000000000001,1.6788574706573485,1.0,2742.9472670622404,0.5501136173683222,1.278913734472637,0.982875198215116,0.2835650137676086,0.7519359972019368
0.07150000000000001,1.677431844048484,1.0,2747.1997613634876,0.5526371275733449,1.2782313593335517,0.9829969870561753,0.28350513745003636,0.7531483121282017
0.07200000000000001,1.67600621743962,1.0,2751.4943798680447,0.5551464848366436,1.2775486326534864,0.9831163630439655,0.28344526113246404,0.7543582796944517
0.0725,1.6745805908307558,1.0,2755.8276712228476,0.5576417668818826,1.2768655864764318,0.9832333877544972,0.2833853848148917,0.7555658387278746
0.073,1.6731549642218915,1.0,2760.196173657234,0.560123051432726,1.276182252846378,0.9833481208197967,0.2833255084973194,0.756770928611924
0.0735,1.6717293376130273,1.0,2764.596414767266,0.5625904162128378,1.2754986638073156,0.9834606200028871,0.28326563217974715,0.7579734892869379
