Time [s],Phi [rad],STIM [ ],Fsee [N],Gamma [ ],Lcerel [ ],q [ ],Lmtc [m],fisomrel [ ]
0.0,1.8,1.0,17.96928854248853,3.919161721910176e-05,1.3793395075535597,0.005000404977623459,0.288653,0.5411401084471391
0.0005,1.79999375,1.0,18.288294275770458,0.005648181092044191,1.3793011049975554,0.013021752704460886,0.2886527375,0.5412330093993414
0.001,1.799975,1.0,21.651588088014613,0.011225708570693955,1.3789349118567815,0.03576084712696135,0.28865195,0.5421184074492769
0.0015,1.79994375,1.0,31.148603505919553,0.016771950530978883,1.3780394462032024,0.07081004204639797,0.2886506375,0.5442799015126787
0.002,1.7999,1.0,53.75384472275578,0.02228708245901137,1.3763570173319322,0.11496451510572925,0.2886488,0.5483271540338384
0.0025,1.79984375,1.0,97.40750131494342,0.027771278856972507,1.373921272378695,0.16484300919466652,0.28864643749999996,0.5541545984142147
0.003,1.7997750000000001,1.0,161.33402827983173,0.03322471325055909,1.371200283107797,0.21755704260979203,0.28864354999999997,0.5606197379486333
0.0035,1.79969375,1.0,238.10821397439398,0.03864755818878847,1.3685716525739018,0.2708879801086011,0.2886401375,0.5668205896649969
0.004,1.7996,1.0,321.9189253426646,0.04403998525472428,1.3661441207717682,0.3231821618832182,0.2886362,0.5725079171692247
0.0045000000000000005,1.7994937500000001,1.0,409.7360561201622,0.0494021650706773,1.3639118243983095,0.3732873512866479,0.2886317375,0.5777046685685394
0.005,1.799375,1.0,499.8913875765732,0.05473426728940137,1.3618481897921955,0.4204840140714116,0.28862675,0.582480508750355
0.0055,1.79924375,1.0,591.2726173290113,0.06003646064017513,1.3599294159371886,0.46439270915459796,0.2886212375,0.5868967332369716
0.006,1.7991000000000001,1.0,683.000976221308,0.06530891287539148,1.3581376390462547,0.5048812308030648,0.2886152,0.5909994626861435
0.006500000000000001,1.79894375,1.0,774.3607603023366,0.07055179078886452,1.356459069463539,0.5419847936115364,0.2886086375,0.5948243998634818
0.007,1.798775,1.0,864.7648291434152,0.07576526041614971,1.3548826583935427,0.5758444407603388,0.28860155,0.5984001874092222
0.0075,1.79859375,1.0,953.7061453494538,0.08094948646010659,1.3533996597145366,0.6066624795960426,0.2885939375,0.6017496189848526
0.008,1.7984,1.0,1040.814699117237,0.0861046331688155,1.3520019297994628,0.6346706561347357,0.2885858,0.6048936269689225
0.0085,1.79819375,1.0,1125.7676365587147,0.09123086359784102,1.35068282353987,0.6601102766355514,0.2885771375,0.6078493535526288
0.009000000000000001,1.797975,1.0,1208.3126821070935,0.09632833959599495,1.3494363991887026,0.683218770308935,0.28856795,0.6106320246238319
0.0095,1.79774375,1.0,1288.2957966581964,0.10139722323746302,1.348256783634357,0.7042216602436887,0.2885582375,0.6132564178974892
0.01,1.7975,1.0,1365.5792396855495,0.10643767462567437,1.3471390879179534,0.7233289432018967,0.288548,0.6157348649218476
0.0105,1.79724375,1.0,1440.0595165590082,0.11144985267615223,1.346078940210844,0.7407330033833276,0.2885372375,0.6180783391024844
0.011,1.796975,1.0,1511.6937349077275,0.11643391612078906,1.3450720156356446,0.7566080500346275,0.28852595000000003,0.6202975255904128
0.0115,1.79669375,1.0,1580.4788400863947,0.12139002317341939,1.3441142084980373,0.7711107886322274,0.2885141375,0.6224024601714583
0.012,1.7964,1.0,1646.4193810367,0.12631833081710317,1.3432019237102817,0.7843816218362936,0.28850180000000003,0.6244019118672257
0.0125,1.79609375,1.0,1709.520383361804,0.131218994211034,1.3423320559122793,0.7965459339492547,0.2884889375,0.6263034550219135
0.013000000000000001,1.7957750000000001,1.0,1769.8230678764244,0.13609216851440548,1.3415014997439323,0.8077152831287009,0.28847555,0.628114558905118
0.0135,1.79544375,1.0,1827.3817617181264,0.140938007813969,1.3407073707646078,0.8179889015161925,0.2884616375,0.6298421157738141
0.014,1.7951000000000001,1.0,1882.2840443018063,0.1457566668429965,1.339946735996648,0.8274549277133382,0.2884472,0.6314930378993155
0.0145,1.79474375,1.0,1934.5782301340628,0.15054829692979255,1.3392173721226102,0.8361919208527432,0.2884322375,0.6330726226091539
0.015,1.794375,1.0,1984.329839895876,0.15531304921749442,1.3385170925226573,0.8442697202484132,0.28841675,0.63458602700895
0.0155,1.79399375,1.0,2031.6231147210308,0.1600510748492395,1.3378437105769514,0.8517504538805036,0.2884007375,0.6360383521160622
0.016,1.7936,1.0,2076.5421937552246,0.16476252348124407,1.3371952188235334,0.8586895039429504,0.2883842,0.6374342614877213
0.0165,1.7931937500000001,1.0,2119.1899212376816,0.16944754591485042,1.3365695701571423,0.8651362397700718,0.2883671375,0.6387784580492235
0.017,1.792775,1.0,2159.6326614985646,0.17410628903370667,1.335965230182339,0.8711348868865355,0.28834955,0.6400745028970918
0.0175,1.7923437500000001,1.0,2197.946996945869,0.17873889968283302,1.3353806690949905,0.8767249868607387,0.2883314375,0.6413259145325143
0.018000000000000002,1.7919,1.0,2234.219275570019,0.1833455247072498,1.3348143570909643,0.8819419468662092,0.2883128,0.6425361807581769
0.0185,1.79144375,1.0,2268.5214590795554,0.18792630941551633,1.334264996831926,0.8868175820277449,0.2882936375,0.6437082649647721
0.019,1.790975,1.0,2300.976482138166,0.1924814011127828,1.33373086040206,0.8913803633485443,0.28827395,0.6448460230079746
0.0195,1.79049375,1.0,2331.649947353865,0.19701094299399816,1.3332108624385135,0.8956560645246513,0.2882537375,0.645951916941907
0.02,1.79,1.0,2360.596262636649,0.20151507725153012,1.3327040818722884,0.8996679494704612,0.288233,0.6470280417905536
0.0205,1.7894952328856506,1.0,2387.943511704367,0.20599394607774643,1.3322095976343862,0.903437015465172,0.2882117997811973,0.6480764771670895
0.021,1.7889888215752685,1.0,2414.1943111148175,0.2104476916650148,1.3317264886558082,0.9069822447965452,0.2881905305061613,0.6490992880232396
0.021500000000000002,1.7884824102648864,1.0,2439.486863857627,0.21487645511045889,1.3312539715093359,0.9103208544360255,0.28816926123112524,0.6500982345640692
0.022,1.7879759989545043,1.0,2463.842060554695,0.21928037776887088,1.3307916819958447,0.9134685453470717,0.2881479919560892,0.6510741808748722
0.0225,1.7874695876441222,1.0,2487.2895459564143,0.22365959816028705,1.3303391865292953,0.9164395600366313,0.2881267226810531,0.6520281308774345
0.023,1.7869631763337401,1.0,2509.860872007009,0.22801425409779277,1.3298960478328798,0.9192468517767098,0.28810545340601706,0.6529610893630302
0.0235,1.7864567650233583,1.0,2531.5890231397984,0.23234448339447347,1.3294618286297908,0.921902220229441,0.288084184130981,0.6538740544512576
0.024,1.7859503537129762,1.0,2552.5008318113883,0.23665042012227352,1.3290361621005573,0.9244164408495029,0.288062914855945,0.6547678699940555
0.0245,1.785443942402594,1.0,2572.6368441655136,0.24093220470339805,1.3286185637168724,0.9267993406355556,0.28804164558090894,0.6556436211117982
0.025,1.784937531092212,1.0,2592.035535517103,0.24518997654328903,1.3282085800425039,0.9290599153564405,0.2880203763058729,0.6565023213854698
0.025500000000000002,1.7844311197818299,1.0,2610.721132374543,0.2494238675798196,1.3278059005771938,0.9312064270620497,0.28799910703083687,0.657344679677216
0.026000000000000002,1.7839247084714478,1.0,2628.7187054644683,0.25363400975086287,1.3274102148206843,0.9332464553058216,0.2879778377558008,0.65817140060929
0.0265,1.7834182971610657,1.0,2646.05412051606,0.2578205349942919,1.327021212272718,0.9351869627426328,0.2879565684807648,0.6589831847056182
0.027,1.7829118858506836,1.0,2662.7539911837075,0.2619835752479798,1.3266385824330371,0.9370343536236758,0.2879352992057287,0.6597807285272195
0.0275,1.7824054745403015,1.0,2678.845634106756,0.2661232624497998,1.3262620148013835,0.9387945260335842,0.28791402993069265,0.6605647248014727
0.028,1.7818990632299194,1.0,2694.3570261065865,0.2702397285376248,1.3258911988775,0.9404729186068266,0.2878927606556566,0.6613358625452352
0.0285,1.7813926519195376,1.0,2709.316656573847,0.2743331053761851,1.325525825136862,0.9420745524781561,0.28787149138062057,0.6620948251561388
0.029,1.7808862406091555,1.0,2723.73930454656,0.27840351599499924,1.325165714084618,0.943604083569457,0.28785022210558453,0.6628420229076545
0.029500000000000002,1.7803798292987734,1.0,2737.664747759479,0.2824511014157846,1.324810462945025,0.9450657961714637,0.2878289528305485,0.6635783264076485
0.03,1.7798734179883913,1.0,2751.1100445646116,0.28647598654776074,1.3244598802367342,0.9464636818337212,0.28780768355551245,0.6643041649131508
0.0305,1.7793670066780092,1.0,2764.092609297113,0.2904782963001473,1.324113774478397,0.947801442234594,0.28778641428047635,0.6650199655400726
0.031,1.778860595367627,1.0,2776.6301928625094,0.2944581555821639,1.323771954188665,0.9490825138915383,0.2877651450054403,0.6657261533190466
0.0315,1.778354184057245,1.0,2788.7408641362463,0.29841568930303014,1.3234342278861895,0.9503100904749953,0.2877438757304043,0.66642315124893
0.032,1.777847772746863,1.0,2800.4429921766923,0.3023510223719656,1.3231004040896217,0.9514871429842452,0.28772260645536823,0.6671113803479694
0.0325,1.7773413614364808,1.0,2811.755229250892,0.3062642796981898,1.3227702913176131,0.952616438013164,0.2877013371803322,0.6677912597026249
0.033,1.7768349501260987,1.0,2822.696494673077,0.3101555861909225,1.3224436980888152,0.9537005543072733,0.28768006790529616,0.6684632065140592
0.0335,1.7763285388157168,1.0,2833.2850381017815,0.3140250657778441,1.3221204411418257,0.9547418984597953,0.2876587986302601,0.6691276192557258
0.034,1.7758221275053347,1.0,2843.5303104055747,0.3178728340909241,1.3218004176255396,0.9557427246439603,0.2876375293552241,0.6697847296429474
0.0345,1.7753157161949527,1.0,2853.459858832259,0.32169902721944643,1.321483365183954,0.9567051275720388,0.28761626008018804,0.6704350953762772
0.035,1.7748093048845706,1.0,2863.084549667753,0.3255037628625395,1.3211691718825833,0.9576310783788294,0.28759499080515194,0.6710789637508152
0.035500000000000004,1.7743028935741885,1.0,2872.4153898862924,0.32928715871933195,1.3208577257869416,0.9585224226378083,0.2875737215301159,0.6717165810039278
0.036000000000000004,1.7737964822638064,1.0,2881.463520192971,0.3330493324889522,1.3205489149625431,0.9593808898084574,0.28755245225507986,0.6723481923352561
0.0365,1.7732900709534243,1.0,2890.24020834521,0.3367904018705287,1.3202426274749024,0.9602081018696965,0.2875311829800438,0.6729740419259276
0.037,1.7727836596430422,1.0,2898.756842751453,0.3405104845631901,1.319938751389533,0.9610055812179011,0.2875099137050078,0.6735943729569724
0.0375,1.77227724833266,1.0,2907.0249263476567,0.34420969826606473,1.31963717477195,0.9617747578996874,0.28748864442997174,0.6742094276269321
0.038,1.771770837022278,1.0,2915.0560707516715,0.34788816067828127,1.3193377856876671,0.9625169762422389,0.2874673751549357,0.6748194471686786
0.0385,1.7712644257118961,1.0,2922.861990695591,0.3515459894989681,1.3190404722021989,0.9632335009374552,0.2874461058798996,0.6754246718654271
0.039,1.770758014401514,1.0,2930.4537141131136,0.3551833010007716,1.3187451292641073,0.9639255229861355,0.2874248366048636,0.6760253270740038
0.0395,1.770251603091132,1.0,2937.8350049219434,0.3588001998377644,1.318451716243397,0.9645941680919244,0.2874035673298275,0.67662150644654
0.04,1.7697451917807498,1.0,2945.02533189685,0.36239682078006913,1.3181600555052906,0.9652404909739041,0.2873822980547915,0.6772135812527755
0.0405,1.7692387804703678,1.0,2952.030988167411,0.3659732738849284,1.3178700856321983,0.9658654923121112,0.28736102877975545,0.6778016857786318
0.041,1.7687323691599857,1.0,2958.858319720891,0.3695296692095847,1.317581745206531,0.9664701168311801,0.2873397595047194,0.678385953799662
0.0415,1.7682259578496036,1.0,2965.513723141262,0.3730661168112806,1.3172949728106995,0.9670552570136269,0.28731849022968337,0.6789665185875557
0.042,1.7677195465392215,1.0,2972.003643432138,0.3765827267472587,1.3170097070271145,0.9676217565296779,0.28729722095464727,0.6795435129164
0.0425,1.7672131352288394,1.0,2978.3345719240547,0.38007960907476146,1.3167258864381866,0.9681704134079823,0.2872759516796113,0.6801170690687021
0.043000000000000003,1.7667067239184573,1.0,2984.5130442633335,0.38355687385103154,1.3164434496263266,0.9687019829692355,0.2872546824045752,0.6806873188411686
0.043500000000000004,1.7662003126080754,1.0,2990.5456384874874,0.38701463113331147,1.316162335173945,0.9692171805426671,0.28723341312953915,0.6812543935502487
0.044,1.7656939012976933,1.0,2996.4389731816586,0.3904529909788437,1.3158824816634527,0.9697166839834903,0.2872121438545031,0.6818184240374314
0.0445,1.7651874899873112,1.0,3002.1997057201615,0.39387206344487086,1.3156038276772604,0.9702011360077406,0.28719087457946707,0.6823795406743054
0.045,1.7646810786769291,1.0,3007.8345305911807,0.3972719585886355,1.3153263117977785,0.9706711463594262,0.28716960530443103,0.6829378733673794
0.0455,1.764174667366547,1.0,3013.3460566564395,0.4006527729135298,1.3150499082591804,0.971127294588374,0.287148336029395,0.6834934799294706
0.046,1.763668256056165,1.0,3018.741653396686,0.40401462276054706,1.3147745503151131,0.9715701308704495,0.28712706675435895,0.6840465002357089
0.0465,1.7631618447457829,1.0,3024.0294991016626,0.40735762686915716,1.3145001645386933,0.9720001778126639,0.28710579747932286,0.6845970870699452
0.047,1.7626554334354008,1.0,3029.2129189746197,0.410681887064772,1.3142267196903996,0.9724179330478259,0.2870845282042868,0.6851453081397036
0.0475,1.7621490221250187,1.0,3034.2952566361246,0.41398750517280336,1.3139541845307101,0.9728238699696742,0.2870632589292508,0.685691230917273
0.048,1.7616426108146366,1.0,3039.279873483309,0.4172745830186632,1.3136825278201034,0.9732184391399138,0.28704198965421474,0.6862349226415498
0.0485,1.7611361995042547,1.0,3044.170148070471,0.4205432224277634,1.3134117183190583,0.9736020696009539,0.2870207203791787,0.686776450319819
0.049,1.7606297881938726,1.0,3048.9694755117002,0.4237935252255158,1.313141724788053,0.9739751701014775,0.28699945110414266,0.6873158807294747
0.0495,1.7601233768834905,1.0,3053.6812669046517,0.42702559323733225,1.3128725159875663,0.9743381302413836,0.2869781818291066,0.6878532804196751
0.05,1.7596169655731084,1.0,3058.3089487763427,0.4302395282886246,1.3126040606780762,0.9746913215420892,0.2869569125540705,0.6883887157129389
0.0505,1.7591105542627263,1.0,3062.8559625506523,0.43343543220480485,1.3123363276200615,0.9750350984476919,0.28693564327903454,0.6889222527066761
0.051000000000000004,1.7586041429523442,1.0,3067.3257640363468,0.4366134068112848,1.3120692855740008,0.9753697992620401,0.28691437400399844,0.689453957274658
0.051500000000000004,1.7580977316419621,1.0,3071.721822939042,0.4397735539334763,1.3118029033003726,0.9756957470263466,0.2868931047289624,0.6899838950684263
0.052000000000000005,1.75759132033158,1.0,3076.047622392325,0.4429159753967913,1.311537149559655,0.9760132503416128,0.28687183545392636,0.6905121315186388
0.0525,1.757084909021198,1.0,3080.306658511949,0.4460407730266415,1.3112719931123271,0.9763226041397889,0.2868505661788903,0.6910387318363501
0.053,1.7565784977108159,1.0,3084.4966343902615,0.44914800891202067,1.3110074523598894,0.9766240894012838,0.2868292969038543,0.6915636625529693
0.0535,1.756072086400434,1.0,3088.626126460387,0.4522378282532169,1.3107434527637847,0.9769179776743251,0.28680802762881824,0.6920870745039589
0.054,1.755565675090052,1.0,3092.6980104105337,0.45531033331694704,1.3104799686829123,0.9772045273872065,0.2867867583537822,0.6926090211946997
0.0545,1.7550592637796698,1.0,3096.713830783391,0.45836561664992853,1.3102169859188462,0.9774839856638075,0.2867654890787461,0.6931295333144976
0.055,1.7545528524692877,1.0,3100.675138142157,0.46140377079887884,1.3099544902731612,0.9777565891841077,0.28674421980371007,0.6936486414525025
0.0555,1.7540464411589056,1.0,3104.5834889144667,0.4644248883105154,1.309692467547432,0.9780225647122408,0.286722950528674,0.6941663760981595
0.056,1.7535400298485235,1.0,3108.440445241706,0.46742906173155585,1.309430903543233,0.9782821295936315,0.286701681253638,0.6946827676416405
0.0565,1.7530336185381414,1.0,3112.247574832194,0.4704163836087175,1.3091697840621388,0.9785354922232667,0.28668041197860195,0.6951978463742681
0.057,1.7525272072277593,1.0,3116.0064508191153,0.4733869464887179,1.308909094905724,0.9787828524869954,0.2866591427035659,0.6957116424889234
0.0575,1.7520207959173772,1.0,3119.718651622647,0.47634084291827444,1.3086488218755632,0.9790244021776188,0.28663787342852987,0.6962241860804428
0.058,1.7515143846069952,1.0,3123.3857608168296,0.47927816544410473,1.308388950773231,0.9792603253874046,0.28661660415349377,0.6967355071460005
0.0585,1.7510079732966133,1.0,3127.009367001087,0.48219900661292614,1.3081294674003017,0.979490798878536,0.2865953348784578,0.6972456355854797
0.059000000000000004,1.7505015619862312,1.0,3130.5910636750923,0.4851034589714562,1.3078703575583503,0.9797159924329005,0.2865740656034217,0.6977546012018289
0.059500000000000004,1.749995150675849,1.0,3134.132449120102,0.4879916150664123,1.307611607048951,0.9799360691825308,0.28655279632838565,0.6982624337014087
0.06,1.749488739365467,1.0,3137.635126282657,0.490863567444512,1.3073532016736786,0.980151185921902,0.2865315270533496,0.6987691626943209
0.0605,1.748982328055085,1.0,3141.1007026641546,0.49371940865247277,1.3070951272341076,0.9803614934032218,0.28651025777831357,0.6992748176947299
0.061,1.7484759167447028,1.0,3144.530790214259,0.4965592312370121,1.3068373695318125,0.9805671366157623,0.28648898850327753,0.6997794281211669
0.0615,1.7479695054343207,1.0,3147.927005229031,0.49938312774484744,1.3065799143683678,0.9807682550502096,0.28646771922824144,0.7002830232968248
0.062,1.7474630941239386,1.0,3151.289956367646,0.502191174348284,1.3063227561053685,0.9809649821630345,0.28644644995320545,0.7007856157270757
0.0625,1.7469566828135565,1.0,3154.6195329709985,0.5049834439960318,1.306065895203296,0.9811574465235591,0.28642518067816936,0.7012872059738682
0.063,1.7464502715031744,1.0,3157.9194923406085,0.5077600730644063,1.3058092994400834,0.9813457749278972,0.2864039114031333,0.7017878583417265
0.0635,1.7459438601927926,1.0,3161.1905053700452,0.5105211444578109,1.3055529627337294,0.9815300869216785,0.2863826421280973,0.7022875859841842
0.064,1.7454374488824105,1.0,3164.4332448969876,0.513266741080649,1.3052968790022328,0.9817104977064023,0.28636137285306124,0.7027864020136991
0.0645,1.7449310375720284,1.0,3167.64838566867,0.5159969458373237,1.305041042163592,0.9818871183290867,0.2863401035780252,0.7032843195017526
0.065,1.7444246262616463,1.0,3170.8366043080005,0.5187118416322386,1.3047854461358064,0.9820600558623072,0.28631883430298916,0.7037813514789459
0.0655,1.7439182149512642,1.0,3173.9985792809252,0.5214115113697968,1.3045300848368744,0.9822294135751748,0.2862975650279531,0.704277510935096
0.066,1.743411803640882,1.0,3177.134990864192,0.5240960379544017,1.3042749521847945,0.9823952910957784,0.286276295752917,0.7047728108193273
0.0665,1.7429053923305,1.0,3180.2465211143867,0.5267655042904568,1.304020042097566,0.9825577845655656,0.286255026477881,0.70526726404016
0.067,1.742398981020118,1.0,3183.3338538370185,0.5294199932823651,1.3037653484931875,0.9827169867861261,0.28623375720284494,0.7057608834656006
0.0675,1.7418925697097358,1.0,3186.397674557342,0.5320595878345301,1.3035108652896579,0.982872987358794,0.2862124879278089,0.7062536819232244
0.068,1.7413861583993537,1.0,3189.438670491432,0.5346843708513552,1.3032565864049754,0.9830258728174749,0.28619121865277286,0.7067456722002605
0.0685,1.7408797470889719,1.0,3192.457530518153,0.5372944252372437,1.3030025057571395,0.983175726755067,0.2861699493777368,0.7072368670436692
0.069,1.7403733357785898,1.0,3195.4549451522294,0.5398898338965987,1.3027486172641485,0.9833226299438275,0.2861486801027008,0.7077272791602237
0.0695,1.7398669244682077,1.0,3198.4316065174958,0.5424706797338239,1.3024949148440015,0.9834666604500177,0.2861274108276647,0.7082169212165825
0.07,1.7393605131578256,1.0,3201.3882083222165,0.5450370456533223,1.302241392414697,0.9836078937431301,0.2861061415526287,0.708705805839366
