Time [s],Phi [rad],STIM [ ],Fsee [N],Gamma [ ],Lcerel [ ],q [ ],Lmtc [m],fisomrel [ ]
0.0,1.8,1.0,17.967033552443112,1.0007732435638137e-05,1.3793397601808082,0.00500002669284332,0.288653,0.5411394972766803
0.0005,1.79999375,1.0,18.276379599106797,0.005619160905765616,1.3793024282837774,0.01294053623396866,0.2886527375,0.5412298083483098
0.001,1.799975,1.0,21.618011329504967,0.011196851164715383,1.3789383399272315,0.03560861942818794,0.28865195,0.5421101228737053
0.0015,1.79994375,1.0,31.068787212156238,0.016743254992218907,1.3780462419646604,0.07060176463324044,0.2886506375,0.5442635170165735
0.002,1.7999,1.0,53.58169295556302,0.022258547879559196,1.3763681767675948,0.11471790730093048,0.2886488,0.5483003683566214
0.0025,1.79984375,1.0,97.1179037464269,0.027742904333931402,1.3739352170808699,0.16457475045408462,0.28864643749999996,0.5541213438350854
0.003,1.7997750000000001,1.0,160.95703568714745,0.033196497886160664,1.3712143860957577,0.2172803057246642,0.28864354999999997,0.5605863506235641
0.0035,1.79969375,1.0,237.68217110179768,0.03861950109029287,1.3685847699778557,0.2706127397433612,0.2886401375,0.566789755549653
0.004,1.7996,1.0,321.4656323538678,0.04401208553437707,1.3661561225635557,0.32291565676466927,0.2886362,0.5724798912921633
0.0045000000000000005,1.7994937500000001,1.0,409.2666615662796,0.04937442184564989,1.3639228397348107,0.3730343696704784,0.2886317375,0.577679103059156
0.005,1.799375,1.0,499.41245578700887,0.054706679681626534,1.361858364624829,0.4202473318298181,0.28862675,0.5824570279051158
0.0055,1.79924375,1.0,590.7894135702397,0.06000902777756259,1.3599388546452833,0.4641735792755586,0.2886212375,0.5868750666984746
0.006,1.7991000000000001,1.0,682.5171484409601,0.06528163388961701,1.3581464321955965,0.5046798533651217,0.2886152,0.5909793785253986
0.006500000000000001,1.79894375,1.0,773.8806724237342,0.07052466485009788,1.3564672636110768,0.541800658148844,0.2886086375,0.5948057715995889
0.007,1.798775,1.0,864.2850134953516,0.0757382865525548,1.354890407881917,0.5756766914660764,0.28860155,0.5983826479381587
0.0075,1.79859375,1.0,953.2416389595378,0.08092266395954634,1.353406803438602,0.6065098433832187,0.2885939375,0.6017335181227976
0.008,1.7984,1.0,1040.356244713442,0.08607796108693824,1.3520086788806178,0.6345320001510626,0.2885858,0.6048784757420985
0.0085,1.79819375,1.0,1125.3181981045827,0.09120434113658768,1.3506891852895786,0.6599843353938321,0.2885771375,0.6078351253856238
0.009000000000000001,1.797975,1.0,1207.8780638817907,0.09630196600524552,1.3494423372503692,0.6831043008330823,0.28856795,0.6106187912531863
0.0095,1.79774375,1.0,1287.872580120876,0.10137099753115242,1.3482623835035763,0.7041175632091516,0.2885582375,0.6132439803456886
0.01,1.7975,1.0,1365.1654226162818,0.10641159593549467,1.3471444061861053,0.7232341907520954,0.288548,0.61572309073245
0.0105,1.79724375,1.0,1439.6581329458124,0.1114239202407501,1.3460839634870776,0.7406466255901137,0.2885372375,0.6180672519677142
0.011,1.796975,1.0,1511.3060515495642,0.11640812906930567,1.3450767510771597,0.7565291819703882,0.28852595000000003,0.6202871041646427
0.0115,1.79669375,1.0,1580.1097499295129,0.1213643809923242,1.3441186176072466,0.7710386351320313,0.2885141375,0.6223927838522882
0.012,1.7964,1.0,1646.0639851661033,0.12629283245550774,1.3432060833235906,0.7843155226176052,0.28850180000000003,0.6243928073012774
0.0125,1.79609375,1.0,1709.1768641653753,0.13119363879254278,1.3423360016032362,0.7964852838866463,0.2884889375,0.6262948405813427
0.013000000000000001,1.7957750000000001,1.0,1769.4921076753585,0.1360669552579577,1.3415052358442507,0.8076595316637705,0.28847555,0.628106421846182
0.0135,1.79544375,1.0,1827.0727240933377,0.1409129362177311,1.3407108039910982,0.8179375221797308,0.2884616375,0.6298346557517203
0.014,1.7951000000000001,1.0,1881.986375916938,0.14573173586259724,1.3399499943237418,0.8274075345064287,0.2884472,0.631485973722219
0.0145,1.79474375,1.0,1934.28617064189,0.15052350560197905,1.3392205255435539,0.8361481499774027,0.2884322375,0.6330658005419487
0.015,1.794375,1.0,1984.046203931705,0.15528839684529938,1.3385201163519072,0.8442292159825748,0.28841675,0.6345794988045002
0.0155,1.79399375,1.0,2031.3486133511024,0.16002656012923092,1.337846602754778,0.8517129061279191,0.2884007375,0.636032120558212
0.016,1.7936,1.0,2076.2903149799326,0.16473814683487098,1.3371978437778,0.8586545966195418,0.2883842,0.6374286165548545
0.0165,1.7931937500000001,1.0,2118.955239142919,0.1694233063560001,1.3365719911550733,0.8651037497304068,0.2883671375,0.6387732613836392
0.017,1.792775,1.0,2159.4106295280258,0.17408218558262883,1.335967499128082,0.8711046114497808,0.28834955,0.6400696413572136
0.0175,1.7923437500000001,1.0,2197.7344655207166,0.17871493140476796,1.3353828219383106,0.8766967402039629,0.2883314375,0.6413213097853809
0.018000000000000002,1.7919,1.0,2234.0145631561604,0.18332169071242813,1.3348164138272434,0.8819155581420712,0.2883128,0.6425317890046688
0.0185,1.79144375,1.0,2268.3369298968983,0.18790260919827034,1.3342668367132975,0.8867928612649629,0.2882936375,0.6437043427094571
0.019,1.790975,1.0,2300.795143809791,0.19245783353035623,1.333732655670734,0.8913572135722609,0.28827395,0.6448422019737221
0.0195,1.79049375,1.0,2331.464975273113,0.19698750756775532,1.33321268159684,0.8956343735308953,0.2882537375,0.6459480510938871
0.02,1.79,1.0,2360.413524214731,0.201491773380612,1.3327058680094066,0.8996475861628798,0.288233,0.6470242518880973
0.0205,1.78949375,1.0,2387.7129667357003,0.2059707730390706,1.3322111684262257,0.9034178325923059,0.2882117375,0.6480731491482205
0.021,1.788975,1.0,2413.4401309202576,0.21042464861327548,1.3317275363650893,0.9069640813409625,0.28818995000000003,0.6490970714832536
0.021500000000000002,1.78844375,1.0,2437.66618444074,0.21485354050861621,1.3312540206853785,0.9103035282001717,0.2881676375,0.6500981306752898
0.022,1.7879,1.0,2460.471882252343,0.2192575912698995,1.3307896138005724,0.9134517585797799,0.2881448,0.6510785440104215
0.0225,1.78734375,1.0,2481.921686601889,0.22363694014946695,1.33033349652124,0.9164229655681861,0.28812143749999997,0.6520401182272062
0.023,1.786775,1.0,2502.070787879504,0.22799172419915253,1.3298849645719493,0.9192300817665097,0.28809755,0.6529844073640427
0.0235,1.78619375,1.0,2520.976780406685,0.23232208047079023,1.3294433136772674,0.9218848893470362,0.28807313749999996,0.6539129562287678
0.024,1.7856,1.0,2538.6994613428196,0.23662814601621396,1.3290078395617622,0.924398138280973,0.2880482,0.6548273007235388
0.0245,1.78499375,1.0,2555.3006405885403,0.2409100578872577,1.3285778379500008,0.9267796509924247,0.2880227375,0.6557289681380836
0.025,1.784375,1.0,2570.833871863735,0.24516794971178993,1.328152699066916,0.9290384296932702,0.28799675,0.6566192796399812
0.025500000000000002,1.78374375,1.0,2585.362708182691,0.2494019611158006,1.327731734239632,0.9311827124561627,0.2879702375,0.6574997141973318
0.026000000000000002,1.7831000000000001,1.0,2598.9309249311696,0.2536122244500628,1.3273144530204064,0.9332200867169562,0.2879432,0.6583713292217863
0.0265,1.78244375,1.0,2611.5815633089583,0.25779887134056584,1.3269003824716588,0.9351575251628222,0.2879156375,0.6592351401144236
0.027,1.781775,1.0,2623.3586988960105,0.2619620334132988,1.326489049655808,0.9370014415254774,0.28788755,0.6600921570626511
0.0275,1.7810937500000001,1.0,2634.3073512717574,0.26610184229425093,1.326079981635273,0.9387577428368804,0.2878589375,0.6609433851299107
0.028,1.7804,1.0,2644.473398593748,0.2702184296094114,1.3256727054724735,0.9404318761646058,0.2878298,0.6617898243311209
0.0285,1.77969375,1.0,2653.894131361921,0.27431192409577526,1.325266834565221,0.9420288817564224,0.2878001375,0.6626322905992384
0.029,1.778975,1.0,2662.6105249865304,0.2783824572716518,1.3248619542985367,0.9435534153840018,0.28776995,0.6634716538562992
0.029500000000000002,1.7782437500000001,1.0,2670.672792941185,0.28243016247847497,1.3244575706868318,0.9450097750409743,0.2877392375,0.6643089439540802
0.03,1.7775,1.0,2678.1087671826276,0.2864551651463019,1.324053400537703,0.9464019679132349,0.287708,0.665144749999844
0.0305,1.77674375,1.0,2684.9466869978596,0.2904575907051897,1.3236491606587464,0.9477337100351431,0.2876762375,0.6659796581788552
0.031,1.775975,1.0,2691.21516310802,0.29443756458519554,1.3232445678575582,0.9490084511064605,0.28764395,0.6668142517556775
0.0315,1.7751937500000001,1.0,2696.943143550142,0.2983952122163765,1.322839338941735,0.9502293969027823,0.2876111375,0.6676491110703557
0.032,1.7744,1.0,2702.1598813374476,0.30233065902878964,1.322433190718873,0.9513995295388322,0.2875778,0.668484813529486
0.0325,1.77359375,1.0,2706.8949038976816,0.30624403045249216,1.3220258399965688,0.9525216258134663,0.2875439375,0.6693219335921694
0.033,1.772775,1.0,2711.1775465576684,0.3101354513234709,1.321617007574655,0.9535982741367266,0.28750955,0.6701610345622588
0.0335,1.7719437500000002,1.0,2715.0331825520157,0.31400504126094814,1.3212064523438443,0.9546318922356537,0.2874746375,0.6710025987649288
0.034,1.7711000000000001,1.0,2718.4907700320023,0.31785293094925504,1.3207939021994002,0.955624737231283,0.2874392,0.6718471693612298
0.0345,1.7702437500000001,1.0,2721.568972427345,0.32167923943869436,1.320379180288205,0.9565789260388086,0.2874032375,0.6726950919574548
0.035,1.7693750000000001,1.0,2724.2865801678113,0.32548408577956894,1.3199621097571406,0.9574964388297769,0.28736675,0.6735467102033148
0.035500000000000004,1.76849375,1.0,2726.6624974109395,0.3292675890221816,1.3195425137530892,0.9583791294487269,0.2873297375,0.674402365766444
0.036000000000000004,1.7676,1.0,2728.7157294622757,0.3330298682168352,1.3191202154229325,0.9592287349217722,0.2872922,0.6752623983049145
0.0365,1.76669375,1.0,2730.465370889719,0.3367710424138325,1.318695037913553,0.9600468841456583,0.2872541375,0.6761271454377522
0.037,1.765775,1.0,2731.930594330904,0.34049123066347636,1.3182668043718324,0.9608351058363588,0.28721555,0.6769969427134623
0.0375,1.76484375,1.0,2733.130639994596,0.34419055201606963,1.317835337944653,0.9615948358078529,0.2871764375,0.6778721235765568
0.038,1.7639,1.0,2734.0699339805965,0.34786910699408163,1.3174005968454074,0.9623274327786927,0.28713679999999997,0.6787527459253162
0.0385,1.76294375,1.0,2734.7810568813293,0.351527036289692,1.3169622839924873,0.9630341588764855,0.28709663750000003,0.6796393830556946
0.039,1.761975,1.0,2735.2788278286826,0.355164457618297,1.3165202640190652,0.96371621256288,0.28705595,0.6805322782694556
0.0395,1.7609937500000001,1.0,2735.573129318559,0.35878148218090455,1.3160744466676462,0.9643747256277048,0.2870147375,0.6814315821547874
0.04,1.76,1.0,2735.673869453411,0.3623782211785225,1.3156247416807347,0.9650107649507484,0.286973,0.682337444001816
0.0405,1.7589937500000001,1.0,2735.590978335,0.36595478581215884,1.315171058800836,0.9656253369088519,0.2869307375,0.6832500117804845
0.041,1.757975,1.0,2735.3344046375782,0.36951128728282145,1.3147133077704551,0.9662193914391288,0.28688795,0.684169432117917
0.0415,1.75694375,1.0,2734.9141123617487,0.3730478367915183,1.3142513983320965,0.9667938257884554,0.2868446375,0.6850958502752615
0.042,1.7559,1.0,2734.3400777690163,0.3765645455392572,1.3137852402282655,0.9673494879764561,0.28680079999999997,0.6860294101240105
0.0425,1.75484375,1.0,2733.622286496986,0.38006152472704624,1.3133147432014667,0.9678871799965995,0.2867564375,0.686970254121808
0.043000000000000003,1.753775,1.0,2732.770730854687,0.3835388855558932,1.3128398169942048,0.9684076607776825,0.28671155,0.687918523287731
0.043500000000000004,1.75269375,1.0,2731.7954072993684,0.38699673922680605,1.3123603713489853,0.9689116489258808,0.28666613750000003,0.6888743571770536
0.044,1.7516,1.0,2730.7063140931946,0.39043519694079265,1.3118763160083127,0.9693998252656673,0.2866202,0.6898378938554945
0.0445,1.75049375,1.0,2729.5134491408826,0.39385436989886097,1.3113875607146919,0.9698728351962079,0.2865737375,0.6908092698729403
0.045,1.7493750000000001,1.0,2728.219741314111,0.3972543521137696,1.3108940794592323,0.9703312933216488,0.28652675,0.6917884928482033
0.0455,1.74824375,1.0,2726.8377718344022,0.40063526932944477,1.3103957584813504,0.9707757808313259,0.2864792375,0.692775743357102
0.046,1.7471,1.0,2725.3748248225934,0.4039972318346567,1.309892532133393,0.9712068509635434,0.2864312,0.6937711049998534
0.0465,1.7459437500000001,1.0,2723.8354276767864,0.407340342378098,1.3093843598159913,0.9716250301336936,0.28638263750000004,0.6947746106544936
0.047,1.744775,1.0,2722.224106133502,0.4106647037084613,1.3088712009297763,0.9720308187402378,0.28633355,0.6957862922072633
0.0475,1.74359375,1.0,2720.5453836570955,0.41397041857443917,1.3083530148753788,0.9724246926922707,0.28628393750000003,0.6968061805397463
0.048,1.7424,1.0,2718.803780864316,0.4172575897247242,1.3078297610534302,0.9728071048335727,0.2862338,0.697834305515906
0.0485,1.74119375,1.0,2717.0038149872425,0.4205263199080089,1.3073013988645612,0.9731784862710663,0.2861831375,0.6988706959690174
0.049,1.739975,1.0,2715.1499993709967,0.42377671187298604,1.3067678877094029,0.9735392476149183,0.28613195,0.6999153796884923
0.0495,1.73874375,1.0,2713.2468430093463,0.427008868368348,1.3062291869885865,0.973889780136917,0.2860802375,0.7009683834065987
0.05,1.7375,1.0,2711.298850116194,0.43022289214278747,1.3056852561027426,0.9742304568532097,0.286028,0.7020297327850787
0.0505,1.73624375,1.0,2709.31051973362,0.43341888594499706,1.3051360544525026,0.974561633536973,0.2859752375,0.7030994524016563
0.051000000000000004,1.734975,1.0,2707.286345376821,0.4365969525236693,1.3045815414384971,0.9748836496661395,0.28592195,0.7041775657364447
0.051500000000000004,1.73369375,1.0,2705.230814715109,0.43975719462749685,1.3040216764613577,0.9751968293108876,0.2858681375,0.7052640951582447
0.052000000000000005,1.7324,1.0,2703.1421831874086,0.4428996921651769,1.3034564757898444,0.9755014831464869,0.2858138,0.7063589518533406
0.0525,1.73109375,1.0,2701.0282108575648,0.4460245674659967,1.302885868875815,0.9757979070556951,0.28575893750000003,0.7074622143984142
0.053,1.729775,1.0,2698.8938833696243,0.44913192785543726,1.3023098104259379,0.9760863838117253,0.28570355000000003,0.7085739110976834
0.0535,1.72844375,1.0,2696.7409640019305,0.45222186756160965,1.3017282845453513,0.9763671842753527,0.2856476375,0.7096940124531873
0.054,1.7271,1.0,2694.5712134812916,0.45529448081262497,1.3011412753391938,0.9766405675719527,0.2855912,0.710822488160344
0.0545,1.7257437500000001,1.0,2692.3863899232733,0.45834986183659454,1.3005487669126035,0.9769067816966327,0.2855342375,0.711959307102403
0.055,1.724375,1.0,2690.1882487775483,0.4613881048616295,1.2999507433707187,0.9771660640832416,0.28547675,0.7131044373448765
0.0555,1.72299375,1.0,2687.9785427798793,0.4644093041158411,1.2993471888186778,0.9774186421397018,0.2854187375,0.714257846129958
0.056,1.7216,1.0,2685.7590219085064,0.46741355382734046,1.2987380873616192,0.977664733751912,0.2853602,0.7154194998709233
0.0565,1.72019375,1.0,2683.5314333470455,0.47040094822423884,1.2981234231046812,0.9779045477583144,0.28530113749999997,0.7165893641465155
0.057,1.718775,1.0,2681.297521452856,0.4733715815346473,1.2975031801530021,0.9781382843970583,0.28524155,0.7177674036953137
0.0575,1.71734375,1.0,2679.059027730167,0.4763255479866772,1.2968773426117202,0.9783661357275477,0.2851814375,0.7189535824100872
0.058,1.7159,1.0,2676.8176908100063,0.47926294180843965,1.2962458945859736,0.9785882860280395,0.2851208,0.7201478633321308
0.0585,1.71444375,1.0,2674.5752464350817,0.4821838572280459,1.295608820180901,0.9788049121708307,0.2850596375,0.7213502086455859
0.059000000000000004,1.7129750000000001,1.0,2672.3334274502,0.4850883884736071,1.2949661035016409,0.9790161839764627,0.28499795,0.7225605796717451
0.059500000000000004,1.71149375,1.0,2670.093963798641,0.4879766297732344,1.294317728653331,0.9792222645482777,0.2849357375,0.7237789368633427
0.06,1.71,1.0,2667.85701102746,0.49084865819630863,1.293663694189498,0.9794233099693078,0.284873,0.7250052127390851
0.0605,1.7084937500000001,1.0,2665.622936495051,0.4937045653689798,1.293003996713038,0.9796194713446741,0.2848097375,0.7262393428258482
0.061,1.7069750000000001,1.0,2663.394798976465,0.4965444702104025,1.2923386080554673,0.9798108947915523,0.28474595,0.7274813081638771
0.0615,1.7054437500000001,1.0,2661.1729819535153,0.49936845815339637,1.2916675246288531,0.9799977194614524,0.2846816375,0.7287310429747365
0.062,1.7039,1.0,2658.957868273397,0.502176614630781,1.290990742845263,0.9801800792267903,0.2846168,0.7299884807983484
0.0625,1.70234375,1.0,2656.74984015193,0.5049690250753761,1.2903082591167638,0.9803581029191553,0.2845514375,0.7312535544916898
0.063,1.7007750000000001,1.0,2654.5492791784577,0.5077457749200013,1.2896200698554232,0.9805319145550907,0.28448555,0.7325261962274865
0.0635,1.69919375,1.0,2652.356566320599,0.5105069495974761,1.2889261714733085,0.9807016335501325,0.28441913750000003,0.7338063374929094
0.064,1.6976,1.0,2650.172081928483,0.5132526345406203,1.2882265603824867,0.9808673749217975,0.2843522,0.7350939090882677
0.0645,1.69599375,1.0,2647.996205740917,0.5159829151822535,1.2875212329950254,0.9810292494821671,0.2842847375,0.7363888411257025
0.065,1.694375,1.0,2645.8293168902596,0.5186978769551951,1.2868101857229917,0.9811873640206724,0.28421675,0.7376910630278796
0.0655,1.69274375,1.0,2643.6717939083783,0.5213976052922651,1.2860934149784529,0.981341821477647,0.2841482375,0.7390005035266798
0.066,1.6911,1.0,2641.524014732806,0.5240821856262828,1.2853709171734764,0.9814927211091731,0.2840792,0.7403170906618906
0.0665,1.6894437500000001,1.0,2639.3863567132707,0.526751703390068,1.2846426887201297,0.9816401586437218,0.2840096375,0.741640751779896
0.067,1.687775,1.0,2637.2591966177115,0.5294062440164404,1.2839087260304796,0.9817842264310462,0.28393955,0.7429714135323664
0.0675,1.68609375,1.0,2635.142910640186,0.5320458929382195,1.2831690255165937,0.9819250135837637,0.2838689375,0.7443090018749448
0.068,1.6844000000000001,1.0,2633.0378744072646,0.534670735588225,1.2824235835905393,0.982062606112038,0.2837978,0.7456534420659364
0.0685,1.68269375,1.0,2630.9444629859263,0.5372808573992764,1.2816723966643835,0.9821970870517357,0.2837261375,0.7470046586649943
0.069,1.680975,1.0,2628.862132966614,0.539876330494372,1.2809154696519869,0.9823285361346431,0.28365395,0.7483625603003943
0.0695,1.67924375,1.0,2626.7890424237244,0.5424572091728165,1.280152819507132,0.9824570298218472,0.28358123749999997,0.7497270335529477
0.07,1.6775,1.0,2624.729390988231,0.5450236344277765,1.2793844072100067,0.9825826448340683,0.283508,0.7510980644384986
0.07050000000000001,1.67574375,1.0,2622.6829776885315,0.5475756825523005,1.2786102344864634,0.9827054531330066,0.2834342375,0.7524755651766515
0.07100000000000001,1.673975,1.0,2620.649601932578,0.5501134298394373,1.2778303030623541,0.9828255242814319,0.28335995,0.7538594473860984
0.07150000000000001,1.67219375,1.0,2618.629063503823,0.5526369525822359,1.2770446146635304,0.9829429255377553,0.2832851375,0.755249622085255
0.07200000000000001,1.6704,1.0,2616.6211625565793,0.5551463270737447,1.2762531710158445,0.9830577219462551,0.2832098,0.7566459996928909
0.0725,1.66859375,1.0,2614.625699611815,0.5576416296070126,1.275455973845148,0.9831699764231855,0.2831339375,0.7580484900287663
0.073,1.6667750000000001,1.0,2612.6424755530647,0.5601229364750883,1.2746530248772936,0.9832797498389775,0.28305755,0.7594570023142626
0.0735,1.66494375,1.0,2610.671291622415,0.5625903239710206,1.2738443258381325,0.9833871010967394,0.2829806375,0.760871445173019
0.074,1.6631,1.0,2608.711949416136,0.5650438683878581,1.2730298784535168,0.9834920872072391,0.2829032,0.7622917266315621
0.0745,1.6612437500000001,1.0,2606.7642508809236,0.5674836460186498,1.272209684449299,0.9835947633605542,0.2828252375,0.7637177541199398
0.075,1.659375,1.0,2604.827998310113,0.5699097331564441,1.2713837455513302,0.9836951829945515,0.28274675,0.7651494344723562
0.0755,1.65749375,1.0,2602.902994339541,0.57232220609429,1.270552063485463,0.9837933978603625,0.2826677375,0.7665866739277998
