Time [s],Phi [rad],STIM [ ],Fsee [N],Gamma [ ],Lcerel [ ],q [ ],Lmtc [m],fisomrel [ ]
0.0,1.8,1.0,20.11215056073944,0.0014964687907526766,1.379106209022879,0.005573045882740898,0.288653,0.5417043440060625
0.0005,1.79999375,1.0,20.83399641025289,0.007097284092984388,1.379027623437077,0.017576015429333375,0.2886527375,0.5418943261213052
0.001,1.799975,1.0,25.291929471739543,0.012666683249933516,1.378577816773258,0.043767424544181754,0.28865195,0.5429809842066118
0.0015,1.79994375,1.0,37.3541938849242,0.01820484248124176,1.3775353908853305,0.08149575346258553,0.2886506375,0.5454943514957293
0.002,1.7999,1.0,64.89212172820064,0.023711937018212524,1.375669515393863,0.1274444779900592,0.2886488,0.5499758137874368
0.0025,1.79984375,1.0,114.27003627186365,0.029188141109456497,1.3731422800601363,0.17830893141428078,0.28864643749999996,0.5560103279066417
0.003,1.7997750000000001,1.0,182.1346718846304,0.034633628025463985,1.3704461726890946,0.23137593506235632,0.28864354999999997,0.562403166900515
0.0035,1.79969375,1.0,261.00322113418696,0.04004857006490831,1.3678832242661356,0.2845805567047769,0.2886401375,0.5684372873200005
0.004,1.7996,1.0,345.9252398227004,0.045433138558406104,1.3655201554152785,0.33640347442666013,0.2886362,0.5739636989323682
0.0045000000000000005,1.7994937500000001,1.0,434.36265712756784,0.050787503888312574,1.363342504381331,0.3858122695065336,0.2886317375,0.5790249506055565
0.005,1.799375,1.0,524.8398866921177,0.05611183545576992,1.361324741255799,0.4321848686170742,0.28862675,0.583687599988616
0.0055,1.79924375,1.0,616.3152552760374,0.06140630174506317,1.3594454147474369,0.47521454933111995,0.2886212375,0.5880069955900609
0.006,1.7991000000000001,1.0,707.9500130534622,0.06667107022465613,1.357688358397016,0.5148195256222747,0.2886152,0.5920249944746423
0.006500000000000001,1.79894375,1.0,799.0724432709259,0.07190630758900372,1.3560406672859788,0.5510675636096415,0.2886086375,0.5957750103270246
0.007,1.798775,1.0,889.0979472015753,0.07711217928027113,1.354492435464867,0.5841195224875613,0.28860155,0.5992828864738108
0.0075,1.79859375,1.0,977.5842119602528,0.08228885031898528,1.353034749476573,0.6141875952222708,0.2885939375,0.6025716379528485
0.008,1.7984,1.0,1064.1440270347848,0.08743648425940972,1.3516604307653002,0.6415079704818355,0.2885858,0.6056598897766694
0.0085,1.79819375,1.0,1148.4767281956808,0.09255524386108774,1.3503630157868476,0.6663219401419643,0.2885771375,0.6085642766860497
0.009000000000000001,1.797975,1.0,1230.3766837551539,0.09764529157572292,1.349136335904166,0.6888642842895291,0.28856795,0.6113004430848643
0.0095,1.79774375,1.0,1309.6652389833987,0.10270678808916221,1.3479752158775373,0.7093570440642051,0.2885582375,0.6138815342314454
0.01,1.7975,1.0,1386.218275990635,0.1077398934273925,1.34687485519051,0.7280057294406032,0.288548,0.6163196263921004
0.0105,1.79724375,1.0,1459.9721231930089,0.11274476695648561,1.3458306087851777,0.7449978638514658,0.2885372375,0.6186262437094177
0.011,1.796975,1.0,1530.8936817559004,0.11772156755949888,1.3448382487280806,0.7605030801553132,0.28852595000000003,0.6208118055298165
0.0115,1.79669375,1.0,1598.9488902693986,0.1226704519669315,1.3438942210992475,0.7746739480914443,0.2885141375,0.6228850915004525
0.012,1.7964,1.0,1664.147251534114,0.12759157674884072,1.3429950004386264,0.7876468157398697,0.28850180000000003,0.6248546864607993
0.0125,1.79609375,1.0,1726.5278184138576,0.13248509784113993,1.3421372003070435,0.7995432294941063,0.2884889375,0.6267287505295216
0.013000000000000001,1.7957750000000001,1.0,1786.1465644364434,0.13735117109197406,1.341317660726506,0.8104713902671248,0.28847555,0.6285148420796739
0.0135,1.79544375,1.0,1843.0363281752893,0.14218994928616485,1.3405338359405923,0.820527678242274,0.2884616375,0.630219089858373
0.014,1.7951000000000001,1.0,1897.256126910804,0.14700158520853424,1.3397831801928806,0.8297977086925734,0.2884472,0.6318475461033561
0.0145,1.79474375,1.0,1948.8851522758137,0.15178623134937794,1.339063187976774,0.8383575666379387,0.2884322375,0.6334061050989375
0.015,1.794375,1.0,1998.0076284203524,0.15654403947277581,1.33837152990026,0.8462749557706842,0.28841675,0.6349002160489713
0.0155,1.79399375,1.0,2044.713192393492,0.16127516121542396,1.337706018118025,0.8536101679506081,0.2884007375,0.6363349659657789
0.016,1.7936,1.0,2089.065078679357,0.16597974494321857,1.337064911718965,0.8604170478139553,0.2883842,0.6377144301271885
0.0165,1.7931937500000001,1.0,2131.1399198073573,0.17065793902205575,1.3364464697919758,0.8667436176843679,0.2883671375,0.6390426433817511
0.017,1.792775,1.0,2171.0266200405667,0.17530989181783174,1.3358489514259535,0.8726327674749491,0.28834955,0.6403236027617587
0.0175,1.7923437500000001,1.0,2208.809070972279,0.17993575018513838,1.3352707796554582,0.8781229048223588,0.2883314375,0.641560919353384
0.018000000000000002,1.7919,1.0,2244.587897945228,0.18453566266964722,1.3347103069813528,0.8832484189536748,0.2883128,0.6427583239810222
0.0185,1.79144375,1.0,2278.434782554959,0.18910977375943505,1.33416626401586,0.8880402606821031,0.2882936375,0.6439187117145488
0.019,1.790975,1.0,2310.4214380239064,0.1936582271729731,1.3336374519365266,0.8925262604942489,0.28827395,0.6450448044174169
0.0195,1.79049375,1.0,2340.625962068433,0.19818116662873259,1.3331226719208995,0.8967314683118581,0.2882537375,0.646139303100385
0.02,1.79,1.0,2369.1322979522665,0.20267873584518473,1.3326207251465254,0.9006784683320995,0.288233,0.6472048890401774
0.0205,1.78949375,1.0,2396.0109618276474,0.20715107619079734,1.3321305948465414,0.9043876944320431,0.2882117375,0.6482438391801102
0.021,1.788975,1.0,2421.3541060427583,0.21159833242231982,1.3316510985606334,0.9078775943925685,0.28818995000000003,0.6492587653811386
0.021500000000000002,1.78844375,1.0,2445.221108950044,0.2160206436358473,1.3311814110451392,0.9111649527820448,0.2881676375,0.6502515082211433
0.022,1.7879,1.0,2467.6726363885186,0.22041814862562137,1.330720726565029,0.914265001605257,0.2881448,0.6512238552943219
0.0225,1.78734375,1.0,2488.772372365126,0.22479098618588364,1.3302682393852727,0.917191581889645,0.28812143749999997,0.6521775830782914
0.023,1.786775,1.0,2508.586764570842,0.2291392951108757,1.3298231437708405,0.9199572899699913,0.28809755,0.6531144573760187
0.0235,1.78619375,1.0,2527.177318734093,0.23346321242035528,1.329384704509804,0.9225736188190481,0.28807313749999996,0.6540360855707562
0.024,1.7856,1.0,2544.6099658787302,0.23776287724122983,1.3289521653943568,0.9250510561530366,0.2880482,0.654944109956517
0.0245,1.78499375,1.0,2560.94169959301,0.24203842619884208,1.3285248731263568,0.9273992053760691,0.2880227375,0.6558399481419361
0.025,1.784375,1.0,2576.2195524936374,0.2462899928419639,1.3281022836116285,0.9296268739212773,0.28799675,0.6567247815332733
0.025500000000000002,1.78374375,1.0,2590.491985822306,0.2505177107193672,1.3276838527559958,0.9317421342448337,0.2879702375,0.6575997852136062
0.026000000000000002,1.7831000000000001,1.0,2603.8087678963116,0.25472171337982386,1.327269036465283,0.9337523951278455,0.2879432,0.6584661280965729
0.0265,1.78244375,1.0,2616.2208591230255,0.2589021343721058,1.3268572906453149,0.935664465191171,0.2879156375,0.6593249730612378
0.027,1.781775,1.0,2627.772731584839,0.2630591051243116,1.3264481413479932,0.9374846194469055,0.28788755,0.660177331028191
0.0275,1.7810937500000001,1.0,2638.5104482506495,0.267192758966237,1.3260411084222072,0.9392186389473007,0.2878589375,0.6610242207232733
0.028,1.7804,1.0,2648.484828737608,0.2713032295964642,1.325635675583705,0.940871851110523,0.2878298,0.661866730826352
0.0285,1.77969375,1.0,2657.7290480720167,0.2753906448043995,1.3252314963418568,0.9424491980102442,0.2878001375,0.6627055924337909
0.029,1.778975,1.0,2666.276870602762,0.27945513237944947,1.324828224206032,0.943955248847101,0.28776995,0.6635415330330222
0.029500000000000002,1.7782437500000001,1.0,2674.162598334029,0.28349682011102056,1.3244255126856015,0.9453942328848787,0.2877392375,0.6643752765264178
0.03,1.7775,1.0,2681.4210219203746,0.2875158357885192,1.324023015289935,0.9467700690845668,0.287708,0.6652075432475081
0.0305,1.77674375,1.0,2688.0873743237607,0.29151230720135196,1.3236203855284028,0.9480863928032716,0.2876762375,0.6660390499695408
0.031,1.775975,1.0,2694.197000475294,0.29548636192409894,1.3232172795329902,0.9493465801439772,0.28764395,0.6668705045002963
0.0315,1.7751937500000001,1.0,2699.778556207772,0.2994381230107883,1.3228134178282611,0.9505537760106338,0.2876111375,0.6677024785396573
0.032,1.7744,1.0,2704.8679133945006,0.30336772183637467,1.3224084577136275,0.9517109015383207,0.2875778,0.6685356709015309
0.0325,1.77359375,1.0,2709.4875287768077,0.30727528034848073,1.3220021814853353,0.952820689545704,0.2875439375,0.6693705201488687
0.033,1.772775,1.0,2713.660069438472,0.311160920494729,1.3215943714396303,0.9538856877240817,0.28750955,0.6702074625585112
0.0335,1.7719437500000002,1.0,2717.408392436056,0.3150247642227421,1.3211848098727579,0.954908273398637,0.2874746375,0.6710469321014043
0.034,1.7711000000000001,1.0,2720.7555254791687,0.3188669334801427,1.320773279080964,0.9558906669456468,0.2874392,0.6718893604197893
0.0345,1.7702437500000001,1.0,2723.7246486623285,0.3226875502145534,1.3203595613604946,0.9568349440022065,0.2874032375,0.6727351768013761
0.035,1.7693750000000001,1.0,2726.339077246963,0.32648673637359676,1.319943439007595,0.957743046589831,0.28736675,0.6735848081504889
0.035500000000000004,1.76849375,1.0,2728.6097273752393,0.3302646030420805,1.319524808121919,0.9586168026117162,0.2873297375,0.6744384470492691
0.036000000000000004,1.7676,1.0,2730.5705308761,0.33402128392968333,1.3191033564207548,0.959457908949239,0.2872922,0.6752967089317881
0.0365,1.76669375,1.0,2732.2414635792925,0.33775689984665414,1.3186788993803022,0.9602679671871267,0.2872541375,0.6761599460770382
0.037,1.765775,1.0,2733.6361234075225,0.34147156572032655,1.318251311072592,0.9610484852353466,0.28721555,0.6770283896702051
0.0375,1.76484375,1.0,2734.7681659063105,0.3451653964780339,1.317820465569655,0.9618008796409677,0.2871764375,0.6779022693402033
0.038,1.7639,1.0,2735.651297400635,0.34883850704710967,1.317386236943522,0.9625264821306074,0.28713679999999997,0.6787818131340257
0.0385,1.76294375,1.0,2736.2992685037566,0.35249101235488733,1.3169484992662241,0.9632265456154318,0.28709663750000003,0.6796672474900776
0.039,1.761975,1.0,2736.725867976919,0.3561230273287003,1.316507126609792,0.9639022497082214,0.28705595,0.6805587972105008
0.0395,1.7609937500000001,1.0,2736.944916941881,0.35973466689588207,1.3160619930462567,0.9645547057969764,0.2870147375,0.6814566854324873
0.04,1.76,1.0,2736.9702634434743,0.363326045983766,1.3156129726476489,0.9651849617150755,0.286973,0.6823611335985793
0.0405,1.7589937500000001,1.0,2736.815777365059,0.3668972795196856,1.3151599394859994,0.9657940060440101,0.2869307375,0.6832723614259605
0.041,1.757975,1.0,2736.4953456946605,0.3704484824309743,1.3147027676333394,0.9663827720811659,0.28688795,0.6841905868747334
0.0415,1.75694375,1.0,2736.014975490925,0.373979759092332,1.3142414028174112,0.9669521457887172,0.2868446375,0.6851158825106681
0.042,1.7559,1.0,2735.3893001646775,0.37749123223659087,1.3137757125516047,0.9675029611977067,0.28680079999999997,0.686048476443663
0.0425,1.75484375,1.0,2734.629414633155,0.3809830157057468,1.3133055965346716,0.9680360083492328,0.2867564375,0.6869885305486403
0.043000000000000003,1.753775,1.0,2733.742452461038,0.3844552168554592,1.3128309904838071,0.9685520368618294,0.28671155,0.6879361332682403
0.043500000000000004,1.75269375,1.0,2732.7355518347085,0.3879079430413876,1.312351830116206,0.969051756648589,0.28666613750000003,0.6888913718847474
0.044,1.7516,1.0,2731.615853960902,0.3913413016191914,1.311868051149063,0.9695358404119557,0.2866202,0.6898543325015478
0.0445,1.75049375,1.0,2730.390501558545,0.3947553999445302,1.3113795892995734,0.9700049259579336,0.2865737375,0.6908251000243271
0.045,1.7493750000000001,1.0,2729.0666374410703,0.3981503453730633,1.310886380284932,0.9704596183444236,0.28652675,0.6918037581420047
0.0455,1.74824375,1.0,2727.6514031907036,0.4015262452604504,1.3103883598223334,0.9709004918770863,0.2864792375,0.6927903893074034
0.046,1.7471,1.0,2726.151937924576,0.4048832069623507,1.309885463628973,0.9713280919649222,0.2864312,0.6937850747176546
0.0465,1.7459437500000001,1.0,2724.5753771522513,0.4082213378344239,1.3093776274220452,0.9717429368466859,0.28638263750000004,0.6947878942943437
0.047,1.744775,1.0,2722.9288517246755,0.41154074523232925,1.3088647869187453,0.97214551919827,0.28633355,0.6957989266633867
0.0475,1.74359375,1.0,2721.214727718895,0.4148415246841258,1.3083469211609897,0.972536309199517,0.28628393750000003,0.6968181639366657
0.048,1.7424,1.0,2719.4400881692436,0.41812378923033566,1.3078239662334854,0.9729157535067056,0.2862338,0.6978456817993814
0.0485,1.74119375,1.0,2717.613412789844,0.4213876530962022,1.3072958454347297,0.9732842766074163,0.2861831375,0.6988815796510037
0.049,1.739975,1.0,2715.737933510966,0.4246332158881159,1.306762529796675,0.9736422843272466,0.28613195,0.6999258619666585
0.0495,1.73874375,1.0,2713.8168792814267,0.4278605772124674,1.306223990351274,0.9739901634376807,0.2860802375,0.7009785323129555
0.05,1.7375,1.0,2711.8534757889984,0.43106983667564713,1.305680198130479,0.9743282827198344,0.286028,0.7020395933383643
0.0505,1.73624375,1.0,2709.850945198529,0.4342610938840456,1.3051311241662436,0.9746569939595775,0.2859752375,0.7031090467635347
0.051000000000000004,1.734975,1.0,2707.8125059098866,0.4374344484440534,1.3045767394905194,0.9749766328790376,0.28592195,0.7041868933715698
0.051500000000000004,1.73369375,1.0,2705.7413723333584,0.44058999996206094,1.3040170151352597,0.975287520009075,0.2858681375,0.7052731329982376
0.052000000000000005,1.7324,1.0,2703.6407546842815,0.4437278480444588,1.3034519221324168,0.9755899615069629,0.2858138,0.7063677645221355
0.0525,1.73109375,1.0,2701.513858796239,0.4468480922976375,1.3028814315139436,0.9758842499231514,0.28575893750000003,0.7074707858547968
0.053,1.729775,1.0,2699.3638859526422,0.4499508323279876,1.3023055143117928,0.9761706649207093,0.28570355000000003,0.7085821939307477
0.0535,1.72844375,1.0,2697.1940327372013,0.4530361677418996,1.3017241415579166,0.9764494739507403,0.2856476375,0.7097019846975073
0.054,1.7271,1.0,2695.0074909026825,0.456104198145764,1.3011372842842683,0.9767209328868215,0.2855912,0.710830153105535
0.0545,1.7257437500000001,1.0,2692.8035670398167,0.4591550090846315,1.300544949032017,0.9769852873899219,0.2855342375,0.7119666250361683
0.055,1.724375,1.0,2690.5844500634776,0.4621887006424312,1.2999471159666671,0.9772427725262812,0.28547675,0.713111376349741
0.0555,1.72299375,1.0,2688.3577592014144,0.4652053897386081,1.2993437154866712,0.9774936120911345,0.2854187375,0.7142644770364632
0.056,1.7216,1.0,2686.1245576376537,0.4682051676770103,1.2987347379469851,0.9777380216012967,0.2853602,0.7154258811981701
0.0565,1.72019375,1.0,2683.885906840386,0.47118812576148605,1.2981201737025654,0.9779762076523557,0.28530113749999997,0.7165955421924497
0.057,1.718775,1.0,2681.6428665484354,0.4741543552958835,1.2975000131083678,0.9782083683583109,0.28524155,0.7177734126292123
0.0575,1.71734375,1.0,2679.396494759332,0.4771039475840509,1.2968742465193488,0.9784346937661105,0.2851814375,0.7189594443672479
0.058,1.7159,1.0,2677.1478477204278,0.48003699392983634,1.2962428642904646,0.978655366246707,0.2851208,0.7201535885107824
0.0585,1.71444375,1.0,2674.897979921356,0.4829535856370881,1.2956058567766717,0.9788705608641419,0.2850596375,0.7213557954060263
0.059000000000000004,1.7129750000000001,1.0,2672.6479440887188,0.48585381400965444,1.294963214332926,0.9790804457240515,0.28499795,0.7225660146377182
0.059500000000000004,1.71149375,1.0,2670.3987911828967,0.4887377703513834,1.2943149273141838,0.9792851823028988,0.2849357375,0.7237841950256592
0.06,1.71,1.0,2668.1515703968644,0.4916055459661232,1.2936609860754014,0.9794849257591363,0.284873,0.7250102846212466
0.0605,1.7084937500000001,1.0,2665.907329157254,0.49445723215772214,1.2930013809715348,0.9796798252274236,0.2848097375,0.7262442307039971
0.061,1.7069750000000001,1.0,2663.6671131270687,0.4972929202300283,1.2923361023575406,0.9798700240969456,0.28474595,0.7274859797780662
0.0615,1.7054437500000001,1.0,2661.4319662107423,0.5001127014868899,1.291665140588375,0.9800556602748074,0.2846816375,0.728735477568761
0.062,1.7039,1.0,2659.2029305616884,0.5029166672321552,1.290988486018994,0.9802368664354066,0.2846168,0.729992669019049
0.0625,1.70234375,1.0,2656.9810465907435,0.5057049087696723,1.2903061290043538,0.9804137702566383,0.2845514375,0.731257498286057
0.063,1.7007750000000001,1.0,2654.767741278364,0.5084774778937718,1.2896180563205726,0.980586491513394,0.28448555,0.7325299153478751
0.0635,1.69919375,1.0,2652.5645489882804,0.511234513120949,1.2889242537318584,0.9807551519153611,0.28441913750000003,0.7338098711909717
0.064,1.6976,1.0,2650.3715917587774,0.5139760973576565,1.2882247200068873,0.9809198652476308,0.2843522,0.7350972920183401
0.0645,1.69599375,1.0,2648.18899042402,0.5167023133766268,1.2875194539238617,0.9810807411383066,0.2842847375,0.7363921033651926
0.065,1.694375,1.0,2646.016865650076,0.5194132439505927,1.286808454260984,0.9812378852478204,0.28421675,0.7376942301161515
0.0655,1.69274375,1.0,2643.855337937005,0.5221089718522872,1.2860917197964563,0.9813913994395813,0.2841482375,0.7390035965048021
0.066,1.6911,1.0,2641.7045276218214,0.524789579854443,1.2853692493084812,0.9815413819420927,0.2840792,0.7403201261132459
0.0665,1.6894437500000001,1.0,2639.56455488068,0.5274551507297928,1.2846410415752607,0.9816879275030219,0.2840096375,0.741643741871654
0.067,1.687775,1.0,2637.435539731159,0.5301057672510694,1.2839070953749974,0.9818311275356775,0.28393955,0.7429743660578194
0.0675,1.68609375,1.0,2635.317602035192,0.5327415121910055,1.2831674094858934,0.9819710702583151,0.2838689375,0.7443119202967104
0.068,1.6844000000000001,1.0,2633.21086150129,0.5353624683223341,1.282421982686151,0.982107840826675,0.2837978,0.7456563255600238
0.0685,1.68269375,1.0,2631.1154376871154,0.5379687184177879,1.2816708137539725,0.9822415214601193,0.2837261375,0.7470075021657364
0.069,1.680975,1.0,2629.0314500023856,0.5405603452500995,1.2809139014675601,0.9823721915617256,0.28365395,0.7483653697776592
0.0695,1.67924375,1.0,2626.9590177111304,0.5431374315920019,1.2801512446051164,0.982499927832659,0.28358123749999997,0.749729847404988
0.07,1.6775,1.0,2624.8982599346864,0.5457000602162277,1.2793828419448436,0.9826248043811391,0.283508,0.7511008534018575
0.07050000000000001,1.67574375,1.0,2622.849295654314,0.5482483138955099,1.278608692264944,0.982746892826286,0.2834342375,0.7524783054668933
0.07100000000000001,1.673975,1.0,2620.8122437137145,0.5507822754025811,1.2778287943436197,0.9828662623971222,0.28335995,0.7538621206427636
0.07150000000000001,1.67219375,1.0,2618.7872228221236,0.5533020275101741,1.277043146959073,0.9829829800269855,0.2832851375,0.7552522153157317
0.07200000000000001,1.6704,1.0,2616.7754406740314,0.5558075945376103,1.2762517387788652,0.9830971065049564,0.2832098,0.7566485230282323
0.0725,1.66859375,1.0,2614.7764868639856,0.5582991221987318,1.275454573481008,0.9832087084891915,0.2831339375,0.7580509500905482
0.073,1.6667750000000001,1.0,2612.790004654144,0.5607766959364872,1.2746516542513378,0.9833178468954477,0.28305755,0.7594594031154452
0.0735,1.66494375,1.0,2610.815780621231,0.5632403894369726,1.273842982949325,0.983424579932609,0.2829806375,0.7608737904636981
0.074,1.6631,1.0,2608.8536017213764,0.5656902763862846,1.2730285614344408,0.9835289639446748,0.2829032,0.7622940199012749
0.0745,1.6612437500000001,1.0,2606.9032552858116,0.5681264304705193,1.272208391566156,0.9836310534810963,0.2828252375,0.7637199986000202
0.075,1.659375,1.0,2604.9645290166072,0.570548925375773,1.2713824752039413,0.9837309013640138,0.28274675,0.7651516331383361
0.0755,1.65749375,1.0,2603.0372109824266,0.5729578347881422,1.270550814207268,0.9838285587525529,0.2826677375,0.7665888295018636
