Time [s],Phi [rad],STIM [ ],Fsee [N],Gamma [ ],Lcerel [ ],q [ ],Lmtc [m],fisomrel [ ]
0.0,1.8,1.0,17.966890080942107,2.2450776069436555e-05,1.379339776254502,0.005000133480296103,0.288653,0.541139458390256
0.0005,1.79999375,1.0,18.280447083165498,0.005631534153769464,1.3793019764861028,0.01297511743988251,0.2886527375,0.5412309012555356
0.001,1.799975,1.0,21.631365715859083,0.011209155008580465,1.3789369761721257,0.03567349026814412,0.28865195,0.5421134186528247
0.0015,1.79994375,1.0,31.101839917508133,0.01675548982125388,1.3780434267158785,0.07069054888702715,0.2886506375,0.5442703045820032
0.002,1.7999,1.0,53.65406603206933,0.02227071408086632,1.3763634831292837,0.11482304850958747,0.2886488,0.5483116344604382
0.0025,1.79984375,1.0,97.24037199882221,0.027755002292476575,1.3739293174559795,0.16468913239945082,0.28864643749999996,0.5541354130959992
0.003,1.7997750000000001,1.0,161.11686378650234,0.03320852798472247,1.3712084050412756,0.2173983081128793,0.28864354999999997,0.5606005102892611
0.0035,1.79969375,1.0,237.86302269143658,0.03863146370950573,1.368579200316171,0.27073010756870236,0.2886401375,0.5668028478772064
0.004,1.7996,1.0,321.65819874615465,0.04402398105275027,1.3661510229698854,0.3230293021908505,0.2886362,0.5724917996750842
0.0045000000000000005,1.7994937500000001,1.0,409.4661738062178,0.04938625063959338,1.3639181569864605,0.37314224997186946,0.2886317375,0.577689971350695
0.005,1.799375,1.0,499.6160994047433,0.054718442125502656,1.3618540376513737,0.4203482626250501,0.28862675,0.5824670135057342
0.0055,1.79924375,1.0,590.9949532965677,0.060020724243236026,1.3599348392432817,0.4642670254792725,0.2886212375,0.5868842841164316
0.006,1.7991000000000001,1.0,682.7230119960931,0.06529326474728887,1.3581426904236202,0.5047657294272574,0.2886152,0.5909879250514379
0.006500000000000001,1.79894375,1.0,774.0870998867581,0.0705362304657133,1.35646373999247,0.5418791586504879,0.2886086375,0.5948137821128214
0.007,1.798775,1.0,864.4921338195444,0.07574978730166582,1.3548870624238754,0.575748197720078,0.28860155,0.5983902197836493
0.0075,1.79859375,1.0,953.4467526529471,0.08093410018659004,1.353403648745108,0.6065748642758751,0.2885939375,0.6017406283598352
0.008,1.7984,1.0,1040.5601924479697,0.08608933320028103,1.3520056763050834,0.6345910518193488,0.2885858,0.6048852163552323
0.0085,1.79819375,1.0,1125.5171244314795,0.09121564940889534,1.3506863693535858,0.6600379797293953,0.2885771375,0.6078414233086749
0.009000000000000001,1.797975,1.0,1208.079127353073,0.09631321105525999,1.349439590046211,0.6831529937432298,0.28856795,0.6106249136107652
0.0095,1.79774375,1.0,1288.054982973078,0.10138217915167444,1.348259969893123,0.7041619380456741,0.2885582375,0.6132493411034472
0.01,1.7975,1.0,1365.3423810943,0.10642271489879221,1.3471421318636494,0.7232745914229147,0.288548,0.6157281259093134
0.0105,1.79724375,1.0,1439.8348080214819,0.11143497705597782,1.3460817523297066,0.7406834247051199,0.2885372375,0.618072132348213
0.011,1.796975,1.0,1511.4796903119893,0.11641912408890215,1.3450746300541723,0.7565627650643835,0.28852595000000003,0.6202917719801535
0.0115,1.79669375,1.0,1580.264417774119,0.12137531388231562,1.3441167699000183,0.7710694173890486,0.2885141375,0.6223968388825826
0.012,1.7964,1.0,1646.2070951997057,0.12630370395691307,1.3432044082855819,0.7843437515452091,0.28850180000000003,0.6243964736394887
0.0125,1.79609375,1.0,1709.3157046522338,0.13120444950573876,1.3423344068217555,0.7965111831343344,0.2884889375,0.6262983224043265
0.013000000000000001,1.7957750000000001,1.0,1769.6275649965448,0.13607770542919578,1.3415037066690911,0.8076833310259902,0.28847555,0.6281097523318602
0.0135,1.79544375,1.0,1827.1940619811317,0.14092362587957308,1.3407094559638177,0.8179594760316783,0.2884616375,0.6298375848751254
0.014,1.7951000000000001,1.0,1882.100998457999,0.14574236544089939,1.3399487396160512,0.8274277934738886,0.2884472,0.6314886939842418
0.0145,1.79474375,1.0,1934.4039031094844,0.15053407576857197,1.3392192543354493,0.8361668406355554,0.2884322375,0.6330685506635898
0.015,1.794375,1.0,1984.1658706266307,0.15529890789455977,1.3385188405647228,0.8442464923021863,0.28841675,0.63458225313366
0.0155,1.79399375,1.0,2031.468580173236,0.16003701285083174,1.337845338746582,0.8517289074535053,0.2884007375,0.6360348440280843
0.016,1.7936,1.0,2076.3950156809206,0.16474854047599452,1.3371967526202715,0.8586694907297038,0.2883842,0.6374309630814523
0.0165,1.7931937500000001,1.0,2119.048014505614,0.1694336412506537,1.3365710340615136,0.8651176266613657,0.2883671375,0.6387753157868734
0.017,1.792775,1.0,2159.495956056041,0.17409246226527422,1.3359666271620947,0.8711175489014631,0.28834955,0.640071509672596
0.0175,1.7923437500000001,1.0,2197.8155079173675,0.17872515042954878,1.3353820010046926,0.876708811928643,0.2883314375,0.6413230656954348
0.018000000000000002,1.7919,1.0,2234.093108762039,0.18333185265317012,1.3348156246719847,0.8819268343137017,0.2883128,0.6425334740928211
0.0185,1.79144375,1.0,2268.4066737923526,0.18791271420111239,1.3342661413104595,0.8868034257846975,0.2882936375,0.6437058251703314
0.019,1.790975,1.0,2300.86151692931,0.19246788237110776,1.3337319985616065,0.8913671126542252,0.28827395,0.6448436005614664
0.0195,1.79049375,1.0,2331.524557356361,0.19699749992055146,1.3332120956127298,0.8956436693880151,0.2882537375,0.6459492963564191
0.02,1.79,1.0,2360.465200959391,0.20150170929680833,1.3327053628992496,0.899656329796473,0.288233,0.6470253236545875
0.0205,1.78949375,1.0,2387.7579916515874,0.20598065294724308,1.3322107308565851,0.9034260651102499,0.2882117375,0.6480740762236401
0.021,1.788975,1.0,2413.4807604991433,0.2104344730404347,1.3317271436210463,0.9069718379310093,0.28818995000000003,0.6490979023757071
0.021500000000000002,1.78844375,1.0,2437.7050126325357,0.214863310232315,1.3312536472239977,0.9103108403295533,0.2881676375,0.6500989196454058
0.022,1.7879,1.0,2460.5099968519967,0.2192673071144931,1.3307892489056206,0.913458657913871,0.2881448,0.6510793138024726
0.0225,1.78734375,1.0,2481.952460039145,0.22364660131787992,1.330333203183459,0.9164294946074638,0.28812143749999997,0.652040736207129
0.023,1.786775,1.0,2502.0918540977214,0.2280013304733862,1.3298847645750576,0.919236271572866,0.28809755,0.6529848281290143
0.0235,1.78619375,1.0,2520.9901107529345,0.23233163221192277,1.329443187597961,0.9218907608056683,0.28807313749999996,0.6539132211265772
0.024,1.7856,1.0,2538.711428672683,0.23663764416440053,1.329007726769714,0.9244037032202802,0.2880482,0.6548275373910243
0.0245,1.78499375,1.0,2555.309174035234,0.24091950077611707,1.3285777577839493,0.9267849330221419,0.2880227375,0.6557291361277817
0.025,1.784375,1.0,2570.8518621696844,0.245177342292335,1.3281525305714725,0.9290434296985993,0.28799675,0.6566196322689375
0.025500000000000002,1.78374375,1.0,2585.386643448481,0.24941130241925122,1.3277315106951844,0.9311874541105323,0.2879702375,0.6575001814332024
0.026000000000000002,1.7831000000000001,1.0,2598.956854375094,0.25362151338125427,1.3273142114842622,0.9332245923654763,0.2879432,0.6583718334197566
0.0265,1.78244375,1.0,2611.606981948952,0.25780810740273263,1.3269001462678838,0.9351618134824285,0.2879156375,0.6592356325575134
0.027,1.781775,1.0,2623.382565232057,0.26197121670807494,1.326488828375227,0.9370055278667068,0.28788755,0.6600926178130473
0.0275,1.7810937500000001,1.0,2634.330102166262,0.26611097352166957,1.3260797711354695,0.9387616395317603,0.2878589375,0.6609438228834179
0.028,1.7804,1.0,2644.495247079322,0.27022750933980016,1.3256725037110104,0.9404355948414835,0.2878298,0.661790243388399
0.0285,1.77969375,1.0,2653.91553891407,0.2743209524466035,1.3252666372267694,0.9420324326467231,0.2878001375,0.6626326999591492
0.029,1.778975,1.0,2662.6438371043887,0.27839143888491136,1.3248616477251567,0.9435567943186918,0.28776995,0.6634722890219904
0.029500000000000002,1.7782437500000001,1.0,2670.709909517073,0.2824390949064359,1.3244572296169015,0.9450130012925496,0.2877392375,0.6643096497108587
0.03,1.7775,1.0,2678.1439907273184,0.28646404676288906,1.3240530773127333,0.9464050567117356,0.287708,0.6651454179979202
0.0305,1.77674375,1.0,2684.976740934894,0.290466420705983,1.3236488852233812,0.9477366729108868,0.2876762375,0.6659802267017303
0.031,1.775975,1.0,2691.239206950054,0.2944463429874298,1.3232443477595748,0.9490112962012405,0.28764395,0.6668147054894359
0.0315,1.7751937500000001,1.0,2696.9627852502445,0.2984039398589414,1.3228391593320432,0.9502321292525252,0.2876111375,0.6676494808730218
0.032,1.7744,1.0,2702.1791871073406,0.30233933757222997,1.322433014351516,0.9514021513304072,0.2875778,0.6684851761996018
0.0325,1.77359375,1.0,2706.90936712673,0.3062526569716138,1.3220257079836708,0.9525241470683982,0.2875439375,0.6693222047117844
0.033,1.772775,1.0,2711.1882405219267,0.31014402734246516,1.3216169100427517,0.9536006995521559,0.28750955,0.6701612346127314
0.0335,1.7719437500000002,1.0,2715.0482353008697,0.31401357552500464,1.3212063151561928,0.9546342208028141,0.2874746375,0.6710028797952186
0.034,1.7711000000000001,1.0,2718.508261389477,0.31786142110371807,1.3207937428882166,0.9556269752292815,0.2874392,0.6718474952926301
0.0345,1.7702437500000001,1.0,2721.587371644989,0.3216876836630913,1.3203790128030464,0.9565810791165879,0.2874032375,0.6726954341688312
0.035,1.7693750000000001,1.0,2724.3047475435214,0.3254924827876103,1.3199619444649042,0.957498512046741,0.28736675,0.67354704749438
0.035500000000000004,1.76849375,1.0,2726.6796855899083,0.32927593806176075,1.3195423574380127,0.9583811273124545,0.2873297375,0.6744026843206548
0.036000000000000004,1.7676,1.0,2728.7315844490295,0.3330381690700287,1.319120071286595,0.9592306614230222,0.2872922,0.6752626916519088
0.0365,1.76669375,1.0,2730.479932799436,0.3367792953968999,1.3186949055748733,0.9600487427908729,0.2872541375,0.6761274144152505
0.037,1.765775,1.0,2731.9442979083847,0.3404994366268603,1.3182666798670704,0.9608368996778316,0.28721555,0.6769971954285452
0.0375,1.76484375,1.0,2733.1430337104894,0.3441987106347584,1.3178352253654353,0.9615965682453494,0.2871764375,0.6778723517758385
0.038,1.7639,1.0,2734.0906922212125,0.3478772313023819,1.3174004083189588,0.9623291009499898,0.28713679999999997,0.6787531275476986
0.0385,1.76294375,1.0,2734.808514475692,0.35153512450091595,1.3169620346550501,0.9630357667058871,0.28709663750000003,0.6796398870769478
0.039,1.761975,1.0,2735.3076203019928,0.3551725030474071,1.3165200025836574,0.9637177659218105,0.28705595,0.680532806009061
0.0395,1.7609937500000001,1.0,2735.599160794181,0.3587894797589019,1.3160742103147287,0.9643762293696978,0.2870147375,0.6814320585903082
0.04,1.76,1.0,2735.6943139426176,0.36238616745244695,1.3156245560582123,0.9650122229655004,0.286973,0.6823378176436748
0.0405,1.7589937500000001,1.0,2735.604280495316,0.3659626789450888,1.3151709380240562,0.9656267521729391,0.2869307375,0.6832502545441217
0.041,1.757975,1.0,2735.3402800481413,0.36951912705387413,1.3147132544222084,0.9662207660635698,0.28688795,0.6841695391931835
0.0415,1.75694375,1.0,2734.913547365059,0.37305562459584946,1.3142514034626174,0.9667951610632963,0.2868446375,0.6850958399929059
0.042,1.7559,1.0,2734.335328928404,0.3765722843880614,1.3137852833552306,0.9673507844125524,0.28680079999999997,0.6860293238191252
0.0425,1.75484375,1.0,2733.616879718251,0.38006921924755643,1.3133147923099968,0.9678884373647555,0.2867564375,0.6869701559940802
0.043000000000000003,1.753775,1.0,2732.761157132035,0.3835465231410071,1.3128399039637104,0.9684088812860583,0.28671155,0.6879183497703332
0.043500000000000004,1.75269375,1.0,2731.7882077236045,0.3870043302089663,1.3123604367629522,0.9689128309682918,0.28666613750000003,0.6888742268662555
0.044,1.7516,1.0,2730.706509378664,0.39044275171014753,1.3118763142336334,0.9694009683492351,0.2866202,0.6898378973853443
0.0445,1.75049375,1.0,2729.5217213187607,0.39386189267915267,1.3113874855239631,0.9698739409505264,0.2865737375,0.6908094191934429
0.045,1.7493750000000001,1.0,2728.239503990838,0.39726185815058357,1.3108938997821509,0.970332362966705,0.28652675,0.6917888491015496
0.0455,1.74824375,1.0,2726.865518037664,0.400642753159042,1.3103955061564059,0.9707768173013276,0.2864792375,0.6927762428504739
0.046,1.7471,1.0,2725.4054233252036,0.40400468273912993,1.3098922537949373,0.9712078574596749,0.2864312,0.6937716550953257
0.0465,1.7459437500000001,1.0,2723.864878026954,0.4073477519254491,1.309384091845955,0.9716260093094267,0.28638263750000004,0.6947751393898396
0.047,1.744775,1.0,2722.2495377661494,0.41067206575260146,1.3088709694576677,0.9720317727196917,0.28633355,0.6957867481705373
0.0475,1.74359375,1.0,2720.565054815356,0.4139777292551888,1.3083528357782852,0.9724256230878682,0.28628393750000003,0.6968065327407202
0.048,1.7424,1.0,2718.8170773525194,0.4172648474678129,1.3078296399560168,0.9728080127629939,0.2862338,0.697834543254302
0.0485,1.74119375,1.0,2717.011248775657,0.4205335254250757,1.3073013311390715,0.973179372373502,0.2861831375,0.6988708286994729
0.049,1.739975,1.0,2715.1532070736353,0.4237838681615791,1.306767858475659,0.9735401120666279,0.28613195,0.6999154368822004
0.0495,1.73874375,1.0,2713.2485842551355,0.42701598071192487,1.3062291711139886,0.9738906226661052,0.2860802375,0.7009684144095647
0.05,1.7375,1.0,2711.2954464127897,0.43022995277675496,1.3056852871448024,0.9742312795958195,0.286028,0.7020296722678563
0.0505,1.73624375,1.0,2709.300511032561,0.43342589514069535,1.3051361457662372,0.9745624381416916,0.2859752375,0.7030992747032069
0.051000000000000004,1.734975,1.0,2707.274651038018,0.4366039235748625,1.3045816481709334,0.9748844353590587,0.28592195,0.7041773584103246
0.051500000000000004,1.73369375,1.0,2705.219940303639,0.4397641345844088,1.3040217757481347,0.9751975960439101,0.2858681375,0.7052639026497158
0.052000000000000005,1.7324,1.0,2703.138450117328,0.4429066246744865,1.3034565098870847,0.9755022304036512,0.2858138,0.7063588858646355
0.0525,1.73109375,1.0,2701.032249072681,0.44603149035024786,1.3028858319770267,0.9757986348367649,0.28575893750000003,0.707462285674695
0.053,1.729775,1.0,2698.9034029689183,0.44913882811684536,1.302309723407204,0.9760870926642816,0.28570355000000003,0.7085740788694508
0.0535,1.72844375,1.0,2696.7539747185383,0.4522287344794311,1.3017281655668602,0.976367874816425,0.2856476375,0.7096942414019687
0.054,1.7271,1.0,2694.586024262646,0.45530130594315754,1.301141139845239,0.9766412404775402,0.2855912,0.7108227483823666
0.0545,1.7257437500000001,1.0,2692.4016084939985,0.4583566390131769,1.3005486276315834,0.9769074376921714,0.2855342375,0.7119595740713387
0.055,1.724375,1.0,2690.202781187559,0.46139483019464156,1.299950610315137,0.9771667039349322,0.28547675,0.7131046918736506
0.0555,1.72299375,1.0,2687.991592939033,0.4644159759927037,1.2993470692851434,0.9774192666466214,0.2854187375,0.7142580743316185
0.056,1.7216,1.0,2685.770091110846,0.4674201729125157,1.298737985930846,0.977665343738841,0.2853602,0.7154196931185638
0.0565,1.72019375,1.0,2683.540319785839,0.4704075174592299,1.2981233416414883,0.9779051440692156,0.28530113749999997,0.7165895190322462
0.057,1.718775,1.0,2681.304319728841,0.47337810613799847,1.2975031178063137,0.9781388678891477,0.28524155,0.7177675219882738
0.0575,1.71734375,1.0,2679.064128355424,0.47633203545397385,1.2968772958145656,0.9783667072659081,0.2851814375,0.7189536710134915
0.058,1.7159,1.0,2676.8232998110575,0.479269375966597,1.2962458431030415,0.9785888434354872,0.2851208,0.720147960600026
0.0585,1.71444375,1.0,2674.582991737608,0.4821902522262464,1.295608749059871,0.97880545624846,0.2850596375,0.7213503427272268
0.059000000000000004,1.7129750000000001,1.0,2672.343841285734,0.48509475513172146,1.294966007836801,0.979016715749461,0.28499795,0.7225607596327176
0.059500000000000004,1.71149375,1.0,2670.106556693363,0.4879829730320584,1.2943176129224747,0.9792227850177324,0.2849357375,0.7237791540931644
0.06,1.71,1.0,2667.8718450114156,0.49085499427629353,1.293663557805535,0.9794238207454021,0.284873,0.7250054681664386
0.0605,1.7084937500000001,1.0,2665.6404121060887,0.49371090721346306,1.2930038359746245,0.9796199735352187,0.2848097375,0.7262396431892708
0.061,1.7069750000000001,1.0,2663.412962660915,0.4965508001926033,1.2923384409183865,0.9798113881821816,0.28474595,0.727481619774895
0.0615,1.7054437500000001,1.0,2661.1902001806347,0.49937476156275035,1.2916673661254632,0.9799982039400593,0.2846816375,0.7287313378106984
0.062,1.7039,1.0,2658.9728269959114,0.5021828796729406,1.290990605084498,0.9801805547737091,0.2846168,0.7299887364558603
0.0625,1.70234375,1.0,2656.7615442683095,0.5049752428722103,1.2903081512841335,0.9803585695980608,0.2845514375,0.7312537541389945
0.063,1.7007750000000001,1.0,2654.5570519969856,0.5077519395095956,1.2896199982130125,0.9805323725045606,0.28448555,0.7325263285557864
0.0635,1.69919375,1.0,2652.360049026226,0.5105130579341329,1.2889261393597782,0.9807020829758208,0.28441913750000003,0.7338063966666264
0.064,1.6976,1.0,2650.171233053142,0.5132586864948583,1.2882265682130734,0.9808678160891746,0.2843522,0.7350938946942429
0.0645,1.69599375,1.0,2647.991300637576,0.5159889135408081,1.2875212782615404,0.981029682709784,0.2842847375,0.7363887581213324
0.065,1.694375,1.0,2645.820947211774,0.5187038274210186,1.2868102629938227,0.9811877896739089,0.28421675,0.7376909216881832
0.0655,1.69274375,1.0,2643.661039158816,0.5214035059503233,1.2860935143093488,0.9813422391473207,0.2841482375,0.739000322289944
0.066,1.6911,1.0,2641.513043758843,0.5240879950258975,1.2853710185426093,0.9814931271696845,0.2840792,0.7403169061733219
0.0665,1.6894437500000001,1.0,2639.3760404810228,0.526757451900663,1.2846427840781942,0.9816405550727534,0.2840096375,0.7416405786741533
0.067,1.687775,1.0,2637.250101221986,0.5294119557814521,1.283908810137635,0.9817846148425453,0.28393955,0.7429712612443633
0.0675,1.68609375,1.0,2635.135297801703,0.5320515858750973,1.2831690959424638,0.9819253952491199,0.2838689375,0.7443088746910962
0.068,1.6844000000000001,1.0,2633.0317019649237,0.5346764213884309,1.282423640714212,0.9820629819799296,0.2837978,0.745653339176434
0.0685,1.68269375,1.0,2630.939385382697,0.5372865415282855,1.2816724436744116,0.9821974577667361,0.2837261375,0.7470045742171092
0.069,1.680975,1.0,2628.858419654321,0.5398820255014936,1.2809155040445943,0.9823289025064458,0.28365395,0.7483624986842203
0.0695,1.67924375,1.0,2626.788876308698,0.5424629525148874,1.2801528210462918,0.9824573933761905,0.28358123749999997,0.7497270308029478
0.07,1.6775,1.0,2624.730826806311,0.5450294017752998,1.279384393901036,0.9825830049429711,0.283508,0.7510980881522663
0.07050000000000001,1.67574375,1.0,2622.684342540797,0.5475814524895629,1.2786102218303586,0.982705809268149,0.2834342375,0.7524755876646633
0.07100000000000001,1.673975,1.0,2620.6494948404684,0.5501191838645094,1.2778303040557912,0.9828258760070657,0.28335995,0.7538594456258502
0.07150000000000001,1.67219375,1.0,2618.626354970494,0.5526426751069716,1.2770446397988657,0.9829432725040448,0.2832851375,0.7552495776744794
0.07200000000000001,1.6704,1.0,2616.614994134254,0.5551520054237821,1.2762532282811139,0.9830580638830216,0.2832098,0.7566458988018584
0.0725,1.66859375,1.0,2614.6154834752233,0.5576472540217731,1.2754560687240675,0.9831703131340279,0.2831339375,0.7580483233516639
0.073,1.6667750000000001,1.0,2612.627894078805,0.5601285001077774,1.2746531603492581,0.9832800811957465,0.28305755,0.7594567650196579
0.0735,1.66494375,1.0,2610.6522969739544,0.5625958228886273,1.2738445023782177,0.9833874270343402,0.2829806375,0.7608711368534004
0.074,1.6631,1.0,2608.6887631351324,0.5650493015711552,1.273030094032478,0.9834924077187452,0.2829032,0.7622913512519651
0.0745,1.6612437500000001,1.0,2606.7373634839864,0.5674890153621938,1.2722099345335705,0.9835950784926086,0.2828252375,0.7637173199656546
0.075,1.659375,1.0,2604.7981688913055,0.5699150434685752,1.2713840231030273,0.98369549284304,0.28274675,0.7651489540957128
0.0755,1.65749375,1.0,2602.8712501789155,0.5723274650971322,1.27055235896238,0.9837937025663389,0.2826677375,0.7665861640940418
