Time [s],Phi [rad],STIM [ ],Fsee [N],Gamma [ ],Lcerel [ ],q [ ],Lmtc [m],fisomrel [ ]
0.0,1.8,1.0,18.7728636924297,0.0009148455980879014,1.3792504701372372,0.005215155171749211,0.288653,0.5413554875659583
0.0005,1.79999375,1.0,19.351740080755757,0.006518923346564781,1.3791846827231513,0.01564214757311289,0.2886527375,0.5415145930744358
0.001,1.799975,1.0,23.365849013641938,0.012091566650215713,1.3787632919420485,0.04047821457002643,0.28865195,0.5425330633840005
0.0015,1.79994375,1.0,34.340430602289494,0.017632951830668403,1.3777744824237508,0.07716554371062334,0.2886506375,0.5449184962674338
0.002,1.7999,1.0,59.84241579694083,0.023143254222162558,1.3759732289170346,0.12242595610425971,0.2886488,0.5492478671482753
0.0025,1.79984375,1.0,106.97869928534982,0.02862264817390415,1.3734715318393442,0.17291884113917164,0.28864643749999996,0.5552264505917529
0.003,1.7997750000000001,1.0,173.37519415492986,0.03407130705829026,1.370758196491044,0.22586122388348762,0.28864354999999997,0.5616656879295548
0.0035,1.79969375,1.0,251.48921549771086,0.03948940327402469,1.3681654786924624,0.2791281952957321,0.2886401375,0.5677748096273916
0.004,1.7996,1.0,336.0244984045614,0.04487710825214527,1.3657747829433404,0.3311472772669474,0.2886362,0.5733699239883681
0.0045000000000000005,1.7994937500000001,1.0,424.25628311451123,0.05023459247293122,1.3635741398346128,0.3808388367861967,0.2886317375,0.578488025648984
0.005,1.799375,1.0,514.6288935690369,0.055562025375312685,1.3615374424230609,0.42754276911366773,0.28862675,0.5831973141779081
0.0055,1.79924375,1.0,606.1164747690649,0.060859575763397615,1.3596413182012865,0.4709235212642779,0.2886212375,0.5875577877628857
0.006,1.7991000000000001,1.0,697.8061465854594,0.06612741093088925,1.3578700578955396,0.5108805430868228,0.2886152,0.591610400707408
0.006500000000000001,1.79894375,1.0,789.0452384385014,0.07136569774681747,1.3562096503132932,0.5474686175095532,0.2886086375,0.595391214998984
0.007,1.798775,1.0,879.244182340281,0.07657460191745183,1.3546498058867962,0.580841088819697,0.28860155,0.5989270254606435
0.0075,1.79859375,1.0,967.9297803784165,0.08175428821516668,1.3531817480914687,0.6112064854112944,0.2885939375,0.6022406020888211
0.008,1.7984,1.0,1054.7231561724102,0.08690492071725331,1.3517978800969477,0.6387993587056184,0.2885858,0.6053515674722374
0.0085,1.79819375,1.0,1139.311560857328,0.09202666207129385,1.3504917030988854,0.6638611222595375,0.2885771375,0.6082766774835546
0.009000000000000001,1.797975,1.0,1221.473890042773,0.09711967428876697,1.3492570845871605,0.6866276343278851,0.28856795,0.6110315333726946
0.0095,1.79774375,1.0,1301.0578425810947,0.10218411938244988,1.34808835019624,0.7073222395934775,0.2885582375,0.6136304223777418
0.01,1.7975,1.0,1377.9138865244665,0.10722015671221706,1.3469809346193318,0.7261523992851318,0.288548,0.6160849203147163
0.0105,1.79724375,1.0,1451.9606973092548,0.11222794552649616,1.3459303149313648,0.743307579346978,0.2885372375,0.6184063048835675
0.011,1.796975,1.0,1523.1592360732297,0.1172076443950121,1.3449322413228617,0.7589592351493659,0.28852595000000003,0.620605066632612
0.0115,1.79669375,1.0,1591.5161935049484,0.1221594118458303,1.3439825946057797,0.7732614182445638,0.2885141375,0.622691245562104
0.012,1.7964,1.0,1657.0211324668835,0.12708340374249572,1.3430780448197341,0.7863521920003081,0.28850180000000003,0.6246730075340194
0.0125,1.79609375,1.0,1719.6919352409434,0.1319797755000279,1.3422154037255263,0.7983546584517248,0.2884889375,0.6265580913679052
0.013000000000000001,1.7957750000000001,1.0,1779.5769503451472,0.1368486821949862,1.3413915478206568,0.8093783476246201,0.28847555,0.628353989402475
0.0135,1.79544375,1.0,1836.742713221788,0.14169027862124745,1.3406035133239549,0.8195206572054138,0.2884616375,0.6300677509929161
0.014,1.7951000000000001,1.0,1891.2491480619005,0.14650471797143227,1.3398487229440457,0.8288682533713617,0.2884472,0.6317055022745577
0.0145,1.79474375,1.0,1943.1521414429992,0.15129215174901367,1.3391249038331312,0.8374982434274182,0.2884322375,0.6332726390311528
0.015,1.794375,1.0,1992.5282254685526,0.1560527314574646,1.338429783143414,0.8454791723377187,0.28841675,0.6347744957956052
0.0155,1.79399375,1.0,2039.456430582183,0.1607866075377771,1.3377612600526525,0.8528720819965475,0.2884007375,0.6362159796162132
0.016,1.7936,1.0,2084.0401053443184,0.16549393150494338,1.3371171521258007,0.8597313175233208,0.2883842,0.6376021229036662
0.0165,1.7931937500000001,1.0,2126.3516173789303,0.1701748514351583,1.336495753924924,0.8661054861820329,0.2883671375,0.6389368864492888
0.017,1.792775,1.0,2166.4641533106455,0.174829514578433,1.3358954760491564,0.8720380262693702,0.28834955,0.6402239450564753
0.0175,1.7923437500000001,1.0,2204.46165473281,0.17945806818477855,1.335314729097631,0.8775677840188376,0.2883314375,0.6414669402110404
0.018000000000000002,1.7919,1.0,2240.43194718357,0.18406065881992148,1.334751983422991,0.8827295685366702,0.2883128,0.6426693545738952
0.0185,1.79144375,1.0,2274.4660723512507,0.1886374331372124,1.3342057649811219,0.8875546215680435,0.2882936375,0.6438345237671657
0.019,1.790975,1.0,2306.646988814651,0.19318853646176792,1.3336747574345678,0.8920710535286288,0.28827395,0.6449654217186938
0.0195,1.79049375,1.0,2337.0421451104753,0.19771411148175091,1.3331578630762921,0.8963042137260392,0.2882537375,0.6460645353011434
0.02,1.79,1.0,2365.72460151139,0.20221430088532436,1.3326539841992584,0.9002769516273935,0.288233,0.6471343328965546
0.0205,1.78949375,1.0,2392.7725625082917,0.20668924736065125,1.3321620230964302,0.9040098970882553,0.2882117375,0.6481772653459394
0.021,1.788975,1.0,2418.258121529479,0.21113909191949753,1.3316809864946002,0.907521727925615,0.28818995000000003,0.6491955459118904
0.021500000000000002,1.78844375,1.0,2442.2663462612813,0.21556397787394496,1.3312097956056472,0.9108293450426368,0.2881676375,0.650191553873933
0.022,1.7879,1.0,2464.863050234911,0.21996404499793842,1.330747592974491,0.9139481243160209,0.2881448,0.6511671866759581
0.0225,1.78734375,1.0,2486.1047956409107,0.2243394310337699,1.3302936390585207,0.916892057774782,0.28812143749999997,0.6521240816246162
0.023,1.786775,1.0,2506.050805181174,0.22869027372373127,1.3298471943151262,0.9196738768429902,0.28809755,0.6530638660792072
0.0235,1.78619375,1.0,2524.7627403171014,0.23301671081011438,1.3294075192016965,0.9223051833522701,0.28807313749999996,0.6539881578232907
0.024,1.7856,1.0,2542.304491644408,0.23731888003521112,1.328973874175621,0.9247965653716747,0.2880482,0.6548985654014117
0.0245,1.78499375,1.0,2558.7299884795493,0.24159691570538122,1.3285456322841673,0.9271577178539108,0.2880227375,0.6557964525095559
0.025,1.784375,1.0,2574.1096777633647,0.24585095799196335,1.3281220279033805,0.9293974927446045,0.28799675,0.6566834655758074
0.025500000000000002,1.78374375,1.0,2588.4874831078546,0.250081139562998,1.3277025590147769,0.9315240433034423,0.2879702375,0.6575606913748938
0.026000000000000002,1.7831000000000001,1.0,2601.907629586451,0.2542875928085555,1.3272867324952191,0.9335448526125475,0.2879432,0.6584291923871266
0.0265,1.78244375,1.0,2614.4154839671974,0.2584704501187063,1.3268740552215703,0.9354667964860743,0.2879156375,0.6592900255835645
0.027,1.781775,1.0,2626.057455865941,0.26262984388352084,1.326464034070693,0.9372962008902147,0.28788755,0.6601442425328106
0.0275,1.7810937500000001,1.0,2636.880904289605,0.2667659064930694,1.3260561759194502,0.9390388932346975,0.2878589375,0.6609928894922976
0.028,1.7804,1.0,2646.923844520997,0.2708787665400972,1.3256500818404782,0.9407002605501873,0.2878298,0.6618368118536029
0.0285,1.77969375,1.0,2656.2365235737702,0.27496855914743584,1.325245246714892,0.9422852645141122,0.2878001375,0.662677071075794
0.029,1.778975,1.0,2664.8574478564024,0.2790354142341424,1.3248412800312648,0.9437985062392219,0.28776995,0.6635144859300046
0.029500000000000002,1.7782437500000001,1.0,2672.8174167250877,0.2830794582863242,1.3244378672950174,0.945244253231573,0.2877392375,0.6643497138554231
0.03,1.7775,1.0,2680.1476980914363,0.2871008177900885,1.3240346940115713,0.946626459386138,0.287708,0.6651834090460058
0.0305,1.77674375,1.0,2686.879986293632,0.2910996192315426,1.3236314456863476,0.9479487920087878,0.2876762375,0.6660162224584332
0.031,1.775975,1.0,2693.046362160641,0.2950759890967938,1.3232278078247677,0.9492146561910514,0.28764395,0.6668488018137597
0.0315,1.7751937500000001,1.0,2698.679255269029,0.2990300538719494,1.3228234659322529,0.9504272168256821,0.2876111375,0.6676817915927538
0.032,1.7744,1.0,2703.811408393001,0.3029619400431167,1.3224181055142243,0.9515894185168727,0.2875778,0.6685158330249314
0.0325,1.77359375,1.0,2708.4696065477874,0.30687176841666414,1.322011468993186,0.9527040087255658,0.2875439375,0.6693514471838344
0.033,1.772775,1.0,2712.686273360735,0.3107596701028291,1.3216032494703571,0.9537735458102716,0.28750955,0.6701892536036583
0.0335,1.7719437500000002,1.0,2716.48182314549,0.3146257657457027,1.3211932514743177,0.9548004266768227,0.2874746375,0.6710296403295783
0.034,1.7711000000000001,1.0,2719.876677708317,0.3184701758329885,1.320781280948338,0.9557868898797699,0.2874392,0.6718729904118097
0.0345,1.7702437500000001,1.0,2722.8914050330322,0.3222930208523901,1.3203671438356877,0.9567350278422599,0.2874032375,0.6727196847913388
0.035,1.7693750000000001,1.0,2725.5467038966394,0.3260944212916109,1.3199506460796375,0.9576467981014202,0.28736675,0.6735701022743066
0.035500000000000004,1.76849375,1.0,2727.863389320382,0.32987449763835475,1.3195315936234577,0.958524033563811,0.2873297375,0.674424619503997
0.036000000000000004,1.7676,1.0,2729.862378855243,0.33363337038032503,1.3191097924104183,0.9593684518683757,0.2872922,0.6752836109304202
0.0365,1.76669375,1.0,2731.5584139337016,0.3373711527523213,1.3186851053157669,0.96018166807177,0.2872541375,0.6761473330672149
0.037,1.765775,1.0,2732.970806611489,0.3410879649805269,1.3182573543417895,0.9609651955839248,0.28721555,0.677016123747974
0.0375,1.76484375,1.0,2734.1274231283332,0.34478393895692894,1.317826284407844,0.9617204509641232,0.2871764375,0.6778904749346435
0.038,1.7639,1.0,2735.0400307017703,0.34845918777629686,1.3173917871866458,0.962448775977219,0.28713679999999997,0.6787705785282746
0.0385,1.76294375,1.0,2735.7204383209955,0.35211382453340007,1.316953754350911,0.9631514328854891,0.28709663750000003,0.6796566250091273
0.039,1.761975,1.0,2736.1804915497764,0.3557479623230078,1.3165120775733554,0.9638296100199943,0.28705595,0.6805488034126219
0.0395,1.7609937500000001,1.0,2736.4320675905683,0.3593617142398895,1.3160666485266943,0.9644844269037268,0.2870147375,0.6814473013045379
0.04,1.76,1.0,2736.487070607327,0.3629551933788145,1.3156173588836437,0.9651169389670126,0.286973,0.6823523047554632
0.0405,1.7589937500000001,1.0,2736.3574273099775,0.36652851283455207,1.3151641003169192,0.9657281418915973,0.2869307375,0.683263998314499
0.041,1.757975,1.0,2736.055082797715,0.37008178570187167,1.3147067644992367,0.9663189756162693,0.28688795,0.6841825649822129
0.0415,1.75694375,1.0,2735.591996663669,0.3736151250755426,1.314245243103312,0.9668903280336395,0.2868446375,0.6851081861828454
0.042,1.7559,1.0,2734.980139358886,0.37712864405033425,1.3137794278018606,0.9674430384048555,0.28680079999999997,0.6860410417357683
0.0425,1.75484375,1.0,2734.231488817219,0.3806224557210159,1.3133092102675985,0.9679779005164442,0.2867564375,0.6869813098261919
0.043000000000000003,1.753775,1.0,2733.355061392738,0.3840966668399616,1.31283450911355,0.9684956667833098,0.28671155,0.6879291132260337
0.043500000000000004,1.75269375,1.0,2732.3571196268085,0.3875513863542047,1.3123552680040342,0.968997052077053,0.28666613750000003,0.688884523437908
0.044,1.7516,1.0,2731.250409322001,0.3909867371511129,1.3118713717270685,0.9694827312080319,0.2866202,0.6898477279881272
0.0445,1.75049375,1.0,2730.0408036562453,0.3944028243324257,1.3113827675047405,0.9699533460955242,0.2865737375,0.6908187885876554
0.045,1.7493750000000001,1.0,2728.7341767300722,0.39779975299988285,1.3108894025591376,0.9704095056742734,0.28652675,0.6917977658686942
0.0455,1.74824375,1.0,2727.336402500925,0.40117762825522385,1.310391224112347,0.9708517879063933,0.2864792375,0.6927847193687462
0.046,1.7471,1.0,2725.853353779135,0.4045365552001885,1.309888179386457,0.9712807416517842,0.2864312,0.6937797075144996
0.0465,1.7459437500000001,1.0,2724.290901285652,0.40787663893651627,1.3093802156035543,0.9716968884082778,0.28638263750000004,0.6947827876055429
0.047,1.744775,1.0,2722.654912771241,0.41119798456594686,1.3088672799857268,0.9721007239317332,0.28633355,0.695794015797891
0.0475,1.74359375,1.0,2720.9512521981246,0.4145006971902199,1.308349319755062,0.9724927197454292,0.28628393750000003,0.6968134470873424
0.048,1.7424,1.0,2719.185778982465,0.4177848819110751,1.3078262821336473,0.9728733245472849,0.2862338,0.6978411352926537
0.0485,1.74119375,1.0,2717.36434729976,0.4210506438302519,1.3072981143435702,0.973242965522707,0.2861831375,0.6988771330385397
0.049,1.739975,1.0,2715.492805450512,0.42429808804949015,1.3067647636069184,0.9736020495702119,0.28613195,0.6999214917384933
0.0495,1.73874375,1.0,2713.573918551248,0.4275273105467878,1.3062262051941038,0.9739509652683097,0.2860802375,0.7009742067998044
0.05,1.7375,1.0,2711.6088063939615,0.4307384090131885,1.30568242935725,0.9742900843175499,0.286028,0.7020352435658478
0.0505,1.73624375,1.0,2709.6086557588424,0.43393150960039156,1.305133334505159,0.974619758435481,0.2859752375,0.7031047454520496
0.051000000000000004,1.734975,1.0,2707.575852912362,0.43710670913987715,1.3045788992211227,0.9749403251482933,0.28592195,0.7041826981800039
0.051500000000000004,1.73369375,1.0,2705.5127812453566,0.44026410446312536,1.3040191020884333,0.9752521067051482,0.2858681375,0.7052690866241798
0.052000000000000005,1.7324,1.0,2703.4218211336415,0.4434037924016163,1.3034539216903829,0.9755554109007791,0.2858138,0.706363894804614
0.0525,1.73109375,1.0,2701.3053498085374,0.44652586978683007,1.3028833366102637,0.975850531846874,0.28575893750000003,0.7074671058795718
0.053,1.729775,1.0,2699.1657412376258,0.4496304334502468,1.3023073254313677,0.9761377506958381,0.28570355000000003,0.7085787021381796
0.0535,1.72844375,1.0,2697.0053660155813,0.4527175802233465,1.3017258667369873,0.976417336320265,0.2856476375,0.7096986649930286
0.054,1.7271,1.0,2694.8265912652682,0.45578740693760944,1.3011389391104144,0.9766895459511766,0.2855912,0.7108269749727492
0.0545,1.7257437500000001,1.0,2692.631780549138,0.4588400104245156,1.3005465211349412,0.9769546257778652,0.2855342375,0.7119636117145547
0.055,1.724375,1.0,2690.423293790145,0.4618754875155452,1.2999485913938598,0.9772128115119487,0.28547675,0.7131085539567581
0.0555,1.72299375,1.0,2688.2034872039076,0.46489393504217824,1.2993451284704625,0.977464328918054,0.2854187375,0.7142617795312574
0.056,1.7216,1.0,2685.974713240089,0.46789544983589487,1.2987361109480413,0.9777093943133649,0.2853602,0.7154232653559935
0.0565,1.72019375,1.0,2683.739320534379,0.4708801287281752,1.2981215174098881,0.9779482150380998,0.28530113749999997,0.7165929874273782
0.057,1.718775,1.0,2681.4996538708033,0.4738480685504993,1.2975013264392956,0.9781809898988348,0.28524155,0.7177709208126903
0.0575,1.71734375,1.0,2679.249801040413,0.47679934147293285,1.2968755923373991,0.9784079117080852,0.2851814375,0.7189568962829032
0.058,1.7159,1.0,2676.9969290209197,0.4797340637742804,1.2962442494518465,0.9786291626180789,0.2851208,0.7201509715137506
0.0585,1.71444375,1.0,2674.7461772563556,0.48265233869026264,1.295607250637215,0.9788449173345575,0.2850596375,0.7213531676361824
0.059000000000000004,1.7129750000000001,1.0,2672.4981313719113,0.48555425445616957,1.2949645905003289,0.9790553446269434,0.28499795,0.7225634258640731
0.059500000000000004,1.71149375,1.0,2670.253376006875,0.488439899307291,1.2943162636480123,0.9792606066110628,0.2849357375,0.7237816867100564
0.06,1.71,1.0,2668.012494816434,0.4913093614789169,1.2936622646870897,0.9794608590613966,0.284873,0.7250078899835768
0.0605,1.7084937500000001,1.0,2665.776070475027,0.4941627292063373,1.2930025882243852,0.9796562517063321,0.2848097375,0.7262419747889394
0.061,1.7069750000000001,1.0,2663.5446846796326,0.497000090724842,1.292337228866723,0.9798469285074705,0.28474595,0.7274838795233586
0.0615,1.7054437500000001,1.0,2661.318918153955,0.4998215342697211,1.2916661812209271,0.9800330279239586,0.2846816375,0.728733541875004
0.062,1.7039,1.0,2659.0993506535515,0.5026271480762643,1.2909894398938222,0.9802146831627613,0.2846168,0.7299908988210448
0.0625,1.70234375,1.0,2656.8865609707636,0.5054170203797618,1.2903069994922323,0.9803920224157175,0.2845514375,0.7312558866256922
0.063,1.7007750000000001,1.0,2654.6811269413543,0.5081912394155033,1.2896188546229816,0.9805651690841738,0.28448555,0.7325284408382405
0.0635,1.69919375,1.0,2652.483625451218,0.5109498934187787,1.2889249998928944,0.9807342419919347,0.28441913750000003,0.7338084962911063
0.064,1.6976,1.0,2650.294632443239,0.5136930706248782,1.288225429908795,0.980899355587213,0.2843522,0.7350959870978646
0.0645,1.69599375,1.0,2648.1147229262297,0.5164208592690916,1.2875201392775073,0.9810606201342332,0.2842847375,0.7363908466512845
0.065,1.694375,1.0,2645.9444709829168,0.5191333475867088,1.286809122605856,0.9812181418950816,0.28421675,0.7376930076213618
0.0655,1.69274375,1.0,2643.7844497796186,0.5218306238130197,1.286092374500665,0.9813720233023697,0.2841482375,0.7390024019533523
0.066,1.6911,1.0,2641.634353675889,0.5245127562481628,1.285369897680165,0.9815223621484592,0.2840792,0.740318946103355
0.0665,1.6894437500000001,1.0,2639.494369507886,0.5271798408154388,1.2846416903153441,0.9816692544313383,0.2840096375,0.7416425642041573
0.067,1.687775,1.0,2637.3653752300197,0.5298319796824681,1.2839077441838718,0.981812792863552,0.28393955,0.7429731913023764
0.0675,1.68609375,1.0,2635.2474876301576,0.5324692528067385,1.2831680580920077,0.9819530657584643,0.2838689375,0.7443107489681164
0.068,1.6844000000000001,1.0,2633.140823348229,0.535091740145738,1.2824226308460112,0.9820901583649061,0.2837978,0.745655158118679
0.0685,1.68269375,1.0,2631.045498878202,0.5376995216569542,1.2816714612521414,0.9822241529932618,0.2837261375,0.7470063390181232
0.069,1.680975,1.0,2628.9616305714158,0.5402926772978751,1.2809145481166577,0.9823551291355146,0.28365395,0.7483642112768303
0.0695,1.67924375,1.0,2626.8893346384248,0.5428712870259885,1.28015189024582,0.9824831635795832,0.28358123749999997,0.7497286938510652
0.07,1.6775,1.0,2624.828727152328,0.5454354307987822,1.279383486445887,0.982608330518255,0.283508,0.751099705042541
0.07050000000000001,1.67574375,1.0,2622.7799240508107,0.547985188573744,1.2786093355231185,0.9827307016530085,0.2834342375,0.7524771624979796
0.07100000000000001,1.673975,1.0,2620.743041139144,0.5505206403083617,1.2778294362837739,0.982850346292994,0.28335995,0.7538609832086749
0.07150000000000001,1.67219375,1.0,2618.718194092873,0.5530418659601232,1.2770437875341123,0.9829673314494319,0.2832851375,0.7552510835100563
0.07200000000000001,1.6704,1.0,2616.705498460558,0.5555489454865162,1.276252388080393,0.9830817219256681,0.2832098,0.7566473790812496
0.0725,1.66859375,1.0,2614.7050696664255,0.5580419588450286,1.2754552367288758,0.9831935804031129,0.2831339375,0.7580497849446396
0.073,1.6667750000000001,1.0,2612.71702301334,0.5605209859931483,1.2746523322858199,0.9833029675232785,0.28305755,0.7594582154654324
0.0735,1.66494375,1.0,2610.74147368564,0.562986106888363,1.2738436735574845,0.9834099419661153,0.2829806375,0.7608725843512176
0.074,1.6631,1.0,2608.7785367516944,0.5654374014881607,1.2730292593501293,0.9835145605248363,0.2829032,0.76229280465153
0.0745,1.6612437500000001,1.0,2606.8283271673486,0.567874949750029,1.2722090884700135,0.9836168781774101,0.2828252375,0.763718788757412
0.075,1.659375,1.0,2604.889969378035,0.5702987810748131,1.271383168938569,0.9837169457295961,0.28274675,0.7651504324517222
0.0755,1.65749375,1.0,2602.963204194628,0.5727090235531983,1.2705515030527765,0.9838148176276718,0.2826677375,0.7665876409307508
