Time [s],Phi [rad],STIM [ ],Fsee [N],Gamma [ ],Lcerel [ ],q [ ],Lmtc [m],fisomrel [ ]
0.0,1.8,1.0,19.320401218733593,0.001187137430231498,1.379190889741495,0.005361439483908055,0.288653,0.5414995827074405
0.0005,1.79999375,1.0,19.968616321878145,0.006789687836847455,1.3791186126086272,0.01652851744521745,0.2886527375,0.5416743545080027
0.001,1.799975,1.0,24.189129300986778,0.01236081236552786,1.3786831115139144,0.04200291375737409,0.28865195,0.5427267253001922
0.0015,1.79994375,1.0,35.6617993212775,0.017900687290659835,1.3776684130986916,0.0791822850460491,0.2886506375,0.5451740106744772
0.002,1.7999,1.0,62.10678457201883,0.023409487897789943,1.3758355147010237,0.1247694687869374,0.2886488,0.549578016229007
0.0025,1.79984375,1.0,110.30276758148545,0.02888738848932675,1.3733200803047005,0.17543983187114043,0.28864643749999996,0.5555871098255483
0.003,1.7997750000000001,1.0,177.4039903953765,0.03433456238982147,1.3706137297308632,0.2284431940821749,0.28864354999999997,0.5620072172671515
0.0035,1.79969375,1.0,255.88397673763632,0.039751181951429314,1.3680344465095804,0.28168291542012935,0.2886401375,0.5680824176734274
0.004,1.7996,1.0,340.6099985098906,0.04513741856031796,1.3656563930827756,0.3336114529070214,0.2886362,0.5736460529263223
0.0045000000000000005,1.7994937500000001,1.0,428.9439103605062,0.05049344264474029,1.3634663614644562,0.38317141542503685,0.2886317375,0.5787378956753484
0.005,1.799375,1.0,519.3591884036448,0.055819423580929485,1.361438647652653,0.4297207447812445,0.28862675,0.5834250764764712
0.0055,1.79924375,1.0,610.856663635355,0.06111553018491658,1.3595500628483288,0.47293706736132923,0.2886212375,0.5877670673015396
0.006,1.7991000000000001,1.0,702.5288305557799,0.06638192967255421,1.3577853008304697,0.5127291059211483,0.2886152,0.5918038217782218
0.006500000000000001,1.79894375,1.0,793.7105416186621,0.07161878881987674,1.3561308957431133,0.5491578204656669,0.2886086375,0.5955701055395657
0.007,1.798775,1.0,883.8338838723364,0.07682627335174848,1.354576396530344,0.5823799120870975,0.28860155,0.5990930453557282
0.0075,1.79859375,1.0,972.4272254831432,0.08200454799392624,1.3531131791070505,0.6126057993713603,0.2885939375,0.6023950342503573
0.008,1.7984,1.0,1059.1132761465874,0.08715377667481766,1.351733752744574,0.6400707693467819,0.2885858,0.6054954310593712
0.0085,1.79819375,1.0,1143.5841844300642,0.09227412199471938,1.350431647409183,0.6650162016330055,0.2885771375,0.6084109071877742
0.009000000000000001,1.797975,1.0,1225.632072238121,0.09736574652499638,1.3492006325446941,0.687677415579351,0.28856795,0.6111572647652599
0.0095,1.79774375,1.0,1305.080966046278,0.10242881125014472,1.3480354244373087,0.7082772379690793,0.2885582375,0.6137479060482857
0.01,1.7975,1.0,1381.7946242006633,0.10746347584339555,1.3469313227988233,0.7270222011980109,0.288548,0.616194697898784
0.0105,1.79724375,1.0,1455.7011664089773,0.11246989967139896,1.3458837288064454,0.7441008499596182,0.2885372375,0.6185090757236906
0.011,1.796975,1.0,1526.7768731007593,0.11744824187334368,1.34488824847553,0.7596837118100839,0.28852595000000003,0.6207018369371209
0.0115,1.79669375,1.0,1595.0003817637655,0.12239865976725678,1.343941142560606,0.773924201837916,0.2885141375,0.6227821761929364
0.012,1.7964,1.0,1660.3630051890832,0.12732130934838526,1.3430390780455672,0.786959616967239,0.28850180000000003,0.624758261905763
0.0125,1.79609375,1.0,1722.8956083760195,0.13221634652532302,1.342178733960608,0.798912308548742,0.2884889375,0.6266381187025367
0.013000000000000001,1.7957750000000001,1.0,1782.6517780177435,0.13708392636450295,1.3413569489202686,0.8098911712825243,0.28847555,0.6284293157648124
0.0135,1.79544375,1.0,1839.692297747498,0.14192420372882691,1.3405708432731094,0.8199930834107895,0.2884616375,0.6301387140058775
0.014,1.7951000000000001,1.0,1894.0634696734528,0.14673733070943376,1.3398180026579876,0.8293042746394902,0.2884472,0.6317720824921427
0.0145,1.79474375,1.0,1945.834891510625,0.15152345939746237,1.3390960127137606,0.8379013583621109,0.2884322375,0.6333351216888685
0.015,1.794375,1.0,1995.0862693991148,0.156282741051966,1.3384025778249682,0.8458524841471562,0.28841675,0.6348332121218634
0.0155,1.79399375,1.0,2041.91259782861,0.16101532768627744,1.3377354399836265,0.8532183042140818,0.2884007375,0.6362715962342672
0.016,1.7936,1.0,2086.3949065546544,0.16572136922695144,1.337092663412624,0.8600529442523209,0.2883842,0.6376547712799218
0.0165,1.7931937500000001,1.0,2128.5999764566404,0.1704010132962864,1.3364726055370222,0.8664047616374151,0.2883671375,0.6389865616171158
0.017,1.792775,1.0,2168.606512097752,0.17505440751658077,1.3358736237818833,0.8723169409862053,0.28834955,0.6402707552539091
0.0175,1.7923437500000001,1.0,2206.504138669573,0.17968169951013302,1.3352940755722698,0.8778281050815212,0.2883314375,0.6415111061420187
0.018000000000000002,1.7919,1.0,2242.3780654828843,0.18428303547013397,1.334732462674956,0.8829728881128679,0.2883128,0.6427110281618598
0.0185,1.79144375,1.0,2276.3249900992046,0.1888585630060047,1.3341872587018975,0.887782356570992,0.2882936375,0.6438739672235685
0.019,1.790975,1.0,2308.4176079841536,0.19340842607389475,1.3336572533802007,0.8922845035438616,0.28827395,0.6450026698558053
0.0195,1.79049375,1.0,2338.725652820178,0.19793276753961378,1.333141328577882,0.8965045445189456,0.2882537375,0.646099665795165
0.02,1.79,1.0,2367.324507821078,0.20243173026897146,1.3326383661629568,0.9004652103009397,0.288233,0.6471674660600724
0.0205,1.78949375,1.0,2394.2947305784865,0.20690545712777753,1.3321472480034418,0.9041870253804271,0.2882117375,0.6482085639149877
0.021,1.788975,1.0,2419.706271072832,0.21135408883485243,1.3316670040064933,0.9076885830704293,0.28818995000000003,0.6492251226191224
0.021500000000000002,1.78844375,1.0,2443.6474975880924,0.21577776926999162,1.331196525611145,0.9109866982830338,0.2881676375,0.6502195836195985
0.022,1.7879,1.0,2466.1785675918723,0.22017663721684577,1.330735011555422,0.9140966867646815,0.2881448,0.6511937249089124
0.0225,1.78734375,1.0,2487.3570336843477,0.2245508305731839,1.330281714017588,0.9170324745127031,0.28812143749999997,0.6521492008469523
0.023,1.786775,1.0,2507.243113996655,0.22890048723677492,1.329835885175908,0.919806733838133,0.28809755,0.6530876557724019
0.0235,1.78619375,1.0,2525.8994685592197,0.23322574510538774,1.3293967772086466,0.9224310135735174,0.28807313749999996,0.654010724376777
0.024,1.7856,1.0,2543.3860331565857,0.2375267411384061,1.3289636889510923,0.9249158621745225,0.2880482,0.6549199341571716
0.0245,1.78499375,1.0,2559.7610398348816,0.24180361182576215,1.32853595370287,0.9272709266624325,0.2880227375,0.6558167319022501
0.025,1.784375,1.0,2575.0934802403413,0.24605649518694,1.3281128204341526,0.9295050228893882,0.28799675,0.6567027329934488
0.025500000000000002,1.78374375,1.0,2589.4260524676793,0.25028552381452646,1.3276937992720135,0.9316262722013243,0.2879702375,0.6575789984651573
0.026000000000000002,1.7831000000000001,1.0,2602.80269148852,0.2544908303011082,1.3272784003435263,0.9336421275050198,0.2879432,0.6584465837646127
0.0265,1.78244375,1.0,2615.268465836013,0.258672547239272,1.3268661337757643,0.9355594372956021,0.2879156375,0.6593065388727173
0.027,1.781775,1.0,2626.8694796099126,0.2628308072216046,1.3264565096958012,0.9373845027709591,0.28788755,0.6601599084095513
0.0275,1.7810937500000001,1.0,2637.6527798022066,0.26696574284069285,1.3260490382307102,0.9391231288536945,0.2878589375,0.6610077317245819
0.028,1.7804,1.0,2647.660645484281,0.27107748260948306,1.325643281406629,0.9407806757886544,0.2878298,0.6618509351872546
0.0285,1.77969375,1.0,2656.941241663904,0.2751661621891427,1.3252387537863455,0.942362089604536,0.2878001375,0.6626905390162785
0.029,1.778975,1.0,2665.52714189567,0.2792319088419739,1.324835119764237,0.9438719608200863,0.28776995,0.6635272479839089
0.029500000000000002,1.7782437500000001,1.0,2673.4511775599076,0.2832748496511501,1.3244320462308468,0.9453145384281617,0.2877392375,0.6643617582221484
0.03,1.7775,1.0,2680.746660757585,0.2872951116998448,1.324029200076718,0.9466937594164218,0.287708,0.6651947624287062
0.0305,1.77674375,1.0,2687.4473397084957,0.29129282207123147,1.3236262481923937,0.9480132756323254,0.2876762375,0.6660269498753673
0.031,1.775975,1.0,2693.5873566095775,0.2952681078484837,1.323222857468417,0.9492764780177458,0.28764395,0.6668590064092836
0.0315,1.7751937500000001,1.0,2699.1959345005184,0.2992210925224922,1.322818742997324,0.95048652336548,0.2876111375,0.6676915152092721
0.032,1.7744,1.0,2704.2990684255383,0.30315189927318636,1.3224136520623633,0.9516463527012522,0.2875778,0.6685249903182697
0.0325,1.77359375,1.0,2708.941232890499,0.30706066558844225,1.3220071656642398,0.9527586894968276,0.2875439375,0.6693602846329172
0.033,1.772775,1.0,2713.1422150020912,0.31094751159979866,1.3215990924839551,0.9538260943116349,0.28750955,0.6701977796986496
0.0335,1.7719437500000002,1.0,2716.9219799538423,0.3148125574387944,1.3211892412025117,0.9548509563411072,0.2874746375,0.6710378550247282
0.034,1.7711000000000001,1.0,2720.3006542171597,0.31865592323696823,1.3207774205009113,0.9558355069217871,0.2874392,0.6718808880637166
0.0345,1.7702437500000001,1.0,2723.298509543655,0.322477729125859,1.320363439060156,0.95678183182047,0.2874032375,0.6727272541886152
0.035,1.7693750000000001,1.0,2725.935947778912,0.3262780952370055,1.3199471055612477,0.9576918824296363,0.28736675,0.6735773266676652
0.035500000000000004,1.76849375,1.0,2728.2334864882237,0.33005714170194655,1.3195282286851886,0.9585674859779312,0.2873297375,0.6744314766368171
0.036000000000000004,1.7676,1.0,2730.2117453930523,0.3338149886522209,1.3191066171129808,0.9594103548525754,0.2872922,0.6752900730698643
0.0365,1.76669375,1.0,2731.8914336202465,0.3375517562193674,1.3186820795256262,0.9602220951201207,0.2872541375,0.6761534827462451
0.037,1.765775,1.0,2733.293337761489,0.34126756453492485,1.3182544246041268,0.9610042143227082,0.28721555,0.6770220702165057
0.0375,1.76484375,1.0,2734.4319938940607,0.34496253217727507,1.3178235183954383,0.9617581338804027,0.2871764375,0.6778960814883435
0.038,1.7639,1.0,2735.323259859523,0.3486367746941845,1.3173892154158968,0.9624851882833309,0.28713679999999997,0.6787757842400557
0.0385,1.76294375,1.0,2735.982714585251,0.35229040758330143,1.3169513731277338,0.9631866332744571,0.28709663750000003,0.6796614383687629
0.039,1.761975,1.0,2736.4240438886313,0.35592354615747307,1.31650986652802,0.9638636526815129,0.28705595,0.6805532665510683
0.0395,1.7609937500000001,1.0,2736.6599543177877,0.35953630551031757,1.3160645797908839,0.9645173626073005,0.2870147375,0.6814514713061608
0.04,1.7600059413085316,1.0,2736.987175256127,0.36312880045744556,1.3156155023074219,0.965148824621175,0.28697324953495834,0.682356041783271
0.0405,1.759018128708307,1.0,2737.7075035037783,0.3667011446188903,1.3151628552714385,0.9657590602628261,0.2869317614057489,0.6832665008200074
0.041,1.7580303161080826,1.0,2738.789717664611,0.3702534504797213,1.3147069251642667,0.9663490390799363,0.2868902732765395,0.6841822425180251
0.0415,1.757042503507858,1.0,2740.202452976389,0.37378583052500797,1.3142479984672395,0.966919676678433,0.28684878514733003,0.6851026640922635
0.042,1.7560546909076336,1.0,2741.9165441944588,0.3772983966184059,1.3137863419967208,0.9674718365396874,0.2868072970181206,0.686027205281623
0.0425,1.755066878307409,1.0,2743.9041400877086,0.38079126053226603,1.3133222108030975,0.968006334192202,0.2867658088889112,0.686955332326082
0.043000000000000003,1.7540790657071845,1.0,2746.143111587978,0.3842645321189539,1.312855808108677,0.9685239367898749,0.2867243207597018,0.6878866177699832
0.043500000000000004,1.75309125310696,1.0,2748.6116974885113,0.3877183211051057,1.3123873338026282,0.9690253704223353,0.2866828326304923,0.6888206431112416
0.044,1.7521034405067355,1.0,2751.2944040795314,0.3911527335295378,1.3119169309479057,0.9695113179737754,0.28664134450128287,0.6897571051914522
0.0445,1.751115627906511,1.0,2754.164858090216,0.39456788228304646,1.3114448410110842,0.9699824354845845,0.28659985637207347,0.6906955070394787
0.045,1.7501278153062865,1.0,2757.2001135323308,0.39796387909872377,1.3109712741484492,0.9704393426221293,0.286558368242864,0.6916354166278382
0.0455,1.749140002706062,1.0,2760.3887272291827,0.4013408290259353,1.310496336228511,0.9708826186795493,0.2865168801136546,0.6925766109332637
0.046,1.7481521901058374,1.0,2763.719242108049,0.4046988371140466,1.3100201331197798,0.971312813810304,0.28647539198444516,0.6935188681772768
0.0465,1.747164377505613,1.0,2767.180184106748,0.4080380084124231,1.3095427706907665,0.9717304507756224,0.28643390385523576,0.6944619678350878
0.047,1.7461765649053884,1.0,2770.760059327338,0.4113584479704304,1.3090643548099814,0.9721360265712299,0.2863924157260263,0.6954056906437818
0.0475,1.7451887523051641,1.0,2774.4473514400242,0.414660260837434,1.3085849913459349,0.9725300139427562,0.2863509275968169,0.6963498186097874
0.048,1.7442009397049396,1.0,2778.2305193339203,0.41794355206279943,1.3081047861671373,0.9729128627984054,0.28630943946760745,0.6972941350156332
0.0485,1.743213127104715,1.0,2782.097995017634,0.42120842669589226,1.307623845142099,0.9732850015267493,0.286267951338398,0.6982384244259883
0.049,1.7422253145044906,1.0,2786.0415335176926,0.42445498593693604,1.3071422439839118,0.9736468356982518,0.2862264632091886,0.6991825317618853
0.0495,1.741237501904266,1.0,2790.051533970775,0.4276833356192902,1.3066600704096272,0.973998753243598,0.2861849750799792,0.7001262793889111
0.05,1.7402496893040416,1.0,2794.1187786197997,0.43089358088918456,1.3061774084641913,0.9743411237501329,0.28614348695076974,0.7010694979150248
0.0505,1.739261876703817,1.0,2798.2384698075684,0.43408582105722354,1.3056943022834666,0.9746742965134659,0.2861019988215603,0.7020120967838793
0.051000000000000004,1.7382740641035925,1.0,2802.4057967992444,0.4372601554340116,1.3052107960033155,0.9749986049460253,0.2860605106923509,0.702953985979026
0.051500000000000004,1.737286251503368,1.0,2806.6159353689354,0.44041668333015316,1.3047269337596004,0.9753143674409308,0.28601902256314143,0.7038950760251025
0.052000000000000005,1.7362984389031435,1.0,2810.864047430336,0.4435555040562526,1.3042427596881838,0.9756218881815718,0.28597753443393203,0.7048352779888968
0.0525,1.735310626302919,1.0,2815.1452807092564,0.4466767169229144,1.303758317924928,0.975921457900755,0.2859360463047226,0.7057745034802884
0.053,1.7343228137026945,1.0,2819.4547684608447,0.449780421240743,1.3032736526056956,0.9762133545929657,0.2858945581755132,0.7067126646530608
0.0535,1.73333500110247,1.0,2823.7876292285923,0.4528667163203429,1.3027888078663488,0.9764978441830227,0.2858530700463037,0.7076496742055973
0.054,1.7323471885022454,1.0,2828.1425320593203,0.4559356901360748,1.302303796004694,0.9767751780968074,0.2858115819170943,0.7085855067638789
0.0545,1.731359375902021,1.0,2832.5139469759174,0.4589874480822811,1.301818666749471,0.9770456010188936,0.28577009378788487,0.7095200650560323
0.055,1.7303715633017964,1.0,2836.8956438134633,0.4620220984131213,1.3013334759198973,0.9773093479094389,0.2857286056586754,0.7104532407207674
0.0555,1.729383750701572,1.0,2841.28611963288,0.46503973359552536,1.3008482370482857,0.9775666398925544,0.285687117529466,0.7113850072223804
0.056,1.7283959381013474,1.0,2845.683866817438,0.46804044609642315,1.300362963666949,0.9778176889306635,0.2856456294002566,0.7123153381926248
0.0565,1.7274081255011229,1.0,2850.0873730606363,0.47102432838274444,1.2998776693082004,0.9780626982796414,0.28560414127104716,0.713244207430745
0.057,1.7264203129008986,1.0,2854.4951213578856,0.47399147292141913,1.2993923675043526,0.9783018629177703,0.2855626531418377,0.7141715889035034
0.0575,1.7254325003006739,1.0,2858.9055900022363,0.47694197217937706,1.2989070717877187,0.9785353699502132,0.2855211650126283,0.71509745674519
0.058,1.7244446877004496,1.0,2863.3172525839796,0.47987591862354806,1.2984217956906114,0.9787633989905893,0.2854796768834189,0.7160217852576243
0.0585,1.723456875100225,1.0,2867.728577994534,0.4827934047208621,1.297936552745344,0.978986122521124,0.28543818875420945,0.7169445489101431
0.059000000000000004,1.7224690625000005,1.0,2872.1380304347,0.4856945229382489,1.2974513564842292,0.9792037062327341,0.285396700625,0.7178657223395792
0.059500000000000004,1.721481249899776,1.0,2876.5440694263993,0.4885793657426383,1.2969662204395798,0.9794163093463113,0.2853552124957906,0.7187852803502262
0.06,1.7204934372995515,1.0,2880.945149828444,0.49144802560096024,1.2964811581437088,0.9796240849163944,0.28531372436658115,0.7197031979137919
0.0605,1.719505624699327,1.0,2885.3397218572395,0.49430059498014456,1.2959961831289293,0.9798271801183115,0.28527223623737175,0.720619450169341
0.061,1.7185178120991025,1.0,2889.7262311103013,0.49713716634712113,1.2955113089275538,0.9800257365198219,0.2852307481081623,0.7215340124232266
0.0615,1.717529999498878,1.0,2894.1064062654996,0.499957797736522,1.295026520050484,0.9802198861645766,0.2851892599789529,0.7224469147541497
0.062,1.7165421868986535,1.0,2898.4764083273676,0.5027626229842002,1.2945418501666588,0.980409764511996,0.28514777184974344,0.723358094707913
0.0625,1.715554374298429,1.0,2902.8358477318334,0.5055517284843856,1.2940573024407156,0.980595496794414,0.28510628372053404,0.7242675474530915
0.063,1.7145665616982044,1.0,2907.184498074313,0.5083251985859769,1.2935728785916232,0.9807772034079444,0.2850647955913246,0.7251752709037885
0.0635,1.71357874909798,1.0,2911.522132467757,0.511083117637873,1.2930885803383498,0.9809550003526201,0.2850233074621151,0.7260812629950595
0.064,1.7125909364977554,1.0,2915.848523546692,0.5138255699889723,1.2926044093998643,0.9811289994255398,0.28498181933290573,0.7269855216828973
0.0645,1.7116031238975309,1.0,2920.16344347211,0.5165526399881736,1.2921203674951351,0.9812993084041628,0.28494033120369633,0.7278880449442193
0.065,1.7106153112973064,1.0,2924.466663936624,0.5192644119843755,1.2916364563431308,0.9814660312203262,0.2848988430744869,0.7287888307768531
0.0655,1.7096274986970819,1.0,2928.757956169281,0.5219609703264767,1.2911526776628204,0.9816292681255108,0.2848573549452774,0.7296878771995211
0.066,1.7086396860968573,1.0,2933.037090940649,0.5246423993633759,1.290669033173172,0.9817891158478653,0.284815866816068,0.7305851822518286
0.0665,1.7076518734966328,1.0,2937.30383856759,0.5273087834439716,1.2901855245931546,0.9819456677414454,0.28477437868685856,0.7314807439942463
0.067,1.7066640608964083,1.0,2941.5579689189535,0.5299602069171627,1.2897021536417366,0.9820990139281148,0.28473289055764917,0.7323745605080985
0.0675,1.705676248296184,1.0,2945.7992514202087,0.5325967541318477,1.2892189220378865,0.9822492414325138,0.2846914024284397,0.7332666298955453
0.068,1.7046884356959593,1.0,2950.0274550591307,0.5352185094369253,1.288735831500573,0.9823964343104795,0.28464991429923026,0.7341569502795686
0.0685,1.703700623095735,1.0,2954.242348391114,0.5378255571812942,1.2882528837487648,0.9825406737712825,0.28460842617002086,0.7350455198039576
0.069,1.7027128104955105,1.0,2958.4436995442343,0.540417981713853,1.2877700805014305,0.9826820382940163,0.28456693804081146,0.7359323366332915
0.0695,1.701724997895286,1.0,2962.631276225036,0.5429958673835005,1.2872874234775387,0.982820603738455,0.284525449911602,0.7368173989529253
0.07,1.7007371852950615,1.0,2966.805195777384,0.5455592668745324,1.286804911344111,0.9829564413755186,0.28448396178239255,0.7377007105513287
0.07050000000000001,1.699749372694837,1.0,2970.965640471286,0.5481082605281871,1.2863225422074789,0.9830896218081574,0.28444247365318315,0.7385822762240002
0.07100000000000001,1.6987615600946124,1.0,2975.112154351034,0.5506429825110775,1.2858403197370796,0.9832202167961833,0.28440098552397375,0.7394620906014162
0.07150000000000001,1.697773747494388,1.0,2979.2448131817623,0.553163507825106,1.2853582429672186,0.9833482920305547,0.2843594973947643,0.7403401567942023
